Z:\data\JTB-E02\BACandBLUE\JTB-E18-001-06.D Fri Mar 15 08:44:47 2019
Start of data points
2.09537	33992
2.10350	33535
2.11162	35918
2.11973	38473
2.12787	34151
2.13598	40113
2.14412	39043
2.15223	38448
2.16035	41593
2.16848	46207
2.17660	40570
2.18472	39395
2.19285	39722
2.20097	39629
2.20910	40574
2.21722	38752
2.22533	38458
2.23347	38333
2.24158	37311
2.24972	35688
2.25783	39297
2.26595	56351
2.27408	710125
2.28220	2967415
2.29033	2697893
2.29845	1087851
2.30657	596144
2.31470	458140
2.32282	403666
2.33093	343246
2.33907	300753
2.34718	273829
2.35532	225002
2.36343	206337
2.37155	185087
2.37968	179906
2.38780	180686
2.39593	159190
2.40405	152861
2.41217	151740
2.42030	159327
2.42842	190375
2.43655	153583
2.44467	144417
2.45278	141959
2.46092	137888
2.46903	120825
2.47715	114068
2.48528	107614
2.49340	105821
2.50153	110870
2.50965	105592
2.51777	102977
2.52590	92876
2.53402	97361
2.54215	95146
2.55027	104111
2.55838	100619
2.56652	121373
2.57463	106700
2.58277	101977
2.59088	95106
2.59900	88165
2.60713	93317
2.61525	107347
2.62337	114001
2.63150	102133
2.63962	98559
2.64775	90867
2.65587	91396
2.66398	83560
2.67212	86749
2.68023	86132
2.68837	80345
2.69648	84794
2.70460	77648
2.71273	84623
2.72085	79478
2.72897	77033
2.73710	75598
2.74522	76504
2.75335	77342
2.76147	74835
2.76958	77125
2.77772	68547
2.78583	75876
2.79397	71346
2.80208	72564
2.81020	76429
2.81833	71510
2.82645	74039
2.83458	71802
2.84270	69966
2.85082	69487
2.85895	69533
2.86707	74198
2.87518	76743
2.88332	71479
2.89143	73120
2.89957	71675
2.90768	69148
2.91580	79288
2.92393	75126
2.93205	67182
2.94018	65985
2.94830	71821
2.95642	68578
2.96455	65022
2.97267	69813
2.98078	69559
2.98892	64077
2.99703	67694
3.00517	64916
3.01328	64060
3.02140	60665
3.02953	61787
3.03765	62866
3.04578	66615
3.05390	59882
3.06202	65422
3.07015	63152
3.07827	60878
3.08640	62887
3.09452	65244
3.10263	67242
3.11077	83035
3.11888	91975
3.12700	87783
3.13513	77646
3.14325	76376
3.15138	70774
3.15950	67429
3.16762	66474
3.17575	59295
3.18387	64831
3.19200	63349
3.20012	63057
3.20823	66010
3.21637	61082
3.22448	57433
3.23262	66836
3.24073	53238
3.24885	58529
3.25698	59328
3.26510	59368
3.27322	58770
3.28135	56106
3.28947	79994
3.29760	271004
3.30572	938419
3.31383	2094435
3.32197	2946416
3.33008	2847559
3.33822	2308116
3.34633	1830177
3.35445	1484824
3.36258	1228918
3.37070	1050539
3.37882	909883
3.38695	791967
3.39507	708716
3.40320	640308
3.41132	585125
3.41943	542886
3.42757	498663
3.43568	473907
3.44382	438296
3.45193	417704
3.46005	388737
3.46818	374535
3.47630	370981
3.48443	349855
3.49255	328867
3.50067	324224
3.50880	300198
3.51692	291617
3.52503	287450
3.53317	281357
3.54128	270266
3.54942	257433
3.55753	255617
3.56565	243215
3.57378	242338
3.58190	231168
3.59003	230261
3.59815	222071
3.60627	218753
3.61440	218607
3.62252	218939
3.63065	215224
3.63877	202055
3.64688	203925
3.65502	196714
3.66313	191966
3.67125	193570
3.67938	183537
3.68750	178965
3.69563	178920
3.70375	176874
3.71187	173635
3.72000	169322
3.72812	167739
3.73625	164442
3.74437	156619
3.75248	158437
3.76062	156914
3.76873	155950
3.77685	156813
3.78498	153052
3.79310	158680
3.80123	152910
3.80935	157943
3.81747	153224
3.82560	156331
3.83372	152137
3.84185	148151
3.84997	140480
3.85808	143484
3.86622	142597
3.87433	136636
3.88247	142272
3.89058	136259
3.89870	139686
3.90683	133993
3.91495	130951
3.92307	133425
3.93120	128418
3.93932	134955
3.94745	134394
3.95557	132531
3.96368	132571
3.97182	128167
3.97993	125509
3.98807	127257
3.99618	129876
4.00430	119853
4.01243	123564
4.02055	126281
4.02867	128088
4.03680	127059
4.04492	120855
4.05305	125595
4.06117	122825
4.06928	119545
4.07742	122900
4.08553	113870
4.09367	119080
4.10178	117495
4.10990	113839
4.11803	119272
4.12615	115184
4.13428	115316
4.14240	115371
4.15052	131099
4.15865	134949
4.16677	140291
4.17488	130200
4.18302	123346
4.19113	114624
4.19927	113013
4.20738	115099
4.21550	115046
4.22363	112567
4.23175	121482
4.23988	124499
4.24800	125018
4.25612	124056
4.26425	112765
4.27237	108628
4.28050	108299
4.28862	107008
4.29673	111620
4.30487	111260
4.31298	102243
4.32110	106274
4.32923	114728
4.33735	116897
4.34548	113237
4.35360	111888
4.36172	104619
4.36985	110500
4.37797	108512
4.38610	107110
4.39422	105680
4.40233	103532
4.41047	104042
4.41858	98785
4.42670	98686
4.43483	101258
4.44295	100010
4.45108	99539
4.45920	98979
4.46732	100677
4.47545	96290
4.48357	95869
4.49170	98185
4.49982	95900
4.50793	94351
4.51607	92780
4.52418	96169
4.53232	94622
4.54043	94247
4.54855	95010
4.55668	92419
4.56480	96984
4.57292	92968
4.58105	90794
4.58917	93253
4.59730	96657
4.60542	88766
4.61353	92455
4.62167	93940
4.62978	89419
4.63792	90436
4.64603	90461
4.65415	85471
4.66228	88480
4.67040	92562
4.67853	88279
4.68665	94295
4.69477	91084
4.70290	92417
4.71102	93137
4.71913	85043
4.72727	81979
4.73538	85542
4.74352	85839
4.75163	91977
4.75975	89910
4.76788	90941
4.77600	86645
4.78413	90618
4.79225	89558
4.80037	88657
4.80850	83977
4.81662	88559
4.82473	83353
4.83287	84807
4.84098	93050
4.84912	84404
4.85723	88313
4.86535	89534
4.87348	92942
4.88160	87189
4.88973	89485
4.89785	83896
4.90597	88108
4.91410	86677
4.92222	87539
4.93035	86667
4.93847	96654
4.94658	146692
4.95472	297459
4.96283	585304
4.97095	911040
4.97908	1115150
4.98720	1102857
4.99533	940997
5.00345	775555
5.01157	635596
5.01970	535246
5.02782	473417
5.03595	425312
5.04407	385361
5.05218	362752
5.06032	338305
5.06843	317373
5.07657	299945
5.08468	287217
5.09280	278212
5.10093	259131
5.10905	257288
5.11717	234781
5.12530	234136
5.13342	222800
5.14155	222149
5.14967	211756
5.15778	211284
5.16592	216923
5.17403	201649
5.18217	200013
5.19028	195629
5.19840	194005
5.20653	190052
5.21465	185096
5.22277	191954
5.23090	178740
5.23902	178402
5.24715	179935
5.25527	181800
5.26338	180326
5.27152	172192
5.27963	159151
5.28777	155538
5.29588	154449
5.30400	150450
5.31213	152044
5.32025	146980
5.32838	152515
5.33650	140998
5.34462	150293
5.35275	145920
5.36087	145260
5.36898	141831
5.37712	138940
5.38523	137345
5.39337	133285
5.40148	137849
5.40960	133485
5.41773	135972
5.42585	127321
5.43398	127847
5.44210	135240
5.45022	132912
5.45835	120144
5.46647	131397
5.47458	120242
5.48272	127465
5.49083	116051
5.49897	122701
5.50708	116016
5.51520	127324
5.52333	122336
5.53145	117606
5.53958	113289
5.54770	119720
5.55582	113460
5.56395	114691
5.57207	121748
5.58020	114173
5.58832	122063
5.59643	121311
5.60457	114518
5.61268	112358
5.62080	116114
5.62893	118976
5.63705	117939
5.64518	124792
5.65330	119192
5.66142	118821
5.66955	118281
5.67767	121245
5.68580	130447
5.69392	140100
5.70203	142103
5.71017	133418
5.71828	131750
5.72642	117677
5.73453	118720
5.74265	117298
5.75078	112747
5.75890	104818
5.76702	104104
5.77515	111426
5.78327	105117
5.79140	103146
5.79952	100788
5.80763	101908
5.81577	105246
5.82388	102048
5.83202	108959
5.84013	103857
5.84825	105855
5.85638	103374
5.86450	95246
5.87262	104043
5.88075	101922
5.88887	103707
5.89700	94780
5.90512	96421
5.91323	92981
5.92137	84889
5.92948	78805
5.93762	77270
5.94573	74540
5.95385	79235
5.96198	73251
5.97010	79249
5.97823	84002
5.98635	83059
5.99447	91139
6.00260	85440
6.01072	76406
6.01883	86985
6.02697	78401
6.03508	74428
6.04322	73098
6.05133	75214
6.05945	74231
6.06758	74911
6.07570	70818
6.08383	72136
6.09195	71855
6.10007	74518
6.10820	67647
6.11632	72036
6.12445	73733
6.13257	72955
6.14068	77583
6.14882	79586
6.15693	75145
6.16505	78388
6.17318	79485
6.18130	82241
6.18943	86410
6.19755	85406
6.20567	82106
6.21380	93708
6.22192	85814
6.23005	89497
6.23817	93080
6.24628	85319
6.25442	98093
6.26253	98250
6.27065	99943
6.27878	96809
6.28690	102729
6.29503	104579
6.30315	110547
6.31127	108637
6.31940	115522
6.32752	120447
6.33565	119951
6.34377	116472
6.35188	120434
6.36002	118121
6.36813	123076
6.37627	118945
6.38438	125058
6.39250	125454
6.40063	128690
6.40875	126146
6.41687	132299
6.42500	134862
6.43312	130634
6.44125	136693
6.44937	143070
6.45748	141645
6.46562	146099
6.47373	147800
6.48187	143206
6.48998	149760
6.49810	147874
6.50623	140248
6.51435	150639
6.52247	152502
6.53060	151999
6.53872	157421
6.54685	155672
6.55497	160377
6.56308	153487
6.57122	118371
6.57933	109299
6.58747	96172
6.59558	91062
6.60370	88160
6.61183	87561
6.61995	88922
6.62808	86202
6.63620	86418
6.64432	83408
6.65245	85115
6.66057	88782
6.66868	83409
6.67682	92332
6.68493	100157
6.69307	94920
6.70118	93836
6.70930	95703
6.71743	92184
6.72555	91066
6.73368	91792
6.74180	92033
6.74992	94018
6.75805	86678
6.76617	85402
6.77430	81930
6.78242	81708
6.79053	80930
6.79867	78395
6.80678	79819
6.81490	79517
6.82303	78632
6.83115	77393
6.83928	73623
6.84740	75341
6.85552	78392
6.86365	71289
6.87177	75022
6.87990	88691
6.88802	91601
6.89613	83094
6.90427	86938
6.91238	74962
6.92050	67485
6.92863	65414
6.93675	56039
6.94488	63138
6.95300	61936
6.96112	55913
6.96925	56534
6.97737	52474
6.98550	53543
6.99362	50421
7.00173	56339
7.00987	50799
7.01798	53464
7.02612	52299
7.03423	53029
7.04235	58105
7.05048	54621
7.05860	54581
7.06672	53381
7.07485	51531
7.08297	51143
7.09110	52306
7.09922	48193
7.10733	49955
7.11547	55431
7.12358	51994
7.13172	56614
7.13983	45878
7.14795	51599
7.15608	49702
7.16420	52641
7.17233	51924
7.18045	51339
7.18857	49300
7.19670	52582
7.20482	50047
7.21293	48927
7.22107	52477
7.22918	50260
7.23732	50540
7.24543	50702
7.25355	53252
7.26168	49388
7.26980	48149
7.27793	49506
7.28605	55136
7.29417	49853
7.30230	50517
7.31042	49105
7.31853	51552
7.32667	46659
7.33478	44684
7.34292	45996
7.35103	51599
7.35915	47703
7.36728	45895
7.37540	42894
7.38353	50422
7.39165	45380
7.39977	44068
7.40790	49896
7.41602	49170
7.42415	48835
7.43227	46446
7.44038	46609
7.44852	50983
7.45663	48672
7.46475	48097
7.47288	51168
7.48100	47801
7.48913	47230
7.49725	47816
7.50537	47522
7.51350	48609
7.52162	47268
7.52975	45319
7.53787	46282
7.54598	46955
7.55412	47647
7.56223	44625
7.57035	48272
7.57848	45277
7.58660	44779
7.59473	43713
7.60285	46055
7.61097	45626
7.61910	42463
7.62722	43527
7.63535	47938
7.64347	46562
7.65158	46515
7.65972	47406
7.66783	47448
7.67597	45262
7.68408	49020
7.69220	44571
7.70033	40860
7.70845	41079
7.71657	43939
7.72470	44326
7.73282	45982
7.74095	48726
7.74907	39354
7.75718	43521
7.76532	41658
7.77343	42387
7.78157	41549
7.78968	41288
7.79780	42976
7.80593	44817
7.81405	43394
7.82218	37750
7.83030	41644
7.83842	45874
7.84655	41708
7.85467	44546
7.86278	42657
7.87092	43090
7.87903	44468
7.88717	40926
7.89528	37239
7.90340	43209
7.91153	40999
7.91965	41064
7.92778	39704
7.93590	38238
7.94402	42821
7.95215	40545
7.96027	39095
7.96840	39566
7.97652	44356
7.98463	40821
7.99277	41334
8.00088	40220
8.00900	44110
8.01713	39532
8.02525	40935
8.03338	40645
8.04150	37964
8.04962	42356
8.05775	39149
8.06587	41601
8.07400	38371
8.08212	38072
8.09023	41002
8.09837	41979
8.10648	44368
8.11460	41107
8.12273	45930
8.13085	45061
8.13898	42049
8.14710	43232
8.15522	39527
8.16335	43788
8.17147	42849
8.17960	44599
8.18772	45918
8.19583	45550
8.20397	43158
8.21208	39751
8.22022	44348
8.22833	43802
8.23645	40666
8.24458	41815
8.25270	38868
8.26082	41358
8.26895	40598
8.27707	41812
8.28520	41935
8.29332	41828
8.30143	43406
8.30957	38146
8.31768	41250
8.32582	42125
8.33393	44728
8.34205	42380
8.35018	46673
8.35830	45796
8.36642	45885
8.37455	41606
8.38267	41144
8.39080	38144
8.39892	39170
8.40703	40112
8.41517	35556
8.42328	35371
8.43142	37295
8.43953	39004
8.44765	38296
8.45578	54494
8.46390	282691
8.47203	583794
8.48015	416789
8.48827	171553
8.49640	105373
8.50452	91014
8.51263	80013
8.52077	71484
8.52888	73396
8.53702	74145
8.54513	71550
8.55325	75731
8.56138	71271
8.56950	59943
8.57763	57450
8.58575	60957
8.59387	57807
8.60200	58554
8.61012	56054
8.61825	56429
8.62637	57109
8.63448	53621
8.64262	58514
8.65073	57313
8.65885	53446
8.66698	49113
8.67510	54083
8.68323	49072
8.69135	51961
8.69947	51367
8.70760	47199
8.71572	46348
8.72385	46424
8.73197	43776
8.74008	45402
8.74822	45780
8.75633	45869
8.76445	46520
8.77258	55077
8.78070	80317
8.78883	119360
8.79695	187894
8.80507	263408
8.81320	300921
8.82132	301864
8.82945	260629
8.83757	228332
8.84568	205886
8.85382	191901
8.86193	182500
8.87007	188490
8.87818	330318
8.88630	551213
8.89443	499626
8.90255	367012
8.91067	280602
8.91880	241324
8.92692	215328
8.93505	198625
8.94317	178574
8.95128	171006
8.95942	157712
8.96753	152699
8.97567	139672
8.98378	138676
8.99190	132616
9.00003	128621
9.00815	122232
9.01628	120722
9.02440	112959
9.03252	116402
9.04065	109538
9.04877	108313
9.05688	107371
9.06502	106216
9.07313	100713
9.08127	100270
9.08938	100692
9.09750	101168
9.10563	99185
9.11375	97975
9.12188	98506
9.13000	93475
9.13812	91142
9.14625	91592
9.15437	90403
9.16248	93585
9.17062	84506
9.17873	87932
9.18687	91347
9.19498	87521
9.20310	86013
9.21123	84338
9.21935	81942
9.22748	83106
9.23560	79197
9.24372	83108
9.25185	83739
9.25997	79199
9.26810	84265
9.27622	76445
9.28433	79238
9.29247	80397
9.30058	77226
9.30870	82408
9.31683	79333
9.32495	81163
9.33308	74653
9.34120	67875
9.34932	73647
9.35745	71272
9.36557	72672
9.37370	73806
9.38182	99541
9.38993	149151
9.39807	186373
9.40618	164321
9.41430	136372
9.42243	123630
9.43055	110795
9.43868	110424
9.44680	97466
9.45492	93625
9.46305	94004
9.47117	87244
9.47930	88696
9.48742	82523
9.49553	81921
9.50367	80626
9.51178	81581
9.51992	78056
9.52803	73816
9.53615	77898
9.54428	80509
9.55240	79731
9.56052	82764
9.56865	72447
9.57677	75481
9.58490	65652
9.59302	72254
9.60113	70214
9.60927	72251
9.61738	70181
9.62552	70292
9.63363	64581
9.64175	62182
9.64988	60044
9.65800	56227
9.66613	56939
9.67425	56533
9.68237	55229
9.69050	59825
9.69862	54955
9.70673	52793
9.71487	54038
9.72298	54982
9.73112	55595
9.73923	53267
9.74735	56480
9.75548	52528
9.76360	52468
9.77173	46609
9.77985	47473
9.78797	48416
9.79610	47321
9.80422	46022
9.81233	48131
9.82047	50594
9.82858	48004
9.83672	50806
9.84483	51363
9.85295	51541
9.86108	57204
9.86920	58526
9.87733	52566
9.88545	45431
9.89357	50057
9.90170	53704
9.90982	50603
9.91795	45921
9.92607	46720
9.93418	43966
9.94232	51315
9.95043	48298
9.95855	51558
9.96668	43763
9.97480	49745
9.98293	49670
9.99105	49881
9.99917	50191
10.00730	49876
10.01542	49344
10.02355	54499
10.03167	55462
10.03978	55622
10.04792	59285
10.05603	59512
10.06417	56540
10.07228	59156
10.08040	61182
10.08853	61710
10.09665	69294
10.10477	71334
10.11290	80703
10.12102	87997
10.12915	92371
10.13727	95998
10.14538	94909
10.15352	74133
10.16163	66464
10.16977	60910
10.17788	61217
10.18600	62808
10.19413	59498
10.20225	61722
10.21037	61158
10.21850	59631
10.22662	57901
10.23475	62467
10.24287	63457
10.25098	60371
10.25912	56616
10.26723	58635
10.27537	56007
10.28348	63640
10.29160	67007
10.29973	82632
10.30785	102901
10.31598	134384
10.32410	174175
10.33222	203401
10.34035	197947
10.34847	185440
10.35658	167457
10.36472	137766
10.37283	130266
10.38097	123306
10.38908	112811
10.39720	108640
10.40533	105218
10.41345	95053
10.42158	101995
10.42970	92978
10.43782	95613
10.44595	89427
10.45407	90549
10.46220	87103
10.47032	84366
10.47843	84348
10.48657	81944
10.49468	79465
10.50280	77908
10.51093	81076
10.51905	76259
10.52718	74446
10.53530	77856
10.54342	77027
10.55155	70054
10.55967	74836
10.56780	71293
10.57592	71242
10.58403	70949
10.59217	68483
10.60028	74693
10.60840	70081
10.61653	67483
10.62465	72159
10.63278	69543
10.64090	72284
10.64902	68243
10.65715	65383
10.66527	65398
10.67340	64486
10.68152	62051
10.68963	62465
10.69777	66134
10.70588	64158
10.71402	65317
10.72213	59138
10.73025	63040
10.73838	64690
10.74650	62214
10.75462	61922
10.76275	60248
10.77087	62779
10.77900	62228
10.78712	63148
10.79523	60530
10.80337	61495
10.81148	59646
10.81962	59355
10.82773	58013
10.83585	56604
10.84398	56086
10.85210	56670
10.86022	56811
10.86835	53632
10.87647	52769
10.88460	59764
10.89272	56774
10.90083	55525
10.90897	52672
10.91708	55038
10.92522	49998
10.93333	51105
10.94145	52889
10.94958	53559
10.95770	53354
10.96583	54061
10.97395	51367
10.98207	48620
10.99020	50159
10.99832	54031
11.00643	59620
11.01457	64808
11.02268	73463
11.03082	71718
11.03893	68252
11.04705	63816
11.05518	58546
11.06330	58254
11.07143	58933
11.07955	54217
11.08767	58257
11.09580	56768
11.10392	54108
11.11205	53863
11.12017	49027
11.12828	49864
11.13642	47157
11.14453	43747
11.15265	43487
11.16078	39877
11.16890	42402
11.17703	44883
11.18515	43935
11.19327	49214
11.20140	53868
11.20952	51454
11.21765	53292
11.22577	52863
11.23388	46346
11.24202	47869
11.25013	46223
11.25825	46436
11.26638	47235
11.27450	43416
11.28263	41204
11.29075	43930
11.29887	44851
11.30700	43966
11.31512	44063
11.32325	43651
11.33137	41999
11.33948	44406
11.34762	41550
11.35573	42270
11.36387	34688
11.37198	41646
11.38010	42734
11.38823	44472
11.39635	41772
11.40447	38095
11.41260	36894
11.42072	39836
11.42885	38512
11.43697	38742
11.44508	40000
11.45322	41405
11.46133	39538
11.46947	38129
11.47758	41136
11.48570	39196
11.49383	37897
11.50195	38365
11.51008	43030
11.51820	41726
11.52632	42294
11.53445	38964
11.54257	40171
11.55068	41802
11.55882	40254
11.56693	37175
11.57507	41995
11.58318	39921
11.59130	41367
11.59943	38956
11.60755	39596
11.61568	39045
11.62380	38395
11.63192	38281
11.64005	35656
11.64817	38802
11.65628	36426
11.66442	34200
11.67253	38817
11.68067	40451
11.68878	37417
11.69690	39865
11.70503	39328
11.71315	40837
11.72128	41322
11.72940	43041
11.73752	42901
11.74565	39901
11.75377	40388
11.76190	38712
11.77002	39832
11.77813	39360
11.78627	42111
11.79438	41633
11.80250	40230
11.81063	38210
11.81875	38627
11.82688	41163
11.83500	41156
11.84312	38213
11.85125	35573
11.85937	42353
11.86750	40878
11.87562	39178
11.88373	39014
11.89187	39168
11.89998	35390
11.90810	38286
11.91623	36193
11.92435	37371
11.93248	38001
11.94060	37867
11.94872	39758
11.95685	39253
11.96497	37761
11.97310	36473
11.98122	37887
11.98933	33689
11.99747	38022
12.00558	36088
12.01372	36725
12.02183	34530
12.02995	38959
12.03808	39927
12.04620	38411
12.05432	35492
12.06245	33960
12.07057	34288
12.07870	32426
12.08682	38909
12.09493	36606
12.10307	35944
12.11118	35665
12.11932	34997
12.12743	35461
12.13555	36985
12.14368	36283
12.15180	42067
12.15993	39441
12.16805	41605
12.17617	37657
12.18430	40002
12.19242	45990
12.20053	39237
12.20867	37551
12.21678	38471
12.22492	34060
12.23303	37747
12.24115	37071
12.24928	37493
12.25740	36437
12.26553	35298
12.27365	39929
12.28177	39078
12.28990	36377
12.29802	34506
12.30613	38950
12.31427	36538
12.32238	37361
12.33052	36235
12.33863	36671
12.34675	35625
12.35488	37336
12.36300	35579
12.37113	34751
12.37925	35120
12.38737	37787
12.39550	37311
12.40362	32218
12.41175	33935
12.41987	36317
12.42798	38560
12.43612	37545
12.44423	37371
12.45235	37614
12.46048	38481
12.46860	35945
12.47673	43039
12.48485	43039
12.49297	44382
12.50110	41377
12.50922	40890
12.51735	41604
12.52547	41298
12.53358	40621
12.54172	34942
12.54983	37343
12.55797	38321
12.56608	37833
12.57420	36579
12.58233	37092
12.59045	33594
12.59857	40512
12.60670	34136
12.61482	33818
12.62295	33223
12.63107	37518
12.63918	36755
12.64732	34113
12.65543	36109
12.66357	35811
12.67168	35630
12.67980	34404
12.68793	33689
12.69605	40242
12.70417	35505
12.71230	37339
12.72042	38693
12.72855	46573
12.73667	51000
12.74478	59921
12.75292	61823
12.76103	61869
12.76917	55367
12.77728	51178
12.78540	45997
12.79353	45400
12.80165	36957
12.80978	36081
12.81790	44201
12.82602	38950
12.83415	39173
12.84227	36668
12.85038	34991
12.85852	37473
12.86663	35689
12.87477	35417
12.88288	34285
12.89100	32780
12.89913	34739
12.90725	38552
12.91538	36273
12.92350	35116
12.93162	38460
12.93975	37425
12.94787	34490
12.95598	35711
12.96412	36569
12.97223	37096
12.98037	34604
12.98848	36560
12.99660	36712
13.00473	35975
13.01285	33298
13.02098	30333
13.02910	30584
13.03722	30291
13.04535	32639
13.05347	32382
13.06160	30916
13.06972	34900
13.07783	36071
13.08597	30447
13.09408	33345
13.10220	35637
13.11033	31600
13.11845	31031
13.12658	31843
13.13470	35625
13.14282	34762
13.15095	34620
13.15907	34517
13.16720	32885
13.17532	32120
13.18343	36228
13.19157	33392
13.19968	34137
13.20782	33575
13.21593	35863
13.22405	37093
13.23218	40145
13.24030	40532
13.24842	38638
13.25655	32937
13.26467	35397
13.27280	35890
13.28092	33232
13.28903	34314
13.29717	33676
13.30528	37412
13.31342	36300
13.32153	33303
13.32965	37587
13.33778	35424
13.34590	33392
13.35403	33706
13.36215	35055
13.37027	34085
13.37840	34409
13.38652	34827
13.39463	35838
13.40277	32586
13.41088	33124
13.41902	30980
13.42713	35391
13.43525	30907
13.44338	33359
13.45150	31338
13.45963	33103
13.46775	32609
13.47587	34756
13.48400	31102
13.49212	31214
13.50023	32215
13.50837	37542
13.51648	32202
13.52462	32383
13.53273	33264
13.54085	31920
13.54898	29953
13.55710	33181
13.56523	31686
13.57335	33718
13.58147	30426
13.58960	32098
13.59772	32530
13.60585	32757
13.61397	35371
13.62208	32567
13.63022	39237
13.63833	32766
13.64645	32781
13.65458	32908
13.66270	34055
13.67083	33406
13.67895	31660
13.68707	33853
13.69520	32478
13.70332	28721
13.71145	32710
13.71957	31196
13.72768	33471
13.73582	34727
13.74393	31365
13.75205	32196
13.76018	28800
13.76830	30580
13.77643	32082
13.78455	31049
13.79267	34378
13.80080	33902
13.80892	36602
13.81705	31477
13.82517	35482
13.83328	36419
13.84142	35387
13.84953	34024
13.85767	33793
13.86578	33077
13.87390	36485
13.88203	33307
13.89015	32664
13.89827	34230
13.90640	31162
13.91452	36470
13.92265	38171
13.93077	37811
13.93888	37044
13.94702	37600
13.95513	32548
13.96327	35868
13.97138	37621
13.97950	40071
13.98763	35082
13.99575	37779
14.00388	34956
14.01200	34627
14.02012	34956
14.02825	36159
14.03637	35513
14.04448	36058
14.05262	34833
14.06073	34538
14.06887	37822
14.07698	42775
14.08510	40941
14.09323	38236
14.10135	36523
14.10948	40501
14.11760	38872
14.12572	41908
14.13385	38313
14.14197	38490
14.15008	38670
14.15822	35231
14.16633	32282
14.17447	35224
14.18258	40286
14.19070	43336
14.19883	55655
14.20695	74913
14.21508	101551
14.22320	130270
14.23132	131076
14.23945	140470
14.24757	135508
14.25570	123178
14.26382	119936
14.27193	109509
14.28007	102141
14.28818	97917
14.29630	82568
14.30443	83163
14.31255	80464
14.32068	72977
14.32880	70583
14.33692	65075
14.34505	57258
14.35317	57768
14.36130	57646
14.36942	48791
14.37753	47465
14.38567	45547
14.39378	42475
14.40192	39778
14.41003	40683
14.41815	39863
14.42628	40785
14.43440	40335
14.44252	35813
14.45065	40084
14.45877	37638
14.46690	34373
14.47502	35774
14.48313	39455
14.49127	34895
14.49938	35448
14.50752	37421
14.51563	31404
14.52375	36071
14.53188	33960
14.54000	37454
14.54812	34052
14.55625	35400
14.56437	35567
14.57250	35769
14.58062	38506
14.58873	37940
14.59687	191918
14.60498	610353
14.61312	414832
14.62123	152864
14.62935	98598
14.63748	83031
14.64560	72706
14.65373	69257
14.66185	70548
14.66997	63559
14.67810	56167
14.68622	50340
14.69433	53352
14.70247	55635
14.71058	52513
14.71872	52153
14.72683	48665
14.73495	47469
14.74308	47409
14.75120	46923
14.75933	45732
14.76745	46003
14.77557	41449
14.78370	47470
14.79182	135975
14.79993	383022
14.80807	304369
14.81618	209710
14.82432	171470
14.83243	148523
14.84055	123597
14.84868	112215
14.85680	108003
14.86493	92082
14.87305	86994
14.88117	84498
14.88930	83272
14.89742	78832
14.90555	80417
14.91367	78289
14.92178	69579
14.92992	73822
14.93803	68614
14.94615	73091
14.95428	110969
14.96240	162988
14.97053	151825
14.97865	122738
14.98677	106557
14.99490	100155
15.00302	99644
15.01115	90044
15.01927	84478
15.02738	83273
15.03552	77491
15.04363	73709
15.05177	70921
15.05988	66532
15.06800	72649
15.07613	62331
15.08425	64808
15.09237	65496
15.10050	67911
15.10862	63252
15.11675	62145
15.12487	59329
15.13298	59041
15.14112	59132
15.14923	60580
15.15737	59197
15.16548	58493
15.17360	55540
15.18173	56412
15.18985	58934
15.19797	54000
15.20610	54262
15.21422	58813
15.22235	56838
15.23047	61444
15.23858	57306
15.24672	59078
15.25483	51096
15.26297	52177
15.27108	55056
15.27920	54681
15.28733	50907
15.29545	52753
15.30358	60981
15.31170	73494
15.31982	88901
15.32795	106794
15.33607	93603
15.34418	77216
15.35232	66110
15.36043	62743
15.36857	58568
15.37668	55019
15.38480	60266
15.39293	58010
15.40105	60225
15.40918	63427
15.41730	58246
15.42542	58256
15.43355	51955
15.44167	56851
15.44980	60604
15.45792	54741
15.46603	57127
15.47417	69494
15.48228	75164
15.49040	76611
15.49853	68085
15.50665	63972
15.51478	61575
15.52290	56245
15.53102	59588
15.53915	57798
15.54727	61830
15.55540	58419
15.56352	57053
15.57163	54843
15.57977	51166
15.58788	52185
15.59600	58638
15.60413	52793
15.61225	48243
15.62038	52675
15.62850	56251
15.63662	67715
15.64475	59635
15.65287	55270
15.66100	52857
15.66912	55871
15.67723	48107
15.68537	50811
15.69348	48827
15.70162	52718
15.70973	52772
15.71785	49246
15.72598	46017
15.73410	49828
15.74222	46789
15.75035	48426
15.75847	48715
15.76660	46706
15.77472	47343
15.78283	48983
15.79097	44285
15.79908	48302
15.80722	45477
15.81533	46279
15.82345	45844
15.83158	43929
15.83970	48220
15.84782	46468
15.85595	45991
15.86407	46533
15.87220	44759
15.88032	48819
15.88843	44399
15.89657	51114
15.90468	46645
15.91282	43997
15.92093	46877
15.92905	47645
15.93718	46514
15.94530	42868
15.95343	46906
15.96155	44295
15.96967	44653
15.97780	42746
15.98592	44052
15.99403	51206
16.00217	52357
16.01028	69945
16.01842	94927
16.02653	121296
16.03465	149554
16.04278	163191
16.05090	166917
16.05903	141012
16.06715	109065
16.07527	86221
16.08340	77712
16.09152	67185
16.09965	59801
16.10777	61398
16.11588	55199
16.12402	53975
16.13213	50512
16.14025	52542
16.14838	49324
16.15650	49431
16.16463	50760
16.17275	46226
16.18087	51341
16.18900	47697
16.19712	43849
16.20525	46740
16.21337	44766
16.22148	46405
16.22962	39831
16.23773	49344
16.24585	44318
16.25398	44161
16.26210	44363
16.27023	42379
16.27835	45296
16.28647	41709
16.29460	41034
16.30272	42621
16.31085	45226
16.31897	41239
16.32708	43450
16.33522	44338
16.34333	44243
16.35147	42049
16.35958	43360
16.36770	49780
16.37583	50632
16.38395	45254
16.39207	42290
16.40020	44330
16.40832	42082
16.41645	43656
16.42457	41496
16.43268	41389
16.44082	43270
16.44893	48494
16.45707	45786
16.46518	45168
16.47330	47137
16.48143	47893
16.48955	47739
16.49768	42432
16.50580	45724
16.51392	47407
16.52205	41322
16.53017	40970
16.53828	41367
16.54642	39090
16.55453	38303
16.56267	41766
16.57078	47011
16.57890	44400
16.58703	40600
16.59515	40806
16.60328	40024
16.61140	39205
16.61952	40684
16.62765	42452
16.63577	39422
16.64388	36569
16.65202	36086
16.66013	39566
16.66827	38013
16.67638	40078
16.68450	38149
16.69263	35423
16.70075	43046
16.70888	40129
16.71700	39797
16.72512	37634
16.73325	38968
16.74137	36815
16.74950	36033
16.75762	38312
16.76573	32679
16.77387	36211
16.78198	36589
16.79010	38838
16.79823	38636
16.80635	37581
16.81448	36996
16.82260	36612
16.83072	34585
16.83885	38436
16.84697	38070
16.85510	34271
16.86322	37515
16.87133	46193
16.87947	51921
16.88758	57188
16.89572	65066
16.90383	63268
16.91195	63472
16.92008	55861
16.92820	49893
16.93632	45679
16.94445	39785
16.95257	40349
16.96070	38577
16.96882	39099
16.97693	37890
16.98507	40937
16.99318	40325
17.00132	37184
17.00943	38415
17.01755	35852
17.02568	38978
17.03380	35132
17.04192	34865
17.05005	36221
17.05817	37664
17.06630	37610
17.07442	35655
17.08253	38745
17.09067	38346
17.09878	38639
17.10692	36154
17.11503	34736
17.12315	38194
17.13128	38061
17.13940	40946
17.14753	39347
17.15565	36649
17.16377	40447
17.17190	36283
17.18002	34420
17.18813	37960
17.19627	33024
17.20438	37193
17.21252	38870
17.22063	34737
17.22875	34378
17.23688	32297
17.24500	33773
17.25313	36561
17.26125	36120
17.26937	33595
17.27750	34893
17.28562	36019
17.29373	32766
17.30187	35213
17.30998	37944
17.31812	36352
17.32623	27224
17.33435	31549
17.34248	34683
17.35060	34072
17.35873	35264
17.36685	35910
17.37497	40129
17.38310	39261
17.39122	41016
17.39935	39122
17.40747	41586
17.41558	40213
17.42372	39331
17.43183	36186
17.43995	38585
17.44808	39462
17.45620	36517
17.46433	41259
17.47245	36699
17.48057	37904
17.48870	36770
17.49682	40488
17.50495	43842
17.51307	44618
17.52118	45633
17.52932	42205
17.53743	41020
17.54557	38134
17.55368	39379
17.56180	40278
17.56993	38514
17.57805	39502
17.58617	43187
17.59430	37599
17.60242	35959
17.61055	36002
17.61867	34866
17.62678	35217
17.63492	34582
17.64303	33901
17.65117	35761
17.65928	32757
17.66740	37991
17.67553	42134
17.68365	39739
17.69177	40170
17.69990	40708
17.70802	43367
17.71615	44110
17.72427	51536
17.73238	45550
17.74052	39322
17.74863	39358
17.75677	42487
17.76488	41206
17.77300	41322
17.78113	41332
17.78925	39448
17.79738	39061
17.80550	40727
17.81362	37085
17.82175	37680
17.82987	40022
17.83798	39377
17.84612	43123
17.85423	42485
17.86237	44413
17.87048	46755
17.87860	43022
17.88673	40935
17.89485	35619
17.90298	34600
17.91110	38032
17.91922	35447
17.92735	35796
17.93547	33685
17.94360	34999
17.95172	33203
17.95983	35423
17.96797	32538
17.97608	34448
17.98420	33910
17.99233	30143
18.00045	31299
18.00858	32777
18.01670	32465
18.02482	34027
18.03295	33155
18.04107	37031
18.04920	30949
18.05732	30536
18.06543	33584
18.07357	36667
18.08168	36450
18.08980	37917
18.09793	36829
18.10605	40279
18.11418	36403
18.12230	38438
18.13042	37839
18.13855	38835
18.14667	36522
18.15480	35519
18.16292	38486
18.17103	36554
18.17917	37855
18.18728	38713
18.19542	34598
18.20353	36379
18.21165	41990
18.21978	39179
18.22790	37346
18.23602	32324
18.24415	36826
18.25227	35685
18.26040	41463
18.26852	41864
18.27663	37485
18.28477	38859
18.29288	37911
18.30102	46031
18.30913	34011
18.31725	38061
18.32538	32800
18.33350	37345
18.34162	32898
18.34975	34458
18.35787	38001
18.36600	38059
18.37412	33364
18.38223	34600
18.39037	33525
18.39848	33956
18.40662	34786
18.41473	35773
18.42285	29064
18.43098	33257
18.43910	32839
18.44723	35588
18.45535	31901
18.46347	29582
18.47160	33724
18.47972	32273
18.48783	32624
18.49597	31208
18.50408	32845
18.51222	33367
18.52033	34268
18.52845	31140
18.53658	30603
18.54470	31294
18.55283	31355
18.56095	29322
18.56907	31085
18.57720	31244
18.58532	30591
18.59345	31780
18.60157	32283
18.60968	32712
18.61782	32352
18.62593	29856
18.63405	34410
18.64218	35298
18.65030	28948
18.65843	32037
18.66655	33334
18.67467	33789
18.68280	31598
18.69092	36188
18.69905	29180
18.70717	31971
18.71528	32268
18.72342	27779
18.73153	30394
18.73967	33826
18.74778	31988
18.75590	31036
18.76403	29988
18.77215	29966
18.78027	33703
18.78840	31217
18.79652	30140
18.80465	32275
18.81277	26477
18.82088	30834
18.82902	29535
18.83713	31272
18.84527	28871
18.85338	28682
18.86150	32662
18.86963	26914
18.87775	33736
18.88587	30258
18.89400	30203
18.90212	26478
18.91025	29546
18.91837	29083
18.92648	37915
18.93462	29534
18.94273	28841
18.95087	31470
18.95898	30594
18.96710	32519
18.97523	29193
18.98335	31528
18.99148	30545
18.99960	30026
19.00772	30758
19.01585	32728
19.02397	29453
19.03208	30539
19.04022	29826
19.04833	31074
19.05647	30345
19.06458	30229
19.07270	35232
19.08083	36136
19.08895	37379
19.09708	49689
19.10520	67176
19.11332	74031
19.12145	80877
19.12957	71951
19.13768	65427
19.14582	53823
19.15393	50345
19.16207	47314
19.17018	49265
19.17830	45115
19.18643	42164
19.19455	44023
19.20268	42339
19.21080	41009
19.21892	38296
19.22705	38884
19.23517	35906
19.24330	37427
19.25142	41103
19.25953	40208
19.26767	40642
19.27578	49134
19.28390	49988
19.29203	63347
19.30015	72754
19.30828	74082
19.31640	80071
19.32452	66590
19.33265	61847
19.34077	56135
19.34890	55773
19.35702	46505
19.36513	43201
19.37327	38422
19.38138	43422
19.38952	39892
19.39763	42964
19.40575	40077
19.41388	37538
19.42200	39979
19.43012	36259
19.43825	35419
19.44637	37930
19.45450	36902
19.46262	34965
19.47073	36952
19.47887	40129
19.48698	38438
19.49512	43336
19.50323	51005
19.51135	63373
19.51948	80248
19.52760	101726
19.53572	97168
19.54385	96998
19.55197	77848
19.56010	60196
19.56822	48429
19.57633	42826
19.58447	39904
19.59258	40006
19.60072	36479
19.60883	36911
19.61695	38666
19.62508	36229
19.63320	41070
19.64133	49268
19.64945	67833
19.65757	95123
19.66570	130288
19.67382	174293
19.68193	187077
19.69007	195681
19.69818	165627
19.70632	139096
19.71443	112982
19.72255	89648
19.73068	78511
19.73880	74457
19.74693	69321
19.75505	72846
19.76317	63000
19.77130	55240
19.77942	46188
19.78755	49758
19.79567	47329
19.80378	45892
19.81192	45574
19.82003	41203
19.82815	48793
19.83628	41525
19.84440	38495
19.85253	38763
19.86065	36926
19.86877	42315
19.87690	47959
19.88502	67361
19.89315	112840
19.90127	163325
19.90938	238394
19.91752	314839
19.92563	384077
19.93375	441622
19.94188	451405
19.95000	466711
19.95813	466682
19.96625	459335
19.97437	445654
19.98250	427446
19.99062	403063
19.99875	405281
20.00687	375098
20.01498	370938
20.02312	358635
20.03123	342992
20.03937	336243
20.04748	300529
20.05560	266962
20.06373	221562
20.07185	179729
20.07997	149029
20.08810	127162
20.09622	116350
20.10435	113709
20.11247	106373
20.12058	99618
20.12872	103386
20.13683	98250
20.14497	99786
20.15308	96396
20.16120	92798
20.16933	92701
20.17745	91935
20.18557	94141
20.19370	88825
20.20182	93385
20.20995	89533
20.21807	89545
20.22618	84778
20.23432	89333
20.24243	87087
20.25057	95824
20.25868	103527
20.26680	127136
20.27493	163676
20.28305	194783
20.29118	217984
20.29930	234744
20.30742	228354
20.31555	206491
20.32367	182831
20.33178	151659
20.33992	121547
20.34803	103901
20.35617	99261
20.36428	83149
20.37240	89053
20.38053	92300
20.38865	105266
20.39678	98776
20.40490	108293
20.41302	104125
20.42115	114824
20.42927	109404
20.43740	121386
20.44552	134103
20.45363	137737
20.46177	147492
20.46988	145620
20.47800	144227
20.48613	125402
20.49425	124559
20.50238	109434
20.51050	99489
20.51862	100428
20.52675	96452
20.53487	92723
20.54300	89906
20.55112	92096
20.55923	80159
20.56737	85464
20.57548	81270
20.58360	83798
20.59173	82025
20.59985	82637
20.60798	83628
20.61610	83476
20.62422	81833
20.63235	84705
20.64047	74633
20.64860	78468
20.65672	75305
20.66483	77697
20.67297	80237
20.68108	73185
20.68922	72059
20.69733	76255
20.70545	71315
20.71358	70655
20.72170	72282
20.72982	75776
20.73795	70472
20.74607	71865
20.75420	66592
20.76232	76721
20.77043	72445
20.77857	66638
20.78668	66944
20.79482	70519
20.80293	65632
20.81105	64732
20.81918	69231
20.82730	62518
20.83543	60145
20.84355	61999
20.85167	59779
20.85980	63001
20.86792	60341
20.87603	64002
20.88417	62129
20.89228	68227
20.90042	62644
20.90853	58270
20.91665	59043
20.92478	58419
20.93290	56380
20.94103	57763
20.94915	57410
20.95727	55344
20.96540	51551
20.97352	58294
20.98163	59413
20.98977	57877
20.99788	58615
21.00602	63683
21.01413	63218
21.02225	68220
21.03038	67528
21.03850	68294
21.04663	63408
21.05475	62854
21.06287	60470
21.07100	61023
21.07912	57436
21.08725	54382
21.09537	53479
21.10348	56911
21.11162	53897
21.11973	52385
21.12785	59402
21.13598	58148
21.14410	55925
21.15223	61854
21.16035	63907
21.16847	65513
21.17660	64409
21.18472	57078
21.19285	59438
21.20097	55184
21.20908	54328
21.21722	51698
21.22533	51595
21.23345	55112
21.24158	52351
21.24970	53848
21.25783	51733
21.26595	53874
21.27407	50373
21.28220	54070
21.29032	54415
21.29845	56815
21.30657	60223
21.31468	56879
21.32282	60308
21.33093	56485
21.33907	54135
21.34718	57243
21.35530	51526
21.36343	49148
21.37155	50612
21.37967	49165
21.38780	48672
21.39592	45817
21.40405	48363
21.41217	47358
21.42028	49856
21.42842	51982
21.43653	52183
21.44467	44429
21.45278	48215
21.46090	52422
21.46903	47196
21.47715	45811
21.48528	46056
21.49340	45101
21.50152	44010
21.50965	44480
21.51777	45914
21.52588	44000
21.53402	45845
21.54213	44518
21.55027	39917
21.55838	46720
21.56650	45185
21.57463	43201
21.58275	45668
21.59088	43800
21.59900	44323
21.60712	43086
21.61525	46986
21.62337	48338
21.63148	55817
21.63962	65948
21.64773	68803
21.65587	73706
21.66398	80288
21.67210	72672
21.68023	63725
21.68835	57022
21.69648	51223
21.70460	51055
21.71272	40945
21.72085	36950
21.72897	36347
21.73710	37101
21.74522	40003
21.75333	39643
21.76147	41207
21.76958	42050
21.77770	47454
21.78583	47167
21.79395	47893
21.80208	50634
21.81020	47298
21.81832	48626
21.82645	54471
21.83457	58509
21.84270	69131
21.85082	78011
21.85893	75132
21.86707	77629
21.87518	64430
21.88332	64355
21.89143	56683
21.89955	54092
21.90768	47516
21.91580	48328
21.92392	49422
21.93205	46129
21.94017	46152
21.94830	44227
21.95642	46993
21.96453	42145
21.97267	45126
21.98078	44625
21.98892	43593
21.99703	44348
22.00515	43325
22.01328	45651
22.02140	41961
22.02952	41218
22.03765	41942
22.04577	44591
22.05390	41375
22.06202	42821
22.07013	42079
22.07827	42385
22.08638	43039
22.09452	42545
22.10263	41279
22.11075	40263
22.11888	41533
22.12700	41433
22.13513	47102
22.14325	42625
22.15137	41691
22.15950	37164
22.16762	44898
22.17573	43655
22.18387	42271
22.19198	43646
22.20012	44955
22.20823	42056
22.21635	41283
22.22448	42718
22.23260	46852
22.24073	50656
22.24885	51314
22.25697	45253
22.26510	44976
22.27322	44672
22.28135	44870
22.28947	41819
22.29758	47030
22.30572	42194
22.31383	44350
22.32195	44094
22.33008	45638
22.33820	43199
22.34633	46196
22.35445	47828
22.36257	55902
22.37070	50324
22.37882	48751
22.38695	48651
22.39507	49184
22.40318	47789
22.41132	48577
22.41943	43987
22.42755	43944
22.43568	44267
22.44380	43816
22.45193	45560
22.46005	39668
22.46817	43447
22.47630	42240
22.48442	42787
22.49255	37272
22.50067	40335
22.50878	39120
22.51692	41179
22.52503	37600
22.53317	41056
22.54128	37859
22.54940	35879
22.55753	40832
22.56565	39863
22.57377	34727
22.58190	37017
22.59002	40707
22.59815	36585
22.60627	37801
22.61438	35728
22.62252	36275
22.63063	35053
22.63877	37336
22.64688	36659
22.65500	33968
22.66313	40992
22.67125	34926
22.67937	33357
22.68750	39803
22.69562	38149
22.70375	37334
22.71187	39119
22.71998	36856
22.72812	37419
22.73623	37966
22.74437	38497
22.75248	36305
22.76060	32443
22.76873	34316
22.77685	35289
22.78498	31317
22.79310	32747
22.80122	32155
22.80935	33337
22.81747	35644
22.82558	33221
22.83372	30300
22.84183	34277
22.84997	36803
22.85808	32495
22.86620	33212
22.87433	34701
22.88245	38141
22.89058	37833
22.89870	37648
22.90682	38657
22.91495	44952
22.92307	51185
22.93120	51314
22.93932	62301
22.94743	78569
22.95557	70396
22.96368	70391
22.97180	67942
22.97993	67058
22.98805	63047
22.99618	57033
23.00430	59671
23.01242	56293
23.02055	50985
23.02867	46282
23.03680	42510
23.04492	42276
23.05303	38091
23.06117	42392
23.06928	39303
23.07740	33406
23.08553	38898
23.09365	37705
23.10178	38010
23.10990	33090
23.11802	36300
23.12615	38067
23.13427	36016
23.14240	34898
23.15052	35991
23.15863	34273
23.16677	34210
23.17488	41793
23.18302	37660
23.19113	39558
23.19925	41193
23.20738	42054
23.21550	40277
23.22362	38079
23.23175	36356
23.23987	35684
23.24800	34053
23.25612	37429
23.26423	34919
23.27237	39364
23.28048	38403
23.28862	41315
23.29673	37092
23.30485	32224
23.31298	34461
23.32110	34258
23.32923	36229
23.33735	35408
23.34547	35754
23.35360	39454
23.36172	34022
23.36983	35520
23.37797	34445
23.38608	36228
23.39422	34562
23.40233	34887
23.41045	31882
23.41858	34137
23.42670	35181
23.43483	36804
23.44295	37408
23.45107	34414
23.45920	33115
23.46732	34541
23.47543	32067
23.48357	34288
23.49168	36430
23.49982	33052
23.50793	33325
23.51605	33857
23.52418	31036
23.53230	32458
23.54043	33966
23.54855	34873
23.55667	33275
23.56480	34295
23.57292	36659
23.58105	34397
23.58917	33875
23.59728	37969
23.60542	36906
23.61353	38802
23.62165	42635
23.62978	41117
23.63790	36467
23.64603	41402
23.65415	45149
23.66227	48405
23.67040	56811
23.67852	65706
23.68665	76154
23.69477	76265
23.70288	76823
23.71102	74085
23.71913	76234
23.72725	71221
23.73538	65645
23.74350	70608
23.75163	96158
23.75975	175169
23.76787	390701
23.77600	842074
23.78412	1678549
23.79225	2562279
23.80037	3144718
23.80848	3165611
23.81662	2786086
23.82473	2092748
23.83287	1474395
23.84098	1093193
23.84910	776481
23.85723	583590
23.86535	496490
23.87347	446944
23.88160	452891
23.88972	518176
23.89785	611577
23.90597	659726
23.91408	666776
23.92222	589128
23.93033	523383
23.93847	425110
23.94658	351674
23.95470	283857
23.96283	255380
23.97095	225600
23.97908	202316
23.98720	187627
23.99532	159338
24.00345	154067
24.01157	138395
24.01968	139080
24.02782	126959
24.03593	120299
24.04407	118770
24.05218	122077
24.06030	115685
24.06843	110077
24.07655	98585
24.08468	100373
24.09280	96831
24.10092	99540
24.10905	94097
24.11717	92837
24.12530	93652
24.13342	95742
24.14153	97378
24.14967	91668
24.15778	89568
24.16590	90362
24.17403	92673
24.18215	90545
24.19028	79298
24.19840	71743
24.20652	77876
24.21465	78036
24.22277	84088
24.23090	87789
24.23902	84547
24.24713	81642
24.25527	87238
24.26338	82500
24.27150	78791
24.27963	67531
24.28775	64331
24.29588	63649
24.30400	60267
24.31212	61786
24.32025	63039
24.32837	60688
24.33650	61926
24.34462	59453
24.35273	60645
24.36087	59131
24.36898	63949
24.37712	83145
24.38523	123040
24.39335	196234
24.40148	295355
24.40960	406803
24.41772	484166
24.42585	474730
24.43397	417038
24.44210	346249
24.45022	277263
24.45833	215567
24.46647	173569
24.47458	147313
24.48272	126967
24.49083	113833
24.49895	107234
24.50708	101010
24.51520	100453
24.52332	99345
24.53145	91290
24.53957	98146
24.54770	96984
24.55582	81658
24.56393	86435
24.57207	74836
24.58018	76023
24.58832	71130
24.59643	64849
24.60455	63896
24.61268	63112
24.62080	63436
24.62893	58086
24.63705	60000
24.64517	59207
24.65330	61354
24.66142	61088
24.66953	63652
24.67767	61632
24.68578	59441
24.69392	56208
24.70203	53567
24.71015	52651
24.71828	49552
24.72640	49497
24.73453	50761
24.74265	46532
24.75077	45245
24.75890	51125
24.76702	47575
24.77515	46879
24.78327	42971
24.79138	46400
24.79952	46314
24.80763	50773
24.81575	41565
24.82388	47594
24.83200	41386
24.84013	45402
24.84825	42226
24.85637	41653
24.86450	45801
24.87262	42952
24.88075	42100
24.88887	41284
24.89698	42657
24.90512	40446
24.91323	38385
24.92135	42929
24.92948	40398
24.93760	37665
24.94573	40321
24.95385	37346
24.96197	38854
24.97010	39073
24.97822	36549
24.98635	34738
24.99447	38126
25.00258	40744
25.01072	38589
25.01883	39294
25.02697	34441
25.03508	36749
25.04320	37117
25.05133	33738
25.05945	37183
25.06757	34058
25.07570	36846
25.08382	38385
25.09195	38595
25.10007	34745
25.10818	33863
25.11632	38211
25.12443	38024
25.13257	38005
25.14068	40671
25.14880	36444
25.15693	39172
25.16505	40716
25.17318	42003
25.18130	44718
25.18942	42924
25.19755	42207
25.20567	40883
25.21378	36422
25.22192	36792
25.23003	37234
25.23817	36018
25.24628	34049
25.25440	37431
25.26253	37495
25.27065	34392
25.27878	35979
25.28690	33436
25.29502	39207
25.30315	39351
25.31127	38515
25.31938	41022
25.32752	45751
25.33563	42115
25.34377	41622
25.35188	39844
25.36000	39385
25.36813	33410
25.37625	36541
25.38438	39153
25.39250	32352
25.40062	32858
25.40875	37868
25.41687	34153
25.42500	33729
25.43312	32549
25.44123	32642
25.44937	30758
25.45748	35336
25.46560	33197
25.47373	36547
25.48185	38395
25.48998	38995
25.49810	44483
25.50622	39565
25.51435	37204
25.52247	39417
25.53060	39241
25.53872	38572
25.54683	32602
25.55497	32373
25.56308	33088
25.57120	33277
25.57933	32765
25.58745	32767
25.59558	33822
25.60370	31533
25.61182	32818
25.61995	32974
25.62807	32831
25.63620	35118
25.64432	33628
25.65243	32291
25.66057	32974
25.66868	33615
25.67682	37112
25.68493	32249
25.69305	33852
25.70118	31328
25.70930	33147
25.71742	32274
25.72555	27755
25.73367	32674
25.74180	32339
25.74992	33616
25.75803	36660
25.76617	33650
25.77428	32152
25.78242	29815
25.79053	32996
25.79865	31823
25.80678	31822
25.81490	33299
25.82303	37396
25.83115	35567
25.83927	33588
25.84740	32826
25.85552	31956
25.86363	33674
25.87177	38713
25.87988	30453
25.88802	30565
25.89613	32876
25.90425	33888
25.91238	30539
25.92050	31284
25.92863	30946
25.93675	29796
25.94487	29445
25.95300	32605
25.96112	32673
25.96923	30299
25.97737	29148
25.98548	30889
25.99362	29809
26.00173	30728
26.00985	30411
26.01798	30355
26.02610	30161
26.03423	28869
26.04235	30760
26.05047	32101
26.05860	32075
26.06672	32318
26.07485	29758
26.08297	35220
26.09108	31495
26.09922	31302
26.10733	29562
26.11545	32350
26.12358	31857
26.13170	32627
26.13983	35163
26.14795	37476
26.15607	38968
26.16420	40506
26.17232	37176
26.18045	39351
26.18857	37537
26.19668	38880
26.20482	33274
26.21293	36104
26.22107	32139
26.22918	29677
26.23730	30265
26.24543	26797
26.25355	27994
26.26167	27573
26.26980	29312
26.27792	30177
26.28605	34378
26.29417	30052
26.30228	31393
26.31042	30160
26.31853	29315
26.32667	32193
26.33478	33358
26.34290	33410
26.35103	31912
26.35915	33206
26.36727	32749
26.37540	32096
26.38352	28179
26.39165	28838
26.39977	26143
26.40788	28788
26.41602	27804
26.42413	28031
26.43227	27299
26.44038	28908
26.44850	29993
26.45663	27309
26.46475	26136
26.47288	29257
26.48100	27843
26.48912	30966
26.49725	28650
26.50537	28820
26.51348	27790
26.52162	28470
26.52973	31023
26.53787	31430
26.54598	29084
26.55410	25878
26.56223	27409
26.57035	26788
26.57848	29132
26.58660	30934
26.59472	30794
26.60285	27759
26.61097	26940
26.61908	27044
26.62722	23874
26.63533	27647
26.64347	26057
26.65158	29883
26.65970	28448
26.66783	26806
26.67595	28732
26.68408	32789
26.69220	27425
26.70032	30671
26.70845	30138
26.71657	31252
26.72470	29167
26.73282	29353
26.74093	29568
26.74907	25261
26.75718	31900
26.76530	28554
26.77343	29061
26.78155	30804
26.78968	30700
26.79780	26570
26.80592	32055
26.81405	31197
26.82217	29682
26.83030	32198
26.83842	33817
26.84653	31800
26.85467	28604
26.86278	30660
26.87092	32494
26.87903	33647
26.88715	36424
26.89528	33052
26.90340	30612
26.91152	30591
26.91965	29930
26.92777	27356
26.93590	30727
26.94402	27937
26.95213	36089
26.96027	32403
26.96838	39537
26.97652	55625
26.98463	90650
26.99275	146958
27.00088	254365
27.00900	389303
27.01712	586627
27.02525	755541
27.03337	907199
27.04150	946988
27.04962	879357
27.05773	769407
27.06587	628880
27.07398	517651
27.08212	426961
27.09023	353708
27.09835	279506
27.10648	228737
27.11460	189148
27.12273	179057
27.13085	150957
27.13897	131811
27.14710	124850
27.15522	118378
27.16333	105174
27.17147	100445
27.17958	96416
27.18772	93503
27.19583	92139
27.20395	82587
27.21208	78829
27.22020	83099
27.22833	86547
27.23645	85862
27.24457	102138
27.25270	113791
27.26082	132355
27.26895	135468
27.27707	143236
27.28518	151376
27.29332	137506
27.30143	123527
27.30955	113154
27.31768	100342
27.32580	89870
27.33393	83441
27.34205	78081
27.35017	72406
27.35830	68858
27.36642	65231
27.37455	68779
27.38267	60342
27.39078	64795
27.39892	60498
27.40703	59744
27.41515	59146
27.42328	55752
27.43140	54278
27.43953	49529
27.44765	50277
27.45577	50975
27.46390	51418
27.47202	47800
27.48015	50351
27.48827	50374
27.49638	47212
27.50452	46143
27.51263	49129
27.52077	47432
27.52888	46886
27.53700	49551
27.54513	49123
27.55325	48225
27.56137	44164
27.56950	43801
27.57762	47830
27.58575	40626
27.59387	40038
27.60198	42440
27.61012	44667
27.61823	40920
27.62637	41222
27.63448	42031
27.64260	40430
27.65073	42652
27.65885	41606
27.66698	39727
27.67510	37678
27.68322	37205
27.69135	40152
27.69947	38967
27.70758	37139
27.71572	36599
27.72383	37263
27.73197	37942
27.74008	38022
27.74820	35362
27.75633	37552
27.76445	37578
27.77258	35645
27.78070	36338
27.78882	36772
27.79695	36413
27.80507	34780
27.81318	35700
27.82132	38989
27.82943	37315
27.83757	38363
27.84568	39648
27.85380	40952
27.86193	35808
27.87005	37198
27.87818	34966
27.88630	37074
27.89442	34737
27.90255	37992
27.91067	36527
27.91880	33191
27.92692	36231
27.93503	33689
27.94317	33188
27.95128	33206
27.95940	34500
27.96753	33284
27.97565	32146
27.98378	30690
27.99190	35982
28.00002	34528
28.00815	32189
28.01627	36370
28.02440	29725
28.03252	32274
28.04063	32507
28.04877	32274
28.05688	32162
28.06500	31943
28.07313	32025
28.08125	31975
28.08938	33917
28.09750	30138
28.10562	31710
28.11375	28349
28.12187	32539
28.13000	35511
28.13812	29316
28.14623	32739
28.15437	34363
28.16248	33526
28.17062	29916
28.17873	31654
28.18685	34552
28.19498	36667
28.20310	32535
28.21122	36787
28.21935	34792
28.22747	39036
28.23560	41575
28.24372	38892
28.25183	41255
28.25997	38680
28.26808	34985
28.27622	35107
28.28433	32350
28.29245	37473
28.30058	36425
28.30870	40881
28.31683	50567
28.32495	63166
28.33307	81977
28.34120	103017
28.34932	128276
28.35743	162750
28.36557	180312
28.37368	211113
28.38182	231702
28.38993	231090
28.39805	222668
28.40618	213270
28.41430	203360
28.42243	185284
28.43055	165603
28.43867	153509
28.44680	132386
28.45492	123313
28.46303	110755
28.47117	100633
28.47928	96263
28.48742	88698
28.49553	90118
28.50365	86749
28.51178	80741
28.51990	77524
28.52803	78517
28.53615	85976
28.54427	71853
28.55240	82920
28.56052	72668
28.56865	76450
28.57677	77557
28.58488	73037
28.59302	67329
28.60113	64860
28.60925	71273
28.61738	61961
28.62550	57947
28.63363	57802
28.64175	61225
28.64987	60769
28.65800	56895
28.66612	59937
28.67425	62707
28.68237	60255
28.69048	60699
28.69862	54443
28.70673	52468
28.71487	47813
28.72298	47455
28.73110	54316
28.73923	51690
28.74735	52233
28.75547	51016
28.76360	54744
28.77172	52450
28.77985	55737
28.78797	59767
28.79608	63587
28.80422	62556
28.81233	63833
28.82047	51089
28.82858	48435
28.83670	42905
28.84483	40526
28.85295	47094
28.86107	43805
28.86920	42412
28.87732	42751
28.88545	46040
28.89357	48171
28.90168	40920
28.90982	37270
28.91793	39060
28.92607	38293
28.93418	36085
28.94230	44593
28.95043	38321
28.95855	42518
28.96668	39638
28.97480	42150
28.98292	39930
28.99105	40840
28.99917	40857
29.00728	39749
29.01542	38468
29.02353	39342
29.03167	44760
29.03978	37477
29.04790	38003
29.05603	38050
29.06415	37787
29.07228	33405
29.08040	35787
29.08852	36465
29.09665	41118
29.10477	38592
29.11288	41085
29.12102	37885
29.12913	39206
29.13727	35803
29.14538	37215
29.15350	40460
29.16163	37604
29.16975	38678
29.17788	37509
29.18600	36687
29.19412	35075
29.20225	36255
29.21037	30081
29.21850	32632
29.22662	34203
29.23473	36290
29.24287	38407
29.25098	37969
29.25910	38454
29.26723	35798
29.27535	38428
29.28348	34461
29.29160	38416
29.29972	40427
29.30785	34985
29.31597	36504
29.32410	40102
29.33222	39969
29.34033	33619
29.34847	35107
29.35658	35455
29.36472	34178
29.37283	35759
29.38095	32334
29.38908	35229
29.39720	35751
29.40532	31885
29.41345	35435
29.42157	38860
29.42970	35076
29.43782	37293
29.44593	35474
29.45407	37813
29.46218	38844
29.47032	38462
29.47843	35040
29.48655	36963
29.49468	40342
29.50280	39712
29.51093	51751
29.51905	45218
29.52717	42757
29.53530	39198
29.54342	39808
29.55153	37513
29.55967	33742
29.56778	32113
29.57592	36755
29.58403	34309
29.59215	34345
29.60028	33364
29.60840	34268
29.61653	31710
29.62465	33098
29.63277	38321
29.64090	34392
29.64902	35361
29.65713	35664
29.66527	32521
29.67338	31878
29.68152	30626
29.68963	31730
29.69775	32791
29.70588	29795
29.71400	42213
29.72213	34652
29.73025	33221
29.73837	38184
29.74650	38121
29.75462	32264
29.76275	34106
29.77087	39741
29.77898	36599
29.78712	33320
29.79523	33003
29.80335	31965
29.81148	31300
29.81960	31141
29.82773	33971
29.83585	29686
29.84397	31527
29.85210	31580
29.86022	32091
29.86835	33888
29.87647	39211
29.88458	45448
29.89272	58807
29.90083	69640
29.90895	75203
29.91708	74488
29.92520	69899
29.93333	63405
29.94145	54209
29.94957	49128
29.95770	52716
29.96582	51235
29.97395	57922
29.98207	65115
29.99018	77288
29.99832	84752
30.00643	87343
30.01457	99641
30.02268	103001
30.03080	109703
30.03893	111857
30.04705	118102
30.05517	110293
30.06330	116017
30.07142	110807
30.07955	113010
30.08767	107347
30.09578	104318
30.10392	94453
30.11203	90464
30.12017	92836
30.12828	89867
30.13640	87410
30.14453	79282
30.15265	72273
30.16078	73231
30.16890	68277
30.17702	68034
30.18515	61875
30.19327	64707
30.20138	65313
30.20952	58300
30.21763	60059
30.22577	53216
30.23388	55283
30.24200	55611
30.25013	57048
30.25825	46474
30.26638	46643
30.27450	45613
30.28262	41202
30.29075	45318
30.29887	46240
30.30698	42285
30.31512	43360
30.32323	43451
30.33137	39264
30.33948	41588
30.34760	47972
30.35573	44393
30.36385	39245
30.37198	41139
30.38010	44013
30.38822	38829
30.39635	38533
30.40447	38741
30.41260	38362
30.42072	40163
30.42883	44585
30.43697	34943
30.44508	34784
30.45320	34875
30.46133	43502
30.46945	38678
30.47758	36237
30.48570	36220
30.49382	36304
30.50195	40094
30.51007	41808
30.51820	40273
30.52632	34140
30.53443	38010
30.54257	34392
30.55068	35610
30.55882	38345
30.56693	38213
30.57505	37879
30.58318	32155
30.59130	33992
30.59942	34567
30.60755	37478
30.61567	32624
30.62380	28277
30.63192	34990
30.64003	37446
30.64817	31570
30.65628	33991
30.66442	32191
30.67253	37437
30.68065	33171
30.68878	33950
30.69690	33687
30.70502	33158
30.71315	30922
30.72127	31477
30.72940	29043
30.73752	33549
30.74563	35297
30.75377	36308
30.76188	29776
30.77002	32367
30.77813	36702
30.78625	37152
30.79438	44506
30.80250	49857
30.81063	58029
30.81875	67004
30.82687	67922
30.83500	66805
30.84312	57885
30.85123	53962
30.85937	49046
30.86748	42064
30.87562	40235
30.88373	38028
30.89185	38118
30.89998	35090
30.90810	37395
30.91623	37349
30.92435	35533
30.93247	34310
30.94060	34297
30.94872	33752
30.95683	32732
30.96497	34673
30.97308	33876
30.98122	29962
30.98933	34590
30.99745	33070
31.00558	32828
31.01370	37838
31.02183	34958
31.02995	39238
31.03807	38914
31.04620	39327
31.05432	38098
31.06245	40859
31.07057	38495
31.07868	44156
31.08682	43406
31.09493	41858
31.10305	45516
31.11118	52658
31.11930	49637
31.12743	47968
31.13555	48867
31.14367	45573
31.15180	45935
31.15992	40694
31.16805	36252
31.17617	36902
31.18428	38795
31.19242	41182
31.20053	43125
31.20867	47756
31.21678	53230
31.22490	52820
31.23303	58005
31.24115	58103
31.24927	54297
31.25740	47919
31.26552	51144
31.27365	46807
31.28177	43233
31.28988	40956
31.29802	35494
31.30613	32449
31.31427	35332
31.32238	35421
31.33050	36256
31.33863	33556
31.34675	34369
31.35487	35703
31.36300	37658
31.37112	37406
31.37925	40979
31.38737	40099
31.39548	45632
31.40362	35193
31.41173	38057
31.41987	33932
31.42798	37279
31.43610	43630
31.44423	35755
31.45235	41099
31.46048	34037
31.46860	38399
31.47672	34391
31.48485	33348
31.49297	32411
31.50108	31864
31.50922	34399
31.51733	32265
31.52547	32837
31.53358	34678
31.54170	33868
31.54983	29875
31.55795	31578
31.56608	30497
31.57420	33774
31.58232	31309
31.59045	31279
31.59857	30046
31.60670	29027
31.61482	35010
31.62293	30444
31.63107	28539
31.63918	28968
31.64730	33611
31.65543	31365
31.66355	32871
31.67168	38735
31.67980	30143
31.68792	32098
31.69605	31223
31.70417	38088
31.71230	31620
31.72042	31427
31.72853	31533
31.73667	28680
31.74478	32698
31.75290	28348
31.76103	30180
31.76915	33828
31.77728	34310
31.78540	32109
31.79352	33900
31.80165	29661
31.80977	32206
31.81790	34839
31.82602	35650
31.83413	34069
31.84227	33256
31.85038	33638
31.85852	34111
31.86663	37639
31.87475	39530
31.88288	38404
31.89100	35817
31.89912	43113
31.90725	39899
31.91537	46547
31.92350	44917
31.93162	51511
31.93973	55864
31.94787	54331
31.95598	62250
31.96412	71055
31.97223	74891
31.98035	75693
31.98848	76820
31.99660	83110
32.00472	74803
32.01285	79727
32.02097	72343
32.02910	70752
32.03722	69527
32.04533	70194
32.05347	61982
32.06158	61543
32.06972	61952
32.07783	60538
32.08595	58440
32.09408	60493
32.10220	56523
32.11033	57067
32.11845	54473
32.12657	51805
32.13470	47133
32.14282	46035
32.15093	43424
32.15907	41215
32.16718	41866
32.17532	43389
32.18343	38324
32.19155	39338
32.19968	37216
32.20780	35530
32.21593	39257
32.22405	41672
32.23217	39063
32.24030	39899
32.24842	35042
32.25655	39191
32.26467	40335
32.27278	36337
32.28092	34003
32.28903	38043
32.29715	35698
32.30528	37379
32.31340	36527
32.32153	35114
32.32965	36902
32.33777	33549
32.34590	38212
32.35402	40289
32.36215	38372
32.37027	38955
32.37838	38295
32.38652	40749
32.39463	38345
32.40275	39410
32.41088	32113
32.41900	37913
32.42713	36107
32.43525	38109
32.44337	32952
32.45150	34271
32.45962	34653
32.46775	39119
32.47587	33318
32.48398	31371
32.49212	35401
32.50023	33543
32.50837	31895
32.51648	34323
32.52460	34600
32.53273	33776
32.54085	34538
32.54897	35609
32.55710	41009
32.56522	35314
32.57335	32807
32.58147	35741
32.58958	30850
32.59772	36812
32.60583	35207
32.61397	35808
32.62208	35323
32.63020	34215
32.63833	33948
32.64645	33120
32.65458	34515
32.66270	39905
32.67082	39225
32.67895	41999
32.68707	49098
32.69518	46048
32.70332	44388
32.71143	40998
32.71957	40356
32.72768	38137
32.73580	36547
32.74393	40149
32.75205	35534
32.76018	34791
32.76830	38255
32.77642	40694
32.78455	35026
32.79267	32803
32.80078	33508
32.80892	31854
32.81703	35927
32.82517	34254
32.83328	31913
32.84140	33859
32.84953	30252
32.85765	29092
32.86578	30849
32.87390	29990
32.88202	28702
32.89015	27952
32.89827	33577
32.90640	32391
32.91452	31204
32.92263	32104
32.93077	30653
32.93888	32501
32.94700	33873
32.95513	32945
32.96325	31895
32.97138	30579
32.97950	31314
32.98762	35657
32.99575	31658
33.00387	30127
33.01200	35138
33.02012	30107
33.02823	33659
33.03637	29023
33.04448	31127
33.05262	30089
33.06073	33012
33.06885	33016
33.07698	34190
33.08510	36541
33.09322	37055
33.10135	45183
33.10947	47999
33.11760	56591
33.12572	62492
33.13383	67791
33.14197	60708
33.15008	53509
33.15822	52559
33.16633	43962
33.17445	41518
33.18258	37619
33.19070	41928
33.19882	38541
33.20695	37550
33.21507	33694
33.22320	38136
33.23132	42915
33.23943	39972
33.24757	38461
33.25568	36832
33.26382	39468
33.27193	36284
33.28005	37393
33.28818	34054
33.29630	35811
33.30443	34939
33.31255	33671
33.32067	38075
33.32880	36113
33.33692	34643
33.34503	37334
33.35317	32589
33.36128	29981
33.36942	34137
33.37753	32366
33.38565	32268
33.39378	34395
33.40190	35435
33.41003	34195
33.41815	31319
33.42627	33296
33.43440	30182
33.44252	33908
33.45063	33177
33.45877	31635
33.46688	31188
33.47502	33314
33.48313	35808
33.49125	35002
33.49938	33210
33.50750	31718
33.51563	34397
33.52375	31791
33.53187	30822
33.54000	32237
33.54812	33464
33.55625	34157
33.56437	33293
33.57248	33487
33.58062	34105
33.58873	32019
33.59685	32929
33.60498	34831
33.61310	34805
33.62123	34392
33.62935	31882
33.63747	31215
33.64560	30926
33.65372	29814
33.66185	30696
33.66997	36636
33.67808	32367
33.68622	29870
33.69433	38379
33.70247	31939
33.71058	31397
33.71870	29981
33.72683	27706
33.73495	32596
33.74307	36768
33.75120	34832
33.75932	35147
33.76745	31362
33.77557	31372
33.78368	31979
33.79182	32297
33.79993	30492
33.80807	31845
33.81618	33008
33.82430	36818
33.83243	33591
33.84055	33322
33.84867	34027
33.85680	34130
33.86492	34689
33.87305	34886
33.88117	36734
33.88928	36752
33.89742	35976
33.90553	34265
33.91367	32726
33.92178	34940
33.92990	34370
33.93803	35593
33.94615	33724
33.95428	34567
33.96240	35398
33.97052	30836
33.97865	38202
33.98677	35086
33.99488	33897
34.00302	34955
34.01113	33131
34.01927	30272
34.02738	33261
34.03550	31422
34.04363	36034
34.05175	29227
34.05988	32752
34.06800	31553
34.07612	36921
34.08425	31699
34.09237	33950
34.10050	33207
34.10862	35679
34.11673	33431
34.12487	30400
34.13298	31745
34.14110	35299
34.14923	33433
34.15735	37833
34.16548	32800
34.17360	30561
34.18172	32267
34.18985	32736
34.19797	32368
34.20610	31397
34.21422	31635
34.22233	31281
34.23047	35200
34.23858	38366
34.24670	32141
34.25483	30999
34.26295	36201
34.27108	34303
34.27920	33259
34.28732	34297
34.29545	36172
34.30357	33379
34.31170	32270
34.31982	33918
34.32793	33252
34.33607	36777
34.34418	32391
34.35232	31035
34.36043	31838
34.36855	33942
34.37668	36433
34.38480	33192
34.39292	34407
34.40105	35858
34.40917	32135
34.41730	35432
34.42542	31674
34.43353	38605
34.44167	33762
34.44978	34061
34.45792	32702
34.46603	32007
34.47415	37401
34.48228	34436
34.49040	35900
34.49852	31519
34.50665	33326
34.51477	39905
34.52290	37853
34.53102	43537
34.53913	45280
34.54727	56013
34.55538	54918
34.56352	66994
34.57163	65664
34.57975	65472
34.58788	64253
34.59600	64600
34.60413	57904
34.61225	54121
34.62037	57114
34.62850	48293
34.63662	48658
34.64473	41075
34.65287	45954
34.66098	41093
34.66912	44865
34.67723	40709
34.68535	43912
34.69348	40291
34.70160	41376
34.70973	42508
34.71785	38733
34.72597	43682
34.73410	39037
34.74222	41586
34.75035	44493
34.75847	42784
34.76658	39417
34.77472	36661
34.78283	37312
34.79095	40534
34.79908	38827
34.80720	38238
34.81533	38393
34.82345	36068
34.83157	44649
34.83970	43196
34.84782	38477
34.85595	36981
34.86407	39350
34.87218	38030
34.88032	37067
34.88843	33775
34.89655	35339
34.90468	40961
34.91280	37465
34.92093	38746
34.92905	40404
34.93717	39893
34.94530	42059
34.95342	44080
34.96155	49152
34.96967	47340
34.97778	57071
34.98592	61338
34.99403	58099
35.00217	55184
35.01028	56030
35.01840	48930
35.02653	48472
35.03465	44049
35.04277	45517
35.05090	44645
35.05902	43589
35.06715	40956
35.07527	40125
35.08338	39587
35.09152	36766
35.09963	39420
35.10777	40267
35.11588	39056
35.12400	41274
35.13213	39197
35.14025	40606
35.14838	39203
35.15650	40964
35.16462	46235
35.17275	48237
35.18087	42683
35.18898	43656
35.19712	40445
35.20523	41767
35.21337	39963
35.22148	41777
35.22960	40277
35.23773	37647
35.24585	37737
35.25398	39368
35.26210	40764
35.27022	40941
35.27835	40329
35.28647	43503
35.29458	40272
35.30272	43035
35.31083	42254
35.31897	41712
35.32708	40528
35.33520	40406
35.34333	38661
35.35145	41104
35.35958	36773
35.36770	39875
35.37582	37229
35.38395	37930
35.39207	37274
35.40020	36586
35.40832	36011
35.41643	37744
35.42457	37407
35.43268	36348
35.44080	36909
35.44893	39672
35.45705	38913
35.46518	39557
35.47330	38883
35.48142	44938
35.48955	40179
35.49767	44117
35.50580	41650
35.51392	43134
35.52203	40099
35.53017	38908
35.53828	40639
35.54640	36846
35.55453	42586
35.56265	37535
35.57078	40172
35.57890	40565
35.58702	40403
35.59515	37382
35.60327	40077
35.61140	39314
35.61952	42738
35.62763	38671
35.63577	40964
35.64388	42812
35.65202	42634
35.66013	39929
35.66825	43015
35.67638	46921
35.68450	42969
35.69262	41246
35.70075	45008
35.70887	48403
35.71700	49712
35.72512	41941
35.73323	40631
35.74137	37402
35.74948	37010
35.75762	40532
35.76573	42529
35.77385	40249
35.78198	41025
35.79010	39592
35.79823	38491
35.80635	36694
35.81447	36850
35.82260	37005
35.83072	41078
35.83883	40704
35.84697	36920
35.85508	39506
35.86322	38006
35.87133	43535
35.87945	38845
35.88758	41536
35.89570	40715
35.90383	36091
35.91195	39896
35.92007	40952
35.92820	39231
35.93632	37514
35.94445	36601
35.95257	37105
35.96068	36188
35.96882	34335
35.97693	36395
35.98505	38985
35.99318	35790
36.00130	42950
36.00943	42676
36.01755	42598
36.02567	42836
36.03380	39666
36.04192	41155
36.05005	47664
36.05817	42729
36.06628	41983
36.07442	39884
36.08253	45159
36.09065	41116
36.09878	36954
36.10690	42471
36.11503	41878
36.12315	41189
36.13127	40244
36.13940	39663
36.14752	40230
36.15565	39841
36.16377	39733
36.17188	40625
36.18002	40244
36.18813	38795
36.19627	41237
36.20438	41317
36.21250	39969
36.22063	42301
36.22875	44294
36.23687	41004
36.24500	44167
36.25312	41352
36.26125	43021
36.26937	40867
36.27748	38386
36.28562	38262
36.29373	41557
36.30187	40589
36.30998	44960
36.31810	49958
36.32623	51770
36.33435	52096
36.34247	49419
36.35060	53001
36.35872	50874
36.36685	49596
36.37497	46718
36.38308	41717
36.39122	40807
36.39933	44740
36.40747	45618
36.41558	44791
36.42370	44107
36.43183	44781
36.43995	41896
36.44808	45282
36.45620	44899
36.46432	43107
36.47245	39754
36.48057	41165
36.48868	43210
36.49682	40447
36.50493	41856
36.51307	39739
36.52118	41429
36.52930	41187
36.53743	40115
36.54555	38446
36.55368	41453
36.56180	36536
36.56992	40248
36.57805	36340
36.58617	40824
36.59430	43757
36.60242	40803
36.61053	43387
36.61867	40103
36.62678	39341
36.63490	42788
36.64303	42138
36.65115	39302
36.65928	40910
36.66740	47237
36.67552	45663
36.68365	43900
36.69177	45174
36.69990	47737
36.70802	45016
36.71613	45154
36.72427	44473
36.73238	52199
36.74050	51612
36.74863	50447
36.75675	50606
36.76488	54510
36.77300	56074
36.78112	61826
36.78925	62254
36.79737	59043
36.80550	69060
36.81362	61347
36.82173	68590
36.82987	65353
36.83798	64828
36.84612	64278
36.85423	62553
36.86235	60454
36.87048	62513
36.87860	56568
36.88672	55303
36.89485	54819
36.90297	58671
36.91110	49515
36.91922	53302
36.92733	47567
36.93547	48527
36.94358	49142
36.95172	50683
36.95983	49442
36.96795	43761
36.97608	42142
36.98420	44816
36.99233	47346
37.00045	44348
37.00857	43097
37.01670	47989
37.02482	42912
37.03293	44785
37.04107	46401
37.04918	48520
37.05732	46890
37.06543	41126
37.07355	43752
37.08168	47869
37.08980	42523
37.09793	43766
37.10605	46446
37.11417	45458
37.12230	46659
37.13042	49330
37.13853	44113
37.14667	46762
37.15478	47329
37.16292	43934
37.17103	45324
37.17915	52101
37.18728	47009
37.19540	46433
37.20353	49931
37.21165	49670
37.21977	46448
37.22790	46780
37.23602	48049
37.24415	48953
37.25227	47210
37.26038	47949
37.26852	46027
37.27663	45344
37.28475	49033
37.29288	47817
37.30100	44956
37.30913	45843
37.31725	41170
37.32537	45966
37.33350	49436
37.34162	55467
37.34975	52496
37.35787	60600
37.36598	63996
37.37412	69518
37.38223	67244
37.39035	64788
37.39848	66922
37.40660	61094
37.41473	67018
37.42285	66255
37.43097	57388
37.43910	55370
37.44722	55705
37.45535	50766
37.46347	57177
37.47158	53878
37.47972	52017
37.48783	53473
