Z:\data\JTB-E02\BACandBLUE\JTB-E02-198-14.D Fri Feb 22 15:40:28 2019
Start of data points
2.09513	55708
2.10325	51674
2.11138	49007
2.11950	53142
2.12762	55667
2.13575	51500
2.14387	52074
2.15200	47452
2.16012	49115
2.16823	46988
2.17637	47269
2.18448	46562
2.19262	42958
2.20073	47489
2.20885	47168
2.21698	42244
2.22510	43243
2.23322	44005
2.24135	38374
2.24947	56253
2.25760	291159
2.26572	1229583
2.27383	1611390
2.28197	855535
2.29008	458846
2.29822	345443
2.30633	281864
2.31445	254882
2.32258	228737
2.33070	204851
2.33883	191298
2.34695	167019
2.35507	165801
2.36320	156177
2.37132	158034
2.37943	144122
2.38757	132865
2.39568	140051
2.40382	144155
2.41193	167461
2.42005	187932
2.42818	151609
2.43630	132066
2.44443	123233
2.45255	119543
2.46067	113135
2.46880	108479
2.47692	103264
2.48505	115215
2.49317	109314
2.50128	105459
2.50942	104492
2.51753	101163
2.52565	97130
2.53378	107940
2.54190	135920
2.55003	274500
2.55815	402850
2.56627	317712
2.57440	222463
2.58252	188825
2.59065	173414
2.59877	161623
2.60688	158141
2.61502	146570
2.62313	131648
2.63125	123752
2.63938	126720
2.64750	113127
2.65563	118154
2.66375	116651
2.67187	109057
2.68000	108648
2.68812	103732
2.69625	97305
2.70437	94055
2.71248	98473
2.72062	99356
2.72873	91674
2.73687	87556
2.74498	90255
2.75310	89434
2.76123	84729
2.76935	86149
2.77747	91097
2.78560	95801
2.79372	98473
2.80185	101108
2.80997	98348
2.81808	94687
2.82622	93165
2.83433	94751
2.84247	88268
2.85058	97128
2.85870	96526
2.86683	91655
2.87495	87434
2.88308	85665
2.89120	84986
2.89932	80069
2.90745	77728
2.91557	83929
2.92368	81299
2.93182	74167
2.93993	75015
2.94807	72352
2.95618	75279
2.96430	69993
2.97243	70704
2.98055	71873
2.98868	72451
2.99680	86424
3.00492	96372
3.01305	86091
3.02117	75937
3.02928	75883
3.03742	71761
3.04553	76351
3.05367	79352
3.06178	81362
3.06990	77772
3.07803	87229
3.08615	148805
3.09428	650645
3.10240	1664878
3.11052	1936977
3.11865	1331683
3.12677	890286
3.13490	714127
3.14302	566743
3.15113	487052
3.15927	427458
3.16738	377214
3.17550	327287
3.18363	296370
3.19175	270726
3.19988	243986
3.20800	231406
3.21612	218376
3.22425	201011
3.23237	184078
3.24050	171220
3.24862	164179
3.25673	156479
3.26487	152570
3.27298	165033
3.28110	298163
3.28923	1003099
3.29735	2676938
3.30548	4326449
3.31360	4510999
3.32172	3405124
3.32985	2398533
3.33797	1820286
3.34610	1485795
3.35422	1238377
3.36233	1063456
3.37047	954378
3.37858	865868
3.38672	782762
3.39483	708928
3.40295	670078
3.41108	618290
3.41920	566345
3.42732	528047
3.43545	507530
3.44357	460526
3.45170	495460
3.45982	695074
3.46793	941319
3.47607	926578
3.48418	716924
3.49232	561147
3.50043	479038
3.50855	429826
3.51668	396479
3.52480	390658
3.53293	359144
3.54105	327133
3.54917	308168
3.55730	292271
3.56542	284525
3.57353	268087
3.58167	261485
3.58978	250968
3.59792	239305
3.60603	242690
3.61415	241194
3.62228	245538
3.63040	240850
3.63853	229361
3.64665	220291
3.65477	218658
3.66290	218352
3.67102	224189
3.67915	223705
3.68727	226380
3.69538	232089
3.70352	217103
3.71163	217522
3.71975	196537
3.72788	203036
3.73600	191976
3.74413	193925
3.75225	185479
3.76037	179564
3.76850	179246
3.77662	178233
3.78475	222704
3.79287	327475
3.80098	805115
3.80912	1735801
3.81723	2151501
3.82535	1700995
3.83348	1118103
3.84160	831827
3.84973	683555
3.85785	591941
3.86597	525824
3.87410	476873
3.88222	433299
3.89035	402648
3.89847	380416
3.90658	358921
3.91472	339048
3.92283	324939
3.93097	308634
3.93908	304126
3.94720	297308
3.95533	279929
3.96345	271823
3.97157	275442
3.97970	253606
3.98782	243439
3.99595	240941
4.00407	245016
4.01218	242809
4.02032	233696
4.02843	233362
4.03657	230803
4.04468	233528
4.05280	224684
4.06093	217600
4.06905	205056
4.07717	193276
4.08530	192334
4.09342	190135
4.10155	201592
4.10967	196673
4.11778	199777
4.12592	199488
4.13403	209122
4.14217	219177
4.15028	242671
4.15840	248423
4.16653	252411
4.17465	256076
4.18278	228367
4.19090	203636
4.19902	187358
4.20715	190897
4.21527	229665
4.22338	313263
4.23152	370902
4.23963	351613
4.24777	305317
4.25588	273223
4.26400	227177
4.27213	192779
4.28025	187673
4.28838	171151
4.29650	176529
4.30462	164866
4.31275	162190
4.32087	159408
4.32900	165161
4.33712	150715
4.34523	152423
4.35337	148318
4.36148	144076
4.36960	151642
4.37773	138103
4.38585	141035
4.39398	144707
4.40210	142923
4.41022	137200
4.41835	149438
4.42647	139804
4.43460	134667
4.44272	133236
4.45083	137007
4.45897	134699
4.46708	133627
4.47520	141663
4.48333	144089
4.49145	138994
4.49958	149054
4.50770	157178
4.51582	160383
4.52395	152130
4.53207	145017
4.54020	142766
4.54832	138153
4.55643	141828
4.56457	133633
4.57268	135515
4.58082	132940
4.58893	132338
4.59705	125735
4.60518	121539
4.61330	123523
4.62142	123902
4.62955	128143
4.63767	130054
4.64580	125934
4.65392	126396
4.66203	132649
4.67017	138035
4.67828	132454
4.68642	131551
4.69453	119345
4.70265	115390
4.71078	118344
4.71890	117424
4.72703	113568
4.73515	100922
4.74327	110775
4.75140	117834
4.75952	113329
4.76763	119428
4.77577	118624
4.78388	120432
4.79202	127845
4.80013	148660
4.80825	168837
4.81638	171070
4.82450	177458
4.83263	200667
4.84075	227647
4.84887	212801
4.85700	183008
4.86512	161882
4.87323	144854
4.88137	142827
4.88948	138290
4.89762	134537
4.90573	129439
4.91385	128409
4.92198	129008
4.93010	171478
4.93823	360494
4.94635	843804
4.95447	1665110
4.96260	2389732
4.97072	2596499
4.97885	2189004
4.98697	1624831
4.99508	1176572
5.00322	889678
5.01133	723453
5.01945	613267
5.02758	547044
5.03570	483349
5.04383	451504
5.05195	417548
5.06007	392585
5.06820	363186
5.07632	349995
5.08445	318131
5.09257	315257
5.10068	293870
5.10882	283629
5.11693	265203
5.12505	266853
5.13318	264816
5.14130	244279
5.14943	250827
5.15755	239891
5.16567	243532
5.17380	264398
5.18192	276502
5.19005	285845
5.19817	274526
5.20628	246950
5.21442	239182
5.22253	225115
5.23067	230475
5.23878	239860
5.24690	232278
5.25503	228513
5.26315	196191
5.27127	192072
5.27940	183787
5.28752	186545
5.29565	178518
5.30377	183130
5.31188	181654
5.32002	198548
5.32813	235847
5.33627	279362
5.34438	300316
5.35250	281044
5.36063	256013
5.36875	215349
5.37688	212216
5.38500	199398
5.39312	189991
5.40125	180901
5.40937	180632
5.41748	193883
5.42562	274959
5.43373	374325
5.44187	466653
5.44998	494473
5.45810	438866
5.46623	371454
5.47435	329747
5.48248	285257
5.49060	272892
5.49872	293411
5.50685	356137
5.51497	443360
5.52308	523104
5.53122	477681
5.53933	396213
5.54747	305284
5.55558	249625
5.56370	228280
5.57183	212402
5.57995	207838
5.58808	209131
5.59620	205951
5.60432	208191
5.61245	202594
5.62057	201413
5.62870	204653
5.63682	204742
5.64493	203644
5.65307	193529
5.66118	183071
5.66930	173461
5.67743	193389
5.68555	209112
5.69368	219294
5.70180	220113
5.70992	211666
5.71805	193946
5.72617	180061
5.73430	174252
5.74242	164583
5.75053	157307
5.75867	159022
5.76678	152956
5.77492	154117
5.78303	159506
5.79115	146366
5.79928	156185
5.80740	144841
5.81552	143965
5.82365	143455
5.83177	142327
5.83990	141730
5.84802	137517
5.85613	148920
5.86427	142968
5.87238	134430
5.88052	130806
5.88863	129342
5.89675	131145
5.90488	124393
5.91300	128911
5.92112	110296
5.92925	108542
5.93737	108314
5.94550	107795
5.95362	104950
5.96173	113742
5.96987	114718
5.97798	127837
5.98612	133158
5.99423	125566
6.00235	118252
6.01048	109076
6.01860	107438
6.02673	107469
6.03485	104446
6.04297	100686
6.05110	104816
6.05922	107807
6.06733	104662
6.07547	99608
6.08358	97893
6.09172	95172
6.09983	92047
6.10795	98258
6.11608	100779
6.12420	101692
6.13233	100786
6.14045	101491
6.14857	109659
6.15670	108546
6.16482	116765
6.17295	119678
6.18107	112950
6.18918	116504
6.19732	116294
6.20543	118271
6.21355	119936
6.22168	122790
6.22980	128838
6.23793	127747
6.24605	133166
6.25417	132364
6.26230	134770
6.27042	140273
6.27855	139797
6.28667	136638
6.29478	140001
6.30292	138079
6.31103	140218
6.31915	140356
6.32728	145882
6.33540	148015
6.34353	155061
6.35165	154941
6.35977	156209
6.36790	161914
6.37602	161338
6.38415	162283
6.39227	165360
6.40038	176796
6.40852	166690
6.41663	172740
6.42477	168884
6.43288	177034
6.44100	186985
6.44913	186141
6.45725	192338
6.46537	193360
6.47350	199160
6.48162	186290
6.48975	185675
6.49787	188983
6.50598	192990
6.51412	185553
6.52223	191638
6.53037	188237
6.53848	198620
6.54660	197135
6.55473	204992
6.56285	204892
6.57097	203967
6.57910	209712
6.58722	206768
6.59535	201592
6.60347	208407
6.61158	211794
6.61972	218409
6.62783	214708
6.63597	250459
6.64408	392485
6.65220	898395
6.66033	2021207
6.66845	3342866
6.67658	3741832
6.68470	3094715
6.69282	2037361
6.70095	1308495
6.70907	935706
6.71718	754023
6.72532	659651
6.73343	563876
6.74157	509665
6.74968	486669
6.75780	446207
6.76593	418846
6.77405	404562
6.78218	380017
6.79030	320653
6.79842	286900
6.80655	269471
6.81467	243421
6.82280	245356
6.83092	239800
6.83903	251377
6.84717	259112
6.85528	257219
6.86340	240300
6.87153	201317
6.87965	181254
6.88778	161609
6.89590	153674
6.90402	135759
6.91215	142653
6.92027	132611
6.92840	129400
6.93652	125718
6.94463	125866
6.95277	117303
6.96088	124988
6.96900	132330
6.97713	133982
6.98525	145541
6.99338	132136
7.00150	118504
7.00962	110089
7.01775	101812
7.02587	98850
7.03400	91588
7.04212	88787
7.05023	99712
7.05837	106509
7.06648	118763
7.07462	120792
7.08273	127319
7.09085	123083
7.09898	129152
7.10710	142992
7.11522	138871
7.12335	125055
7.13147	123142
7.13960	112101
7.14772	112050
7.15583	115558
7.16397	108717
7.17208	104114
7.18022	97470
7.18833	96131
7.19645	103295
7.20458	93682
7.21270	94796
7.22083	95754
7.22895	102789
7.23707	112936
7.24520	124625
7.25332	132757
7.26143	133340
7.26957	115528
7.27768	103145
7.28582	100282
7.29393	95768
7.30205	91324
7.31018	87403
7.31830	88278
7.32643	80559
7.33455	85100
7.34267	77530
7.35080	83510
7.35892	80254
7.36703	86032
7.37517	83972
7.38328	90599
7.39142	87403
7.39953	87698
7.40765	83828
7.41578	85062
7.42390	85236
7.43203	74448
7.44015	75441
7.44827	78730
7.45640	83700
7.46452	79114
7.47265	77200
7.48077	69337
7.48888	73836
7.49702	70061
7.50513	76460
7.51325	69936
7.52138	68171
7.52950	73410
7.53763	74664
7.54575	76316
7.55387	72438
7.56200	69989
7.57012	76220
7.57825	71129
7.58637	68610
7.59448	67303
7.60262	68665
7.61073	69094
7.61885	68567
7.62698	69970
7.63510	67472
7.64323	69910
7.65135	68912
7.65947	66938
7.66760	66551
7.67572	68157
7.68385	71696
7.69197	72352
7.70008	67646
7.70822	62596
7.71633	64986
7.72447	62980
7.73258	66093
7.74070	67386
7.74883	66732
7.75695	64686
7.76507	64879
7.77320	64518
7.78132	62842
7.78945	66218
7.79757	73743
7.80568	66346
7.81382	69092
7.82193	69435
7.83007	59758
7.83818	60548
7.84630	60381
7.85443	57624
7.86255	56238
7.87068	62308
7.87880	61061
7.88692	60550
7.89505	60383
7.90317	61926
7.91128	58993
7.91942	74742
7.92753	93731
7.93567	125468
7.94378	155800
7.95190	156201
7.96003	148149
7.96815	128804
7.97628	101954
7.98440	80489
7.99252	72994
8.00065	72954
8.00877	71902
8.01690	67108
8.02502	66116
8.03313	62389
8.04127	59818
8.04938	64401
8.05750	64453
8.06563	63519
8.07375	65932
8.08188	61456
8.09000	64248
8.09812	61040
8.10625	60840
8.11437	62203
8.12250	69165
8.13062	75387
8.13873	72845
8.14687	66288
8.15498	65490
8.16310	66335
8.17123	64822
8.17935	66249
8.18748	60593
8.19560	54974
8.20372	55568
8.21185	60205
8.21997	60841
8.22810	57132
8.23622	55136
8.24433	55184
8.25247	57807
8.26058	55970
8.26872	57215
8.27683	55550
8.28495	57723
8.29308	65160
8.30120	74782
8.30932	80205
8.31745	79590
8.32557	75162
8.33370	70848
8.34182	63159
8.34993	63998
8.35807	74685
8.36618	87043
8.37432	105738
8.38243	124352
8.39055	128040
8.39868	113612
8.40680	98482
8.41492	78616
8.42305	67356
8.43117	58855
8.43930	58390
8.44742	58646
8.45553	58895
8.46367	56751
8.47178	53074
8.47992	56636
8.48803	56344
8.49615	60168
8.50428	54879
8.51240	62075
8.52053	75140
8.52865	194411
8.53677	566710
8.54490	1484734
8.55302	3033890
8.56113	4364891
8.56927	4727411
8.57738	3950165
8.58552	2547541
8.59363	1359897
8.60175	666629
8.60988	362509
8.61800	276688
8.62613	216170
8.63425	218672
8.64237	200763
8.65050	181989
8.65862	177930
8.66675	165401
8.67487	160713
8.68298	161410
8.69112	143092
8.69923	147905
8.70735	133261
8.71548	131221
8.72360	122532
8.73173	121401
8.73985	107339
8.74797	112417
8.75610	132050
8.76422	193853
8.77235	329607
8.78047	525522
8.78858	691777
8.79672	762529
8.80483	660694
8.81295	514619
8.82108	367301
8.82920	277970
8.83733	221891
8.84545	198662
8.85357	195531
8.86170	201542
8.86982	205123
8.87795	202174
8.88607	194669
8.89418	186461
8.90232	173647
8.91043	169396
8.91857	156876
8.92668	157127
8.93480	145620
8.94293	154325
8.95105	132924
8.95917	144800
8.96730	133134
8.97542	135183
8.98355	122820
8.99167	137543
8.99978	125542
9.00792	129037
9.01603	120369
9.02417	113938
9.03228	110389
9.04040	111378
9.04853	109247
9.05665	107170
9.06478	109443
9.07290	106043
9.08102	112373
9.08915	106101
9.09727	112870
9.10538	113846
9.11352	106551
9.12163	107890
9.12977	102395
9.13788	98412
9.14600	93887
9.15413	96895
9.16225	91584
9.17038	101996
9.17850	89987
9.18662	91322
9.19475	96353
9.20287	90650
9.21098	89141
9.21912	93193
9.22723	89566
9.23537	96709
9.24348	91684
9.25160	90774
9.25973	91603
9.26785	87254
9.27598	86897
9.28410	81322
9.29222	84725
9.30035	73454
9.30847	79949
9.31660	78700
9.32472	73655
9.33283	76347
9.34097	78022
9.34908	77248
9.35720	72117
9.36533	75482
9.37345	75830
9.38158	78254
9.38970	72288
9.39782	70125
9.40595	71243
9.41407	72188
9.42220	78528
9.43032	72789
9.43843	69381
9.44657	70878
9.45468	67788
9.46280	72644
9.47093	66999
9.47905	65179
9.48718	70318
9.49530	77609
9.50342	90775
9.51155	114519
9.51967	128568
9.52780	132556
9.53592	133496
9.54403	121079
9.55217	99546
9.56028	90381
9.56842	78670
9.57653	74802
9.58465	66891
9.59278	60679
9.60090	61283
9.60902	52725
9.61715	54606
9.62527	56919
9.63340	47808
9.64152	53651
9.64963	51978
9.65777	46662
9.66588	47092
9.67402	44607
9.68213	46164
9.69025	44353
9.69838	47696
9.70650	47653
9.71463	40869
9.72275	41987
9.73087	46660
9.73900	49202
9.74712	44150
9.75523	40824
9.76337	41277
9.77148	45477
9.77962	47196
9.78773	44730
9.79585	44621
9.80398	44107
9.81210	45139
9.82023	45473
9.82835	45606
9.83647	41352
9.84460	42064
9.85272	41035
9.86083	46791
9.86897	44935
9.87708	44560
9.88522	41587
9.89333	48017
9.90145	48817
9.90958	47495
9.91770	49548
9.92583	51748
9.93395	61327
9.94207	59323
9.95020	62128
9.95832	63049
9.96645	60202
9.97457	49696
9.98268	49248
9.99082	49259
9.99893	56210
10.00705	56956
10.01518	59458
10.02330	60062
10.03143	60385
10.03955	55316
10.04767	50615
10.05580	48738
10.06392	46407
10.07205	50071
10.08017	46799
10.08828	45545
10.09642	47224
10.10453	49323
10.11267	47725
10.12078	47049
10.12890	45383
10.13703	43290
10.14515	42251
10.15327	40657
10.16140	49397
10.16952	38002
10.17765	40561
10.18577	42086
10.19388	40136
10.20202	42228
10.21013	44998
10.21827	46443
10.22638	42763
10.23450	49793
10.24263	60894
10.25075	66669
10.25887	74784
10.26700	110639
10.27512	237018
10.28325	552162
10.29137	1153141
10.29948	1906570
10.30762	2488046
10.31573	2738049
10.32387	2858009
10.33198	2999148
10.34010	3278094
10.34823	3120616
10.35635	2462317
10.36448	1546041
10.37260	846241
10.38072	455703
10.38885	279400
10.39697	204063
10.40508	170735
10.41322	140700
10.42133	123899
10.42947	117097
10.43758	107935
10.44570	101203
10.45383	100144
10.46195	95905
10.47008	86556
10.47820	84807
10.48632	78296
10.49445	86177
10.50257	81464
10.51070	86991
10.51882	92367
10.52693	101011
10.53507	106793
10.54318	93363
10.55130	83426
10.55943	77249
10.56755	66595
10.57568	62635
10.58380	67142
10.59192	64624
10.60005	62352
10.60817	62937
10.61630	64476
10.62442	64613
10.63253	62867
10.64067	57131
10.64878	57703
10.65690	56314
10.66503	59167
10.67315	64645
10.68128	63327
10.68940	60454
10.69752	55916
10.70565	57978
10.71377	53294
10.72190	55766
10.73002	61188
10.73813	57907
10.74627	60169
10.75438	66668
10.76252	66676
10.77063	64824
10.77875	59630
10.78688	47741
10.79500	49308
10.80312	48664
10.81125	44787
10.81937	45681
10.82750	43375
10.83562	50329
10.84373	44358
10.85187	44073
10.85998	49136
10.86812	48351
10.87623	44079
10.88435	44624
10.89248	44270
10.90060	43888
10.90872	44720
10.91685	39245
10.92497	44357
10.93310	44161
10.94122	40326
10.94933	41417
10.95747	42410
10.96558	45168
10.97372	43901
10.98183	43565
10.98995	40921
10.99808	42165
11.00620	41958
11.01433	43052
11.02245	40457
11.03057	39949
11.03870	42377
11.04682	39734
11.05493	47597
11.06307	40456
11.07118	37238
11.07932	37599
11.08743	38228
11.09555	41665
11.10368	34746
11.11180	35365
11.11993	37634
11.12805	36187
11.13617	34593
11.14430	35206
11.15242	39491
11.16055	39730
11.16867	40298
11.17678	41939
11.18492	44950
11.19303	45662
11.20115	48661
11.20928	39993
11.21740	40585
11.22553	39953
11.23365	37752
11.24177	35647
11.24990	39764
11.25802	36543
11.26615	35838
11.27427	40998
11.28238	39286
11.29052	36337
11.29863	41091
11.30675	42304
11.31488	38892
11.32300	40315
11.33113	38139
11.33925	35273
11.34737	34764
11.35550	35270
11.36362	38300
11.37175	43929
11.37987	35649
11.38798	37322
11.39612	37677
11.40423	34338
11.41237	34430
11.42048	37019
11.42860	31486
11.43673	36663
11.44485	34199
11.45297	34275
11.46110	32601
11.46922	40711
11.47735	36802
11.48547	40543
11.49358	47888
11.50172	59029
11.50983	56584
11.51797	57593
11.52608	56364
11.53420	53784
11.54233	54821
11.55045	58116
11.55858	55945
11.56670	49976
11.57482	48891
11.58295	48949
11.59107	46516
11.59918	43113
11.60732	43378
11.61543	41891
11.62357	38549
11.63168	38544
11.63980	37083
11.64793	40497
11.65605	39709
11.66418	40198
11.67230	43113
11.68042	56379
11.68855	69652
11.69667	90046
11.70478	106026
11.71292	106460
11.72103	94813
11.72917	79402
11.73728	65779
11.74540	52521
11.75353	49652
11.76165	49035
11.76978	46527
11.77790	42048
11.78602	44573
11.79415	44649
11.80227	40816
11.81040	43412
11.81852	43799
11.82663	42238
11.83477	44664
11.84288	46506
11.85100	42468
11.85913	43809
11.86725	36804
11.87538	40401
11.88350	40718
11.89162	39997
11.89975	41332
11.90787	37819
11.91600	43415
11.92412	39248
11.93223	38994
11.94037	38759
11.94848	40507
11.95660	41767
11.96473	36687
11.97285	38218
11.98098	36057
11.98910	37636
11.99722	43019
12.00535	49516
12.01347	57593
12.02160	61926
12.02972	58256
12.03783	56194
12.04597	50075
12.05408	46826
12.06222	43146
12.07033	39456
12.07845	38268
12.08658	37317
12.09470	43087
12.10282	40487
12.11095	40367
12.11907	40625
12.12720	40616
12.13532	39463
12.14343	41761
12.15157	39303
12.15968	38284
12.16782	37519
12.17593	37088
12.18405	38308
12.19218	37206
12.20030	31923
12.20843	34494
12.21655	37189
12.22467	38701
12.23280	39601
12.24092	33862
12.24903	37345
12.25717	35871
12.26528	35150
12.27342	33534
12.28153	34472
12.28965	39200
12.29778	36206
12.30590	35647
12.31403	30626
12.32215	38126
12.33027	34676
12.33840	31781
12.34652	33382
12.35463	38240
12.36277	35264
12.37088	33009
12.37902	31791
12.38713	34530
12.39525	36558
12.40338	40603
12.41150	33974
12.41963	38924
12.42775	39829
12.43587	44885
12.44400	49877
12.45212	52049
12.46025	43060
12.46837	41410
12.47648	43311
12.48462	34895
12.49273	31818
12.50085	36021
12.50898	37036
12.51710	35614
12.52523	37871
12.53335	38329
12.54147	42846
12.54960	47991
12.55772	64957
12.56585	90116
12.57397	113536
12.58208	117293
12.59022	120873
12.59833	91963
12.60647	76898
12.61458	56181
12.62270	54287
12.63083	49073
12.63895	47610
12.64707	42503
12.65520	45819
12.66332	41281
12.67145	40532
12.67957	40359
12.68768	40548
12.69582	41576
12.70393	38534
12.71207	39164
12.72018	38779
12.72830	37281
12.73643	43341
12.74455	43985
12.75267	41749
12.76080	42643
12.76892	37189
12.77705	37742
12.78517	32539
12.79328	35983
12.80142	35234
12.80953	34213
12.81767	35443
12.82578	35218
12.83390	33422
12.84203	33519
12.85015	30521
12.85828	33546
12.86640	33370
12.87452	33783
12.88265	30969
12.89077	34844
12.89888	34292
12.90702	38241
12.91513	36300
12.92327	29761
12.93138	29759
12.93950	37226
12.94763	32707
12.95575	32296
12.96388	31319
12.97200	40490
12.98012	36468
12.98825	43605
12.99637	44777
13.00448	40048
13.01262	44483
13.02073	38810
13.02887	35759
13.03698	37579
13.04510	34192
13.05323	31895
13.06135	34364
13.06948	34114
13.07760	41105
13.08572	39488
13.09385	34925
13.10197	34829
13.11010	39180
13.11822	36446
13.12633	34436
13.13447	37795
13.14258	33916
13.15070	34778
13.15883	35159
13.16695	33015
13.17508	31426
13.18320	35496
13.19132	36268
13.19945	38257
13.20757	35119
13.21570	34756
13.22382	41725
13.23193	38101
13.24007	38627
13.24818	36760
13.25632	32286
13.26443	34524
13.27255	36440
13.28068	32835
13.28880	29739
13.29692	30655
13.30505	33772
13.31317	32196
13.32130	34006
13.32942	34548
13.33753	31715
13.34567	29542
13.35378	35845
13.36192	32788
13.37003	32997
13.37815	34519
13.38628	29061
13.39440	31949
13.40253	33534
13.41065	33168
13.41877	32854
13.42690	33134
13.43502	29597
13.44313	31026
13.45127	33454
13.45938	33374
13.46752	31142
13.47563	32500
13.48375	32353
13.49188	29027
13.50000	31060
13.50813	30606
13.51625	32533
13.52437	32755
13.53250	32712
13.54062	32207
13.54873	32539
13.55687	31603
13.56498	36532
13.57312	31728
13.58123	33132
13.58935	32050
13.59748	32906
13.60560	32253
13.61373	31757
13.62185	32245
13.62997	39284
13.63810	36316
13.64622	33058
13.65435	30195
13.66247	36569
13.67058	31652
13.67872	28301
13.68683	33217
13.69495	28688
13.70308	27359
13.71120	32837
13.71933	30638
13.72745	34451
13.73557	39857
13.74370	68994
13.75182	134436
13.75995	299420
13.76807	625235
13.77618	1140047
13.78432	1548950
13.79243	1729847
13.80055	1595896
13.80868	1196800
13.81680	814463
13.82493	505955
13.83305	320670
13.84117	247528
13.84930	206360
13.85742	188565
13.86555	160467
13.87367	153677
13.88178	139396
13.88992	132629
13.89803	125892
13.90617	120112
13.91428	117088
13.92240	113039
13.93053	105169
13.93865	111569
13.94677	111624
13.95490	144773
13.96302	203104
13.97115	327867
13.97927	552961
13.98738	665947
13.99552	797957
14.00363	725421
14.01177	588901
14.01988	406881
14.02800	296109
14.03613	221853
14.04425	169828
14.05238	148514
14.06050	138269
14.06862	129607
14.07675	125404
14.08487	137981
14.09298	125150
14.10112	107095
14.10923	106525
14.11737	100329
14.12548	102718
14.13360	94558
14.14173	93113
14.14985	98520
14.15798	90137
14.16610	93462
14.17422	93700
14.18235	92560
14.19047	91437
14.19858	125915
14.20672	158103
14.21483	196287
14.22297	239577
14.23108	261888
14.23920	249728
14.24733	212012
14.25545	201242
14.26358	183019
14.27170	155774
14.27982	135078
14.28795	124096
14.29607	109185
14.30420	101083
14.31232	102579
14.32043	95627
14.32857	90996
14.33668	88349
14.34480	86511
14.35293	90461
14.36105	83155
14.36918	82119
14.37730	78269
14.38542	71337
14.39355	68722
14.40167	60860
14.40980	53857
14.41792	58204
14.42603	55684
14.43417	51847
14.44228	55334
14.45042	50607
14.45853	46291
14.46665	47543
14.47478	47443
14.48290	45374
14.49102	42529
14.49915	38890
14.50727	43997
14.51540	41272
14.52352	45469
14.53163	41346
14.53977	44168
14.54788	42966
14.55602	46034
14.56413	39184
14.57225	40520
14.58038	36128
14.58850	39714
14.59662	39012
14.60475	41341
14.61287	39550
14.62100	45975
14.62912	40701
14.63723	38372
14.64537	38215
14.65348	39175
14.66162	32781
14.66973	32984
14.67785	35040
14.68598	34092
14.69410	41311
14.70223	36789
14.71035	34145
14.71847	35100
14.72660	34256
14.73472	35399
14.74283	37527
14.75097	36096
14.75908	35928
14.76722	35696
14.77533	33891
14.78345	34218
14.79158	36776
14.79970	33190
14.80783	35714
14.81595	35445
14.82407	41833
14.83220	38822
14.84032	45687
14.84843	49649
14.85657	50983
14.86468	54457
14.87282	50676
14.88093	56775
14.88905	49192
14.89718	51087
14.90530	51902
14.91343	46057
14.92155	44874
14.92967	42234
14.93780	44038
14.94592	40874
14.95405	41434
14.96217	40419
14.97028	45368
14.97842	42387
14.98653	42094
14.99465	42837
15.00278	41803
15.01090	38905
15.01903	43349
15.02715	44002
15.03527	40869
15.04340	42585
15.05152	40855
15.05965	36824
15.06777	39824
15.07588	38757
15.08402	37106
15.09213	37773
15.10027	40171
15.10838	37167
15.11650	38775
15.12463	39280
15.13275	35165
15.14087	36188
15.14900	35887
15.15712	35979
15.16525	35879
15.17337	38004
15.18148	38656
15.18962	36624
15.19773	41770
15.20587	36672
15.21398	40042
15.22210	36857
15.23023	32386
15.23835	33789
15.24647	32786
15.25460	33445
15.26272	33860
15.27085	30765
15.27897	29905
15.28708	33485
15.29522	32489
15.30333	31920
15.31147	31702
15.31958	33995
15.32770	34494
15.33583	36090
15.34395	33525
15.35208	30947
15.36020	31176
15.36832	33112
15.37645	35735
15.38457	32880
15.39268	31413
15.40082	35325
15.40893	33192
15.41707	32340
15.42518	40646
15.43330	32763
15.44143	33028
15.44955	32550
15.45768	35505
15.46580	36976
15.47392	30951
15.48205	31945
15.49017	36517
15.49830	35570
15.50642	44832
15.51453	54346
15.52267	79053
15.53078	123197
15.53890	180583
15.54703	215717
15.55515	225790
15.56328	209746
15.57140	163948
15.57952	117414
15.58765	84855
15.59577	66100
15.60390	56827
15.61202	46956
15.62013	44715
15.62827	41698
15.63638	40384
15.64450	41548
15.65263	36895
15.66075	35861
15.66888	35693
15.67700	41810
15.68512	37033
15.69325	35114
15.70137	35381
15.70950	32465
15.71762	37605
15.72573	32698
15.73387	36186
15.74198	34262
15.75012	32425
15.75823	39437
15.76635	36315
15.77448	37371
15.78260	37090
15.79072	37335
15.79885	44801
15.80697	44814
15.81510	42319
15.82322	42328
15.83133	39126
15.83947	38537
15.84758	37006
15.85572	35848
15.86383	38237
15.87195	42836
15.88008	40141
15.88820	39777
15.89633	39643
15.90445	39540
15.91257	41873
15.92070	38241
15.92882	32957
15.93693	33938
15.94507	38174
15.95318	37680
15.96132	38542
15.96943	47071
15.97755	47271
15.98568	49274
15.99380	47364
16.00193	52050
16.01005	47424
16.01817	47223
16.02630	42640
16.03442	45100
16.04253	45532
16.05067	40627
16.05878	38239
16.06692	40685
16.07503	39692
16.08315	36259
16.09128	43704
16.09940	40976
16.10753	36406
16.11565	44036
16.12377	41423
16.13190	38923
16.14002	38829
16.14815	39602
16.15627	34232
16.16438	36865
16.17252	39124
16.18063	36042
16.18875	37085
16.19688	37874
16.20500	37148
16.21313	34917
16.22125	34709
16.22937	36508
16.23750	34041
16.24562	36785
16.25375	35767
16.26187	37347
16.26998	35892
16.27812	36168
16.28623	37018
16.29435	34364
16.30248	34316
16.31060	34684
16.31873	33377
16.32685	32875
16.33497	35643
16.34310	39090
16.35122	47127
16.35935	59196
16.36747	78288
16.37558	111092
16.38372	146466
16.39183	159576
16.39997	152469
16.40808	133401
16.41620	100621
16.42433	77833
16.43245	66320
16.44057	57106
16.44870	46123
16.45682	49463
16.46495	48384
16.47307	47511
16.48118	43212
16.48932	44188
16.49743	44092
16.50557	45920
16.51368	48816
16.52180	41909
16.52993	41863
16.53805	40468
16.54618	41374
16.55430	42524
16.56242	40269
16.57055	42164
16.57867	40924
16.58678	39618
16.59492	44664
16.60303	46365
16.61117	49502
16.61928	53178
16.62740	51923
16.63553	54285
16.64365	45325
16.65178	43750
16.65990	39874
16.66802	40985
16.67615	38866
16.68427	39755
16.69238	36459
16.70052	38760
16.70863	34993
16.71677	35723
16.72488	35045
16.73300	35210
16.74113	32964
16.74925	34225
16.75738	35027
16.76550	31770
16.77362	33124
16.78175	30809
16.78987	37358
16.79800	35952
16.80612	35213
16.81423	33611
16.82237	31035
16.83048	31657
16.83860	33932
16.84673	32317
16.85485	30466
16.86298	38895
16.87110	28769
16.87922	30767
16.88735	31527
16.89547	32756
16.90360	31785
16.91172	30964
16.91983	32608
16.92797	34969
16.93608	35556
16.94422	34891
16.95233	32445
16.96045	35608
16.96858	33329
16.97670	29778
16.98482	31414
16.99295	30283
17.00107	32018
17.00920	33366
17.01732	34553
17.02543	29736
17.03357	30358
17.04168	28831
17.04982	35474
17.05793	33013
17.06605	33617
17.07418	32765
17.08230	35506
17.09042	35537
17.09855	35882
17.10667	40301
17.11480	40395
17.12292	41648
17.13103	34029
17.13917	35286
17.14728	38521
17.15542	38529
17.16353	35163
17.17165	33539
17.17978	35171
17.18790	29360
17.19603	36520
17.20415	31336
17.21227	27144
17.22040	26401
17.22852	31758
17.23663	31242
17.24477	30124
17.25288	35305
17.26102	31778
17.26913	34505
17.27725	36507
17.28538	34806
17.29350	37620
17.30163	30138
17.30975	33974
17.31787	39732
17.32600	36149
17.33412	32762
17.34223	32048
17.35037	33883
17.35848	30571
17.36662	38045
17.37473	36281
17.38285	39283
17.39098	35899
17.39910	38894
17.40723	41414
17.41535	41435
17.42347	36463
17.43160	34097
17.43972	33548
17.44785	33431
17.45597	32732
17.46408	34296
17.47222	34051
17.48033	31026
17.48845	34682
17.49658	34067
17.50470	37481
17.51283	31637
17.52095	33671
17.52907	37789
17.53720	38117
17.54532	38693
17.55345	41629
17.56157	35255
17.56968	39239
17.57782	40025
17.58593	37048
17.59407	33325
17.60218	34463
17.61030	33918
17.61843	33814
17.62655	39252
17.63467	39073
17.64280	40567
17.65092	54604
17.65905	66072
17.66717	90429
17.67528	98029
17.68342	96765
17.69153	95624
17.69967	83244
17.70778	68843
17.71590	57251
17.72403	56423
17.73215	49139
17.74027	48629
17.74840	44501
17.75652	42445
17.76465	46337
17.77277	41159
17.78088	38267
17.78902	39231
17.79713	38555
17.80527	37367
17.81338	39595
17.82150	40124
17.82963	36023
17.83775	36882
17.84588	36604
17.85400	38535
17.86212	38296
17.87025	36215
17.87837	36481
17.88648	38201
17.89462	32293
17.90273	40580
17.91087	37460
17.91898	33182
17.92710	31663
17.93523	37091
17.94335	29951
17.95148	32156
17.95960	33057
17.96772	31645
17.97585	38169
17.98397	31623
17.99210	31180
18.00022	30375
18.00833	32712
18.01647	30932
18.02458	34395
18.03270	38643
18.04083	40025
18.04895	37753
18.05708	40468
18.06520	34663
18.07332	38563
18.08145	35663
18.08957	39025
18.09770	40672
18.10582	50131
18.11393	48778
18.12207	47942
18.13018	47962
18.13830	50396
18.14643	49312
18.15455	50668
18.16268	51890
18.17080	48360
18.17892	52179
18.18705	50206
18.19517	50798
18.20330	50879
18.21142	49414
18.21953	44361
18.22767	46676
18.23578	47864
18.24392	42658
18.25203	42192
18.26015	44037
18.26828	44635
18.27640	40117
18.28452	45424
18.29265	42888
18.30077	36695
18.30890	36014
18.31702	38132
18.32513	33467
18.33327	32193
18.34138	36090
18.34952	33512
18.35763	30027
18.36575	29652
18.37388	33371
18.38200	34681
18.39012	32352
18.39825	35421
18.40637	34069
18.41450	33177
18.42262	35024
18.43073	33662
18.43887	34990
18.44698	32825
18.45512	31519
18.46323	34170
18.47135	32755
18.47948	30295
18.48760	30627
18.49573	35955
18.50385	33751
18.51197	32734
18.52010	32278
18.52822	33403
18.53633	30774
18.54447	33153
18.55258	32844
18.56072	29766
18.56883	34024
18.57695	31541
18.58508	30227
18.59320	31402
18.60133	32799
18.60945	32903
18.61757	34295
18.62570	36058
18.63382	33424
18.64195	36333
18.65007	29922
18.65818	33476
18.66632	33333
18.67443	33461
18.68255	31221
18.69068	33930
18.69880	29828
18.70693	25887
18.71505	30454
18.72317	30393
18.73130	33926
18.73942	32205
18.74755	27572
18.75567	29464
18.76378	30731
18.77192	36052
18.78003	36157
18.78817	31644
18.79628	27343
18.80440	29965
18.81253	29933
18.82065	28119
18.82877	28868
18.83690	29763
18.84502	36026
18.85315	29989
18.86127	31078
18.86938	29080
18.87752	28642
18.88563	29189
18.89377	27998
18.90188	30938
18.91000	29736
18.91813	29471
18.92625	31650
18.93437	33711
18.94250	31240
18.95062	32476
18.95875	35807
18.96687	33617
18.97498	33529
18.98312	31902
18.99123	31789
18.99937	30214
19.00748	31905
19.01560	30004
19.02373	31282
19.03185	38224
19.03998	31884
19.04810	30287
19.05622	33375
19.06435	30436
19.07247	32546
19.08058	33795
19.08872	36770
19.09683	42259
19.10497	49774
19.11308	53043
19.12120	55499
19.12933	52567
19.13745	47812
19.14558	47973
19.15370	45067
19.16182	42162
19.16995	42472
19.17807	45360
19.18618	44509
19.19432	42519
19.20243	40396
19.21057	42571
19.21868	39905
19.22680	34424
19.23493	37960
19.24305	33114
19.25118	36380
19.25930	32965
19.26742	40254
19.27555	37757
19.28367	39410
19.29180	46165
19.29992	42590
19.30803	44357
19.31617	44391
19.32428	43821
19.33240	44840
19.34053	40230
19.34865	41475
19.35678	43478
19.36490	44202
19.37302	41061
19.38115	42470
19.38927	38503
19.39740	39103
19.40552	39593
19.41363	40221
19.42177	34633
19.42988	37780
19.43802	34652
19.44613	40079
19.45425	39271
19.46238	40560
19.47050	36278
19.47862	37291
19.48675	43296
19.49487	49690
19.50300	61764
19.51112	78871
19.51923	97260
19.52737	122129
19.53548	117807
19.54362	107860
19.55173	91755
19.55985	69915
19.56798	56202
19.57610	45500
19.58422	41870
19.59235	41163
19.60047	41591
19.60860	39243
19.61672	33822
19.62483	34713
19.63297	40028
19.64108	45302
19.64922	56511
19.65733	89012
19.66545	118783
19.67358	157341
19.68170	191213
19.68983	198362
19.69795	191396
19.70607	156205
19.71420	133156
19.72232	97546
19.73043	89646
19.73857	80309
19.74668	80823
19.75482	86565
19.76293	89989
19.77105	80297
19.77918	82469
19.78730	63337
19.79543	62323
19.80355	54541
19.81167	48985
19.81980	51929
19.82792	50537
19.83605	47014
19.84417	41038
19.85228	44133
19.86042	58332
19.86853	70142
19.87665	104412
19.88478	168804
19.89290	273325
19.90103	379816
19.90915	479085
19.91727	521016
19.92540	498868
19.93352	438751
19.94165	378058
19.94977	315894
19.95788	280418
19.96602	251156
19.97413	222634
19.98225	217979
19.99038	206298
19.99850	201931
20.00663	187097
20.01475	178527
20.02287	172589
20.03100	174450
20.03912	159375
20.04725	150636
20.05537	133228
20.06348	116881
20.07162	101004
20.07973	82597
20.08787	70591
20.09598	68796
20.10410	65099
20.11223	56909
20.12035	52216
20.12847	52225
20.13660	57002
20.14472	59934
20.15285	56182
20.16097	55586
20.16908	53540
20.17722	55420
20.18533	52931
20.19347	56121
20.20158	53029
20.20970	52733
20.21783	49886
20.22595	49202
20.23407	46509
20.24220	49734
20.25032	54819
20.25845	63294
20.26657	88607
20.27468	121811
20.28282	156494
20.29093	192567
20.29907	206534
20.30718	195822
20.31530	186092
20.32343	147127
20.33155	119904
20.33968	88995
20.34780	77220
20.35592	71568
20.36405	66363
20.37217	51123
20.38028	50733
20.38842	48562
20.39653	53921
20.40467	44106
20.41278	42242
20.42090	45153
20.42903	49053
20.43715	57956
20.44528	63522
20.45340	70799
20.46152	70270
20.46965	76673
20.47777	70218
20.48590	62772
20.49402	56688
20.50213	54912
20.51027	51381
20.51838	45576
20.52650	37145
20.53463	36676
20.54275	39021
20.55088	38477
20.55900	38600
20.56712	37160
20.57525	33956
20.58337	37462
20.59150	36180
20.59962	33840
20.60773	36934
20.61587	35314
20.62398	32439
20.63210	33086
20.64023	38818
20.64835	31945
20.65648	34923
20.66460	33874
20.67272	35173
20.68085	37493
20.68897	31869
20.69710	33655
20.70522	33577
20.71333	31716
20.72147	35163
20.72958	28671
20.73772	34586
20.74583	31587
20.75395	33178
20.76208	30929
20.77020	30159
20.77832	33014
20.78645	33554
20.79457	28816
20.80270	32373
20.81082	32625
20.81893	33204
20.82707	36468
20.83518	35105
20.84332	34068
20.85143	34347
20.85955	36934
20.86768	34157
20.87580	39672
20.88393	32411
20.89205	35613
20.90017	34887
20.90830	33736
20.91642	36251
20.92453	34422
20.93267	35880
20.94078	35061
20.94892	32538
20.95703	31590
20.96515	39987
20.97328	37660
20.98140	33183
20.98953	33454
20.99765	35030
21.00577	38219
21.01390	32825
21.02202	35555
21.03013	38277
21.03827	38264
21.04638	37546
21.05452	33525
21.06263	33466
21.07075	37592
21.07888	37221
21.08700	35585
21.09513	33508
21.10325	37643
21.11137	42162
21.11950	38458
21.12762	37591
21.13575	35938
21.14387	45006
21.15198	42364
21.16012	42054
21.16823	46080
21.17635	43131
21.18448	43004
21.19260	44104
21.20073	38502
21.20885	40517
21.21697	36915
21.22510	37166
21.23322	38959
21.24135	37856
21.24947	40570
21.25758	42276
21.26572	42197
21.27383	39944
21.28197	44356
21.29008	37394
21.29820	36438
21.30633	35828
21.31445	37853
21.32257	38821
21.33070	36526
21.33882	36119
21.34695	41729
21.35507	42519
21.36318	37683
21.37132	37339
21.37943	35292
21.38757	36401
21.39568	35450
21.40380	38422
21.41193	37753
21.42005	36894
21.42817	39364
21.43630	39684
21.44442	40462
21.45255	41425
21.46067	44311
21.46878	39495
21.47692	39679
21.48503	38326
21.49317	39346
21.50128	37694
21.50940	34960
21.51753	35241
21.52565	35472
21.53378	39063
21.54190	34600
21.55002	32885
21.55815	38947
21.56627	43630
21.57438	41019
21.58252	34976
21.59063	37765
21.59877	39217
21.60688	41539
21.61500	39260
21.62313	40605
21.63125	48001
21.63938	52881
21.64750	64004
21.65562	77045
21.66375	79094
21.67187	76130
21.67998	69911
21.68812	57908
21.69623	49557
21.70437	45190
21.71248	44618
21.72060	41763
21.72873	37170
21.73685	39797
21.74498	35997
21.75310	38549
21.76122	38650
21.76935	42474
21.77747	40474
21.78560	40399
21.79372	40194
21.80183	37987
21.80997	43263
21.81808	43264
21.82620	46213
21.83433	55060
21.84245	62876
21.85058	76610
21.85870	80068
21.86682	81087
21.87495	72187
21.88307	61451
21.89120	54315
21.89932	48880
21.90743	42317
21.91557	40184
21.92368	38131
21.93182	38765
21.93993	37175
21.94805	35272
21.95618	33260
21.96430	37100
21.97242	33082
21.98055	34529
21.98867	33448
21.99680	33351
22.00492	35650
22.01303	35008
22.02117	37191
22.02928	34228
22.03742	33973
22.04553	40850
22.05365	37009
22.06178	33036
22.06990	32720
22.07802	34077
22.08615	33532
22.09427	33903
22.10240	31560
22.11052	34154
22.11863	34086
22.12677	34067
22.13488	38424
22.14302	35807
22.15113	32645
22.15925	31621
22.16738	33684
22.17550	34487
22.18363	36270
22.19175	35378
22.19987	35029
22.20800	35749
22.21612	34562
22.22423	36475
22.23237	39678
22.24048	44817
22.24862	43464
22.25673	43289
22.26485	39893
22.27298	36072
22.28110	36617
22.28923	34433
22.29735	39287
22.30547	38245
22.31360	40333
22.32172	50970
22.32985	53989
22.33797	59016
22.34608	65146
22.35422	65220
22.36233	61404
22.37045	56806
22.37858	51153
22.38670	45452
22.39483	43212
22.40295	43245
22.41107	36444
22.41920	35771
22.42732	35067
22.43545	37274
22.44357	32800
22.45168	30258
22.45982	39321
22.46793	37761
22.47605	33264
22.48418	34539
22.49230	31763
22.50043	28991
22.50855	34083
22.51667	32396
22.52480	33579
22.53292	32630
22.54105	31924
22.54917	35472
22.55728	33879
22.56542	31928
22.57353	33396
22.58167	39827
22.58978	30526
22.59790	35608
22.60603	34758
22.61415	33884
22.62227	32297
22.63040	36300
22.63852	33080
22.64665	31351
22.65477	31260
22.66288	31280
22.67102	30336
22.67913	34304
22.68727	33489
22.69538	38188
22.70350	37306
22.71163	35762
22.71975	40177
22.72787	41210
22.73600	36527
22.74412	35971
22.75225	35076
22.76037	35349
22.76848	36539
22.77662	34925
22.78473	32734
22.79287	33188
22.80098	31193
22.80910	29282
22.81723	30030
22.82535	30068
22.83348	33100
22.84160	34098
22.84972	39019
22.85785	36466
22.86597	35289
22.87408	37490
22.88222	34929
22.89033	36887
22.89847	34811
22.90658	36542
22.91470	40553
22.92283	45744
22.93095	57475
22.93908	70076
22.94720	79905
22.95532	94743
22.96345	94092
22.97157	88908
22.97970	84970
22.98782	84146
22.99593	80056
23.00407	72463
23.01218	67293
23.02030	59816
23.02843	57162
23.03655	50616
23.04468	46310
23.05280	44907
23.06092	43728
23.06905	41189
23.07717	40661
23.08530	37643
23.09342	39516
23.10153	38334
23.10967	37844
23.11778	36503
23.12590	37081
23.13403	37081
23.14215	36621
23.15028	34323
23.15840	40273
23.16652	36100
23.17465	33358
23.18277	35668
23.19090	32170
23.19902	33979
23.20713	35791
23.21527	33487
23.22338	33196
23.23152	33818
23.23963	35351
23.24775	35021
23.25588	38968
23.26400	36596
23.27212	38622
23.28025	40900
23.28837	42486
23.29650	38220
23.30462	31185
23.31273	33328
23.32087	33399
23.32898	38660
23.33712	32089
23.34523	33356
23.35335	29345
23.36148	36078
23.36960	31014
23.37773	34118
23.38585	32518
23.39397	32532
23.40210	31658
23.41022	33669
23.41833	31892
23.42647	31881
23.43458	32884
23.44272	34945
23.45083	25828
23.45895	31336
23.46708	32150
23.47520	33067
23.48333	33421
23.49145	34514
23.49957	35037
23.50770	32662
23.51582	34093
23.52393	34947
23.53207	33700
23.54018	32631
23.54832	29920
23.55643	35768
23.56455	31252
23.57268	34501
23.58080	38249
23.58893	37925
23.59705	38783
23.60517	44637
23.61330	48217
23.62142	44226
23.62955	47933
23.63767	56143
23.64578	72640
23.65392	92850
23.66203	122380
23.67015	159461
23.67828	183095
23.68640	187346
23.69453	165863
23.70265	126791
23.71077	103198
23.71890	80735
23.72702	74590
23.73515	60382
23.74327	60690
23.75138	64155
23.75952	98623
23.76763	220857
23.77577	492689
23.78388	1090569
23.79200	2013469
23.80013	2987854
23.80825	3483438
23.81637	3300859
23.82450	2761938
23.83262	1994918
23.84075	1402599
23.84887	954390
23.85698	709899
23.86512	544601
23.87323	433861
23.88137	372017
23.88948	323503
23.89760	277224
23.90573	247461
23.91385	220550
23.92197	200477
23.93010	200086
23.93822	175664
23.94635	165723
23.95447	149005
23.96258	143934
23.97072	140879
23.97883	138264
23.98697	125559
23.99508	121804
24.00320	118795
24.01133	116078
24.01945	112248
24.02758	112710
24.03570	112840
24.04382	105179
24.05195	102661
24.06007	104258
24.06818	100819
24.07632	99943
24.08443	94986
24.09257	85106
24.10068	88873
24.10880	85067
24.11693	85798
24.12505	78810
24.13318	77492
24.14130	84776
24.14942	87163
24.15755	90503
24.16567	87864
24.17380	86271
24.18192	76781
24.19003	74314
24.19817	74994
24.20628	68706
24.21440	78031
24.22253	79792
24.23065	83995
24.23878	89799
24.24690	87551
24.25502	78271
24.26315	73982
24.27127	70669
24.27940	72277
24.28752	70156
24.29563	66807
24.30377	60327
24.31188	64756
24.32000	61621
24.32813	58291
24.33625	59142
24.34438	59278
24.35250	62451
24.36062	56995
24.36875	60836
24.37687	53090
24.38500	62189
24.39312	62200
24.40123	73970
24.40937	86555
24.41748	100497
24.42562	108173
24.43373	109746
24.44185	91258
24.44998	80575
24.45810	62405
24.46622	53254
24.47435	53581
24.48247	52963
24.49060	51787
24.49872	52018
24.50683	53989
24.51497	56530
24.52308	66638
24.53122	64048
24.53933	65114
24.54745	67858
24.55558	63231
24.56370	63628
24.57182	59092
24.57995	54773
24.58807	53594
24.59620	55098
24.60432	52274
24.61243	57637
24.62057	57121
24.62868	54145
24.63682	51393
24.64493	50947
24.65305	51960
24.66118	53703
24.66930	55168
24.67743	54533
24.68555	51174
24.69367	52387
24.70180	50112
24.70992	50841
24.71803	42781
24.72617	46601
24.73428	48645
24.74242	46258
24.75053	40169
24.75865	41632
24.76678	46931
24.77490	42043
24.78303	44421
24.79115	38362
24.79927	43550
24.80740	45776
24.81552	38377
24.82365	41068
24.83177	38640
24.83988	44161
24.84802	36323
24.85613	41999
24.86425	41940
24.87238	43619
24.88050	41960
24.88863	41308
24.89675	39688
24.90487	42087
24.91300	42852
24.92112	41250
24.92925	39456
24.93737	42611
24.94548	40112
24.95362	37854
24.96173	43043
24.96985	40184
24.97798	37673
24.98610	45093
24.99423	41736
25.00235	42499
25.01047	38735
25.01860	45500
25.02672	36619
25.03485	39104
25.04297	39327
25.05108	35303
25.05922	43756
25.06733	40977
25.07547	41067
25.08358	34986
25.09170	37492
25.09983	39163
25.10795	41653
25.11607	40345
25.12420	35887
25.13232	37795
25.14045	37304
25.14857	40899
25.15668	45291
25.16482	47087
25.17293	46643
25.18107	45975
25.18918	43834
25.19730	46767
25.20543	43265
25.21355	42226
25.22168	40867
25.22980	40053
25.23792	37370
25.24605	40478
25.25417	40391
25.26228	41714
25.27042	38724
25.27853	37641
25.28667	36743
25.29478	37413
25.30290	39839
25.31103	40936
25.31915	44374
25.32728	46359
25.33540	46309
25.34352	44891
25.35165	41183
25.35977	37967
25.36788	37722
25.37602	39469
25.38413	42529
25.39227	36488
25.40038	35720
25.40850	33584
25.41663	43000
25.42475	36826
25.43288	38310
25.44100	36613
25.44912	36318
25.45725	35364
25.46537	35277
25.47350	39114
25.48162	40096
25.48973	40750
25.49787	41173
25.50598	44222
25.51410	40703
25.52223	36674
25.53035	38959
25.53848	36616
25.54660	37503
25.55472	34778
25.56285	33034
25.57097	34489
25.57910	31149
25.58722	34814
25.59533	32212
25.60347	30411
25.61158	32147
25.61970	33068
25.62783	35884
25.63595	33263
25.64408	34095
25.65220	34809
25.66032	43043
25.66845	36048
25.67657	40144
25.68470	38463
25.69282	36493
25.70093	38400
25.70907	34015
25.71718	33506
25.72532	35608
25.73343	41223
25.74155	35829
25.74968	39749
25.75780	38427
25.76592	37841
25.77405	37285
25.78217	35918
25.79030	32279
25.79842	33562
25.80653	32850
25.81467	35502
25.82278	36848
25.83092	37910
25.83903	37803
25.84715	42452
25.85528	36894
25.86340	32163
25.87153	31521
25.87965	35742
25.88777	32654
25.89590	37337
25.90402	31868
25.91213	32938
25.92027	31581
25.92838	34395
25.93652	33514
25.94463	33690
25.95275	29526
25.96088	36425
25.96900	30653
25.97713	29816
25.98525	32406
25.99337	32639
26.00150	41352
26.00962	33808
26.01773	30391
26.02587	29368
26.03398	30476
26.04212	34070
26.05023	34231
26.05835	33031
26.06648	33501
26.07460	30306
26.08273	30567
26.09085	32330
26.09897	38534
26.10710	34990
26.11522	33723
26.12335	35240
26.13147	37816
26.13958	37192
26.14772	36795
26.15583	40302
26.16395	43237
26.17208	47453
26.18020	46923
26.18833	47370
26.19645	44910
26.20457	45642
26.21270	41439
26.22082	39329
26.22895	42757
26.23707	38913
26.24518	35016
26.25332	35743
26.26143	35584
26.26957	34018
26.27768	36315
26.28580	35041
26.29393	35699
26.30205	38593
26.31017	36785
26.31830	32811
26.32642	34909
26.33455	35093
26.34267	32923
26.35078	32406
26.35892	33314
26.36703	32958
26.37517	27681
26.38328	30931
26.39140	31130
26.39953	33795
26.40765	33753
26.41577	34564
26.42390	31705
26.43202	34860
26.44015	41159
26.44827	33121
26.45638	30287
26.46452	32795
26.47263	32222
26.48077	32333
26.48888	35135
26.49700	34652
26.50513	35487
26.51325	33866
26.52138	29987
26.52950	31905
26.53762	31886
26.54575	32427
26.55387	28675
26.56198	33417
26.57012	28619
26.57823	34237
26.58637	39327
26.59448	33060
26.60260	31983
26.61073	31773
26.61885	30130
26.62698	32043
26.63510	30597
26.64322	32855
26.65135	34350
26.65947	35312
26.66760	32094
26.67572	34509
26.68383	38119
26.69197	37340
26.70008	35524
26.70820	36304
26.71633	35009
26.72445	31838
26.73258	32565
26.74070	38764
26.74882	33885
26.75695	34405
26.76507	34667
26.77320	34216
26.78132	34215
26.78943	33070
26.79757	33415
26.80568	33540
26.81380	34913
26.82193	37384
26.83005	43771
26.83818	37893
26.84630	42721
26.85442	39980
26.86255	39542
26.87067	40446
26.87880	36789
26.88692	36770
26.89503	38510
26.90317	36645
26.91128	39103
26.91942	38279
26.92753	30983
26.93565	35915
26.94378	33064
26.95190	31310
26.96002	36888
26.96815	34936
26.97627	46298
26.98440	61944
26.99252	103715
27.00063	188658
27.00877	313069
27.01688	493205
27.02502	660317
27.03313	825145
27.04125	901331
27.04938	824933
27.05750	656223
27.06562	539042
27.07375	419884
27.08187	315168
27.09000	250873
27.09812	202986
27.10623	179400
27.11437	155558
27.12248	145976
27.13062	136975
27.13873	120156
27.14685	113244
27.15498	101599
27.16310	96654
27.17123	98430
27.17935	94856
27.18747	90606
27.19560	86801
27.20372	85856
27.21183	84511
27.21997	79653
27.22808	77546
27.23622	80906
27.24433	72825
27.25245	74697
27.26058	67426
27.26870	66861
27.27683	62604
27.28495	65674
27.29307	65164
27.30120	64934
27.30932	58904
27.31745	57353
27.32557	59343
27.33368	55961
27.34182	57610
27.34993	54604
27.35805	53388
27.36618	53564
27.37430	57281
27.38243	55030
27.39055	54180
27.39867	56074
27.40680	55970
27.41492	54077
27.42305	49103
27.43117	54494
27.43928	50980
27.44742	47246
27.45553	48540
27.46365	48134
27.47178	49217
27.47990	48789
27.48803	45687
27.49615	44085
27.50427	48697
27.51240	45081
27.52052	49176
27.52865	48134
27.53677	47019
27.54488	47903
27.55302	44168
27.56113	48056
27.56927	42424
27.57738	47105
27.58550	43974
27.59363	42227
27.60175	41176
27.60987	42950
27.61800	43908
27.62612	45358
27.63425	48675
27.64237	45656
27.65048	46002
27.65862	41648
27.66673	40751
27.67487	40286
27.68298	41093
27.69110	41304
27.69923	40566
27.70735	39698
27.71548	40673
27.72360	37476
27.73172	40823
27.73985	39581
27.74797	36861
27.75608	36683
27.76422	37774
27.77233	38242
27.78047	35639
27.78858	42558
27.79670	40242
27.80483	45597
27.81295	38678
27.82108	42080
27.82920	40144
27.83732	40405
27.84545	41532
27.85357	43073
27.86168	39767
27.86982	37757
27.87793	38544
27.88607	40801
27.89418	40280
27.90230	39814
27.91043	39566
27.91855	39168
27.92668	32895
27.93480	37829
27.94292	35226
27.95105	36656
27.95917	37419
27.96730	37246
27.97542	36749
27.98353	40402
27.99167	37443
27.99978	38246
28.00790	35903
28.01603	40202
28.02415	42294
28.03228	39915
28.04040	38963
28.04852	39154
28.05665	38809
28.06477	33357
28.07290	38301
28.08102	35224
28.08913	42492
28.09727	37401
28.10538	39040
28.11350	33815
28.12163	39033
28.12975	35870
28.13788	33077
28.14600	36582
28.15412	36371
28.16225	35251
28.17037	38157
28.17850	32388
28.18662	33233
28.19473	34321
28.20287	35448
28.21098	38719
28.21912	37289
28.22723	46662
28.23535	44472
28.24348	42127
28.25160	39340
28.25972	39767
28.26785	43006
28.27597	42023
28.28410	36012
28.29222	39636
28.30033	41829
28.30847	41336
28.31658	47382
28.32472	48878
28.33283	64582
28.34095	88851
28.34908	111710
28.35720	132679
28.36533	160080
28.37345	181865
28.38157	182318
28.38970	194936
28.39782	186888
28.40593	177400
28.41407	160520
28.42218	148802
28.43032	134470
28.43843	123637
28.44655	109603
28.45468	99317
28.46280	91854
28.47093	86293
28.47905	78357
28.48717	73279
28.49530	74209
28.50342	73455
28.51155	72362
28.51967	64244
28.52778	61507
28.53592	61642
28.54403	55128
28.55215	57693
28.56028	56105
28.56840	54139
28.57653	54286
28.58465	50688
28.59277	54576
28.60090	53978
28.60902	51504
28.61715	49794
28.62527	52460
28.63338	52375
28.64152	52742
28.64963	53876
28.65775	53747
28.66588	53347
28.67400	51843
28.68213	51192
28.69025	53233
28.69837	52486
28.70650	55020
28.71462	45581
28.72275	46146
28.73087	51314
28.73898	42828
28.74712	46336
28.75523	45858
28.76337	47036
28.77148	49561
28.77960	58552
28.78773	64088
28.79585	67219
28.80397	64981
28.81210	58535
28.82022	56546
28.82835	49215
28.83647	43773
28.84458	40038
28.85272	41347
28.86083	42204
28.86897	41227
28.87708	46017
28.88520	40759
28.89333	43928
28.90145	39955
28.90957	39076
28.91770	40792
28.92582	39401
28.93395	45612
28.94207	38525
28.95018	39315
28.95832	41995
28.96643	46690
28.97457	48985
28.98268	45025
28.99080	45203
28.99893	42638
29.00705	43092
29.01518	42320
29.02330	39032
29.03142	44188
29.03955	37507
29.04767	36912
29.05578	39678
29.06392	38618
29.07203	40533
29.08017	37115
29.08828	39332
29.09640	39382
29.10453	40064
29.11265	40188
29.12078	37396
29.12890	35124
29.13702	38424
29.14515	41518
29.15327	36964
29.16140	38979
29.16952	40922
29.17763	39991
29.18577	42386
29.19388	41963
29.20200	38111
29.21013	39405
29.21825	38774
29.22638	39151
29.23450	39488
29.24262	44994
29.25075	48615
29.25887	52352
29.26700	51478
29.27512	49005
29.28323	50168
29.29137	46917
29.29948	43806
29.30760	38743
29.31573	37509
29.32385	44740
29.33198	39444
29.34010	38511
29.34822	39778
29.35635	36459
29.36447	41681
29.37260	42160
29.38072	35941
29.38883	40225
29.39697	47349
29.40508	41189
29.41322	42616
29.42133	40264
29.42945	37233
29.43758	38797
29.44570	37731
29.45382	35305
29.46195	37640
29.47007	38012
29.47820	41272
29.48632	36120
29.49443	45556
29.50257	42614
29.51068	47441
29.51882	41381
29.52693	48694
29.53505	43043
29.54318	41850
29.55130	42705
29.55943	39301
29.56755	39616
29.57567	39837
29.58380	42097
29.59192	38823
29.60003	38228
29.60817	35769
29.61628	42711
29.62442	37505
29.63253	37599
29.64065	34303
29.64878	37946
29.65690	38753
29.66503	34578
29.67315	37894
29.68127	40781
29.68940	34001
29.69752	35896
29.70563	36507
29.71377	38151
29.72188	34261
29.73002	34580
29.73813	37395
29.74625	38911
29.75438	39015
29.76250	38208
29.77063	35215
29.77875	35631
29.78687	32744
29.79500	34433
29.80312	33005
29.81125	34836
29.81937	32742
29.82748	32057
29.83562	32504
29.84373	34960
29.85185	35873
29.85998	40739
29.86810	50140
29.87623	65937
29.88435	105043
29.89247	168237
29.90060	256479
29.90872	322956
29.91685	364310
29.92497	328937
29.93308	258110
29.94122	192860
29.94933	126529
29.95745	84317
29.96558	73392
29.97370	66811
29.98183	73797
29.98995	81243
29.99807	85180
30.00620	101009
30.01432	111432
30.02245	121170
30.03057	124517
30.03868	124967
30.04682	129903
30.05493	128946
30.06307	125549
30.07118	130548
30.07930	121451
30.08743	114897
30.09555	110781
30.10367	100031
30.11180	98478
30.11992	89948
30.12805	80012
30.13617	80283
30.14428	78302
30.15242	76548
30.16053	70355
30.16867	72843
30.17678	69054
30.18490	63314
30.19303	67753
30.20115	63368
30.20928	57238
30.21740	57508
30.22552	57764
30.23365	57520
30.24177	57097
30.24988	54061
30.25802	51341
30.26613	50122
30.27427	51581
30.28238	50541
30.29050	44887
30.29863	46976
30.30675	46662
30.31488	50012
30.32300	47244
30.33112	42731
30.33925	46210
30.34737	46194
30.35548	46197
30.36362	45700
30.37173	45277
30.37987	47627
30.38798	47324
30.39610	49520
30.40423	49194
30.41235	44710
30.42048	43120
30.42860	42580
30.43672	41097
30.44485	42142
30.45297	43420
30.46110	44321
30.46922	41459
30.47733	40659
30.48547	39004
30.49358	38476
30.50170	40697
30.50983	38512
30.51795	44364
30.52608	41313
30.53420	40445
30.54232	40603
30.55045	41163
30.55857	41360
30.56670	37316
30.57482	40653
30.58293	40193
30.59107	41270
30.59918	36928
30.60732	36826
30.61543	42705
30.62355	35733
30.63168	42874
30.63980	38901
30.64792	37565
30.65605	40655
30.66417	42900
30.67230	41516
30.68042	37122
30.68853	37694
30.69667	38649
30.70478	35274
30.71292	38367
30.72103	38775
30.72915	40019
30.73728	40192
30.74540	36910
30.75352	39583
30.76165	39683
30.76977	37773
30.77790	37737
30.78602	38040
30.79413	40281
30.80227	51163
30.81038	55163
30.81852	59361
30.82663	56497
30.83475	57487
30.84288	56776
30.85100	50195
30.85913	44587
30.86725	40051
30.87537	41275
30.88350	39291
30.89162	40383
30.89973	35603
30.90787	39901
30.91598	35386
30.92412	35913
30.93223	43153
30.94035	39915
30.94848	39326
30.95660	38967
30.96473	38713
30.97285	38745
30.98097	39225
30.98910	36657
30.99722	36740
31.00533	35810
31.01347	39488
31.02158	38137
31.02972	37631
31.03783	40980
31.04595	38873
31.05408	36521
31.06220	38108
31.07033	34141
31.07845	39374
31.08657	45872
31.09470	52321
31.10282	65797
31.11095	79562
31.11907	82949
31.12718	79697
31.13532	78615
31.14343	66519
31.15155	56302
31.15968	50160
31.16780	45640
31.17593	41543
31.18405	44799
31.19217	54976
31.20030	63855
31.20842	81219
31.21655	99385
31.22467	119070
31.23278	131019
31.24092	132498
31.24903	121988
31.25717	100692
31.26528	77733
31.27340	60306
31.28153	50485
31.28965	48597
31.29777	41698
31.30590	42497
31.31402	38631
31.32215	38809
31.33027	37477
31.33838	34586
31.34652	39609
31.35463	39409
31.36277	37991
31.37088	37547
31.37900	41097
31.38713	50308
31.39525	47901
31.40337	46623
31.41150	47907
31.41962	44016
31.42775	45405
31.43587	41194
31.44398	44623
31.45212	42727
31.46023	44606
31.46837	39916
31.47648	39716
31.48460	39928
31.49273	39305
31.50085	38550
31.50898	38844
31.51710	40932
31.52522	36934
31.53335	33525
31.54147	37489
31.54958	32980
31.55772	37491
31.56583	38498
31.57397	35842
31.58208	35448
31.59020	36864
31.59833	36493
31.60645	37294
31.61458	36407
31.62270	34510
31.63082	36175
31.63895	34591
31.64707	35016
31.65520	38638
31.66332	36880
31.67143	37383
31.67957	36784
31.68768	38813
31.69580	38758
31.70393	36893
31.71205	38963
31.72018	37531
31.72830	36932
31.73642	38042
31.74455	39109
31.75267	35651
31.76080	37165
31.76892	40401
31.77703	36137
31.78517	38866
31.79328	40216
31.80140	37877
31.80953	40651
31.81765	35963
31.82578	40412
31.83390	37020
31.84202	40236
31.85015	40693
31.85827	41954
31.86640	47441
31.87452	45609
31.88263	47953
31.89077	48469
31.89888	44837
31.90702	45898
31.91513	50528
31.92325	60039
31.93138	55272
31.93950	61460
31.94762	70434
31.95575	76418
31.96387	85028
31.97200	95891
31.98012	99610
31.98823	97139
31.99637	99283
32.00448	93500
32.01262	96961
32.02073	90931
32.02885	86765
32.03698	82739
32.04510	75205
32.05323	72397
32.06135	66116
32.06947	64464
32.07760	62640
32.08572	63001
32.09383	67668
32.10197	67251
32.11008	62681
32.11822	60250
32.12633	55057
32.13445	50791
32.14258	54099
32.15070	48007
32.15883	51284
32.16695	45760
32.17507	44518
32.18320	45258
32.19132	46005
32.19943	41027
32.20757	49116
32.21568	40789
32.22382	44014
32.23193	41877
32.24005	42401
32.24818	44903
32.25630	43281
32.26443	43996
32.27255	50638
32.28067	40882
32.28880	43993
32.29692	43749
32.30505	41665
32.31317	44568
32.32128	42224
32.32942	48947
32.33753	45801
32.34565	44167
32.35378	47773
32.36190	46722
32.37003	45051
32.37815	46176
32.38627	48512
32.39440	46958
32.40252	42470
32.41065	42723
32.41877	42889
32.42688	40090
32.43502	40608
32.44313	43039
32.45125	45236
32.45938	38012
32.46750	41814
32.47563	38319
32.48375	40391
32.49187	44276
32.50000	38023
32.50812	37745
32.51625	43719
32.52437	36915
32.53248	37068
32.54062	42035
32.54873	37899
32.55687	37817
32.56498	35834
32.57310	37277
32.58123	40193
32.58935	40364
32.59747	41095
32.60560	42112
32.61372	39004
32.62185	38503
32.62997	37858
32.63808	35269
32.64622	38577
32.65433	39046
32.66247	41504
32.67058	45653
32.67870	53859
32.68683	53914
32.69495	56253
32.70308	52345
32.71120	49311
32.71932	46419
32.72745	49370
32.73557	43687
32.74368	42902
32.75182	43340
32.75993	41458
32.76807	38183
32.77618	37756
32.78430	37613
32.79243	42950
32.80055	36950
32.80868	35388
32.81680	38115
32.82492	36988
32.83305	34454
32.84117	37886
32.84928	36465
32.85742	37998
32.86553	37107
32.87367	37777
32.88178	40606
32.88990	38235
32.89803	38993
32.90615	41620
32.91428	41375
32.92240	37334
32.93052	36646
32.93865	35446
32.94677	38132
32.95490	37826
32.96302	37056
32.97113	33672
32.97927	40443
32.98738	34678
32.99550	37595
33.00363	38256
33.01175	37888
33.01988	41151
33.02800	38832
33.03612	39566
33.04425	36874
33.05237	37505
33.06050	37561
33.06862	38223
33.07673	36979
33.08487	38469
33.09298	40541
33.10112	49061
33.10923	51943
33.11735	48718
33.12548	57553
33.13360	55855
33.14172	56465
33.14985	53222
33.15797	49432
33.16610	45464
33.17422	43938
33.18233	39355
33.19047	35632
33.19858	40930
33.20672	39204
33.21483	41181
33.22295	40466
33.23108	41004
33.23920	44553
33.24732	43249
33.25545	38288
33.26357	41382
33.27170	41559
33.27982	42771
33.28793	42078
33.29607	37494
33.30418	39462
33.31232	36255
33.32043	37168
33.32855	38261
33.33668	41304
33.34480	41271
33.35293	40887
33.36105	38459
33.36917	38716
33.37730	35731
33.38542	40977
33.39353	33861
33.40167	38268
33.40978	34664
33.41792	34615
33.42603	34426
33.43415	34369
33.44228	35625
33.45040	38104
33.45853	37708
33.46665	38639
33.47477	36186
33.48290	34963
33.49102	40493
33.49913	35639
33.50727	36237
33.51538	36415
33.52352	35846
33.53163	42394
33.53975	40362
33.54788	41459
33.55600	39015
33.56413	42441
33.57225	38048
33.58037	39504
33.58850	39363
33.59662	37760
33.60475	36139
33.61287	38340
33.62098	35975
33.62912	39434
33.63723	39820
33.64535	33578
33.65348	38344
33.66160	37308
33.66973	42372
33.67785	35806
33.68597	38271
33.69410	38639
33.70222	38404
33.71035	40781
33.71847	35738
33.72658	38188
33.73472	35888
33.74283	34400
33.75097	35873
33.75908	35152
33.76720	35404
33.77533	33534
33.78345	43161
33.79157	33866
33.79970	36789
33.80782	36075
33.81595	38097
33.82407	34650
33.83218	40361
33.84032	36939
33.84843	40723
33.85657	45975
33.86468	45406
33.87280	45031
33.88093	44620
33.88905	40692
33.89718	42444
33.90530	39314
33.91342	43243
33.92155	38933
33.92967	38597
33.93778	37628
33.94592	41578
33.95403	37465
33.96217	36343
33.97028	39977
33.97840	40502
33.98653	40140
33.99465	40336
34.00278	38070
34.01090	37620
34.01902	34780
34.02715	39532
34.03527	41458
34.04338	37220
34.05152	38889
34.05963	36897
34.06777	39744
34.07588	42009
34.08400	38430
34.09213	40046
34.10025	38385
34.10838	38387
34.11650	41433
34.12462	42558
34.13275	35677
34.14087	37461
34.14900	40656
34.15712	40822
34.16523	36823
34.17337	38988
34.18148	38700
34.18960	47222
34.19773	40588
34.20585	39090
34.21398	40922
34.22210	44408
34.23022	38119
34.23835	39713
34.24647	39397
34.25460	39827
34.26272	40481
34.27083	40592
34.27897	41359
34.28708	34210
34.29520	43498
34.30333	39395
34.31145	40446
34.31958	41581
34.32770	42977
34.33582	36382
34.34395	39570
34.35207	38604
34.36020	39929
34.36832	40816
34.37643	39123
34.38457	40805
34.39268	42903
34.40082	38283
34.40893	41140
34.41705	40224
34.42518	43810
34.43330	39381
34.44142	41138
34.44955	38569
34.45767	37769
34.46580	41868
34.47392	43139
34.48203	43821
34.49017	37698
34.49828	40925
34.50642	39661
34.51453	42130
34.52265	43251
34.53078	45544
34.53890	58282
34.54703	58182
34.55515	73255
34.56327	84155
34.57140	87863
34.57952	94354
34.58763	88103
34.59577	81234
34.60388	81703
34.61202	76843
34.62013	67202
34.62825	63995
34.63638	62242
34.64450	56507
34.65263	57494
34.66075	61380
34.66887	50026
34.67700	52892
34.68512	54754
34.69323	50860
34.70137	52147
34.70948	51745
34.71762	42759
34.72573	44311
34.73385	47963
34.74198	49093
34.75010	44459
34.75823	49852
34.76635	50440
34.77447	52791
34.78260	47533
34.79072	52402
34.79885	44821
34.80697	46533
34.81508	49618
34.82322	45148
34.83133	43715
34.83945	49823
34.84758	43083
34.85570	47235
34.86383	42326
34.87195	47555
34.88007	47132
34.88820	43687
34.89632	48279
34.90445	46227
34.91257	44380
34.92068	43355
34.92882	47721
34.93693	47395
34.94507	52597
34.95318	55734
34.96130	66484
34.96943	86951
34.97755	117836
34.98567	135162
34.99380	157207
35.00192	140117
35.01005	118147
35.01817	93821
35.02628	74421
35.03442	64229
35.04253	58063
35.05067	55034
35.05878	53045
35.06690	52597
35.07503	51957
35.08315	55077
35.09127	50210
35.09940	51431
35.10752	57669
35.11565	53733
35.12377	53478
35.13188	50578
35.14002	47763
35.14813	54803
35.15627	52592
35.16438	54163
35.17250	52015
35.18063	52931
35.18875	52328
35.19688	48672
35.20500	51694
35.21312	53160
35.22125	52015
35.22937	50044
35.23748	52531
35.24562	49484
35.25373	50094
35.26187	48727
35.26998	49589
35.27810	46523
35.28623	50375
35.29435	44507
35.30248	48730
35.31060	48567
35.31872	45376
35.32685	45614
35.33497	48930
35.34308	49458
35.35122	47858
35.35933	42960
35.36747	46827
35.37558	49657
35.38370	47727
35.39183	45953
35.39995	45110
35.40808	45497
35.41620	49980
35.42432	49701
35.43245	50300
35.44057	50253
35.44870	49322
35.45682	49360
35.46493	52884
35.47307	44524
35.48118	50981
35.48930	49918
35.49743	51142
35.50555	45482
35.51368	48474
35.52180	47735
35.52992	40255
35.53805	43694
35.54617	42852
35.55430	48418
35.56242	44756
35.57053	47552
35.57867	46949
35.58678	51022
35.59492	49824
35.60303	53111
35.61115	51077
35.61928	49902
35.62740	50469
35.63552	48511
35.64365	51736
35.65177	51106
35.65990	50557
35.66802	50869
35.67613	49222
35.68427	50116
35.69238	49268
35.70052	53109
35.70863	59393
35.71675	54486
35.72488	50824
35.73300	49816
35.74112	51683
35.74925	48442
35.75737	46227
35.76550	51368
35.77362	51752
35.78173	50137
35.78987	45906
35.79798	47723
35.80612	48284
35.81423	50005
35.82235	52762
35.83048	46997
35.83860	52526
35.84673	47981
35.85485	47306
35.86297	48635
35.87110	46489
35.87922	49827
35.88733	47467
35.89547	49646
35.90358	55397
35.91172	50178
35.91983	46558
35.92795	52084
35.93608	45175
35.94420	44443
35.95233	46930
35.96045	47874
35.96857	47937
35.97670	47138
35.98482	50182
35.99295	48017
36.00107	47572
36.00918	46830
36.01732	46150
36.02543	49423
36.03355	45450
36.04168	51845
36.04980	51253
36.05793	50576
36.06605	47841
36.07417	50964
36.08230	50498
36.09042	50397
36.09855	50574
36.10667	49543
36.11478	47736
36.12292	54196
36.13103	44998
36.13915	46346
36.14728	47741
36.15540	50731
36.16353	56234
36.17165	49669
36.17977	51292
36.18790	49104
36.19602	49818
36.20415	46985
36.21227	46538
36.22038	46098
36.22852	46684
36.23663	56143
36.24477	54661
36.25288	48823
36.26100	47586
36.26913	53888
36.27725	52036
36.28537	48124
36.29350	56184
36.30162	52569
36.30975	54904
36.31787	54413
36.32598	62803
36.33412	64427
36.34223	65501
36.35037	60143
36.35848	54869
36.36660	55834
36.37473	54912
36.38285	56931
36.39098	52673
36.39910	55281
36.40722	53456
36.41535	49519
36.42347	54466
36.43158	53706
36.43972	58701
36.44783	53289
36.45597	50465
36.46408	51538
36.47220	52265
36.48033	53353
36.48845	47699
36.49658	49935
36.50470	51845
36.51282	50224
36.52095	52166
36.52907	48809
36.53718	46388
36.54532	49954
36.55343	51032
36.56157	43785
36.56968	46153
36.57780	51960
36.58593	52658
36.59405	49839
36.60218	47147
36.61030	50994
36.61842	55306
36.62655	49600
36.63467	50661
36.64280	51801
36.65092	47756
36.65903	52228
36.66717	50846
36.67528	51575
36.68340	51310
36.69153	54114
36.69965	54922
36.70778	53338
36.71590	51970
36.72402	53513
36.73215	52467
36.74027	53812
36.74840	51446
36.75652	51051
36.76463	54203
36.77277	49387
36.78088	51293
36.78900	46724
36.79713	52403
36.80525	48531
36.81338	48950
36.82150	51123
36.82962	51641
36.83775	54239
36.84587	48840
36.85400	50669
36.86212	52927
36.87023	54697
36.87837	51409
36.88648	55782
36.89462	53032
36.90273	53289
36.91085	55793
36.91898	54656
36.92710	56934
36.93522	53067
36.94335	49155
36.95147	51994
36.95960	55393
36.96772	53792
36.97583	54046
36.98397	49081
36.99208	50197
37.00022	53073
37.00833	49438
37.01645	50287
37.02458	56321
37.03270	54416
37.04083	47124
37.04895	51820
37.05707	53709
37.06520	53338
37.07332	51291
37.08143	48770
37.08957	55745
37.09768	55418
37.10582	51800
37.11393	51126
37.12205	51080
37.13018	54978
37.13830	56755
37.14643	54834
37.15455	55032
37.16267	52195
37.17080	54957
37.17892	55641
37.18703	55604
37.19517	55408
37.20328	54838
37.21142	55107
37.21953	60179
37.22765	59076
37.23578	58638
37.24390	57005
37.25203	60968
37.26015	58341
37.26827	58484
37.27640	62309
37.28452	58175
37.29265	53325
37.30077	57828
37.30888	63559
37.31702	57604
37.32513	58725
37.33325	57736
37.34138	55328
37.34950	67433
37.35763	69693
37.36575	78862
37.37387	79729
37.38200	81595
37.39012	87471
37.39825	85787
37.40637	85289
37.41448	79858
37.42262	70001
37.43073	77988
37.43887	72957
37.44698	67081
37.45510	67483
37.46323	66197
37.47135	70943
37.47947	63913
37.48760	61448
