Z:\data\JTB-E02\BACandBLUE\JTB-E02-205-12.D Sun Mar 10 12:00:05 2019
Start of data points
2.09525	56920
2.10338	55117
2.11150	53685
2.11963	59575
2.12775	53345
2.13587	54196
2.14400	53624
2.15212	54462
2.16025	59817
2.16837	51614
2.17648	53057
2.18462	50406
2.19273	51696
2.20087	45847
2.20898	46121
2.21710	49366
2.22523	48153
2.23335	53174
2.24147	45236
2.24960	45802
2.25772	64574
2.26585	523898
2.27397	1816171
2.28208	1479559
2.29022	659371
2.29833	434098
2.30647	368235
2.31458	314163
2.32270	267813
2.33083	252773
2.33895	222554
2.34707	205853
2.35520	193769
2.36332	182734
2.37145	157692
2.37957	167246
2.38768	161951
2.39582	146926
2.40393	141216
2.41207	141745
2.42018	144909
2.42830	128755
2.43643	133872
2.44455	132960
2.45268	128451
2.46080	118857
2.46892	117267
2.47705	112818
2.48517	114642
2.49328	113593
2.50142	114922
2.50953	109404
2.51767	115964
2.52578	112771
2.53390	111004
2.54203	110649
2.55015	136916
2.55828	205686
2.56640	199003
2.57452	155342
2.58265	133302
2.59077	136690
2.59888	343433
2.60702	1264722
2.61513	1493688
2.62327	849894
2.63138	516303
2.63950	381842
2.64763	298920
2.65575	248314
2.66388	210648
2.67200	186483
2.68012	167353
2.68825	152604
2.69637	146021
2.70450	134184
2.71262	126810
2.72073	125235
2.72887	114829
2.73698	112980
2.74510	106181
2.75323	106311
2.76135	104714
2.76948	130586
2.77760	379549
2.78572	704730
2.79385	543976
2.80197	307868
2.81010	257281
2.81822	240792
2.82633	207139
2.83447	181211
2.84258	159367
2.85072	148066
2.85883	149553
2.86695	133135
2.87508	127255
2.88320	125671
2.89132	121732
2.89945	123106
2.90757	107868
2.91570	111321
2.92382	102260
2.93193	110428
2.94007	105824
2.94818	106079
2.95632	124879
2.96443	154143
2.97255	135083
2.98068	118971
2.98880	118466
2.99693	118708
3.00505	116341
3.01317	118599
3.02130	101518
3.02942	103066
3.03753	103709
3.04567	100272
3.05378	93717
3.06192	95081
3.07003	126807
3.07815	590265
3.08628	2515153
3.09440	4941707
3.10253	6904410
3.11065	7987865
3.11877	5831090
3.12690	3755431
3.13502	2806857
3.14313	2241875
3.15127	1810348
3.15938	1535848
3.16752	1336313
3.17563	1223114
3.18375	1454916
3.19188	2015120
3.20000	2000764
3.20813	1508810
3.21625	1204553
3.22437	1034100
3.23250	902508
3.24062	810771
3.24875	705263
3.25687	648067
3.26498	597249
3.27312	562578
3.28123	577702
3.28935	1067575
3.29748	2782798
3.30560	5498297
3.31373	6637150
3.32185	5494964
3.32997	3758518
3.33810	2668758
3.34622	2036783
3.35435	1705604
3.36247	1424658
3.37058	1241700
3.37872	1126740
3.38683	1010677
3.39495	900767
3.40308	818526
3.41120	770580
3.41933	733699
3.42745	678475
3.43557	637987
3.44370	611659
3.45182	574107
3.45995	554420
3.46807	559905
3.47618	540607
3.48432	521729
3.49243	483483
3.50057	463526
3.50868	443037
3.51680	437462
3.52493	424528
3.53305	423209
3.54117	406348
3.54930	416335
3.55742	396465
3.56555	518820
3.57367	701854
3.58178	726585
3.58992	576284
3.59803	492860
3.60617	450599
3.61428	428791
3.62240	407231
3.63053	395095
3.63865	373120
3.64678	358149
3.65490	492561
3.66302	1894886
3.67115	6981870
3.67927	1.280304E+07
3.68738	1.226326E+07
3.69552	7816055
3.70363	5060717
3.71177	3865206
3.71988	3220559
3.72800	2767814
3.73613	2423012
3.74425	2151902
3.75238	1946034
3.76050	1799823
3.76862	1630008
3.77675	1519948
3.78487	1433201
3.79298	1430778
3.80112	1777703
3.80923	2979409
3.81737	4079216
3.82548	3680015
3.83360	2706026
3.84173	2096232
3.84985	1788389
3.85798	1619244
3.86610	1453815
3.87422	1334236
3.88235	1235128
3.89047	1155952
3.89860	1095179
3.90672	1044200
3.91483	1062955
3.92297	1143291
3.93108	1217682
3.93920	1240991
3.94733	1835472
3.95545	4037482
3.96358	7115657
3.97170	7795574
3.97982	5791130
3.98795	4149953
3.99607	6603327
4.00420	1.70163E+07
4.01232	3.118667E+07
4.02043	3.469024E+07
4.02857	2.575797E+07
4.03668	1.444616E+07
4.04482	8262413
4.05293	5705424
4.06105	4414880
4.06918	3549115
4.07730	2965999
4.08542	2536811
4.09355	2207740
4.10167	1953713
4.10980	1766317
4.11792	1607129
4.12603	1479119
4.13417	1375463
4.14228	1312473
4.15042	1260208
4.15853	1201971
4.16665	1137177
4.17478	1114940
4.18290	1053327
4.19102	990596
4.19915	953730
4.20727	1363249
4.21540	3663548
4.22352	9411113
4.23163	1.619255E+07
4.23977	1.889017E+07
4.24788	1.627826E+07
4.25602	1.109396E+07
4.26413	7574377
4.27225	5640855
4.28038	4335908
4.28850	3480453
4.29663	2875233
4.30475	2430170
4.31287	2077119
4.32100	1826536
4.32912	1613494
4.33723	1456620
4.34537	1342139
4.35348	1254106
4.36162	1199023
4.36973	1151168
4.37785	1070192
4.38598	963248
4.39410	918954
4.40223	831991
4.41035	784967
4.41847	784542
4.42660	742601
4.43472	695737
4.44283	668021
4.45097	647271
4.45908	611371
4.46722	598819
4.47533	586915
4.48345	567453
4.49158	542862
4.49970	544897
4.50783	517350
4.51595	510672
4.52407	491738
4.53220	488579
4.54032	478069
4.54845	487352
4.55657	474747
4.56468	458869
4.57282	445609
4.58093	444929
4.58905	420773
4.59718	413062
4.60530	405154
4.61343	406295
4.62155	442608
4.62967	530081
4.63780	675489
4.64592	734231
4.65405	662756
4.66217	560555
4.67028	485642
4.67842	447403
4.68653	438586
4.69467	413281
4.70278	395826
4.71090	372658
4.71903	370487
4.72715	363838
4.73527	348092
4.74340	335947
4.75152	334598
4.75965	326650
4.76777	312402
4.77588	314155
4.78402	323034
4.79213	361831
4.80027	453515
4.80838	512447
4.81650	505783
4.82463	450567
4.83275	422375
4.84087	425928
4.84900	442216
4.85712	428777
4.86525	404823
4.87337	385130
4.88148	362574
4.88962	336614
4.89773	316339
4.90587	312046
4.91398	303089
4.92210	294084
4.93023	316954
4.93835	448285
4.94648	864737
4.95460	1709583
4.96272	2759848
4.97085	3288003
4.97897	2984038
4.98708	2304182
4.99522	1636186
5.00333	1235196
5.01147	980199
5.01958	842294
5.02770	810739
5.03583	847520
5.04395	872747
5.05208	840348
5.06020	730594
5.06832	648288
5.07645	588316
5.08457	555203
5.09270	519811
5.10082	496977
5.10893	487391
5.11707	456593
5.12518	439956
5.13330	418919
5.14143	422375
5.14955	437783
5.15768	469846
5.16580	513164
5.17392	519975
5.18205	494173
5.19017	455491
5.19830	451387
5.20642	465014
5.21453	478476
5.22267	464087
5.23078	442819
5.23890	432950
5.24703	401957
5.25515	390766
5.26328	360540
5.27140	334760
5.27952	311993
5.28765	308353
5.29577	304795
5.30390	298006
5.31202	290057
5.32013	293574
5.32827	317894
5.33638	331920
5.34452	345092
5.35263	331637
5.36075	318307
5.36888	298937
5.37700	290309
5.38512	287775
5.39325	292276
5.40137	284987
5.40950	287923
5.41762	273184
5.42573	270631
5.43387	264932
5.44198	257303
5.45012	269721
5.45823	269849
5.46635	274639
5.47448	264862
5.48260	248443
5.49073	240254
5.49885	238931
5.50697	235427
5.51510	255005
5.52322	254847
5.53133	245470
5.53947	248653
5.54758	236447
5.55572	262635
5.56383	301435
5.57195	355779
5.58008	394091
5.58820	384522
5.59633	349799
5.60445	299742
5.61257	274813
5.62070	258527
5.62882	255836
5.63693	251997
5.64507	253723
5.65318	250223
5.66132	236644
5.66943	242240
5.67755	262795
5.68568	302733
5.69380	351680
5.70193	360636
5.71005	329569
5.71817	284862
5.72630	254205
5.73442	231099
5.74255	224925
5.75067	213845
5.75878	219805
5.76692	213124
5.77503	208976
5.78315	198525
5.79128	197968
5.79940	200067
5.80753	191742
5.81565	193526
5.82377	194682
5.83190	188971
5.84002	195866
5.84815	194201
5.85627	181442
5.86438	190932
5.87252	184969
5.88063	176270
5.88875	179931
5.89688	176547
5.90500	175520
5.91313	166231
5.92125	162645
5.92937	155339
5.93750	153822
5.94562	157617
5.95375	186722
5.96187	219119
5.96998	260552
5.97812	312722
5.98623	358894
5.99437	402302
6.00248	368772
6.01060	325424
6.01873	262708
6.02685	228028
6.03497	202946
6.04310	190870
6.05122	174922
6.05935	164313
6.06747	166634
6.07558	155250
6.08372	154690
6.09183	156050
6.09997	145556
6.10808	152339
6.11620	153165
6.12433	177146
6.13245	252943
6.14058	366996
6.14870	452228
6.15682	443833
6.16495	376713
6.17307	305252
6.18118	251960
6.18932	220560
6.19743	208573
6.20557	206053
6.21368	195874
6.22180	191817
6.22993	191582
6.23805	179077
6.24618	175634
6.25430	198759
6.26242	186106
6.27055	193879
6.27867	189892
6.28678	188721
6.29492	180705
6.30303	182329
6.31117	185938
6.31928	184724
6.32740	183164
6.33553	189637
6.34365	199807
6.35178	199850
6.35990	182306
6.36802	188342
6.37615	185619
6.38427	181072
6.39240	189906
6.40052	192122
6.40863	185997
6.41677	183609
6.42488	192615
6.43300	189114
6.44113	197163
6.44925	188977
6.45738	199423
6.46550	189718
6.47362	189548
6.48175	190146
6.48987	189964
6.49800	201712
6.50612	194309
6.51423	198103
6.52237	202573
6.53048	208369
6.53862	198893
6.54673	198102
6.55485	197367
6.56298	213790
6.57110	229801
6.57922	266326
6.58735	283266
6.59547	269874
6.60360	252548
6.61172	224629
6.61983	216811
6.62797	213291
6.63608	217013
6.64422	216798
6.65233	252181
6.66045	334461
6.66858	444680
6.67670	505041
6.68482	459694
6.69295	374544
6.70107	288996
6.70920	265267
6.71732	250613
6.72543	243194
6.73357	198971
6.74168	183465
6.74982	173796
6.75793	174039
6.76605	153674
6.77418	151694
6.78230	147744
6.79043	145749
6.79855	143084
6.80667	139767
6.81480	132378
6.82292	137762
6.83103	133030
6.83917	140642
6.84728	147917
6.85542	165505
6.86353	192819
6.87165	200447
6.87978	173531
6.88790	151727
6.89603	126716
6.90415	111231
6.91227	102777
6.92040	100310
6.92852	96246
6.93663	99738
6.94477	95783
6.95288	95583
6.96102	102358
6.96913	128384
6.97725	147393
6.98538	168140
6.99350	158770
7.00163	139790
7.00975	130425
7.01787	108282
7.02600	109934
7.03412	101040
7.04225	98055
7.05037	98161
7.05848	98911
7.06662	98064
7.07473	98027
7.08285	98842
7.09098	100529
7.09910	92707
7.10723	86809
7.11535	81283
7.12347	82672
7.13160	92649
7.13972	91654
7.14785	117874
7.15597	160734
7.16408	196786
7.17222	209357
7.18033	207104
7.18847	164076
7.19658	145198
7.20470	205712
7.21283	510377
7.22095	1154123
7.22907	2044344
7.23720	2596038
7.24532	2387659
7.25345	1668480
7.26157	1005743
7.26968	629556
7.27782	395333
7.28593	255384
7.29407	165140
7.30218	124663
7.31030	117906
7.31843	113950
7.32655	117115
7.33467	117876
7.34280	116028
7.35092	112257
7.35905	104907
7.36717	100033
7.37528	99874
7.38342	99761
7.39153	99550
7.39967	101588
7.40778	100397
7.41590	96850
7.42403	90535
7.43215	92629
7.44028	91845
7.44840	89790
7.45652	85482
7.46465	85864
7.47277	89173
7.48088	84770
7.48902	79842
7.49713	80430
7.50527	77900
7.51338	92301
7.52150	101567
7.52963	136611
7.53775	208460
7.54588	310829
7.55400	425535
7.56212	515053
7.57025	518168
7.57837	471902
7.58650	372905
7.59462	272399
7.60273	201229
7.61087	145672
7.61898	127158
7.62710	108658
7.63523	99312
7.64335	90488
7.65148	93627
7.65960	86221
7.66772	83127
7.67585	84092
7.68397	78512
7.69210	74658
7.70022	78034
7.70833	77177
7.71647	79686
7.72458	76911
7.73270	73641
7.74083	72899
7.74895	75612
7.75708	73294
7.76520	80460
7.77332	77681
7.78145	80559
7.78957	86237
7.79770	90072
7.80582	96570
7.81393	97661
7.82207	99610
7.83018	90400
7.83832	86246
7.84643	80760
7.85455	80167
7.86268	75233
7.87080	82813
7.87892	87815
7.88705	85659
7.89517	89527
7.90330	89560
7.91142	88381
7.91953	105983
7.92767	131211
7.93578	203033
7.94392	281329
7.95203	332045
7.96015	327353
7.96828	263589
7.97640	198132
7.98452	145536
7.99265	113185
8.00077	92421
8.00890	82283
8.01702	87914
8.02513	76743
8.03327	77281
8.04138	75768
8.04952	73304
8.05763	75597
8.06575	74296
8.07388	72087
8.08200	64838
8.09013	70472
8.09825	66342
8.10637	67884
8.11450	66796
8.12262	68503
8.13073	72441
8.13887	75506
8.14698	96054
8.15512	103215
8.16323	104993
8.17135	92699
8.17948	89542
8.18760	77372
8.19573	72196
8.20385	66543
8.21197	59893
8.22010	68086
8.22822	64272
8.23635	64380
8.24447	63664
8.25258	66114
8.26072	64558
8.26883	68376
8.27695	64858
8.28508	67320
8.29320	61421
8.30133	61918
8.30945	63991
8.31757	67864
8.32570	71271
8.33382	74740
8.34195	69784
8.35007	65832
8.35818	66194
8.36632	66409
8.37443	65136
8.38257	63122
8.39068	67774
8.39880	67233
8.40693	65178
8.41505	63892
8.42317	58620
8.43130	63768
8.43942	54706
8.44755	59998
8.45567	57913
8.46378	63210
8.47192	60131
8.48003	58629
8.48817	57991
8.49628	61801
8.50440	60405
8.51253	62611
8.52065	74082
8.52877	121778
8.53690	221656
8.54502	346341
8.55315	476514
8.56127	447339
8.56938	359607
8.57752	243863
8.58563	160043
8.59377	123606
8.60188	103493
8.61000	95184
8.61813	95402
8.62625	94013
8.63438	92160
8.64250	79870
8.65062	75240
8.65875	72110
8.66687	73355
8.67498	72441
8.68312	78499
8.69123	74224
8.69937	69378
8.70748	68602
8.71560	65524
8.72373	65957
8.73185	67598
8.73998	63226
8.74810	60652
8.75622	71316
8.76435	87476
8.77247	141686
8.78058	258437
8.78872	413811
8.79683	554728
8.80497	597923
8.81308	527275
8.82120	372061
8.82933	283760
8.83745	217462
8.84558	186579
8.85370	178653
8.86182	184232
8.86995	181830
8.87807	171232
8.88620	165481
8.89432	149573
8.90243	151680
8.91057	137235
8.91868	140408
8.92680	136321
8.93493	153497
8.94305	161918
8.95118	172974
8.95930	184691
8.96742	161248
8.97555	148129
8.98367	136041
8.99180	133368
8.99992	125290
9.00803	133204
9.01617	110005
9.02428	110792
9.03242	109865
9.04053	104206
9.04865	100990
9.05678	94283
9.06490	97818
9.07302	92548
9.08115	95859
9.08927	95848
9.09740	101613
9.10552	107417
9.11363	116859
9.12177	127017
9.12988	123429
9.13802	116505
9.14613	106582
9.15425	111766
9.16238	101066
9.17050	89579
9.17862	93075
9.18675	93000
9.19487	89085
9.20300	86719
9.21112	88965
9.21923	86098
9.22737	87180
9.23548	88209
9.24362	89975
9.25173	86424
9.25985	90846
9.26798	81158
9.27610	82468
9.28423	79917
9.29235	82468
9.30047	75364
9.30860	74160
9.31672	80405
9.32483	72522
9.33297	77193
9.34108	74916
9.34922	72745
9.35733	70469
9.36545	76368
9.37358	72551
9.38170	75223
9.38983	80533
9.39795	71799
9.40607	75790
9.41420	81882
9.42232	93476
9.43045	97435
9.43857	109545
9.44668	120120
9.45482	111710
9.46293	102396
9.47105	88082
9.47918	83202
9.48730	80016
9.49543	70143
9.50355	70221
9.51167	77184
9.51980	80412
9.52792	90716
9.53605	94561
9.54417	90193
9.55228	86688
9.56042	84736
9.56853	87354
9.57665	78559
9.58478	86080
9.59290	83268
9.60103	85188
9.60915	78470
9.61727	74074
9.62540	64926
9.63352	55217
9.64165	54951
9.64977	52914
9.65788	57222
9.66602	54214
9.67413	54079
9.68227	53282
9.69038	49646
9.69850	50454
9.70663	51882
9.71475	51057
9.72287	54762
9.73100	50568
9.73912	58237
9.74725	48032
9.75537	46077
9.76348	47454
9.77162	47725
9.77973	47320
9.78787	49660
9.79598	43532
9.80410	49282
9.81223	48097
9.82035	49986
9.82847	42252
9.83660	49696
9.84472	48791
9.85285	51377
9.86097	51867
9.86908	49774
9.87722	56353
9.88533	62685
9.89347	54021
9.90158	44312
9.90970	45814
9.91783	47790
9.92595	53254
9.93408	54491
9.94220	69234
9.95032	99104
9.95845	112316
9.96657	119980
9.97468	118104
9.98282	106301
9.99093	89060
9.99907	82068
10.00718	76711
10.01530	77188
10.02343	78393
10.03155	74259
10.03968	70324
10.04780	63242
10.05592	65596
10.06405	61355
10.07217	60170
10.08030	61816
10.08842	63533
10.09653	64462
10.10467	67999
10.11278	65044
10.12090	61988
10.12903	61824
10.13715	56845
10.14528	51505
10.15340	53347
10.16152	54189
10.16965	51972
10.17777	50306
10.18590	46524
10.19402	47579
10.20213	50806
10.21027	45380
10.21838	48111
10.22650	51683
10.23463	57116
10.24275	58118
10.25088	62440
10.25900	80046
10.26712	148081
10.27525	334867
10.28337	814546
10.29150	1586522
10.29962	2555052
10.30773	3611526
10.31587	5033595
10.32398	7190556
10.33212	1.033485E+07
10.34023	1.268431E+07
10.34835	1.250631E+07
10.35648	9650164
10.36460	5983440
10.37272	3133820
10.38085	1664824
10.38897	1001322
10.39710	735360
10.40522	553841
10.41333	443969
10.42147	381097
10.42958	328455
10.43772	294622
10.44583	278222
10.45395	245250
10.46208	235348
10.47020	228740
10.47833	209384
10.48645	201063
10.49457	185260
10.50270	170084
10.51082	165735
10.51893	148384
10.52707	144851
10.53518	155286
10.54332	143980
10.55143	141431
10.55955	139430
10.56768	136743
10.57580	138183
10.58393	128160
10.59205	124470
10.60017	116350
10.60830	119782
10.61642	112429
10.62453	107758
10.63267	105984
10.64078	100390
10.64892	95045
10.65703	97195
10.66515	89507
10.67328	97654
10.68140	94102
10.68953	93499
10.69765	93076
10.70577	88369
10.71390	89687
10.72202	88213
10.73015	88456
10.73827	85592
10.74638	84854
10.75452	86483
10.76263	91684
10.77075	81544
10.77888	82835
10.78700	77631
10.79513	76607
10.80325	80227
10.81137	77780
10.81950	77807
10.82762	79804
10.83575	72503
10.84387	75316
10.85198	68855
10.86012	66534
10.86823	66111
10.87635	63750
10.88448	64650
10.89260	59305
10.90073	65517
10.90885	63971
10.91697	65012
10.92510	65603
10.93322	64320
10.94135	59589
10.94947	61670
10.95758	60551
10.96572	64655
10.97383	59167
10.98197	60364
10.99008	59651
10.99820	58013
11.00633	65870
11.01445	56939
11.02257	59258
11.03070	59604
11.03882	57718
11.04695	55129
11.05507	57334
11.06318	55611
11.07132	52673
11.07943	51134
11.08757	56270
11.09568	60589
11.10380	65914
11.11193	55243
11.12005	57115
11.12818	52764
11.13630	53251
11.14442	45663
11.15255	45545
11.16067	45292
11.16878	47189
11.17692	48650
11.18503	51045
11.19317	54714
11.20128	60440
11.20940	57690
11.21753	53927
11.22565	53953
11.23378	50862
11.24190	47699
11.25002	44761
11.25815	47230
11.26627	44356
11.27438	43325
11.28252	44088
11.29063	46638
11.29877	47376
11.30688	58047
11.31500	83267
11.32313	119069
11.33125	183102
11.33938	255776
11.34750	295621
11.35562	312779
11.36375	263293
11.37187	208932
11.38000	148616
11.38812	123936
11.39623	96410
11.40437	87929
11.41248	84536
11.42060	78359
11.42873	81741
11.43685	71975
11.44498	74110
11.45310	70816
11.46122	68108
11.46935	69452
11.47747	77966
11.48560	94914
11.49372	129965
11.50183	160957
11.50997	174464
11.51808	165484
11.52622	143964
11.53433	123361
11.54245	99489
11.55058	89301
11.55870	81394
11.56682	82155
11.57495	80894
11.58307	70843
11.59120	72448
11.59932	86728
11.60743	99790
11.61557	131394
11.62368	161296
11.63182	162947
11.63993	148730
11.64805	120157
11.65618	98245
11.66430	82856
11.67242	75722
11.68055	64242
11.68867	64787
11.69680	58483
11.70492	62882
11.71303	59288
11.72117	58642
11.72928	67438
11.73742	61759
11.74553	59036
11.75365	57419
11.76178	56682
11.76990	55364
11.77803	52023
11.78615	52072
11.79427	53225
11.80240	54339
11.81052	49484
11.81863	52900
11.82677	51938
11.83488	57431
11.84302	63262
11.85113	68419
11.85925	83331
11.86738	83772
11.87550	86824
11.88363	80299
11.89175	68122
11.89987	55074
11.90800	55195
11.91612	50354
11.92425	52647
11.93237	52928
11.94048	59134
11.94862	57829
11.95673	52184
11.96485	49310
11.97298	49060
11.98110	48859
11.98923	50311
11.99735	54731
12.00547	73921
12.01360	77708
12.02172	85960
12.02985	84399
12.03797	71748
12.04608	67630
12.05422	58588
12.06233	52339
12.07045	49368
12.07858	47922
12.08670	53694
12.09483	46830
12.10295	47286
12.11107	51319
12.11920	56550
12.12732	63485
12.13545	66130
12.14357	75428
12.15168	62593
12.15982	67412
12.16793	56671
12.17607	49311
12.18418	45706
12.19230	45943
12.20043	47867
12.20855	48522
12.21667	45632
12.22480	47480
12.23292	47888
12.24105	47836
12.24917	47849
12.25728	48403
12.26542	45265
12.27353	42771
12.28167	53086
12.28978	45723
12.29790	42720
12.30603	45625
12.31415	43022
12.32227	42399
12.33040	41729
12.33852	46423
12.34665	42801
12.35477	46953
12.36288	44737
12.37102	45307
12.37913	43329
12.38727	41697
12.39538	47910
12.40350	50610
12.41163	62741
12.41975	74495
12.42788	95507
12.43600	105784
12.44412	104603
12.45225	94365
12.46037	86632
12.46848	71144
12.47662	61984
12.48473	59581
12.49287	54970
12.50098	50381
12.50910	48367
12.51723	47130
12.52535	41274
12.53348	45836
12.54160	55538
12.54972	53657
12.55785	63814
12.56597	73260
12.57410	78248
12.58222	74432
12.59033	69488
12.59847	60854
12.60658	55930
12.61470	50952
12.62283	48612
12.63095	49314
12.63908	49193
12.64720	43695
12.65532	48396
12.66345	44552
12.67157	42477
12.67970	42462
12.68782	42961
12.69593	42109
12.70407	42939
12.71218	50118
12.72030	48971
12.72843	55017
12.73655	60170
12.74468	61765
12.75280	65455
12.76092	61201
12.76905	54034
12.77717	49140
12.78530	47878
12.79342	47143
12.80153	49323
12.80967	44485
12.81778	43951
12.82592	43630
12.83403	40173
12.84215	39660
12.85028	36572
12.85840	40219
12.86652	40063
12.87465	44623
12.88277	39995
12.89090	35691
12.89902	37012
12.90713	37758
12.91527	37163
12.92338	35657
12.93152	35964
12.93963	39590
12.94775	42954
12.95588	36899
12.96400	37888
12.97213	37243
12.98025	39988
12.98837	43392
12.99650	44294
13.00462	47821
13.01273	45145
13.02087	38461
13.02898	36689
13.03712	42137
13.04523	37205
13.05335	38344
13.06148	35411
13.06960	34078
13.07773	35919
13.08585	37633
13.09397	35203
13.10210	37432
13.11022	37629
13.11833	38656
13.12647	38657
13.13458	39728
13.14272	36710
13.15083	36099
13.15895	39655
13.16708	46248
13.17520	39523
13.18333	39115
13.19145	40468
13.19957	42368
13.20770	42640
13.21582	47865
13.22395	41360
13.23207	46486
13.24018	47831
13.24832	41555
13.25643	41297
13.26455	38796
13.27268	37391
13.28080	38300
13.28893	40509
13.29705	34088
13.30517	37648
13.31330	37188
13.32142	41204
13.32955	36580
13.33767	39661
13.34578	39538
13.35392	33005
13.36203	34981
13.37015	35424
13.37828	34510
13.38640	37471
13.39453	35465
13.40265	39556
13.41077	33112
13.41890	36219
13.42702	35439
13.43515	33101
13.44327	31321
13.45138	31306
13.45952	30877
13.46763	36396
13.47577	34947
13.48388	34661
13.49200	34808
13.50013	34353
13.50825	34201
13.51637	36695
13.52450	36709
13.53262	40296
13.54075	43983
13.54887	38285
13.55698	35530
13.56512	37188
13.57323	44742
13.58137	38203
13.58948	44432
13.59760	40719
13.60573	42015
13.61385	42849
13.62198	47042
13.63010	49643
13.63822	46957
13.64635	45438
13.65447	43461
13.66258	39277
13.67072	35430
13.67883	37394
13.68697	32170
13.69508	31614
13.70320	28247
13.71133	31290
13.71945	32656
13.72758	40107
13.73570	35306
13.74382	39918
13.75195	48038
13.76007	59698
13.76820	89786
13.77632	120001
13.78443	159757
13.79257	171169
13.80068	173873
13.80880	174533
13.81693	174832
13.82505	173233
13.83318	182522
13.84130	197046
13.84942	187061
13.85755	170006
13.86567	147089
13.87380	122387
13.88192	100767
13.89003	84369
13.89817	76707
13.90628	67929
13.91440	61266
13.92253	57685
13.93065	56274
13.93878	55819
13.94690	56247
13.95502	60733
13.96315	68288
13.97127	91798
13.97940	130566
13.98752	164043
13.99563	167610
14.00377	154798
14.01188	146234
14.02002	104226
14.02813	87140
14.03625	73946
14.04438	69340
14.05250	62505
14.06062	61701
14.06875	59426
14.07687	55518
14.08500	59554
14.09312	55710
14.10123	58282
14.10937	53819
14.11748	50000
14.12562	50255
14.13373	50159
14.14185	58512
14.14998	52732
14.15810	51974
14.16622	56995
14.17435	52144
14.18247	56835
14.19060	59388
14.19872	78011
14.20683	98739
14.21497	130774
14.22308	157945
14.23122	170665
14.23933	182938
14.24745	173405
14.25558	160949
14.26370	155010
14.27183	144904
14.27995	127622
14.28807	118772
14.29620	105019
14.30432	93891
14.31243	90021
14.32057	82409
14.32868	79363
14.33682	79199
14.34493	80606
14.35305	69419
14.36118	66909
14.36930	61255
14.37743	58080
14.38555	52555
14.39367	47193
14.40180	52007
14.40992	52327
14.41805	62662
14.42617	67562
14.43428	72968
14.44242	73776
14.45053	62009
14.45865	53731
14.46678	49482
14.47490	47074
14.48303	49532
14.49115	48846
14.49927	49854
14.50740	48226
14.51552	48372
14.52365	48930
14.53177	49267
14.53988	46722
14.54802	48905
14.55613	51029
14.56425	47242
14.57238	43317
14.58050	39343
14.58863	41550
14.59675	40235
14.60487	39269
14.61300	39377
14.62112	40555
14.62925	38838
14.63737	39139
14.64548	33234
14.65362	38191
14.66173	34201
14.66987	38907
14.67798	34543
14.68610	36784
14.69423	35640
14.70235	36304
14.71047	34801
14.71860	40525
14.72672	40308
14.73485	39031
14.74297	41347
14.75108	39274
14.75922	37058
14.76733	44670
14.77547	42190
14.78358	45562
14.79170	62591
14.79983	124416
14.80795	318205
14.81608	802888
14.82420	1721630
14.83232	2928024
14.84045	3769230
14.84857	4070542
14.85668	3480502
14.86482	2474346
14.87293	1484970
14.88107	912274
14.88918	594163
14.89730	431958
14.90543	362425
14.91355	295994
14.92168	270281
14.92980	238598
14.93792	218723
14.94605	201632
14.95417	194134
14.96228	174047
14.97042	170213
14.97853	163284
14.98667	148496
14.99478	142875
15.00290	134837
15.01103	131483
15.01915	128495
15.02728	119242
15.03540	119439
15.04352	112581
15.05165	110661
15.05977	106241
15.06790	108038
15.07602	102131
15.08413	92176
15.09227	89807
15.10038	91340
15.10850	86958
15.11663	89335
15.12475	85768
15.13288	86382
15.14100	94154
15.14912	104662
15.15725	109963
15.16537	96090
15.17350	95363
15.18162	83486
15.18973	64505
15.19787	64418
15.20598	55270
15.21410	55545
15.22223	55871
15.23035	47991
15.23848	48348
15.24660	50472
15.25472	50381
15.26285	49103
15.27097	46238
15.27910	50348
15.28722	45407
15.29533	43383
15.30347	45444
15.31158	43311
15.31972	41519
15.32783	45523
15.33595	43180
15.34408	39166
15.35220	42472
15.36032	40518
15.36845	41819
15.37657	40665
15.38470	38916
15.39282	46770
15.40093	45554
15.40907	42944
15.41718	41268
15.42532	39263
15.43343	42156
15.44155	41323
15.44968	43153
15.45780	40522
15.46593	41737
15.47405	45658
15.48217	59950
15.49030	60257
15.49842	70381
15.50653	73129
15.51467	83980
15.52278	83687
15.53092	74565
15.53903	70037
15.54715	62805
15.55528	57340
15.56340	62777
15.57153	53706
15.57965	46036
15.58777	51646
15.59590	48875
15.60402	47055
15.61213	44467
15.62027	42110
15.62838	49279
15.63652	42355
15.64463	43301
15.65275	40976
15.66088	37722
15.66900	41430
15.67713	40600
15.68525	40116
15.69337	40394
15.70150	38622
15.70962	37044
15.71775	38756
15.72587	39866
15.73398	39945
15.74212	45506
15.75023	44798
15.75835	53009
15.76648	73150
15.77460	110092
15.78273	169278
15.79085	244342
15.79897	290503
15.80710	288610
15.81522	252146
15.82335	187844
15.83147	137339
15.83958	101081
15.84772	82804
15.85583	72411
15.86397	62811
15.87208	59906
15.88020	59721
15.88833	54123
15.89645	57237
15.90457	56787
15.91270	52833
15.92082	54439
15.92895	48920
15.93707	52743
15.94518	53784
15.95332	49588
15.96143	50534
15.96957	57620
15.97768	62895
15.98580	71305
15.99393	72242
16.00205	81247
16.01017	78806
16.01830	83759
16.02642	86675
16.03455	85309
16.04267	98509
16.05078	84724
16.05892	73946
16.06703	65807
16.07517	58549
16.08328	59256
16.09140	54156
16.09953	49555
16.10765	51020
16.11578	52526
16.12390	48865
16.13202	48621
16.14015	51827
16.14827	52837
16.15638	54414
16.16452	51330
16.17263	52087
16.18077	49058
16.18888	46261
16.19700	44004
16.20513	42190
16.21325	47203
16.22138	47138
16.22950	44683
16.23762	48115
16.24575	42424
16.25387	47954
16.26200	44705
16.27012	44134
16.27823	40437
16.28637	43953
16.29448	45585
16.30260	46995
16.31073	52614
16.31885	48143
16.32698	49365
16.33510	48791
16.34322	47486
16.35135	48168
16.35947	52319
16.36760	66968
16.37572	82080
16.38383	88166
16.39197	88988
16.40008	86931
16.40820	71883
16.41633	68963
16.42445	61179
16.43258	52739
16.44070	58514
16.44882	66619
16.45695	96270
16.46507	189899
16.47320	365581
16.48132	603339
16.48943	814808
16.49757	885508
16.50568	766632
16.51382	589085
16.52193	370113
16.53005	239260
16.53818	159937
16.54630	122047
16.55442	110038
16.56255	94302
16.57067	90964
16.57880	90062
16.58692	80947
16.59503	82083
16.60317	77432
16.61128	85895
16.61942	81988
16.62753	81422
16.63565	81089
16.64378	74997
16.65190	70982
16.66002	64003
16.66815	59481
16.67627	61609
16.68440	61231
16.69252	57938
16.70063	54091
16.70877	52997
16.71688	48674
16.72502	51975
16.73313	53707
16.74125	45350
16.74938	46921
16.75750	54113
16.76563	52817
16.77375	59955
16.78187	56124
16.79000	53399
16.79812	53017
16.80623	52341
16.81437	48351
16.82248	45224
16.83062	44888
16.83873	42343
16.84685	39781
16.85498	38702
16.86310	41461
16.87123	38785
16.87935	38462
16.88747	37812
16.89560	39647
16.90372	39582
16.91185	41508
16.91997	38936
16.92808	36379
16.93622	38889
16.94433	38828
16.95245	34935
16.96058	39015
16.96870	39184
16.97683	35666
16.98495	38852
16.99307	40916
17.00120	41884
17.00932	43962
17.01745	38648
17.02557	44630
17.03368	43012
17.04182	46006
17.04993	50261
17.05805	51282
17.06618	51137
17.07430	58533
17.08243	48711
17.09055	46482
17.09867	46075
17.10680	45461
17.11492	43360
17.12305	45949
17.13117	45396
17.13928	43089
17.14742	40257
17.15553	46069
17.16367	41524
17.17178	45039
17.17990	41461
17.18803	45489
17.19615	44376
17.20427	39106
17.21240	38226
17.22052	36799
17.22865	39255
17.23677	41895
17.24488	37693
17.25302	36818
17.26113	39979
17.26927	45937
17.27738	40049
17.28550	36309
17.29363	40332
17.30175	42639
17.30988	42544
17.31800	34804
17.32612	39905
17.33425	44067
17.34237	48516
17.35048	52554
17.35862	46467
17.36673	54744
17.37487	53840
17.38298	46361
17.39110	52781
17.39923	47709
17.40735	49604
17.41548	49918
17.42360	49530
17.43172	45391
17.43985	48815
17.44797	47212
17.45608	52069
17.46422	49828
17.47233	43724
17.48047	43673
17.48858	42825
17.49670	40114
17.50483	39627
17.51295	42416
17.52108	40613
17.52920	40375
17.53732	41758
17.54545	42489
17.55357	46302
17.56170	54748
17.56982	65576
17.57793	94086
17.58607	146046
17.59418	223988
17.60230	342606
17.61043	442033
17.61855	495623
17.62668	484104
17.63480	425118
17.64292	341356
17.65105	280481
17.65917	248734
17.66730	251337
17.67542	260591
17.68353	260494
17.69167	229389
17.69978	197901
17.70790	159559
17.71603	135928
17.72415	113420
17.73228	101329
17.74040	91901
17.74852	83696
17.75665	79341
17.76477	76922
17.77290	69686
17.78102	70195
17.78913	63942
17.79727	66292
17.80538	79951
17.81352	95333
17.82163	121388
17.82975	150332
17.83788	176148
17.84600	182242
17.85412	168130
17.86225	145601
17.87037	130754
17.87850	104023
17.88662	96710
17.89473	83803
17.90287	72278
17.91098	64203
17.91912	59888
17.92723	61103
17.93535	53091
17.94348	55550
17.95160	49519
17.95973	53557
17.96785	54508
17.97597	48031
17.98410	57516
17.99222	46791
18.00033	47170
18.00847	49912
18.01658	50628
18.02472	55693
18.03283	66614
18.04095	77951
18.04908	80962
18.05720	105176
18.06533	177387
18.07345	347453
18.08157	677934
18.08970	1177976
18.09782	1669643
18.10593	1979088
18.11407	1898617
18.12218	1598616
18.13032	1172764
18.13843	868589
18.14655	643455
18.15468	511318
18.16280	422830
18.17093	355250
18.17905	332597
18.18717	290431
18.19530	274653
18.20342	251160
18.21155	231690
18.21967	208451
18.22778	199196
18.23592	174721
18.24403	174815
18.25215	157978
18.26028	154606
18.26840	139792
18.27653	130372
18.28465	118494
18.29277	100861
18.30090	81787
18.30902	70712
18.31715	64316
18.32527	62993
18.33338	63049
18.34152	59108
18.34963	55802
18.35777	50882
18.36588	58490
18.37400	51519
18.38213	52581
18.39025	50857
18.39837	51270
18.40650	52896
18.41462	51954
18.42275	53311
18.43087	56147
18.43898	58684
18.44712	65825
18.45523	74894
18.46337	90931
18.47148	119009
18.47960	157469
18.48773	182893
18.49585	196095
18.50397	192279
18.51210	166681
18.52022	134359
18.52835	104290
18.53647	83129
18.54458	77145
18.55272	69485
18.56083	60219
18.56897	63215
18.57708	55158
18.58520	53412
18.59333	57765
18.60145	63923
18.60958	90257
18.61770	145432
18.62582	191275
18.63395	235582
18.64207	249649
18.65018	257863
18.65832	261111
18.66643	270481
18.67457	268881
18.68268	269871
18.69080	269127
18.69893	261493
18.70705	263447
18.71518	274480
18.72330	274613
18.73142	269539
18.73955	263532
18.74767	259766
18.75578	270499
18.76392	258224
18.77203	255426
18.78017	265063
18.78828	256152
18.79640	256408
18.80453	245094
18.81265	255253
18.82078	249479
18.82890	248928
18.83702	249739
18.84515	236343
18.85327	240724
18.86140	254691
18.86952	244032
18.87763	250806
18.88577	244321
18.89388	247336
18.90200	240900
18.91013	229078
18.91825	232883
18.92638	243253
18.93450	234008
18.94262	225962
18.95075	242360
18.95887	242164
18.96700	243781
18.97512	229093
18.98323	230780
18.99137	228662
18.99948	223840
19.00762	228891
19.01573	223686
19.02385	218195
19.03198	208678
19.04010	206740
19.04822	208665
19.05635	201233
19.06447	203323
19.07260	197578
19.08072	203879
19.08883	208366
19.09697	222136
19.10508	240006
19.11322	249560
19.12133	253230
19.12945	240540
19.13758	241682
19.14570	233165
19.15383	219177
19.16195	216512
19.17007	214356
19.17820	207107
19.18632	214921
19.19443	209233
19.20257	206313
19.21068	212358
19.21882	194311
19.22693	192604
19.23505	201504
19.24318	194182
19.25130	180990
19.25943	184291
19.26755	187513
19.27567	187597
19.28380	193046
19.29192	207039
19.30003	214137
19.30817	221667
19.31628	221959
19.32442	209799
19.33253	203467
19.34065	196147
19.34878	190979
19.35690	186864
19.36503	196958
19.37315	212921
19.38127	224282
19.38940	228655
19.39752	221932
19.40565	204694
19.41377	196227
19.42188	181762
19.43002	173121
19.43813	160530
19.44625	160325
19.45438	163849
19.46250	158198
19.47063	153569
19.47875	152380
19.48687	153818
19.49500	161836
19.50312	161889
19.51125	184611
19.51937	212360
19.52748	234078
19.53562	242298
19.54373	232491
19.55185	218142
19.55998	188557
19.56810	167934
19.57623	157673
19.58435	149395
19.59247	143865
19.60060	139606
19.60872	140676
19.61685	143575
19.62497	133265
19.63308	142725
19.64122	149675
19.64933	184852
19.65747	254470
19.66558	351179
19.67370	444189
19.68183	522448
19.68995	561193
19.69807	531385
19.70620	463463
19.71432	390210
19.72245	326474
19.73057	275058
19.73868	238846
19.74682	209189
19.75493	204859
19.76307	180250
19.77118	173813
19.77930	161527
19.78743	156612
19.79555	157654
19.80368	162859
19.81180	160486
19.81992	156249
19.82805	151483
19.83617	147389
19.84428	162178
19.85242	234053
19.86053	537765
19.86867	1469710
19.87678	3733593
19.88490	8369330
19.89303	1.497452E+07
19.90115	2.202962E+07
19.90928	2.645212E+07
19.91740	2.701237E+07
19.92552	2.428146E+07
19.93365	1.94699E+07
19.94177	1.354341E+07
19.94988	9066548
19.95802	6484264
19.96613	4818787
19.97427	3981238
19.98238	3499251
19.99050	3032794
19.99863	2697386
20.00675	2467938
20.01488	2315288
20.02300	2206429
20.03112	2070405
20.03925	1887498
20.04737	1640138
20.05550	1380198
20.06362	1109461
20.07173	842201
20.07987	675343
20.08798	550204
20.09610	473065
20.10423	434358
20.11235	384870
20.12048	356606
20.12860	345884
20.13672	343750
20.14485	323955
20.15297	314763
20.16110	315855
20.16922	320654
20.17733	325659
20.18547	327594
20.19358	332391
20.20172	334960
20.20983	334666
20.21795	325066
20.22608	302045
20.23420	284488
20.24232	285086
20.25045	280479
20.25857	312792
20.26670	378848
20.27482	468054
20.28293	578339
20.29107	706274
20.29918	746533
20.30732	712123
20.31543	614520
20.32355	505262
20.33168	409440
20.33980	330196
20.34792	279203
20.35605	236895
20.36417	202513
20.37230	176644
20.38042	155297
20.38853	139539
20.39667	136638
20.40478	131967
20.41292	128692
20.42103	135422
20.42915	130229
20.43728	144942
20.44540	161306
20.45353	170671
20.46165	180251
20.46977	175070
20.47790	175651
20.48602	149024
20.49413	140645
20.50227	128169
20.51038	118777
20.51852	113352
20.52663	105467
20.53475	106895
20.54288	106331
20.55100	104632
20.55913	100946
20.56725	100669
20.57537	97728
20.58350	103114
20.59162	100356
20.59973	97011
20.60787	95340
20.61598	89581
20.62412	90649
20.63223	91920
20.64035	90215
20.64848	86943
20.65660	84905
20.66473	88773
20.67285	86666
20.68097	89347
20.68910	89154
20.69722	90799
20.70535	86063
20.71347	86647
20.72158	81237
20.72972	83899
20.73783	85147
20.74595	83367
20.75408	91591
20.76220	85859
20.77033	77051
20.77845	85930
20.78657	88596
20.79470	105896
20.80282	123916
20.81095	152107
20.81907	185999
20.82718	214850
20.83532	218810
20.84343	199218
20.85157	163824
20.85968	138464
20.86780	114609
20.87593	100849
20.88405	93071
20.89217	88279
20.90030	85216
20.90842	85760
20.91655	86869
20.92467	83333
20.93278	79183
20.94092	82982
20.94903	86464
20.95717	80682
20.96528	83754
20.97340	85954
20.98153	81585
20.98965	75154
20.99777	78901
21.00590	76041
21.01402	75330
21.02215	74069
21.03027	75408
21.03838	71866
21.04652	80964
21.05463	78620
21.06277	80652
21.07088	80649
21.07900	76296
21.08713	77565
21.09525	76243
21.10338	72457
21.11150	77560
21.11962	74484
21.12775	75854
21.13587	76609
21.14398	78516
21.15212	94123
21.16023	96309
21.16837	111006
21.17648	103805
21.18460	107438
21.19273	98647
21.20085	88015
21.20898	83447
21.21710	81448
21.22522	77057
21.23335	77225
21.24147	80693
21.24960	77007
21.25772	78110
21.26583	72987
21.27397	72273
21.28208	73510
21.29020	70474
21.29833	68809
21.30645	67478
21.31458	64748
21.32270	67959
21.33082	63404
21.33895	62140
21.34707	63401
21.35520	65425
21.36332	63410
21.37143	64639
21.37957	63359
21.38768	70244
21.39580	74201
21.40393	83374
21.41205	94333
21.42018	104108
21.42830	105087
21.43642	105977
21.44455	96695
21.45267	88527
21.46080	86374
21.46892	74392
21.47703	69499
21.48517	65205
21.49328	59546
21.50142	58329
21.50953	54708
21.51765	55064
21.52578	55730
21.53390	52120
21.54202	52686
21.55015	53151
21.55827	49478
21.56640	53925
21.57452	55012
21.58263	56054
21.59077	60355
21.59888	63489
21.60702	60325
21.61513	63983
21.62325	64843
21.63138	73599
21.63950	76665
21.64763	87766
21.65575	103377
21.66387	115434
21.67200	109321
21.68012	100811
21.68823	101738
21.69637	87367
21.70448	80822
21.71262	74494
21.72073	69233
21.72885	63451
21.73698	59947
21.74510	62943
21.75323	58201
21.76135	54826
21.76947	52414
21.77760	55566
21.78572	53851
21.79383	56044
21.80197	58323
21.81008	54274
21.81822	55763
21.82633	57430
21.83445	64500
21.84258	83763
21.85070	87873
21.85883	98723
21.86695	105604
21.87507	97515
21.88320	84414
21.89132	83367
21.89945	68679
21.90757	66622
21.91568	60510
21.92382	56583
21.93193	54324
21.94005	56899
21.94818	52255
21.95630	54444
21.96443	49274
21.97255	47185
21.98067	47655
21.98880	47380
21.99692	44872
22.00505	45300
22.01317	40046
22.02128	50238
22.02942	47775
22.03753	46658
22.04565	47545
22.05378	46794
22.06190	45773
22.07003	45241
22.07815	49852
22.08627	48536
22.09440	43754
22.10252	45843
22.11065	44836
22.11877	47605
22.12688	43033
22.13502	45503
22.14313	48086
22.15127	44068
22.15938	45155
22.16750	49353
22.17563	44124
22.18375	42363
22.19187	42820
22.20000	43952
22.20812	53996
22.21625	65630
22.22437	81545
22.23248	84858
22.24062	93421
22.24873	103600
22.25687	105352
22.26498	99486
22.27310	110528
22.28123	102762
22.28935	105818
22.29748	109194
22.30560	114182
22.31372	128217
22.32185	141705
22.32997	147139
22.33808	168031
22.34622	174598
22.35433	178652
22.36247	156954
22.37058	149779
22.37870	144915
22.38683	133153
22.39495	139817
22.40308	139561
22.41120	150819
22.41932	159396
22.42745	171327
22.43557	168026
22.44368	156838
22.45182	148064
22.45993	133481
22.46807	129266
22.47618	131326
22.48430	123305
22.49243	120997
22.50055	120022
22.50868	121534
22.51680	117528
22.52492	126736
22.53305	119855
22.54117	115244
22.54930	117077
22.55742	104859
22.56553	105258
22.57367	99014
22.58178	96724
22.58990	96555
22.59803	91564
22.60615	90018
22.61428	90420
22.62240	87529
22.63052	90304
22.63865	84785
22.64677	88189
22.65490	87284
22.66302	90834
22.67113	91476
22.67927	99446
22.68738	99568
22.69552	100901
22.70363	95738
22.71175	99439
22.71988	88740
22.72800	90925
22.73612	85962
22.74425	77849
22.75237	73482
22.76050	74427
22.76862	67741
22.77673	71618
22.78487	66547
22.79298	68655
22.80112	82785
22.80923	87903
22.81735	87990
22.82548	99936
22.83360	86983
22.84172	84245
22.84985	76400
22.85797	70124
22.86610	69449
22.87422	66491
22.88233	68315
22.89047	78227
22.89858	77392
22.90672	85188
22.91483	91103
22.92295	109912
22.93108	126685
22.93920	145830
22.94733	157388
22.95545	157899
22.96357	143149
22.97170	132974
22.97982	121256
22.98793	123499
22.99607	138399
23.00418	146670
23.01232	153984
23.02043	154496
23.02855	146313
23.03668	144805
23.04480	142775
23.05293	149663
23.06105	141658
23.06917	139045
23.07730	147368
23.08542	145676
23.09353	150546
23.10167	139428
23.10978	153296
23.11792	146868
23.12603	143891
23.13415	140528
23.14228	139445
23.15040	137639
23.15853	144918
23.16665	137812
23.17477	136771
23.18290	142916
23.19102	136293
23.19915	134030
23.20727	131523
23.21538	130437
23.22352	131204
23.23163	137044
23.23975	142062
23.24788	145730
23.25600	148674
23.26413	166189
23.27225	177192
23.28037	168025
23.28850	165036
23.29662	158362
23.30475	141742
23.31287	139005
23.32098	138954
23.32912	127348
23.33723	137813
23.34537	143313
23.35348	162352
23.36160	195365
23.36973	237822
23.37785	301444
23.38597	408896
23.39410	514843
23.40222	619756
23.41035	723483
23.41847	778847
23.42658	826669
23.43472	832724
23.44283	870938
23.45097	837453
23.45908	784310
23.46720	741541
23.47533	699651
23.48345	644097
23.49157	608597
23.49970	544145
23.50782	492847
23.51595	464038
23.52407	427102
23.53218	395295
23.54032	368850
23.54843	358497
23.55657	335491
23.56468	318973
23.57280	304445
23.58093	311355
23.58905	304459
23.59718	301814
23.60530	300446
23.61342	307905
23.62155	299725
23.62967	286397
23.63778	290749
23.64592	316718
23.65403	378142
23.66217	479565
23.67028	562317
23.67840	626857
23.68653	599234
23.69465	542795
23.70278	437726
23.71090	350380
23.71902	280954
23.72715	253108
23.73527	221708
23.74340	202966
23.75152	203800
23.75963	237902
23.76777	383897
23.77588	680444
23.78400	1197503
23.79213	1929914
23.80025	2609166
23.80838	2911979
23.81650	2765713
23.82462	2342151
23.83275	1786777
23.84087	1348224
23.84900	1050415
23.85712	814475
23.86523	657745
23.87337	555407
23.88148	477550
23.88960	430562
23.89773	380152
23.90585	359657
23.91398	337350
23.92210	321794
23.93022	302350
23.93835	293991
23.94647	273600
23.95460	259823
23.96272	237514
23.97083	234881
23.97897	218173
23.98708	215948
23.99522	201026
24.00333	196143
24.01145	189262
24.01958	191585
24.02770	196274
24.03582	200572
24.04395	202325
24.05207	199554
24.06020	198308
24.06832	184177
24.07643	182288
24.08457	166775
24.09268	160474
24.10082	161806
24.10893	155994
24.11705	155104
24.12518	143430
24.13330	148628
24.14143	139554
24.14955	143478
24.15767	138027
24.16580	143252
24.17392	130624
24.18203	133113
24.19017	132742
24.19828	126293
24.20642	122577
24.21453	118417
24.22265	116063
24.23078	113143
24.23890	122856
24.24703	115852
24.25515	112707
24.26327	105670
24.27140	100123
24.27952	98595
24.28763	92757
24.29577	92920
24.30388	92872
24.31202	92714
24.32013	93432
24.32825	92900
24.33638	90361
24.34450	86396
24.35263	89330
24.36075	84972
24.36887	86239
24.37700	80575
24.38512	83756
24.39325	90609
24.40137	99391
24.40948	104404
24.41762	122434
24.42573	126661
24.43385	126096
24.44198	101422
24.45010	94009
24.45823	91767
24.46635	89923
24.47447	89419
24.48260	93121
24.49072	100371
24.49885	109776
24.50697	117051
24.51508	134118
24.52322	153754
24.53133	166307
24.53947	179116
24.54758	183777
24.55570	178756
24.56383	164077
24.57195	142156
24.58007	131775
24.58820	119096
24.59632	110974
24.60445	99412
24.61257	93346
24.62068	88366
24.62882	85970
24.63693	76832
24.64507	77374
24.65318	76397
24.66130	89504
24.66943	95262
24.67755	138180
24.68567	169495
24.69380	206566
24.70192	207507
24.71005	221433
24.71817	220543
24.72628	231477
24.73442	233258
24.74253	249028
24.75067	237994
24.75878	231402
24.76690	236690
24.77503	238546
24.78315	242002
24.79128	242131
24.79940	247159
24.80752	249137
24.81565	248185
24.82377	253307
24.83188	250381
24.84002	256326
24.84813	283927
24.85627	300814
24.86438	343927
24.87250	379429
24.88063	452020
24.88875	543933
24.89688	598448
24.90500	644658
24.91312	616875
24.92125	546810
24.92937	464133
24.93748	386334
24.94562	324850
24.95373	287317
24.96187	259526
24.96998	250907
24.97810	236832
24.98623	243118
24.99435	238392
25.00248	227368
25.01060	226634
25.01872	227871
25.02685	231100
25.03497	223351
25.04310	223532
25.05122	208971
25.05933	217222
25.06747	210697
25.07558	208264
25.08370	204691
25.09183	216946
25.09995	218569
25.10808	255181
25.11620	334208
25.12432	503491
25.13245	862595
25.14057	1336909
25.14870	1802181
25.15682	2063820
25.16493	2081907
25.17307	1738098
25.18118	1298583
25.18932	896775
25.19743	604127
25.20555	419570
25.21368	316762
25.22180	267453
25.22992	242781
25.23805	237409
25.24617	237337
25.25430	237564
25.26242	244166
25.27053	258405
25.27867	257659
25.28678	229197
25.29492	206437
25.30303	171519
25.31115	144512
25.31928	130351
25.32740	117534
25.33552	112257
25.34365	104654
25.35177	96094
25.35990	83470
25.36802	87805
25.37613	86568
25.38427	76423
25.39238	85137
25.40052	77788
25.40863	78819
25.41675	72255
25.42488	70085
25.43300	72934
25.44113	74112
25.44925	67459
25.45737	69583
25.46550	68097
25.47362	68297
25.48173	68598
25.48987	70880
25.49798	77218
25.50612	71292
25.51423	72949
25.52235	67021
25.53048	66661
25.53860	74268
25.54673	66034
25.55485	64813
25.56297	62751
25.57110	62650
25.57922	64989
25.58735	59452
25.59547	60293
25.60358	58067
25.61172	63275
25.61983	57931
25.62795	55184
25.63608	62200
25.64420	64624
25.65233	66707
25.66045	71425
25.66857	74997
25.67670	92150
25.68482	120312
25.69295	172496
25.70107	230686
25.70918	273801
25.71732	297311
25.72543	308261
25.73355	305837
25.74168	318444
25.74980	315205
25.75793	336457
25.76605	339444
25.77417	312652
25.78230	325005
25.79042	323964
25.79855	317072
25.80667	325658
25.81478	325856
25.82292	320029
25.83103	322876
25.83917	320671
25.84728	325662
25.85540	336718
25.86353	317740
25.87165	304746
25.87977	306949
25.88790	309716
25.89602	296116
25.90415	298504
25.91227	288782
25.92038	285734
25.92852	284618
25.93663	292612
25.94477	280845
25.95288	279978
25.96100	288692
25.96913	274024
25.97725	271218
25.98537	275530
25.99350	276808
26.00162	273691
26.00975	261488
26.01787	259767
26.02598	254472
26.03412	252998
26.04223	248627
26.05037	256365
26.05848	258685
26.06660	253145
26.07473	253984
26.08285	244586
26.09098	226628
26.09910	244700
26.10722	242049
26.11535	234853
26.12347	237403
26.13158	229116
26.13972	231865
26.14783	237405
26.15597	238993
26.16408	240398
26.17220	234534
26.18033	230450
26.18845	235636
26.19658	226520
26.20470	213328
26.21282	211095
26.22095	213916
26.22907	200184
26.23720	206459
26.24532	205286
26.25343	194984
26.26157	199146
26.26968	192994
26.27780	199325
26.28593	189775
26.29405	188953
26.30218	192453
26.31030	187877
26.31842	171527
26.32655	174740
26.33467	177433
26.34280	180124
26.35092	173657
26.35903	171268
26.36717	169780
26.37528	171475
26.38340	179196
26.39153	184963
26.39965	184654
26.40778	192908
26.41590	183792
26.42402	184683
26.43215	182152
26.44027	167132
26.44840	168826
26.45652	164581
26.46463	150718
26.47277	152143
26.48088	155387
26.48902	153078
26.49713	152322
26.50525	159935
26.51338	146703
26.52150	138769
26.52962	143964
26.53775	134704
26.54587	133959
26.55400	139646
26.56212	127514
26.57023	135593
26.57837	133916
26.58648	132794
26.59462	127851
26.60273	126734
26.61085	125969
26.61898	132651
26.62710	122161
26.63523	126230
26.64335	114182
26.65147	123501
26.65960	121334
26.66772	125338
26.67583	132060
26.68397	128347
26.69208	134269
26.70022	133148
26.70833	124828
26.71645	116249
26.72458	114777
26.73270	116834
26.74083	112597
26.74895	108838
26.75707	108340
26.76520	98556
26.77332	114445
26.78143	98690
26.78957	107823
26.79768	109621
26.80582	97370
26.81393	103910
26.82205	107399
26.83018	107424
26.83830	106946
26.84643	104653
26.85455	102512
26.86267	94251
26.87080	100136
26.87892	99649
26.88705	103593
26.89517	100804
26.90328	102256
26.91142	91534
26.91953	87588
26.92765	92130
26.93578	85562
26.94390	94330
26.95203	93866
26.96015	90697
26.96827	94509
26.97640	101570
26.98452	128589
26.99265	173348
27.00077	268766
27.00888	419153
27.01702	616639
27.02513	840706
27.03327	1003645
27.04138	1030555
27.04950	968395
27.05763	842640
27.06575	685060
27.07387	537859
27.08200	429051
27.09012	368172
27.09825	302574
27.10637	265968
27.11448	235832
27.12262	221076
27.13073	192354
27.13887	189893
27.14698	178789
27.15510	169519
27.16323	163001
27.17135	153684
27.17947	148818
27.18760	151891
27.19572	141239
27.20385	147219
27.21197	141714
27.22008	133382
27.22822	130985
27.23633	121153
27.24447	118421
27.25258	117514
27.26070	109099
27.26883	108335
27.27695	108071
27.28508	106387
27.29320	101188
27.30132	94060
27.30945	96699
27.31757	89350
27.32568	90074
27.33382	97069
27.34193	97926
27.35007	95898
27.35818	94087
27.36630	92623
27.37443	96464
27.38255	93272
27.39068	89445
27.39880	87965
27.40692	84375
27.41505	82494
27.42317	82205
27.43128	79033
27.43942	78269
27.44753	86653
27.45567	83238
27.46378	80343
27.47190	81735
27.48003	80961
27.48815	76318
27.49628	75595
27.50440	74966
27.51252	74274
27.52065	76957
27.52877	71813
27.53690	86396
27.54502	78609
27.55313	74959
27.56127	69225
27.56938	73539
27.57750	71260
27.58563	76344
27.59375	81571
27.60188	82099
27.61000	83951
27.61812	91140
27.62625	85975
27.63437	77869
27.64250	76362
27.65062	71370
27.65873	70107
27.66687	70576
27.67498	60909
27.68312	69131
27.69123	67187
27.69935	65072
27.70748	60906
27.71560	62767
27.72372	62538
27.73185	61183
27.73997	66208
27.74810	58071
27.75622	66272
27.76433	61873
27.77247	58506
27.78058	63114
27.78872	71784
27.79683	61690
27.80495	62934
27.81308	60741
27.82120	64478
27.82932	64012
27.83745	70554
27.84557	72037
27.85370	66407
27.86182	65030
27.86993	69112
27.87807	66415
27.88618	67252
27.89432	58802
27.90243	65224
27.91055	62344
27.91868	63341
27.92680	61251
27.93493	56929
27.94305	59650
27.95117	54012
27.95930	53713
27.96742	58729
27.97553	53084
27.98367	54657
27.99178	65376
27.99992	60279
28.00803	60519
28.01615	64717
28.02428	57111
28.03240	57880
28.04053	61449
28.04865	68811
28.05677	60871
28.06490	63660
28.07302	64353
28.08115	64473
28.08927	61772
28.09738	63619
28.10552	69507
28.11363	64097
28.12175	61207
28.12988	60243
28.13800	62217
28.14613	59602
28.15425	59491
28.16237	54740
28.17050	55792
28.17862	60520
28.18675	54215
28.19487	58735
28.20298	64960
28.21112	68056
28.21923	81441
28.22735	89727
28.23548	90065
28.24360	86327
28.25173	86974
28.25985	75502
28.26797	74443
28.27610	68011
28.28422	66272
28.29235	57721
28.30047	58061
28.30858	61898
28.31672	69583
28.32483	69065
28.33297	76520
28.34108	90230
28.34920	106967
28.35733	124360
28.36545	135485
28.37357	147445
28.38170	158733
28.38982	170061
28.39795	179869
28.40607	171165
28.41418	165732
28.42232	156564
28.43043	146540
28.43857	138734
28.44668	133777
28.45480	122754
28.46293	114915
28.47105	102605
28.47917	96394
28.48730	93505
28.49542	98256
28.50355	87525
28.51167	86647
28.51978	83635
28.52792	85046
28.53603	81828
28.54417	75711
28.55228	74609
28.56040	82464
28.56853	71090
28.57665	75676
28.58478	74116
28.59290	72370
28.60102	75147
28.60915	69238
28.61727	64942
28.62538	65435
28.63352	63132
28.64163	68540
28.64977	72481
28.65788	70470
28.66600	65464
28.67413	79202
28.68225	74890
28.69038	76732
28.69850	74142
28.70662	72084
28.71475	67588
28.72287	66638
28.73100	71580
28.73912	66375
28.74723	62993
28.75537	64296
28.76348	64914
28.77160	66989
28.77973	77094
28.78785	78360
28.79598	82899
28.80410	88508
28.81222	84897
28.82035	79501
28.82847	78415
28.83660	67070
28.84472	73887
28.85283	67095
28.86097	65187
28.86908	66168
28.87722	62297
28.88533	66255
28.89345	74998
28.90158	74693
28.90970	77001
28.91782	70817
28.92595	70780
28.93407	67376
28.94220	70734
28.95032	69847
28.95843	70957
28.96657	76002
28.97468	75176
28.98282	75664
28.99093	71730
28.99905	64481
29.00718	62100
29.01530	61371
29.02342	60086
29.03155	59426
29.03967	59685
29.04780	55036
29.05592	58167
29.06403	54325
29.07217	58293
29.08028	57784
29.08842	61122
29.09653	60198
29.10465	59777
29.11278	55321
29.12090	57787
29.12903	58773
29.13715	58247
29.14527	54689
29.15340	57869
29.16152	54519
29.16963	57375
29.17777	58652
29.18588	58242
29.19402	66860
29.20213	72087
29.21025	81446
29.21838	85387
29.22650	92551
29.23463	91304
29.24275	81844
29.25087	75692
29.25900	69958
29.26712	71431
29.27523	62440
29.28337	56069
29.29148	59257
29.29962	57094
29.30773	56501
29.31585	60729
29.32398	48984
29.33210	53985
29.34023	51579
29.34835	53961
29.35647	55772
29.36460	51470
29.37272	50359
29.38085	51024
29.38897	52689
29.39708	54172
29.40522	49622
29.41333	49597
29.42145	52451
29.42958	55982
29.43770	53010
29.44583	51653
29.45395	53778
29.46207	49737
29.47020	52082
29.47832	51524
29.48645	55248
29.49457	50673
29.50268	52974
29.51082	57985
29.51893	57290
29.52707	55348
29.53518	57144
29.54330	57288
29.55143	57147
29.55955	53761
29.56767	49481
29.57580	56949
29.58392	50979
29.59205	49266
29.60017	47708
29.60828	49412
29.61642	48194
29.62453	45975
29.63267	49579
29.64078	50705
29.64890	48592
29.65703	55957
29.66515	50930
29.67327	51090
29.68140	48278
29.68952	52208
29.69765	54237
29.70577	51997
29.71388	53478
29.72202	50367
29.73013	52080
29.73827	50989
29.74638	51336
29.75450	49189
29.76263	48726
29.77075	47942
29.77888	46478
29.78700	49160
29.79512	49167
29.80325	43169
29.81137	49009
29.81948	45007
29.82762	47868
29.83573	43981
29.84387	43622
29.85198	43535
29.86010	44828
29.86823	52726
29.87635	59321
29.88448	74279
29.89260	96574
29.90072	118283
29.90885	152206
29.91697	154193
29.92510	142197
29.93322	114875
29.94133	90665
29.94947	74638
29.95758	63075
29.96570	59393
29.97383	60839
29.98195	60727
29.99008	71224
29.99820	71752
30.00632	73553
30.01445	81122
30.02257	88504
30.03070	90163
30.03882	89902
30.04693	95904
30.05507	97866
30.06318	101193
30.07130	100408
30.07943	102368
30.08755	93730
30.09568	97858
30.10380	93343
30.11192	89579
30.12005	89454
30.12817	84276
30.13630	85022
30.14442	81653
30.15253	77531
30.16067	71787
30.16878	78787
30.17692	74904
30.18503	75529
30.19315	70058
30.20128	67182
30.20940	59936
30.21752	68770
30.22565	62573
30.23377	62970
30.24190	66591
30.25002	65085
30.25813	65888
30.26627	60801
30.27438	55075
30.28252	55429
30.29063	61570
30.29875	56979
30.30688	53883
30.31500	53116
30.32312	55533
30.33125	54054
30.33937	52920
30.34750	54948
30.35562	56553
30.36373	54419
30.37187	57662
30.37998	52459
30.38812	53495
30.39623	63369
30.40435	55357
30.41248	48602
30.42060	56738
30.42873	50895
30.43685	54379
30.44497	57663
30.45310	54241
30.46122	57723
30.46933	52492
30.47747	55250
30.48558	59161
30.49372	55713
30.50183	56397
30.50995	59171
30.51808	56604
30.52620	57437
30.53433	57472
30.54245	62901
30.55057	55128
30.55870	59071
30.56682	55870
30.57495	57500
30.58307	54023
30.59118	58968
30.59932	53276
30.60743	56731
30.61555	57344
30.62368	59437
30.63180	58525
30.63993	60514
30.64805	49446
30.65617	57991
30.66430	54765
30.67242	53867
30.68055	54145
30.68867	55604
30.69678	53132
30.70492	53259
30.71303	57831
30.72115	50056
30.72928	56547
30.73740	55160
30.74553	51679
30.75365	55190
30.76177	53422
30.76990	53081
30.77802	54797
30.78615	59860
30.79427	67518
30.80238	70940
30.81052	85698
30.81863	89464
30.82677	92432
30.83488	86148
30.84300	81182
30.85113	67983
30.85925	69305
30.86737	59994
30.87550	57032
30.88362	53031
30.89175	58923
30.89987	48166
30.90798	54859
30.91612	49738
30.92423	48494
30.93237	52076
30.94048	52393
30.94860	54775
30.95673	50316
30.96485	49084
30.97298	53242
30.98110	49225
30.98922	51067
30.99735	49668
31.00547	51283
31.01358	48105
31.02172	49460
31.02983	51808
31.03797	57775
31.04608	57222
31.05420	55960
31.06233	54883
31.07045	58804
31.07858	60922
31.08670	75968
31.09482	98186
31.10295	115472
31.11107	151726
31.11918	174420
31.12732	168344
31.13543	148015
31.14357	118298
31.15168	94811
31.15980	75184
31.16793	63672
31.17605	58397
31.18418	55965
31.19230	60660
31.20042	60672
31.20855	71820
31.21667	86183
31.22480	89716
31.23292	98440
31.24103	92983
31.24917	86417
31.25728	75646
31.26540	69682
31.27353	63486
31.28165	57328
31.28978	53673
31.29790	50871
31.30602	46601
31.31415	55971
31.32227	48860
31.33040	48050
31.33852	54188
31.34663	56271
31.35477	62090
31.36288	67097
31.37102	71734
31.37913	82559
31.38725	92204
31.39538	94548
31.40350	95417
31.41162	90689
31.41975	91141
31.42787	87561
31.43600	84883
31.44412	82785
31.45223	81284
31.46037	80430
31.46848	73243
31.47662	75847
31.48473	76109
31.49285	69679
31.50098	74794
31.50910	76170
31.51722	76416
31.52535	78966
31.53347	78650
31.54160	80133
31.54972	77835
31.55783	76672
31.56597	76353
31.57408	73389
31.58222	73378
31.59033	70354
31.59845	74813
31.60658	72457
31.61470	68973
31.62283	74123
31.63095	74102
31.63907	78186
31.64720	71022
31.65532	72030
31.66343	69369
31.67157	80845
31.67968	80075
31.68782	75270
31.69593	78377
31.70405	74663
31.71218	77813
31.72030	69187
31.72843	68620
31.73655	69076
31.74467	70214
31.75280	67103
31.76092	66479
31.76903	66898
31.77717	65575
31.78528	65434
31.79342	66201
31.80153	64533
31.80965	67796
31.81778	63819
31.82590	66175
31.83403	64222
31.84215	72028
31.85027	66088
31.85840	69188
31.86652	72601
31.87465	76077
31.88277	72548
31.89088	78960
31.89902	79049
31.90713	78744
31.91525	84729
31.92338	86476
31.93150	88132
31.93963	88175
31.94775	86938
31.95587	86936
31.96400	91654
31.97212	89298
31.98025	95206
31.98837	94885
31.99648	94327
32.00462	91789
32.01273	102348
32.02087	88629
32.02898	91607
32.03710	87677
32.04523	88717
32.05335	84288
32.06147	77273
32.06960	73741
32.07772	76776
32.08585	74410
32.09397	79209
32.10208	74568
32.11022	71632
32.11833	68121
32.12647	66510
32.13458	66305
32.14270	64685
32.15083	61394
32.15895	61053
32.16707	62128
32.17520	62395
32.18332	56534
32.19145	59577
32.19957	55498
32.20768	58423
32.21582	58135
32.22393	55634
32.23207	53112
32.24018	59953
32.24830	56113
32.25643	57487
32.26455	56332
32.27268	63918
32.28080	54381
32.28892	59699
32.29705	56513
32.30517	54221
32.31328	57921
32.32142	51588
32.32953	54357
32.33767	54923
32.34578	54933
32.35390	57470
32.36203	54956
32.37015	54632
32.37828	52043
32.38640	50615
32.39452	55569
32.40265	55919
32.41077	58237
32.41890	49630
32.42702	50221
32.43513	49280
32.44327	47707
32.45138	50814
32.45950	50241
32.46763	52299
32.47575	54485
32.48388	50565
32.49200	52554
32.50012	46357
32.50825	50824
32.51637	49351
32.52450	49422
32.53262	50317
32.54073	49518
32.54887	46226
32.55698	46512
32.56510	46859
32.57323	50055
32.58135	50408
32.58948	47535
32.59760	51253
32.60572	52656
32.61385	47915
32.62197	43251
32.63010	43510
32.63822	45653
32.64633	46158
32.65447	47528
32.66258	46131
32.67072	56930
32.67883	57381
32.68695	57800
32.69508	62069
32.70320	58319
32.71132	59909
32.71945	58110
32.72757	58421
32.73570	60263
32.74382	53070
32.75193	52636
32.76007	45628
32.76818	49321
32.77632	49526
32.78443	44912
32.79255	47586
32.80068	41672
32.80880	46183
32.81692	45467
32.82505	47968
32.83317	43162
32.84130	45624
32.84942	48435
32.85753	48573
32.86567	45274
32.87378	48315
32.88192	45035
32.89003	43509
32.89815	48194
32.90628	45490
32.91440	49586
32.92253	46704
32.93065	48933
32.93877	47803
32.94690	50130
32.95502	46287
32.96313	46701
32.97127	46203
32.97938	53552
32.98752	47583
32.99563	58073
33.00375	60576
33.01188	64223
33.02000	62608
33.02813	59689
33.03625	59225
33.04437	57507
33.05250	54367
33.06062	54869
33.06875	56627
33.07687	54857
33.08498	59411
33.09312	59879
33.10123	67662
33.10935	74638
33.11748	81489
33.12560	88442
33.13373	91449
33.14185	88449
33.14997	79926
33.15810	68357
33.16622	64115
33.17435	54570
33.18247	61770
33.19058	52611
33.19872	51907
33.20683	44446
33.21495	49106
33.22308	49217
33.23120	55339
33.23933	53138
33.24745	52355
33.25557	48986
33.26370	46025
33.27182	47475
33.27995	48684
33.28807	49889
33.29618	44180
33.30432	44368
33.31243	45456
33.32057	42665
33.32868	51069
33.33680	46474
33.34493	46758
33.35305	48509
33.36117	48761
33.36930	49931
33.37742	54392
33.38555	48526
33.39367	49402
33.40178	48355
33.40992	45606
33.41803	48256
33.42617	48599
33.43428	49924
33.44240	46757
33.45053	45308
33.45865	45050
33.46678	42906
33.47490	45568
33.48302	44470
33.49115	45473
33.49927	43231
33.50738	44876
33.51552	47426
33.52363	46002
33.53177	48327
33.53988	48496
33.54800	50205
33.55613	51614
33.56425	56951
33.57238	55693
33.58050	54843
33.58862	51204
33.59675	50836
33.60487	42135
33.61298	47786
33.62112	42813
33.62923	45416
33.63737	45771
33.64548	48473
33.65360	46047
33.66173	47530
33.66985	48280
33.67798	54383
33.68610	47386
33.69422	42660
33.70235	41633
33.71047	48071
33.71860	46728
33.72672	46445
33.73483	45880
33.74297	41956
33.75108	47879
33.75920	46380
33.76733	45316
33.77545	43790
33.78358	43253
33.79170	43024
33.79982	42948
33.80795	45688
33.81607	45967
33.82420	47830
33.83232	44624
33.84043	45524
33.84857	49715
33.85668	48850
33.86480	51926
33.87293	49745
33.88105	48592
33.88918	48750
33.89730	51349
33.90542	49432
33.91355	46735
33.92167	45931
33.92980	49183
33.93792	44269
33.94603	50794
33.95417	45230
33.96228	46418
33.97042	45300
33.97853	47073
33.98665	46744
33.99478	49832
34.00290	42162
34.01102	48463
34.01915	43193
34.02727	50277
34.03540	44283
34.04352	44172
34.05163	44344
34.05977	46520
34.06788	47405
34.07602	45784
34.08413	46711
34.09225	45661
34.10038	45626
34.10850	43993
34.11663	43316
34.12475	45844
34.13287	45912
34.14100	44418
34.14912	48925
34.15723	44424
34.16537	47739
34.17348	42194
34.18162	45797
34.18973	43673
34.19785	46304
34.20598	43496
34.21410	42956
34.22223	40846
34.23035	41696
34.23847	43637
34.24660	41216
34.25472	45756
34.26285	46795
34.27097	41891
34.27908	43359
34.28722	45971
34.29533	44755
34.30345	43186
34.31158	44788
34.31970	45474
34.32783	47162
34.33595	43325
34.34407	44172
34.35220	46440
34.36032	49382
34.36845	46815
34.37657	46227
34.38468	49222
34.39282	44795
34.40093	47311
34.40905	43116
34.41718	47393
34.42530	44775
34.43343	47633
34.44155	50065
34.44967	45145
34.45780	47833
34.46592	44214
34.47405	45609
34.48217	47891
34.49028	45127
34.49842	43909
34.50653	47829
34.51467	42900
34.52278	49269
34.53090	50102
34.53903	47631
34.54715	53280
34.55527	60130
34.56340	62594
34.57152	72080
34.57965	66652
34.58777	67275
34.59588	67165
34.60402	63867
34.61213	59751
34.62027	58903
34.62838	59233
34.63650	57635
34.64463	59262
34.65275	55208
34.66087	53943
34.66900	50101
34.67712	48352
34.68525	50898
34.69337	49436
34.70148	49463
34.70962	52425
34.71773	49567
34.72587	52490
34.73398	49618
34.74210	50002
34.75023	52418
34.75835	50700
34.76648	51447
34.77460	48140
34.78272	49979
34.79085	49212
34.79897	50155
34.80708	49496
34.81522	53315
34.82333	44963
34.83147	48792
34.83958	46554
34.84770	46327
34.85583	49369
34.86395	48613
34.87208	52087
34.88020	46641
34.88832	48428
34.89645	49527
34.90457	51143
34.91270	47059
34.92082	48916
34.92893	46369
34.93707	58726
34.94518	63419
34.95330	78507
34.96143	117318
34.96955	174917
34.97768	250250
34.98580	316729
34.99392	340866
35.00205	312618
35.01017	239715
35.01830	159130
35.02642	109811
35.03453	75376
35.04267	67629
35.05078	62727
35.05890	56894
35.06703	60015
35.07515	59754
35.08328	61106
35.09140	53786
35.09952	55559
35.10765	56571
35.11577	50873
35.12390	55227
35.13202	55121
35.14013	53105
35.14827	50447
35.15638	50231
35.16452	55512
35.17263	55227
35.18075	54297
35.18888	51680
35.19700	52021
35.20512	53352
35.21325	52201
35.22137	52694
35.22950	50821
35.23762	52198
35.24573	53763
35.25387	59166
35.26198	58052
35.27012	54228
35.27823	59417
35.28635	52276
35.29448	54949
35.30260	52147
35.31073	54035
35.31885	49805
35.32697	50645
35.33510	49764
35.34322	47107
35.35133	51973
35.35947	58841
35.36758	50421
35.37572	46117
35.38383	52383
35.39195	51035
35.40008	49596
35.40820	49437
35.41633	56401
35.42445	52029
35.43257	53134
35.44070	52909
35.44882	55130
35.45693	55628
35.46507	62294
35.47318	54321
35.48132	64248
35.48943	57301
35.49755	58328
35.50568	54584
35.51380	53521
35.52193	50923
35.53005	48766
35.53817	55076
35.54630	50290
35.55442	49389
35.56255	49197
35.57067	52180
35.57878	53297
35.58692	54065
35.59503	57508
35.60315	54847
35.61128	52004
35.61940	47254
35.62753	49982
35.63565	48572
35.64377	49955
35.65190	49752
35.66002	47297
35.66815	50248
35.67627	54086
35.68438	52027
35.69252	46916
35.70063	55103
35.70875	54121
35.71688	56737
35.72500	62822
35.73313	52381
35.74125	53132
35.74937	52800
35.75750	52484
35.76562	51576
35.77375	54990
35.78187	59727
35.78998	57548
35.79812	56905
35.80623	58975
35.81437	51766
35.82248	50726
35.83060	54132
35.83873	50961
35.84685	51377
35.85497	54139
35.86310	50688
35.87122	50878
35.87935	50997
35.88747	49411
35.89558	48888
35.90372	51061
35.91183	51095
35.91997	54712
35.92808	51641
35.93620	50829
35.94433	47136
35.95245	50783
35.96058	49936
35.96870	53206
35.97682	48858
35.98495	51140
35.99307	49900
36.00118	49187
36.00932	52769
36.01743	54779
36.02557	52133
36.03368	53160
36.04180	55935
36.04993	55182
36.05805	53127
36.06618	55131
36.07430	50745
36.08242	49895
36.09055	53877
36.09867	47616
36.10678	49205
36.11492	53992
36.12303	52527
36.13117	53717
36.13928	50308
36.14740	53367
36.15553	55205
36.16365	56807
36.17178	51933
36.17990	58616
36.18802	52917
36.19615	56740
36.20427	56618
36.21240	50376
36.22052	50235
36.22863	49032
36.23677	52377
36.24488	53831
36.25300	46336
36.26113	51215
36.26925	55880
36.27738	53011
36.28550	55224
36.29362	51631
36.30175	54874
36.30987	52698
36.31800	52955
36.32612	56029
36.33423	60673
36.34237	60179
36.35048	60845
36.35862	56371
36.36673	57174
36.37485	54394
36.38298	53307
36.39110	53375
36.39922	51861
36.40735	51384
36.41547	52336
36.42360	57133
36.43172	54980
36.43983	56863
36.44797	54257
36.45608	52580
36.46422	50306
36.47233	52027
36.48045	51849
36.48858	51980
36.49670	47603
36.50482	47617
36.51295	50930
36.52107	53671
36.52920	54456
36.53732	53898
36.54543	52449
36.55357	48765
36.56168	52390
36.56982	46885
36.57793	58180
36.58605	49303
36.59418	53957
36.60230	47187
36.61043	57450
36.61855	52167
36.62667	53753
36.63480	56037
36.64292	51589
36.65103	52302
36.65917	52013
36.66728	49789
36.67542	52068
36.68353	61581
36.69165	60800
36.69978	55301
36.70790	60873
36.71603	55504
36.72415	50672
36.73227	52365
36.74040	50805
36.74852	54487
36.75665	51507
36.76477	53192
36.77288	54279
36.78102	53983
36.78913	53097
36.79725	51496
36.80538	53498
36.81350	56455
36.82163	57210
36.82975	62430
36.83787	62735
36.84600	64574
36.85412	60600
36.86225	59649
36.87037	65878
36.87848	63650
36.88662	69607
36.89473	67775
36.90285	70481
36.91098	70964
36.91910	69919
36.92723	68346
36.93535	67624
36.94347	69959
36.95160	75455
36.95972	81794
36.96785	81843
36.97597	84536
36.98408	82355
36.99222	83670
37.00033	84391
37.00847	78428
37.01658	77844
37.02470	75719
37.03283	74637
37.04095	70653
37.04907	70142
37.05720	71043
37.06532	67185
37.07345	67352
37.08157	67464
37.08968	71159
37.09782	71341
37.10593	68496
37.11407	73453
37.12218	66684
37.13030	70022
37.13843	69925
37.14655	66490
37.15467	73448
37.16280	67047
37.17092	71235
37.17905	68878
37.18717	68632
37.19528	69398
37.20342	70572
37.21153	64209
37.21967	76169
37.22778	67246
37.23590	69748
37.24403	61918
37.25215	64641
37.26028	71153
37.26840	67624
37.27652	67279
37.28465	65455
37.29277	65277
37.30088	67493
37.30902	68089
37.31713	68616
37.32527	65666
37.33338	63489
37.34150	69133
37.34963	69761
37.35775	67544
37.36588	70690
37.37400	74286
37.38212	72927
37.39025	78717
37.39837	76572
37.40650	75472
37.41462	72250
37.42273	73717
37.43087	69304
37.43898	69155
37.44710	66455
37.45523	70151
37.46335	74015
37.47148	67402
37.47960	64668
37.48772	70682
