C:\MassHunter\GCMS\1\data\JTB-E18\JTB-E18-023-07.D Tue Sep 10 15:17:59 2019
Start of data points
2.09538	199187
2.10350	198820
2.11162	202832
2.11975	204821
2.12787	198455
2.13598	197501
2.14412	195942
2.15223	195113
2.16037	193416
2.16848	185991
2.17660	184965
2.18473	172669
2.19285	166176
2.20098	162296
2.20910	162367
2.21722	165727
2.22535	159448
2.23347	160265
2.24160	156417
2.24972	152846
2.25783	147504
2.26597	180335
2.27408	837428
2.28220	2435628
2.29033	1643836
2.29845	761594
2.30658	551071
2.31470	469093
2.32282	425586
2.33095	370836
2.33907	355278
2.34720	330161
2.35532	303873
2.36343	292526
2.37157	277865
2.37968	304855
2.38782	448825
2.39593	359317
2.40405	280946
2.41218	267249
2.42030	272679
2.42842	295299
2.43655	277475
2.44467	252474
2.45280	258465
2.46092	245452
2.46903	231322
2.47717	223463
2.48528	223359
2.49342	276306
2.50153	308589
2.50965	251049
2.51778	232864
2.52590	233773
2.53402	228615
2.54215	222047
2.55027	228643
2.55840	261805
2.56652	328699
2.57463	306777
2.58277	273439
2.59088	251807
2.59902	252232
2.60713	386156
2.61525	829141
2.62338	762102
2.63150	480305
2.63963	365088
2.64775	322574
2.65587	296717
2.66400	271995
2.67212	274519
2.68023	309894
2.68837	295846
2.69648	260455
2.70462	233248
2.71273	222892
2.72085	216239
2.72898	216295
2.73710	219106
2.74523	222125
2.75335	218958
2.76147	208680
2.76960	211653
2.77772	248631
2.78585	464539
2.79397	607875
2.80208	424435
2.81022	328161
2.81833	363556
2.82645	576808
2.83458	1054099
2.84270	960115
2.85083	543727
2.85895	404600
2.86707	383729
2.87520	347297
2.88332	298154
2.89145	255504
2.89957	242854
2.90768	239357
2.91582	234749
2.92393	233875
2.93205	215341
2.94018	213780
2.94830	213438
2.95643	211829
2.96455	222997
2.97267	219764
2.98080	207679
2.98892	217382
2.99705	226750
3.00517	234921
3.01328	245244
3.02142	285596
3.02953	485506
3.03767	821469
3.04578	1150132
3.05390	3233637
3.06203	8031780
3.07015	8909380
3.07827	5110130
3.08640	2703276
3.09452	2541827
3.10265	2920215
3.11077	3932947
3.11888	4052718
3.12702	2658361
3.13513	1815594
3.14327	1457064
3.15138	1195712
3.15950	1038273
3.16763	965580
3.17575	1007699
3.18387	1068043
3.19200	1654268
3.20012	2373879
3.20825	1933532
3.21637	1382196
3.22448	1128504
3.23262	998515
3.24073	867036
3.24887	771156
3.25698	689302
3.26510	626020
3.27323	590098
3.28135	664348
3.28948	1521384
3.29760	4797780
3.30572	9678053
3.31385	1.168399E+07
3.32197	9224139
3.33008	5805765
3.33822	3784114
3.34633	2732397
3.35447	2134715
3.36258	1760193
3.37070	1657213
3.37883	1790253
3.38695	1801169
3.39508	1570163
3.40320	1776537
3.41132	3331015
3.41945	5015344
3.42757	4426362
3.43570	2608545
3.44382	1579444
3.45193	1175049
3.46007	1022052
3.46818	938507
3.47630	863668
3.48443	804458
3.49255	729181
3.50068	693847
3.50880	651291
3.51692	639578
3.52505	608501
3.53317	612617
3.54130	602338
3.54942	594561
3.55753	557745
3.56567	562169
3.57378	598809
3.58192	649138
3.59003	608588
3.59815	548274
3.60628	519928
3.61440	591388
3.62252	975290
3.63065	1919206
3.63877	2710135
3.64690	2386208
3.65502	1537136
3.66313	1291911
3.67127	2970352
3.67938	6806456
3.68752	8459498
3.69563	6011384
3.70375	3551070
3.71188	2517509
3.72000	2069949
3.72812	1749157
3.73625	1557150
3.74437	1400472
3.75250	1325864
3.76062	1240358
3.76873	1175227
3.77687	1077550
3.78498	1025597
3.79312	977733
3.80123	1043442
3.80935	1522471
3.81748	2397004
3.82560	2618250
3.83373	1983740
3.84185	1462593
3.84997	1231159
3.85810	1080466
3.86622	994629
3.87433	941531
3.88247	879749
3.89058	840287
3.89872	807381
3.90683	780625
3.91495	809311
3.92308	918133
3.93120	1098962
3.93933	1085371
3.94745	1031076
3.95557	1466496
3.96370	2497144
3.97182	3063234
3.97993	2491005
3.98807	1722785
3.99618	2345091
4.00432	6722288
4.01243	1.487749E+07
4.02055	1.926984E+07
4.02868	1.515888E+07
4.03680	8151503
4.04493	4325977
4.05305	2798438
4.06117	2158305
4.06930	1730392
4.07742	1499783
4.08555	1298209
4.09367	1176203
4.10178	1033910
4.10992	971296
4.11803	889448
4.12615	849304
4.13428	931720
4.14240	1500964
4.15053	2584316
4.15865	3073790
4.16677	2520496
4.17490	1842033
4.18302	1459190
4.19115	1206319
4.19927	1030814
4.20738	972329
4.21552	1550337
4.22363	4235260
4.23177	9710645
4.23988	1.506437E+07
4.24800	1.566542E+07
4.25613	1.120449E+07
4.26425	6902068
4.27237	4779422
4.28050	3538973
4.28862	2775088
4.29675	2234293
4.30487	1847190
4.31298	1594351
4.32112	1394910
4.32923	1244609
4.33737	1156827
4.34548	1084803
4.35360	1057750
4.36173	1057129
4.36985	1008684
4.37797	930259
4.38610	844186
4.39422	793080
4.40235	752412
4.41047	705060
4.41858	674781
4.42672	655219
4.43483	653183
4.44297	639415
4.45108	626897
4.45920	624684
4.46733	608787
4.47545	602544
4.48358	564872
4.49170	562570
4.49982	535929
4.50795	523005
4.51607	518183
4.52418	509842
4.53232	504003
4.54043	497691
4.54857	503864
4.55668	482670
4.56480	489012
4.57293	466697
4.58105	459026
4.58918	449382
4.59730	449135
4.60542	445738
4.61355	453929
4.62167	488759
4.62980	686312
4.63792	956727
4.64603	1127331
4.65417	987505
4.66228	763398
4.67040	606327
4.67853	529588
4.68665	516945
4.69478	478994
4.70290	473199
4.71102	439930
4.71915	435539
4.72727	420262
4.73540	409339
4.74352	407204
4.75163	403969
4.75977	391860
4.76788	392861
4.77600	382837
4.78413	387206
4.79225	397441
4.80038	455254
4.80850	502441
4.81662	509544
4.82475	474377
4.83287	436805
4.84100	450532
4.84912	445380
4.85723	453953
4.86537	438516
4.87348	415039
4.88162	407520
4.88973	385742
4.89785	387039
4.90598	366874
4.91410	390267
4.92222	445636
4.93035	657152
4.93847	1173596
4.94660	1903385
4.95472	2442878
4.96283	2491512
4.97097	2117361
4.97908	1656191
4.98722	1290457
4.99533	1057200
5.00345	924729
5.01158	816810
5.01970	784084
5.02783	882425
5.03595	1166595
5.04407	1449852
5.05220	1457858
5.06032	1236002
5.06843	1040541
5.07657	904425
5.08468	824692
5.09282	783557
5.10093	788830
5.10905	805826
5.11718	831066
5.12530	827715
5.13343	758167
5.14155	696996
5.14967	657260
5.15780	702834
5.16592	766841
5.17403	826652
5.18217	851238
5.19028	845826
5.19842	839758
5.20653	828008
5.21465	786190
5.22278	740835
5.23090	654581
5.23903	628438
5.24715	609209
5.25527	556468
5.26340	521444
5.27152	492870
5.27965	490298
5.28777	494662
5.29588	461658
5.30402	454052
5.31213	447302
5.32025	448791
5.32838	444833
5.33650	472634
5.34463	481506
5.35275	476574
5.36087	449033
5.36900	430069
5.37712	419295
5.38525	431870
5.39337	437592
5.40148	452670
5.40962	448893
5.41773	424588
5.42585	395850
5.43398	391372
5.44210	379171
5.45023	394133
5.45835	407541
5.46647	400106
5.47460	393914
5.48272	380647
5.49085	354499
5.49897	365276
5.50708	360670
5.51522	363210
5.52333	375111
5.53147	370015
5.53958	363805
5.54770	369879
5.55583	393294
5.56395	459382
5.57207	521578
5.58020	544427
5.58832	499760
5.59645	451165
5.60457	392979
5.61268	369414
5.62082	377375
5.62893	370248
5.63707	363677
5.64518	373039
5.65330	359131
5.66143	355960
5.66955	358208
5.67768	356606
5.68580	404784
5.69392	442563
5.70205	463881
5.71017	468867
5.71828	453172
5.72642	450335
5.73453	434512
5.74267	417742
5.75078	418776
5.75890	422671
5.76703	437298
5.77515	438462
5.78328	412622
5.79140	393708
5.79952	415120
5.80765	507419
5.81577	780646
5.82388	1183960
5.83202	1538573
5.84013	1584195
5.84827	1345289
5.85638	1004094
5.86450	722810
5.87263	548745
5.88075	464912
5.88888	413600
5.89700	402370
5.90512	422648
5.91325	492943
5.92137	645717
5.92950	816007
5.93762	866626
5.94573	798049
5.95387	657633
5.96198	539300
5.97010	479571
5.97823	461286
5.98635	483772
5.99448	483803
6.00260	448221
6.01072	397909
6.01885	359935
6.02697	329795
6.03510	316378
6.04322	299803
6.05133	305224
6.05947	291444
6.06758	285939
6.07572	278722
6.08383	280881
6.09195	283092
6.10008	270861
6.10820	271759
6.11632	280134
6.12445	302543
6.13257	397416
6.14070	538410
6.14882	648887
6.15693	649510
6.16507	550687
6.17318	453161
6.18132	388344
6.18943	362216
6.19755	379834
6.20568	371219
6.21380	356029
6.22192	345167
6.23005	312129
6.23817	299833
6.24630	307423
6.25442	322280
6.26253	334421
6.27067	331359
6.27878	323083
6.28692	319300
6.29503	314787
6.30315	308497
6.31128	303502
6.31940	309713
6.32753	307738
6.33565	308610
6.34377	313235
6.35190	319973
6.36002	324816
6.36813	335067
6.37627	326694
6.38438	318922
6.39252	328639
6.40063	315358
6.40875	330235
6.41688	323231
6.42500	320780
6.43313	326958
6.44125	340654
6.44937	333815
6.45750	332961
6.46562	322388
6.47373	339942
6.48187	332589
6.48998	334064
6.49812	341024
6.50623	338669
6.51435	337316
6.52248	349253
6.53060	349991
6.53873	352908
6.54685	362621
6.55497	351635
6.56310	376895
6.57122	425857
6.57935	478590
6.58747	515620
6.59558	477282
6.60372	449913
6.61183	398123
6.61995	393969
6.62808	379849
6.63620	371646
6.64433	391444
6.65245	474795
6.66057	670804
6.66870	947990
6.67682	1062928
6.68495	963154
6.69307	781157
6.70118	653576
6.70932	587642
6.71743	497952
6.72557	429814
6.73368	396427
6.74180	359624
6.74993	321740
6.75805	305093
6.76617	293199
6.77430	300982
6.78242	349630
6.79055	466902
6.79867	706993
6.80678	1004607
6.81492	1191809
6.82303	1192930
6.83117	946089
6.83928	678635
6.84740	494227
6.85553	391718
6.86365	346930
6.87177	314855
6.87990	284350
6.88802	245777
6.89615	211789
6.90427	193081
6.91238	194985
6.92052	202038
6.92863	226493
6.93677	282637
6.94488	385464
6.95300	498621
6.96113	575010
6.96925	569685
6.97738	532915
6.98550	431183
6.99362	340677
7.00175	275971
7.00987	238155
7.01798	211616
7.02612	200353
7.03423	198910
7.04237	193866
7.05048	195072
7.05860	194352
7.06673	189455
7.07485	187602
7.08298	182143
7.09110	171550
7.09922	170303
7.10735	169900
7.11547	159249
7.12360	152574
7.13172	163323
7.13983	169279
7.14797	193210
7.15608	241089
7.16420	272329
7.17233	300402
7.18045	299032
7.18858	298268
7.19670	295313
7.20482	329254
7.21295	429136
7.22107	699479
7.22920	1118341
7.23732	1410636
7.24543	1315693
7.25357	956096
7.26168	629032
7.26980	448729
7.27793	353478
7.28605	291168
7.29418	256198
7.30230	250779
7.31042	302761
7.31855	367438
7.32667	421908
7.33480	462980
7.34292	416659
7.35103	348385
7.35917	285082
7.36728	229157
7.37542	196750
7.38353	193082
7.39165	182840
7.39978	190038
7.40790	203652
7.41602	221368
7.42415	268033
7.43227	301301
7.44040	316350
7.44852	300679
7.45663	270817
7.46477	228558
7.47288	202569
7.48102	174087
7.48913	169233
7.49725	156975
7.50538	164647
7.51350	190950
7.52162	246863
7.52975	377810
7.53787	578893
7.54600	776461
7.55412	958926
7.56223	983787
7.57037	864516
7.57848	690629
7.58662	482245
7.59473	336559
7.60285	255413
7.61098	217263
7.61910	190368
7.62723	181418
7.63535	172391
7.64347	164867
7.65160	160177
7.65972	163322
7.66783	149729
7.67597	152969
7.68408	151554
7.69222	146260
7.70033	155068
7.70845	154352
7.71658	155959
7.72470	146172
7.73283	151441
7.74095	148285
7.74907	134518
7.75720	132445
7.76532	127057
7.77345	133689
7.78157	139510
7.78968	137162
7.79782	141540
7.80593	145634
7.81405	147970
7.82218	144898
7.83030	145301
7.83843	137197
7.84655	139778
7.85467	141186
7.86280	143496
7.87092	155480
7.87905	168792
7.88717	183227
7.89528	182618
7.90342	166645
7.91153	161855
7.91967	159210
7.92778	172554
7.93590	197809
7.94403	228287
7.95215	243184
7.96027	216093
7.96840	191388
7.97652	161657
7.98465	154991
7.99277	132449
8.00088	132058
8.00902	125036
8.01713	126332
8.02527	125728
8.03338	125697
8.04150	126697
8.04963	133449
8.05775	128698
8.06587	129277
8.07400	129915
8.08212	121617
8.09025	127557
8.09837	126497
8.10648	126167
8.11462	123980
8.12273	123410
8.13087	131425
8.13898	137909
8.14710	148302
8.15523	153826
8.16335	149414
8.17148	143186
8.17960	134455
8.18772	126490
8.19585	125258
8.20397	126109
8.21208	123114
8.22022	122978
8.22833	124397
8.23647	116723
8.24458	121201
8.25270	125491
8.26083	118051
8.26895	119765
8.27708	114332
8.28520	116726
8.29332	119857
8.30145	118149
8.30957	133607
8.31768	134020
8.32582	130057
8.33393	130065
8.34207	122220
8.35018	127542
8.35830	124659
8.36643	113854
8.37455	126137
8.38268	120637
8.39080	113788
8.39892	116690
8.40705	107788
8.41517	118922
8.42330	113660
8.43142	109726
8.43953	117434
8.44767	116300
8.45578	113496
8.46390	115991
8.47203	115251
8.48015	115149
8.48828	116729
8.49640	116932
8.50452	119079
8.51265	117898
8.52077	127577
8.52890	149788
8.53702	204126
8.54513	270377
8.55327	316030
8.56138	299203
8.56952	244298
8.57763	192209
8.58575	156957
8.59388	142147
8.60200	135725
8.61012	139239
8.61825	128536
8.62637	126350
8.63450	123311
8.64262	125271
8.65073	118282
8.65887	112671
8.66698	118646
8.67512	118272
8.68323	127628
8.69135	124308
8.69948	122535
8.70760	119819
8.71572	123176
8.72385	131383
8.73197	189723
8.74010	323046
8.74822	605187
8.75633	931939
8.76447	1180748
8.77258	1173426
8.78072	945153
8.78883	676896
8.79695	452275
8.80508	333955
8.81320	271783
8.82133	256768
8.82945	258786
8.83757	272358
8.84570	265734
8.85382	253662
8.86193	248296
8.87007	229127
8.87818	224933
8.88632	207921
8.89443	209452
8.90255	214088
8.91068	202355
8.91880	203250
8.92693	202058
8.93505	202922
8.94317	214058
8.95130	224490
8.95942	212741
8.96755	201272
8.97567	202670
8.98378	212214
8.99192	209351
9.00003	210546
9.00815	211275
9.01628	200417
9.02440	194190
9.03253	190597
9.04065	187434
9.04877	182745
9.05690	184917
9.06502	186246
9.07315	177464
9.08127	185911
9.08938	191002
9.09752	203567
9.10563	218734
9.11375	234029
9.12188	250155
9.13000	235291
9.13813	221237
9.14625	205383
9.15437	185045
9.16250	185801
9.17062	181622
9.17875	169289
9.18687	169380
9.19498	164854
9.20312	168839
9.21123	168902
9.21937	167377
9.22748	167431
9.23560	161924
9.24373	164970
9.25185	159258
9.25997	161569
9.26810	152241
9.27622	158586
9.28435	154732
9.29247	153446
9.30058	155563
9.30872	151112
9.31683	154670
9.32497	152880
9.33308	149433
9.34120	151498
9.34933	151945
9.35745	145195
9.36557	153479
9.37370	149148
9.38182	150186
9.38995	148441
9.39807	162776
9.40618	167332
9.41432	186226
9.42243	211015
9.43057	229257
9.43868	235672
9.44680	221461
9.45493	196859
9.46305	183102
9.47118	169355
9.47930	152866
9.48742	140917
9.49555	145166
9.50367	155320
9.51178	159115
9.51992	166633
9.52803	161743
9.53617	161045
9.54428	142008
9.55240	124878
9.56053	113566
9.56865	114692
9.57678	112408
9.58490	115294
9.59302	120638
9.60115	108609
9.60927	110669
9.61740	101662
9.62552	97660
9.63363	95870
9.64177	98490
9.64988	96965
9.65800	106318
9.66613	109312
9.67425	116060
9.68238	110297
9.69050	112814
9.69862	112718
9.70675	104458
9.71487	106322
9.72300	100063
9.73112	102799
9.73923	101868
9.74737	101379
9.75548	106000
9.76360	109065
9.77173	108694
9.77985	111178
9.78798	109535
9.79610	105232
9.80422	109584
9.81235	106062
9.82047	100768
9.82860	113059
9.83672	103958
9.84483	108716
9.85297	109468
9.86108	116070
9.86922	120920
9.87733	120618
9.88545	123275
9.89358	112350
9.90170	114950
9.90982	105408
9.91795	111457
9.92607	114658
9.93420	117698
9.94232	130588
9.95043	140586
9.95857	146256
9.96668	145478
9.97482	140553
9.98293	132221
9.99105	129499
9.99918	133665
10.00730	116945
10.01543	111896
10.02355	111229
10.03167	104925
10.03980	108345
10.04792	102826
10.05603	104729
10.06417	110225
10.07228	110396
10.08042	105769
10.08853	107137
10.09665	107824
10.10478	100744
10.11290	100767
10.12103	99518
10.12915	96659
10.13727	94751
10.14540	99713
10.15352	87113
10.16163	86578
10.16977	93036
10.17788	89057
10.18602	93243
10.19413	91298
10.20225	86170
10.21038	86566
10.21850	91145
10.22663	96032
10.23475	97148
10.24287	99418
10.25100	112258
10.25912	136305
10.26725	210745
10.27537	379462
10.28348	684694
10.29162	1112544
10.29973	1573326
10.30785	2106191
10.31598	2937326
10.32410	4193759
10.33223	5319914
10.34035	5514118
10.34847	4817862
10.35660	3733052
10.36472	2728648
10.37285	1979129
10.38097	1441830
10.38908	1001685
10.39722	665557
10.40533	431006
10.41345	318418
10.42158	271222
10.42970	239385
10.43783	242710
10.44595	225808
10.45407	230353
10.46220	217845
10.47032	215104
10.47845	190374
10.48657	186364
10.49468	182935
10.50282	175157
10.51093	170325
10.51907	161259
10.52718	159639
10.53530	158867
10.54343	147651
10.55155	144710
10.55967	138170
10.56780	138195
10.57592	138023
10.58405	136482
10.59217	134373
10.60028	134406
10.60842	125182
10.61653	127063
10.62467	122888
10.63278	124656
10.64090	120979
10.64903	112866
10.65715	116717
10.66528	104186
10.67340	113683
10.68152	112742
10.68965	111188
10.69777	113622
10.70588	116478
10.71402	119029
10.72213	109371
10.73027	102192
10.73838	105889
10.74650	97542
10.75463	97007
10.76275	94406
10.77088	94752
10.77900	95390
10.78712	99232
10.79525	98662
10.80337	102250
10.81148	101738
10.81962	100927
10.82773	94249
10.83587	96041
10.84398	90147
10.85210	83346
10.86023	86801
10.86835	89642
10.87648	84981
10.88460	84510
10.89272	81816
10.90085	91494
10.90897	80784
10.91710	85352
10.92522	79356
10.93333	79273
10.94147	81888
10.94958	83807
10.95770	82864
10.96583	79270
10.97395	83469
10.98208	84550
10.99020	83264
10.99832	84011
11.00645	87597
11.01457	86031
11.02270	82532
11.03082	80119
11.03893	82074
11.04707	94150
11.05518	104041
11.06332	128712
11.07143	168666
11.07955	194717
11.08768	207659
11.09580	205939
11.10392	189663
11.11205	180280
11.12017	185200
11.12830	198820
11.13642	213918
11.14453	232146
11.15267	245382
11.16078	248086
11.16892	255007
11.17703	254010
11.18515	249970
11.19328	254252
11.20140	249764
11.20952	254877
11.21765	245592
11.22577	240240
11.23390	236402
11.24202	232960
11.25013	238418
11.25827	255716
11.26638	286604
11.27452	328521
11.28263	367800
11.29075	417060
11.29888	471066
11.30700	562338
11.31513	738133
11.32325	1027918
11.33137	1321559
11.33950	1532762
11.34762	1462628
11.35573	1239100
11.36387	951140
11.37198	682341
11.38012	529927
11.38823	418625
11.39635	372670
11.40448	350810
11.41260	325829
11.42073	316621
11.42885	302913
11.43697	283641
11.44510	278258
11.45322	264296
11.46135	256603
11.46947	253720
11.47758	265152
11.48572	275386
11.49383	298530
11.50195	308243
11.51008	308313
11.51820	298070
11.52633	288361
11.53445	287577
11.54257	283043
11.55070	278111
11.55882	270266
11.56695	250041
11.57507	225985
11.58318	234802
11.59132	223399
11.59943	226494
11.60755	236554
11.61568	253287
11.62380	251552
11.63193	244921
11.64005	242496
11.64817	222331
11.65630	212786
11.66442	207352
11.67255	211893
11.68067	203618
11.68878	215051
11.69692	230145
11.70503	254039
11.71317	258385
11.72128	275429
11.72940	277395
11.73753	262858
11.74565	262110
11.75377	250162
11.76190	246890
11.77002	245789
11.77815	239442
11.78627	238652
11.79438	233878
11.80252	233153
11.81063	227604
11.81877	216687
11.82688	210765
11.83500	194674
11.84313	183938
11.85125	181434
11.85937	167557
11.86750	170081
11.87562	158070
11.88375	152117
11.89187	154822
11.89998	148076
11.90812	152051
11.91623	162241
11.92437	175074
11.93248	177162
11.94060	179530
11.94873	176335
11.95685	162990
11.96498	151489
11.97310	145372
11.98122	145806
11.98935	148489
11.99747	170217
12.00558	184140
12.01372	197461
12.02183	190330
12.02997	173855
12.03808	157292
12.04620	153409
12.05433	149044
12.06245	135730
12.07058	143215
12.07870	145699
12.08682	143715
12.09495	141935
12.10307	153696
12.11120	148535
12.11932	150993
12.12743	156764
12.13557	152603
12.14368	149746
12.15180	144424
12.15993	135853
12.16805	125423
12.17618	125423
12.18430	125501
12.19242	113075
12.20055	123132
12.20867	122293
12.21680	119234
12.22492	116114
12.23303	116873
12.24117	126833
12.24928	125189
12.25740	137400
12.26553	135687
12.27365	137579
12.28178	135102
12.28990	137766
12.29802	146249
12.30615	150908
12.31427	152523
12.32240	156106
12.33052	154786
12.33863	155787
12.34677	156013
12.35488	151074
12.36302	154083
12.37113	144679
12.37925	149226
12.38738	147101
12.39550	156988
12.40362	179269
12.41175	203612
12.41987	235379
12.42800	246851
12.43612	235637
12.44423	208825
12.45237	186190
12.46048	163619
12.46862	144305
12.47673	137613
12.48485	142035
12.49298	136454
12.50110	128524
12.50923	122521
12.51735	126363
12.52547	123632
12.53360	124380
12.54172	133959
12.54983	141977
12.55797	159657
12.56608	180900
12.57422	182936
12.58233	168999
12.59045	158400
12.59858	142365
12.60670	129568
12.61483	121376
12.62295	123040
12.63107	117732
12.63920	114243
12.64732	115342
12.65543	118674
12.66357	112245
12.67168	109447
12.67982	105341
12.68793	106330
12.69605	106533
12.70418	102398
12.71230	108084
12.72043	113169
12.72855	108854
12.73667	108890
12.74480	110139
12.75292	115222
12.76105	110215
12.76917	116530
12.77728	122506
12.78542	122633
12.79353	122155
12.80165	122541
12.80978	115006
12.81790	115842
12.82603	113728
12.83415	105211
12.84227	104508
12.85040	106316
12.85852	105325
12.86665	102972
12.87477	94216
12.88288	90747
12.89102	90311
12.89913	83765
12.90725	81871
12.91538	85607
12.92350	88611
12.93163	98999
12.93975	120758
12.94787	154233
12.95600	187467
12.96412	211441
12.97225	219837
12.98037	229270
12.98848	194856
12.99662	159405
13.00473	145335
13.01287	129271
13.02098	121607
13.02910	112090
13.03723	110916
13.04535	116436
13.05347	108222
13.06160	96275
13.06972	94338
13.07785	94944
13.08597	85407
13.09408	86755
13.10222	85336
13.11033	86575
13.11847	82768
13.12658	80070
13.13470	78782
13.14283	76693
13.15095	76321
13.15908	80525
13.16720	81885
13.17532	85208
13.18345	83112
13.19157	83731
13.19968	81903
13.20782	82988
13.21593	86883
13.22407	81381
13.23218	86736
13.24030	94066
13.24843	100871
13.25655	105807
13.26468	112491
13.27280	109666
13.28092	113516
13.28905	102414
13.29717	97669
13.30530	101659
13.31342	102007
13.32153	107358
13.32967	109957
13.33778	107327
13.34590	94862
13.35403	90797
13.36215	85000
13.37028	85379
13.37840	84471
13.38652	83931
13.39465	83946
13.40277	79371
13.41090	80786
13.41902	80720
13.42713	74863
13.43527	77167
13.44338	77218
13.45150	74768
13.45963	77090
13.46775	70827
13.47588	79064
13.48400	71398
13.49212	75957
13.50025	68239
13.50837	69227
13.51650	73411
13.52462	71681
13.53273	79721
13.54087	84789
13.54898	91227
13.55712	96784
13.56523	100255
13.57335	93750
13.58148	100214
13.58960	107677
13.59772	109662
13.60585	134793
13.61397	160720
13.62210	178892
13.63022	188869
13.63833	178994
13.64647	165958
13.65458	133674
13.66272	116677
13.67083	105384
13.67895	101357
13.68708	101982
13.69520	91883
13.70332	92692
13.71145	94209
13.71957	93298
13.72770	90657
13.73582	104022
13.74393	130020
13.75207	214249
13.76018	356709
13.76832	545827
13.77643	728212
13.78455	775706
13.79268	733956
13.80080	577417
13.80893	493869
13.81705	445449
13.82517	433379
13.83330	430624
13.84142	401175
13.84953	341926
13.85767	271806
13.86578	225634
13.87392	194990
13.88203	171909
13.89015	157013
13.89828	151836
13.90640	143143
13.91453	140843
13.92265	140333
13.93077	133376
13.93890	123096
13.94702	119249
13.95515	117361
13.96327	110700
13.97138	112642
13.97952	119985
13.98763	120740
13.99575	111306
14.00388	112753
14.01200	109657
14.02013	108813
14.02825	111620
14.03637	102012
14.04450	109688
14.05262	106902
14.06075	104032
14.06887	100133
14.07698	104540
14.08512	100554
14.09323	100506
14.10135	97527
14.10948	104667
14.11760	100885
14.12573	98531
14.13385	109979
14.14197	124596
14.15010	157169
14.15822	233168
14.16635	323586
14.17447	400241
14.18258	437426
14.19072	419278
14.19883	371764
14.20697	326734
14.21508	291636
14.22320	252936
14.23133	232687
14.23945	227163
14.24757	219298
14.25570	206302
14.26382	196766
14.27195	181586
14.28007	168471
14.28818	159597
14.29632	150468
14.30443	146362
14.31257	133219
14.32068	120935
14.32880	118317
14.33693	98857
14.34505	86054
14.35318	86846
14.36130	79180
14.36942	74385
14.37755	75911
14.38567	85620
14.39378	101576
14.40192	127281
14.41003	174679
14.41817	219484
14.42628	244998
14.43440	229964
14.44253	204036
14.45065	150595
14.45878	123264
14.46690	107599
14.47502	101252
14.48315	98299
14.49127	97840
14.49938	90128
14.50752	97739
14.51563	90190
14.52377	86507
14.53188	85725
14.54000	86919
14.54813	86020
14.55625	84146
14.56438	83906
14.57250	82801
14.58062	80121
14.58875	79170
14.59687	79985
14.60500	81371
14.61312	77358
14.62123	74418
14.62937	79786
14.63748	74611
14.64560	76450
14.65373	80372
14.66185	75616
14.66998	69671
14.67810	74876
14.68622	71454
14.69435	64462
14.70247	72467
14.71060	77511
14.71872	74555
14.72683	81548
14.73497	76287
14.74308	73589
14.75120	70158
14.75933	77028
14.76745	77024
14.77558	78014
14.78370	89537
14.79182	122961
14.79995	226201
14.80807	430651
14.81620	756724
14.82432	1132616
14.83243	1307534
14.84057	1292775
14.84868	1018039
14.85682	696325
14.86493	443080
14.87305	304574
14.88118	222597
14.88930	176224
14.89742	152098
14.90555	141243
14.91367	135794
14.92180	126693
14.92992	125200
14.93803	116139
14.94617	107255
14.95428	103691
14.96242	96662
14.97053	94868
14.97865	95166
14.98678	93687
14.99490	90703
15.00303	88637
15.01115	96224
15.01927	88478
15.02740	90139
15.03552	91320
15.04363	85407
15.05177	83655
15.05988	81863
15.06802	78695
15.07613	74481
15.08425	72942
15.09238	77615
15.10050	74532
15.10863	73693
15.11675	77314
15.12487	75971
15.13300	75315
15.14112	80884
15.14923	80145
15.15737	76675
15.16548	76954
15.17362	75480
15.18173	66046
15.18985	64027
15.19798	64774
15.20610	61333
15.21423	62465
15.22235	71362
15.23047	62614
15.23860	62575
15.24672	62657
15.25485	56994
15.26297	61227
15.27108	60246
15.27922	58852
15.28733	57444
15.29545	61626
15.30358	54829
15.31170	56892
15.31983	57278
15.32795	56421
15.33607	56824
15.34420	53972
15.35232	52165
15.36045	57553
15.36857	54563
15.37668	55426
15.38482	55286
15.39293	59186
15.40107	56253
15.40918	62719
15.41730	56129
15.42543	57599
15.43355	54318
15.44167	60756
15.44980	63945
15.45792	74082
15.46605	96889
15.47417	129664
15.48228	188418
15.49042	241447
15.49853	266578
15.50667	276004
15.51478	241365
15.52290	205857
15.53103	172655
15.53915	150016
15.54727	130671
15.55540	110541
15.56352	101992
15.57165	88999
15.57977	79254
15.58788	77348
15.59602	72423
15.60413	73315
15.61227	69459
15.62038	66727
15.62850	67540
15.63663	62181
15.64475	61997
15.65288	61223
15.66100	62448
15.66912	60938
15.67725	60901
15.68537	60992
15.69348	57580
15.70162	57407
15.70973	56270
15.71787	56648
15.72598	53726
15.73410	63883
15.74223	60590
15.75035	68097
15.75848	78637
15.76660	104171
15.77472	136522
15.78285	166474
15.79097	183920
15.79910	173793
15.80722	143495
15.81533	112510
15.82347	94473
15.83158	77619
15.83970	77692
15.84783	72358
15.85595	69013
15.86408	70218
15.87220	71609
15.88032	68377
15.88845	66192
15.89657	63735
15.90470	64259
15.91282	64292
15.92093	66683
15.92907	65004
15.93718	68252
15.94530	69473
15.95343	72729
15.96155	81129
15.96968	81450
15.97780	102817
15.98592	102418
15.99405	100425
16.00217	106544
16.01030	97892
16.01842	110854
16.02653	112964
16.03467	109278
16.04278	115678
16.05092	108427
16.05903	108133
16.06715	109041
16.07528	103886
16.08340	109006
16.09152	105174
16.09965	101764
16.10777	101542
16.11590	104983
16.12402	104762
16.13213	109674
16.14027	106173
16.14838	105078
16.15652	101277
16.16463	98492
16.17275	99635
16.18088	91769
16.18900	91224
16.19712	89210
16.20525	89603
16.21337	89896
16.22150	86166
16.22962	88932
16.23773	89688
16.24587	86790
16.25398	84017
16.26212	87766
16.27023	88763
16.27835	89493
16.28648	91370
16.29460	97029
16.30273	93544
16.31085	93009
16.31897	91086
16.32710	84550
16.33522	78440
16.34333	78216
16.35147	78526
16.35958	79828
16.36772	90513
16.37583	91361
16.38395	87025
16.39208	86571
16.40020	82806
16.40833	75957
16.41645	75265
16.42457	72899
16.43270	69482
16.44082	81379
16.44895	91847
16.45707	114535
16.46518	157160
16.47332	198310
16.48143	230007
16.48955	228689
16.49768	206416
16.50580	154805
16.51393	120523
16.52205	98218
16.53017	89036
16.53830	81657
16.54642	79803
16.55455	71849
16.56267	76703
16.57078	74777
16.57892	81636
16.58703	82432
16.59515	85754
16.60328	90959
16.61140	94430
16.61953	97017
16.62765	92601
16.63577	84853
16.64390	71621
16.65202	77280
16.66015	69957
16.66827	69606
16.67638	66914
16.68452	70766
16.69263	71119
16.70077	69334
16.70888	71776
16.71700	70159
16.72513	62249
16.73325	70104
16.74137	65670
16.74950	69197
16.75762	71284
16.76575	70942
16.77387	71107
16.78198	69667
16.79012	65221
16.79823	61912
16.80637	69227
16.81448	70922
16.82260	65386
16.83073	66052
16.83885	74223
16.84698	65057
16.85510	72596
16.86322	68440
16.87135	64758
16.87947	68943
16.88758	66163
16.89572	67496
16.90383	65423
16.91197	65901
16.92008	66554
16.92820	65498
16.93633	63002
16.94445	63915
16.95258	65242
16.96070	62308
16.96882	65026
16.97695	62883
16.98507	66644
16.99318	68470
17.00132	68062
17.00943	66849
17.01757	65051
17.02568	65187
17.03380	67063
17.04193	66421
17.05005	72911
17.05818	70939
17.06630	72615
17.07442	67762
17.08255	64369
17.09067	67783
17.09880	64482
17.10692	66537
17.11503	67473
17.12317	70183
17.13128	73868
17.13940	67768
17.14753	71378
17.15565	74849
17.16378	66975
17.17190	68997
17.18002	68036
17.18815	71355
17.19627	68600
17.20440	66468
17.21252	62175
17.22063	65366
17.22877	66186
17.23688	64188
17.24500	64425
17.25313	64495
17.26125	63999
17.26938	64514
17.27750	62116
17.28562	63260
17.29375	64817
17.30187	65036
17.31000	71476
17.31812	64575
17.32623	74212
17.33437	81139
17.34248	82130
17.35062	88869
17.35873	86372
17.36685	85012
17.37498	89957
17.38310	91990
17.39122	90874
17.39935	91859
17.40747	97011
17.41560	94136
17.42372	100556
17.43183	95447
17.43997	90356
17.44808	86516
17.45622	85925
17.46433	79070
17.47245	79585
17.48058	80150
17.48870	74989
17.49683	77406
17.50495	75457
17.51307	81096
17.52120	87956
17.52932	87836
17.53743	98579
17.54557	107973
17.55368	118470
17.56182	135612
17.56993	156040
17.57805	197998
17.58618	252383
17.59430	322279
17.60243	352774
17.61055	343631
17.61867	306866
17.62680	248413
17.63492	196796
17.64305	154380
17.65117	129281
17.65928	119028
17.66742	118491
17.67553	111950
17.68365	109412
17.69178	105744
17.69990	102970
17.70803	102128
17.71615	100669
17.72427	92777
17.73240	92036
17.74052	93605
17.74865	87768
17.75677	80645
17.76488	84706
17.77302	76926
17.78113	79970
17.78925	82002
17.79738	74556
17.80550	77258
17.81363	91209
17.82175	97236
17.82987	95928
17.83800	100465
17.84612	100429
17.85425	99489
17.86237	102567
17.87048	95559
17.87862	90107
17.88673	88141
17.89487	78195
17.90298	73384
17.91110	69454
17.91923	69996
17.92735	72649
17.93547	70481
17.94360	68341
17.95172	72108
17.95985	67071
17.96797	66082
17.97608	66679
17.98422	67790
17.99233	62140
18.00047	67741
18.00858	75358
18.01670	79149
18.02483	96191
18.03295	92736
18.04107	104277
18.04920	121439
18.05732	172457
18.06545	303094
18.07357	518081
18.08168	806046
18.08982	1038015
18.09793	1177312
18.10607	1162579
18.11418	989504
18.12230	778367
18.13043	609572
18.13855	491262
18.14668	439068
18.15480	398065
18.16292	378053
18.17105	348351
18.17917	338973
18.18728	315351
18.19542	293294
18.20353	286053
18.21167	264522
18.21978	262462
18.22790	262581
18.23603	245631
18.24415	239143
18.25228	228987
18.26040	221722
18.26852	214882
18.27665	202154
18.28477	190995
18.29290	183467
18.30102	178872
18.30913	171890
18.31727	164340
18.32538	155491
18.33350	154160
18.34163	153450
18.34975	146800
18.35788	141120
18.36600	153905
18.37412	149367
18.38225	144916
18.39037	146624
18.39850	136229
18.40662	145724
18.41473	145402
18.42287	147425
18.43098	154880
18.43910	163330
18.44723	178260
18.45535	182793
18.46348	191418
18.47160	199262
18.47972	198862
18.48785	196238
18.49597	188796
18.50410	161166
18.51222	142308
18.52033	129362
18.52847	118242
18.53658	114387
18.54472	110152
18.55283	106473
18.56095	104171
18.56908	103092
18.57720	101424
18.58532	110591
18.59345	111735
18.60157	113995
18.60970	124381
18.61782	122099
18.62593	125879
18.63407	126662
18.64218	123240
18.65032	118057
18.65843	119213
18.66655	110114
18.67468	104419
18.68280	109360
18.69093	99874
18.69905	100070
18.70717	102283
18.71530	89533
18.72342	90958
18.73153	94384
18.73967	88183
18.74778	88160
18.75592	82143
18.76403	88847
18.77215	82849
18.78028	83629
18.78840	81871
18.79653	85160
18.80465	79938
18.81277	78840
18.82090	77620
18.82902	77547
18.83713	78536
18.84527	78261
18.85338	79576
18.86152	81039
18.86963	81541
18.87775	85503
18.88588	84783
18.89400	85469
18.90213	88777
18.91025	88380
18.91837	84683
18.92650	89158
18.93462	85849
18.94275	83963
18.95087	80599
18.95898	86893
18.96712	84930
18.97523	86290
18.98335	82764
18.99148	80565
18.99960	72174
19.00773	78228
19.01585	79245
19.02397	79930
19.03210	77613
19.04022	77781
19.04835	82118
19.05647	76436
19.06458	89149
19.07272	111924
19.08083	155887
19.08895	202644
19.09708	256651
19.10520	268707
19.11333	280397
19.12145	254531
19.12957	228543
19.13770	190055
19.14582	173921
19.15395	167512
19.16207	168166
19.17018	155940
19.17832	147307
19.18643	134745
19.19457	125024
19.20268	119460
19.21080	114578
19.21893	107080
19.22705	93378
19.23517	92172
19.24330	81476
19.25142	82833
19.25955	75858
19.26767	78829
19.27578	84987
19.28392	85594
19.29203	95661
19.30017	90200
19.30828	95630
19.31640	98923
19.32453	96037
19.33265	97340
19.34078	93481
19.34890	99072
19.35702	109755
19.36515	116373
19.37327	120798
19.38138	124150
19.38952	116026
19.39763	106165
19.40577	98593
19.41388	92143
19.42200	91281
19.43013	90081
19.43825	95694
19.44638	123421
19.45450	169150
19.46262	244311
19.47075	316183
19.47887	377283
19.48698	380339
19.49512	331161
19.50323	256499
19.51137	188464
19.51948	143266
19.52760	117852
19.53573	114271
19.54385	104710
19.55198	100520
19.56010	96818
19.56822	93984
19.57635	90642
19.58447	81680
19.59260	82608
19.60072	81345
19.60883	77185
19.61697	87180
19.62508	96530
19.63320	129464
19.64133	175553
19.64945	235973
19.65758	300683
19.66570	353233
19.67382	365055
19.68195	336258
19.69007	291298
19.69820	243091
19.70632	205324
19.71443	180460
19.72257	155463
19.73068	131925
19.73882	124273
19.74693	114725
19.75505	109615
19.76318	110232
19.77130	110690
19.77942	123502
19.78755	128714
19.79567	141154
19.80380	142163
19.81192	130156
19.82003	121367
19.82817	106999
19.83628	108442
19.84442	131338
19.85253	245822
19.86065	567682
19.86878	1307209
19.87690	2647833
19.88502	4644534
19.89315	6690989
19.90127	7847212
19.90940	7600841
19.91752	6391366
19.92563	4624686
19.93377	3061585
19.94188	1951791
19.95002	1342179
19.95813	1018537
19.96625	867533
19.97438	749157
19.98250	686734
19.99063	611396
19.99875	561352
20.00687	532437
20.01500	500207
20.02312	453638
20.03123	430021
20.03937	376180
20.04748	344890
20.05562	301609
20.06373	277846
20.07185	249236
20.07998	242149
20.08810	228959
20.09623	202210
20.10435	181819
20.11247	171729
20.12060	155191
20.12872	147501
20.13683	152925
20.14497	176498
20.15308	222808
20.16122	291661
20.16933	367791
20.17745	431813
20.18558	487481
20.19370	492960
20.20183	446644
20.20995	395027
20.21807	335919
20.22620	286489
20.23432	297478
20.24245	331543
20.25057	406271
20.25868	482984
20.26682	537622
20.27493	539590
20.28305	505545
20.29118	446094
20.29930	361339
20.30743	294900
20.31555	230888
20.32367	193488
20.33180	163497
20.33992	133997
20.34805	127741
20.35617	112022
20.36428	110396
20.37242	104538
20.38053	106767
20.38867	112571
20.39678	112071
20.40490	116154
20.41303	125630
20.42115	133593
20.42927	142258
20.43740	139423
20.44552	128185
20.45365	133693
20.46177	125156
20.46988	117062
20.47802	112204
20.48613	104719
20.49427	98604
20.50238	91965
20.51050	93798
20.51863	87756
20.52675	88478
20.53487	91863
20.54300	81688
20.55112	84091
20.55925	85203
20.56737	82209
20.57548	82058
20.58362	85263
20.59173	83951
20.59987	86168
20.60798	84302
20.61610	79426
20.62423	84390
20.63235	87766
20.64048	85452
20.64860	86548
20.65672	89937
20.66485	87576
20.67297	90603
20.68108	81012
20.68922	83314
20.69733	79565
20.70547	79835
20.71358	82868
20.72170	79815
20.72983	79626
20.73795	79189
20.74608	80052
20.75420	87884
20.76232	90681
20.77045	87618
20.77857	111279
20.78670	130277
20.79482	173129
20.80293	215838
20.81107	266519
20.81918	292248
20.82730	270239
20.83543	227589
20.84355	175504
20.85168	136430
20.85980	115771
20.86792	105999
20.87605	95854
20.88417	93546
20.89230	97109
20.90042	104759
20.90853	112243
20.91667	118417
20.92478	126253
20.93290	124748
20.94103	128414
20.94915	117733
20.95728	117626
20.96540	113934
20.97352	111727
20.98165	115307
20.98977	107600
20.99790	109067
21.00602	105966
21.01413	108729
21.02227	105212
21.03038	111069
21.03852	103659
21.04663	106244
21.05475	107646
21.06288	99869
21.07100	101974
21.07912	100290
21.08725	100571
21.09537	99153
21.10350	97943
21.11162	94944
21.11973	99518
21.12787	104802
21.13598	110475
21.14412	123275
21.15223	138345
21.16035	142377
21.16848	146751
21.17660	138190
21.18473	122329
21.19285	113655
21.20097	103045
21.20910	99283
21.21722	100247
21.22533	98160
21.23347	100256
21.24158	98175
21.24972	102360
21.25783	100405
21.26595	99826
21.27408	99644
21.28220	98482
21.29033	90930
21.29845	94099
21.30657	95798
21.31470	87091
21.32282	89966
21.33093	86453
21.33907	92924
21.34718	87917
21.35532	88277
21.36343	89282
21.37155	84959
21.37968	91494
21.38780	92407
21.39593	104766
21.40405	115103
21.41217	117470
21.42030	124004
21.42842	120487
21.43655	113001
21.44467	107654
21.45278	102224
21.46092	100327
21.46903	90103
21.47715	90623
21.48528	83574
21.49340	88265
21.50153	94122
21.50965	91654
21.51777	94336
21.52590	95034
21.53402	90758
21.54215	88532
21.55027	85075
21.55838	85315
21.56652	90478
21.57463	91417
21.58275	99281
21.59088	115694
21.59900	134932
21.60713	148961
21.61525	162450
21.62337	170062
21.63150	166817
21.63962	152700
21.64775	135085
21.65587	129947
21.66398	121027
21.67212	117727
21.68023	109567
21.68837	106940
21.69648	103152
21.70460	116588
21.71273	137422
21.72085	169750
21.72897	204625
21.73710	209509
21.74522	222246
21.75335	230197
21.76147	239677
21.76958	227446
21.77772	228994
21.78583	239574
21.79397	254678
21.80208	263886
21.81020	279478
21.81833	278121
21.82645	253982
21.83458	246834
21.84270	211202
21.85082	199481
21.85895	179898
21.86707	174987
21.87518	159111
21.88332	152673
21.89143	149970
21.89957	143562
21.90768	137316
21.91580	137595
21.92393	123596
21.93205	122255
21.94018	116623
21.94830	114647
21.95642	108124
21.96455	110806
21.97267	101047
21.98078	109751
21.98892	106704
21.99703	101713
22.00517	100686
22.01328	97949
22.02140	101959
22.02953	100012
22.03765	100552
22.04578	93548
22.05390	98917
22.06202	92244
22.07015	90537
22.07827	98181
22.08640	93384
22.09452	95378
22.10263	102918
22.11077	106397
22.11888	98029
22.12700	93368
22.13513	90209
22.14325	94989
22.15138	91522
22.15950	88368
22.16762	87384
22.17575	89241
22.18387	91637
22.19200	90691
22.20012	100458
22.20823	98714
22.21637	97565
22.22448	94154
22.23262	84775
22.24073	84095
22.24885	82927
22.25698	80445
22.26510	82252
22.27322	85889
22.28135	88337
22.28947	89897
22.29760	94776
22.30572	92873
22.31383	86453
22.32197	95078
22.33008	95713
22.33822	98148
22.34633	99470
22.35445	87570
22.36258	91981
22.37070	88633
22.37882	89708
22.38695	96419
22.39507	109760
22.40320	118148
22.41132	128793
22.41943	127446
22.42757	131191
22.43568	118764
22.44382	115461
22.45193	107134
22.46005	98977
22.46818	105023
22.47630	108117
22.48443	117527
22.49255	118300
22.50067	128619
22.50880	132271
22.51692	125961
22.52503	119297
22.53317	107447
22.54128	103020
22.54942	92946
22.55753	88371
22.56565	87722
22.57378	80013
22.58190	78371
22.59003	78852
22.59815	81554
22.60627	76608
22.61440	80292
22.62252	74202
22.63063	76297
22.63877	80158
22.64688	76628
22.65502	74271
22.66313	75488
22.67125	75651
22.67938	79056
22.68750	89962
22.69563	89534
22.70375	93132
22.71187	93955
22.72000	95456
22.72812	91609
22.73625	86599
22.74437	83072
22.75248	81064
22.76062	82291
22.76873	84559
22.77685	81692
22.78498	86744
22.79310	88148
22.80123	92701
22.80935	97303
22.81747	94577
22.82560	93835
22.83372	85440
22.84185	89217
22.84997	87508
22.85808	91817
22.86622	105253
22.87433	108557
22.88247	122466
22.89058	126424
22.89870	138724
22.90683	145713
22.91495	162251
22.92307	184551
22.93120	188842
22.93932	193529
22.94745	188030
22.95557	169926
22.96368	159978
22.97182	139005
22.97993	132050
22.98807	125480
22.99618	115270
23.00430	106662
23.01243	109007
23.02055	100900
23.02868	95588
23.03680	91281
23.04492	90626
23.05305	90573
23.06117	85539
23.06928	85579
23.07742	88076
23.08553	84596
23.09367	78297
23.10178	79694
23.10990	83690
23.11803	76668
23.12615	71877
23.13428	79057
23.14240	67180
23.15052	72044
23.15865	72573
23.16677	72595
23.17488	71242
23.18302	71016
23.19113	78461
23.19927	77773
23.20738	75966
23.21550	76259
23.22363	78050
23.23175	73347
23.23988	81504
23.24800	80393
23.25612	79358
23.26425	81697
23.27237	78696
23.28050	82937
23.28862	83262
23.29673	80175
23.30487	77922
23.31298	75956
23.32110	86416
23.32923	86648
23.33735	91377
23.34548	104926
23.35360	114229
23.36172	119265
23.36985	125623
23.37797	127320
23.38610	118629
23.39422	116584
23.40233	114567
23.41047	106069
23.41858	101400
23.42670	99291
23.43483	92361
23.44295	88100
23.45108	88923
23.45920	89996
23.46732	91430
23.47545	111715
23.48357	134210
23.49170	160126
23.49982	182064
23.50793	188830
23.51607	195662
23.52418	190318
23.53232	195787
23.54043	201054
23.54855	206901
23.55668	203141
23.56480	215799
23.57292	237596
23.58105	261221
23.58917	281626
23.59730	307863
23.60542	302307
23.61353	281073
23.62167	259704
23.62978	228130
23.63792	203111
23.64603	203481
23.65415	202207
23.66228	210175
23.67040	205385
23.67853	201403
23.68665	190481
23.69477	184455
23.70290	173216
23.71102	162067
23.71913	152582
23.72727	163478
23.73538	196508
23.74352	313538
23.75163	629518
23.75975	1309832
23.76788	2378670
23.77600	3709428
23.78413	4595653
23.79225	4999962
23.80037	4522767
23.80850	3576918
23.81662	2648411
23.82473	1909950
23.83287	1386845
23.84098	1026637
23.84912	789516
23.85723	639609
23.86535	545660
23.87348	480861
23.88160	435552
23.88973	378570
23.89785	347856
23.90597	327136
23.91410	300387
23.92222	288956
23.93035	274775
23.93847	263834
23.94658	241125
23.95472	232186
23.96283	225784
23.97095	209856
23.97908	202773
23.98720	193396
23.99533	188815
24.00345	181915
24.01157	179286
24.01970	188969
24.02782	176461
24.03595	176695
24.04407	176257
24.05218	171668
24.06032	163720
24.06843	159345
24.07657	159214
24.08468	163973
24.09280	166065
24.10093	158793
24.10905	164844
24.11717	165606
24.12530	156560
24.13342	158348
24.14155	145569
24.14967	148298
24.15778	155372
24.16592	164055
24.17403	172385
24.18217	182928
24.19028	193262
24.19840	200815
24.20653	212387
24.21465	213291
24.22277	197979
24.23090	188134
24.23902	175107
24.24715	162454
24.25527	153551
24.26338	142333
24.27152	129509
24.27963	123740
24.28777	119654
24.29588	119575
24.30400	118376
24.31213	120472
24.32025	120241
24.32838	123745
24.33650	145531
24.34462	190102
24.35275	250100
24.36087	299313
24.36898	331375
24.37712	296725
24.38523	245504
24.39337	191610
24.40148	149590
24.40960	144790
24.41773	147700
24.42585	149204
24.43398	150298
24.44210	156182
24.45022	151787
24.45835	160331
24.46647	164033
24.47458	175652
24.48272	180910
24.49083	169719
24.49897	168960
24.50708	146218
24.51520	139459
24.52333	138554
24.53145	152000
24.53958	163074
24.54770	182496
24.55582	189960
24.56395	180043
24.57207	164961
24.58020	148668
24.58832	129859
24.59643	121328
24.60457	110175
24.61268	105128
24.62080	106910
24.62893	101558
24.63705	101626
24.64518	100284
24.65330	97129
24.66142	101842
24.66955	109169
24.67767	101545
24.68580	105262
24.69392	121160
24.70203	145169
24.71017	181726
24.71828	223591
24.72642	255400
24.73453	262741
24.74265	271887
24.75078	280486
24.75890	280339
24.76702	281153
24.77515	279759
24.78327	266050
24.79140	263697
24.79952	255502
24.80763	241513
24.81577	237583
24.82388	233901
24.83202	232492
24.84013	240719
24.84825	249243
24.85638	261494
24.86450	299329
24.87262	330913
24.88075	348767
24.88887	368162
24.89700	356262
24.90512	300126
24.91323	256812
24.92137	212644
24.92948	177642
24.93762	150978
24.94573	138159
24.95385	130699
24.96198	125914
24.97010	120542
24.97823	116791
24.98635	118048
24.99447	115893
25.00260	109620
25.01072	107256
25.01883	107443
25.02697	110364
25.03508	105646
25.04322	108627
25.05133	103988
25.05945	103971
25.06758	106242
25.07570	102934
25.08383	106720
25.09195	122683
25.10007	156227
25.10820	237484
25.11632	378975
25.12445	598560
25.13257	856044
25.14068	1025803
25.14882	1096058
25.15693	946806
25.16505	725439
25.17318	507326
25.18130	339414
25.18943	236023
25.19755	170799
25.20567	143523
25.21380	124401
25.22192	122457
25.23005	116237
25.23817	129843
25.24628	148633
25.25442	161798
25.26253	183899
25.27065	182488
25.27878	180700
25.28690	171622
25.29503	166936
25.30315	152767
25.31127	133227
25.31940	133492
25.32752	125229
25.33565	114762
25.34377	111821
25.35188	103161
25.36002	99296
25.36813	91645
25.37627	87991
25.38438	87140
25.39250	85275
25.40063	83287
25.40875	85910
25.41687	90587
25.42500	89541
25.43312	90400
25.44125	93312
25.44937	98144
25.45748	92191
25.46562	89744
25.47373	92718
25.48187	94387
25.48998	95697
25.49810	100920
25.50623	99549
25.51435	99567
25.52248	93705
25.53060	98782
25.53872	90949
25.54685	87562
25.55497	90295
25.56308	83266
25.57122	83870
25.57933	86571
25.58747	84553
25.59558	80560
25.60370	74584
25.61183	79776
25.61995	76960
25.62808	75234
25.63620	77222
25.64432	74246
25.65245	71925
25.66057	73367
25.66868	75431
25.67682	85147
25.68493	82843
25.69307	74905
25.70118	77730
25.70930	79717
25.71743	76840
25.72555	75792
25.73368	78379
25.74180	74049
25.74992	69354
25.75805	76540
25.76617	78179
25.77430	75975
25.78242	77801
25.79053	75404
25.79867	77262
25.80678	78210
25.81490	84417
25.82303	82263
25.83115	83078
25.83928	86296
25.84740	83931
25.85552	87081
25.86365	81216
25.87177	83382
25.87990	81541
25.88802	77370
25.89613	81717
25.90427	83351
25.91238	85354
25.92050	87252
25.92863	84997
25.93675	87933
25.94488	83991
25.95300	85163
25.96112	81758
25.96925	84619
25.97737	80785
25.98550	78854
25.99362	76128
26.00173	73787
26.00987	68252
26.01798	65629
26.02612	70057
26.03423	65712
26.04235	71991
26.05048	68467
26.05860	72487
26.06672	71639
26.07485	75597
26.08297	76235
26.09110	70941
26.09922	72688
26.10733	81017
26.11547	79903
26.12358	88768
26.13172	95493
26.13983	103674
26.14795	102408
26.15608	98047
26.16420	98794
26.17233	109653
26.18045	98082
26.18857	96767
26.19670	96190
26.20482	90769
26.21293	86116
26.22107	83394
26.22918	85245
26.23732	79537
26.24543	84072
26.25355	75296
26.26168	77604
26.26980	73278
26.27793	69337
26.28605	73506
26.29417	70683
26.30230	72689
26.31042	69008
26.31853	72001
26.32667	68128
26.33478	72878
26.34292	72722
26.35103	82709
26.35915	94992
26.36728	112367
26.37540	142205
26.38353	156776
26.39165	173299
26.39977	178743
26.40790	151352
26.41602	135231
26.42415	112731
26.43227	98523
26.44038	93483
26.44852	81995
26.45663	76724
26.46475	71258
26.47288	73796
26.48100	83777
26.48913	79926
26.49725	73288
26.50537	73379
26.51350	69884
26.52162	69939
26.52975	67156
26.53787	67700
26.54598	69288
26.55412	69808
26.56223	70717
26.57037	67473
26.57848	71417
26.58660	73596
26.59473	75210
26.60285	67110
26.61097	69288
26.61910	71506
26.62722	75914
26.63535	71012
26.64347	72500
26.65158	70942
26.65972	73433
26.66783	74091
26.67597	76292
26.68408	77342
26.69220	75733
26.70033	75586
26.70845	74338
26.71657	75655
26.72470	75422
26.73282	78169
26.74095	76768
26.74907	76196
26.75718	75112
26.76532	77377
26.77343	77083
26.78157	83306
26.78968	82804
26.79780	91014
26.80593	91138
26.81405	90730
26.82218	92846
26.83030	94858
26.83842	90889
26.84655	86355
26.85467	86372
26.86278	83148
26.87092	87673
26.87903	83645
26.88717	81903
26.89528	84293
26.90340	87597
26.91153	92870
26.91965	86849
26.92778	86594
26.93590	97335
26.94402	111207
26.95215	151060
26.96027	248956
26.96838	461142
26.97652	833273
26.98463	1420731
26.99277	2193956
27.00088	2967951
27.00900	3230330
27.01713	3038334
27.02525	2477058
27.03338	1926892
27.04150	1419613
27.04962	1022629
27.05775	753785
27.06587	583559
27.07400	462728
27.08212	385897
27.09023	333453
27.09837	302321
27.10648	270484
27.11460	252911
27.12273	220448
27.13085	218367
27.13898	205705
27.14710	197610
27.15522	207703
27.16335	199441
27.17147	215426
27.17960	207694
27.18772	197117
27.19583	188601
27.20397	176676
27.21208	166788
27.22022	155808
27.22833	145059
27.23645	143047
27.24458	129435
27.25270	131799
27.26082	120847
27.26895	123146
27.27707	123028
27.28520	112162
27.29332	115613
27.30143	113313
27.30957	112352
27.31768	104389
27.32582	107392
27.33393	106767
27.34205	108668
27.35018	102800
27.35830	110753
27.36643	107320
27.37455	103199
27.38267	100741
27.39080	104521
27.39892	101593
27.40703	99703
27.41517	97660
27.42328	101295
27.43142	100721
27.43953	98441
27.44765	95020
27.45578	95374
27.46390	94768
27.47203	96026
27.48015	98212
27.48827	96952
27.49640	94841
27.50452	97179
27.51263	99120
27.52077	95700
27.52888	90630
27.53702	87548
27.54513	84940
27.55325	97059
27.56138	88342
27.56950	96488
27.57763	102331
27.58575	98446
27.59387	106183
27.60200	103281
27.61012	97588
27.61825	92387
27.62637	95095
27.63448	95009
27.64262	85532
27.65073	91456
27.65885	93836
27.66698	97156
27.67510	102660
27.68323	98508
27.69135	101727
27.69947	100268
27.70760	98119
27.71572	95880
27.72385	98434
27.73197	90794
27.74008	91890
27.74822	95626
27.75633	88746
27.76445	89654
27.77258	89675
27.78070	84464
27.78883	81807
27.79695	80616
27.80507	81694
27.81320	85344
27.82132	84091
27.82945	81231
27.83757	78409
27.84568	79596
27.85382	81851
27.86193	77320
27.87007	81179
27.87818	80302
27.88630	80636
27.89443	76482
27.90255	80830
27.91067	76771
27.91880	71836
27.92692	75694
27.93505	73975
27.94317	80860
27.95128	82436
27.95942	80138
27.96753	79233
27.97567	81071
27.98378	82626
27.99190	92687
28.00003	87161
28.00815	96336
28.01628	108407
28.02440	122678
28.03252	138705
28.04065	151743
28.04877	153866
28.05688	148072
28.06502	134465
28.07313	115898
28.08127	107095
28.08938	108432
28.09750	113447
28.10563	116042
28.11375	118497
28.12188	116779
28.13000	112177
28.13812	104678
28.14625	110214
28.15437	104828
28.16248	104517
28.17062	107048
28.17873	106692
28.18687	97437
28.19498	93656
28.20310	91550
28.21123	97454
28.21935	103536
28.22748	94653
28.23560	91285
28.24372	98553
28.25185	93862
28.25997	109868
28.26810	135255
28.27622	182544
28.28433	240698
28.29247	340203
28.30058	438169
28.30870	547065
28.31683	654213
28.32495	710877
28.33308	774769
28.34120	728315
28.34932	671845
28.35745	620434
28.36557	562952
28.37370	491834
28.38182	429348
28.38993	369625
28.39807	335432
28.40618	290306
28.41432	249683
28.42243	235990
28.43055	205948
28.43868	191091
28.44680	177034
28.45492	163953
28.46305	153689
28.47117	150108
28.47930	153267
28.48742	146301
28.49553	139384
28.50367	137024
28.51178	131999
28.51992	128344
28.52803	128305
28.53615	125049
28.54428	116478
28.55240	110892
28.56052	108058
28.56865	113235
28.57677	112118
28.58490	109502
28.59302	106560
28.60113	108306
28.60927	106212
28.61738	103585
28.62552	114475
28.63363	107244
28.64175	117117
28.64988	117179
28.65800	128822
28.66613	124451
28.67425	125231
28.68237	121200
28.69050	117912
28.69862	122229
28.70673	123286
28.71487	142942
28.72298	174343
28.73112	196732
28.73923	218420
28.74735	198092
28.75548	164398
28.76360	134466
28.77173	119366
28.77985	101373
28.78797	95417
28.79610	103288
28.80422	100489
28.81233	93627
28.82047	93836
28.82858	94961
28.83672	99340
28.84483	90224
28.85295	96794
28.86108	87668
28.86920	93768
28.87733	97650
28.88545	95716
28.89357	99814
28.90170	95510
28.90982	92033
28.91795	94741
28.92607	93555
28.93418	93157
28.94232	96955
28.95043	99098
28.95855	96250
28.96668	95566
28.97480	87439
28.98293	91649
28.99105	87848
28.99917	84865
29.00730	86644
29.01542	84015
29.02355	86437
29.03167	84145
29.03978	84815
29.04792	89159
29.05603	85339
29.06417	83778
29.07228	82884
29.08040	85705
29.08853	81026
29.09665	85880
29.10477	85424
29.11290	85369
29.12102	86540
29.12915	87758
29.13727	84225
29.14538	89051
29.15352	89469
29.16163	82381
29.16977	90707
29.17788	90168
29.18600	91014
29.19413	99953
29.20225	106090
29.21037	104570
29.21850	109477
29.22662	100911
29.23475	104337
29.24287	106688
29.25098	110075
29.25912	106715
29.26723	103094
29.27537	103107
29.28348	101695
29.29160	88158
29.29973	84536
29.30785	87049
29.31598	84219
29.32410	82661
29.33222	84087
29.34035	86556
29.34847	80998
29.35658	78957
29.36472	81822
29.37283	76173
29.38097	80241
29.38908	79737
29.39720	83442
29.40533	78923
29.41345	83677
29.42158	85681
29.42970	88800
29.43782	88357
29.44595	89182
29.45407	86130
29.46220	84942
29.47032	85576
29.47843	86189
29.48657	86803
29.49468	89788
29.50280	94266
29.51093	95704
29.51905	91830
29.52718	93708
29.53530	90533
29.54342	87274
29.55155	86250
29.55967	87964
29.56780	89766
29.57592	89922
29.58403	103462
29.59217	109998
29.60028	111962
29.60840	108965
29.61653	106796
29.62465	101521
29.63278	101931
29.64090	94564
29.64902	101706
29.65715	105635
29.66527	108946
29.67340	113042
29.68152	114380
29.68963	112610
29.69777	108870
29.70588	112515
29.71402	111734
29.72213	109388
29.73025	111379
29.73838	111911
29.74650	101593
29.75462	102848
29.76275	104293
29.77087	104614
29.77900	97711
29.78712	98081
29.79523	96277
29.80337	95266
29.81148	90817
29.81962	89647
29.82773	86344
29.83585	86479
29.84398	85690
29.85210	87132
29.86022	87410
29.86835	93727
29.87647	101531
29.88460	121093
29.89272	129360
29.90083	150963
29.90897	175627
29.91708	195885
29.92522	208809
29.93333	246865
29.94145	274419
29.94958	286233
29.95770	317112
29.96583	331006
29.97395	346936
29.98207	348227
29.99020	330443
29.99832	311392
30.00643	294142
30.01457	276028
30.02268	243880
30.03082	229727
30.03893	212299
30.04705	202429
30.05518	192498
30.06330	177223
30.07143	168187
30.07955	159417
30.08767	150654
30.09580	150820
30.10392	147546
30.11205	133960
30.12017	124469
30.12828	126036
30.13642	123202
30.14453	126936
30.15265	119007
30.16078	118464
30.16890	117737
30.17703	122366
30.18515	119892
30.19327	113599
30.20140	113931
30.20952	115568
30.21765	113516
30.22577	105884
30.23388	103121
30.24202	105098
30.25013	103637
30.25825	94635
30.26638	98331
30.27450	96793
30.28263	93082
30.29075	96117
30.29887	96960
30.30700	91428
30.31512	104459
30.32325	89368
30.33137	95186
30.33948	90277
30.34762	92643
30.35573	98309
30.36387	93955
30.37198	91202
30.38010	90133
30.38823	92044
30.39635	84523
30.40447	85567
30.41260	86494
30.42072	87692
30.42885	87073
30.43697	86818
30.44508	88444
30.45322	84546
30.46133	87692
30.46947	91861
30.47758	86854
30.48570	89490
30.49383	93590
30.50195	86513
30.51008	88919
30.51820	85302
30.52632	88991
30.53445	88816
30.54257	81383
30.55068	90246
30.55882	90330
30.56693	87131
30.57507	84897
30.58318	90471
30.59130	85184
30.59943	90337
30.60755	86097
30.61568	81197
30.62380	82346
30.63192	85042
30.64005	84747
30.64817	77404
30.65628	86779
30.66442	88937
30.67253	84398
30.68067	84884
30.68878	82513
30.69690	78142
30.70503	81195
30.71315	83437
30.72128	79209
30.72940	81846
30.73752	80756
30.74565	79747
30.75377	82567
30.76190	88009
30.77002	88685
30.77813	91477
30.78627	102412
30.79438	117180
30.80250	122076
30.81063	119840
30.81875	121581
30.82688	116608
30.83500	106152
30.84312	100739
30.85125	92572
30.85937	93223
30.86750	89962
30.87562	86042
30.88373	90587
30.89187	78948
30.89998	85764
30.90812	87169
30.91623	81403
30.92435	81564
30.93248	86548
30.94060	79428
30.94872	80110
30.95685	82655
30.96497	79744
30.97310	81493
30.98122	84021
30.98933	79162
30.99747	76638
31.00558	83796
31.01372	83411
31.02183	87318
31.02995	93124
31.03808	88949
31.04620	90148
31.05432	85022
31.06245	89008
31.07057	94273
31.07870	100577
31.08682	114148
31.09493	121812
31.10307	128481
31.11118	123920
31.11932	127294
31.12743	114991
31.13555	106900
31.14368	105995
31.15180	105930
31.15993	115049
31.16805	118037
31.17617	137988
31.18430	157955
31.19242	193189
31.20053	236927
31.20867	264243
31.21678	271348
31.22492	258480
31.23303	218435
31.24115	180791
31.24928	146540
31.25740	124418
31.26553	105712
31.27365	94120
31.28177	89120
31.28990	89096
31.29802	83733
31.30613	91817
31.31427	86481
31.32238	86625
31.33052	85611
31.33863	86757
31.34675	83537
31.35488	88540
31.36300	93320
31.37113	97410
31.37925	102069
31.38737	89425
31.39550	89100
31.40362	92892
31.41175	89308
31.41987	90968
31.42798	88467
31.43612	84214
31.44423	91655
31.45235	85944
31.46048	88298
31.46860	88808
31.47673	86544
31.48485	83900
31.49297	81350
31.50110	83498
31.50922	84618
31.51735	84460
31.52547	85000
31.53358	91125
31.54172	86417
31.54983	86863
31.55797	90070
31.56608	83826
31.57420	88212
31.58233	88118
31.59045	93970
31.59857	89388
31.60670	89229
31.61482	87805
31.62295	91476
31.63107	84540
31.63918	94082
31.64732	93812
31.65543	94207
31.66357	101080
31.67168	99703
31.67980	104323
31.68793	104916
31.69605	102801
31.70417	110368
31.71230	102059
31.72042	98808
31.72855	92550
31.73667	88220
31.74478	81552
31.75292	81473
31.76103	84664
31.76917	85911
31.77728	86887
31.78540	83559
31.79353	94705
31.80165	93145
31.80978	91604
31.81790	95318
31.82602	97882
31.83415	102438
31.84227	107746
31.85038	121217
31.85852	144461
31.86663	162564
31.87477	181165
31.88288	206621
31.89100	216841
31.89913	227128
31.90725	232599
31.91538	231862
31.92350	226030
31.93162	225595
31.93975	213590
31.94787	196593
31.95600	189074
31.96412	178650
31.97223	167667
31.98037	156564
31.98848	155782
31.99660	148200
32.00473	146554
32.01285	149727
32.02098	139418
32.02910	144439
32.03722	136592
32.04535	131783
32.05347	127172
32.06160	118390
32.06972	114300
32.07783	109253
32.08597	113035
32.09408	107404
32.10220	109721
32.11033	105364
32.11845	100345
32.12658	104296
32.13470	100970
32.14282	103543
32.15095	95847
32.15907	94248
32.16720	101825
32.17532	101331
32.18343	96849
32.19157	101646
32.19968	99237
32.20782	98766
32.21593	95648
32.22405	92805
32.23218	95486
32.24030	97301
32.24842	95929
32.25655	95334
32.26467	98209
32.27280	98294
32.28092	97631
32.28903	101624
32.29717	100831
32.30528	103382
32.31342	103425
32.32153	104585
32.32965	105977
32.33778	99917
32.34590	107080
32.35402	105248
32.36215	105253
32.37027	100261
32.37840	103722
32.38652	104899
32.39463	98457
32.40277	100638
32.41088	97064
32.41902	96676
32.42713	92777
32.43525	97112
32.44338	89592
32.45150	91692
32.45963	90615
32.46775	92849
32.47587	98712
32.48400	100302
32.49212	93853
32.50023	90920
32.50837	93768
32.51648	95321
32.52462	96764
32.53273	94269
32.54085	100882
32.54898	96992
32.55710	97580
32.56523	95735
32.57335	102220
32.58147	96037
32.58960	104041
32.59772	110505
32.60585	136986
32.61397	158098
32.62208	178857
32.63022	183335
32.63833	173898
32.64645	152749
32.65458	127317
32.66270	112193
32.67083	108964
32.67895	100769
32.68707	105622
32.69520	105218
32.70332	105343
32.71145	99940
32.71957	108621
32.72768	103041
32.73582	102878
32.74393	101407
32.75207	99851
32.76018	90258
32.76830	94340
32.77643	96790
32.78455	91780
32.79267	93988
32.80080	101993
32.80892	89688
32.81705	92293
32.82517	91337
32.83328	92807
32.84142	94170
32.84953	92141
32.85767	95248
32.86578	98035
32.87390	97553
32.88203	110153
32.89015	109179
32.89827	111154
32.90640	112273
32.91452	109621
32.92265	107342
32.93077	103274
32.93888	105867
32.94702	96300
32.95513	97513
32.96327	97631
32.97138	98352
32.97950	99702
32.98763	105560
32.99575	109772
33.00388	106527
33.01200	101485
33.02012	102334
33.02825	102495
33.03637	100203
33.04448	96144
33.05262	100237
33.06073	101675
33.06887	106487
33.07698	107894
33.08510	111538
33.09323	115438
33.10135	128255
33.10948	146861
33.11760	149804
33.12572	147001
33.13385	142987
33.14197	128435
33.15008	121894
33.15822	119931
33.16633	112235
33.17447	103918
33.18258	106568
33.19070	94006
33.19883	94527
33.20695	96697
33.21508	96450
33.22320	98521
33.23132	98069
33.23945	99966
33.24757	98274
33.25570	100177
33.26382	99884
33.27193	101080
33.28007	103017
33.28818	102135
33.29630	100918
33.30443	102873
33.31255	99826
33.32068	102564
33.32880	100070
33.33692	104284
33.34505	103290
33.35317	100036
33.36130	102509
33.36942	100172
33.37753	96634
33.38567	94059
33.39378	93722
33.40192	100932
33.41003	96959
33.41815	92806
33.42628	95717
33.43440	96656
33.44252	94969
33.45065	97909
33.45877	101667
33.46690	100766
33.47502	95959
33.48313	91442
33.49127	96511
33.49938	98901
33.50752	94352
33.51563	101422
33.52375	107499
33.53188	113606
33.54000	116995
33.54812	107842
33.55625	109725
33.56437	109717
33.57250	105651
33.58062	100207
33.58873	100972
33.59687	103785
33.60498	94530
33.61312	95974
33.62123	100379
33.62935	98898
33.63748	100748
33.64560	108771
33.65373	103717
33.66185	108970
33.66997	104025
33.67810	97552
33.68622	105787
33.69433	103288
33.70247	94188
33.71058	102623
33.71872	103289
33.72683	99128
33.73495	100427
33.74308	102494
33.75120	108209
33.75933	109019
33.76745	114814
33.77557	113998
33.78370	117984
33.79182	118757
33.79995	116544
33.80807	121147
33.81618	117456
33.82432	116545
33.83243	117373
33.84055	116815
33.84868	115972
33.85680	123714
33.86493	124991
33.87305	128503
33.88117	131388
33.88930	127442
33.89742	139614
33.90555	130818
33.91367	135150
33.92178	148761
33.92992	139336
33.93803	137868
33.94615	146941
33.95428	142715
33.96240	143760
33.97053	142006
33.97865	137782
33.98677	138289
33.99490	140416
34.00302	140722
34.01115	140951
34.01927	134616
34.02738	140288
34.03552	132769
34.04363	135642
34.05177	137093
34.05988	133508
34.06800	136301
34.07613	132206
34.08425	133577
34.09237	131447
34.10050	133033
34.10862	131395
34.11675	127019
34.12487	126894
34.13298	127303
34.14112	122928
34.14923	125493
34.15737	120958
34.16548	121654
34.17360	112337
34.18173	114164
34.18985	114094
34.19797	116810
34.20610	116741
34.21422	117824
34.22235	119433
34.23047	114140
34.23858	116598
34.24672	116490
34.25483	117803
34.26297	114191
34.27108	117309
34.27920	117525
34.28733	117550
34.29545	115044
34.30358	113736
34.31170	114925
34.31982	117545
34.32795	119359
34.33607	115911
34.34418	117796
34.35232	119149
34.36043	118095
34.36857	116118
34.37668	117876
34.38480	116170
34.39293	114349
34.40105	115015
34.40918	120178
34.41730	113830
34.42542	119876
34.43355	120342
34.44167	123774
34.44980	124334
34.45792	131945
34.46603	148684
34.47417	170837
34.48228	184201
34.49040	213599
34.49853	237570
34.50665	242374
34.51478	262264
34.52290	237003
34.53102	229284
34.53915	218924
34.54727	201158
34.55540	192556
34.56352	184199
34.57163	164450
34.57977	163672
34.58788	163780
34.59600	152936
34.60413	154158
34.61225	159048
34.62038	150579
34.62850	154077
34.63662	153707
34.64475	157014
34.65287	153466
34.66100	155310
34.66912	164835
34.67723	157400
34.68537	157844
34.69348	157947
34.70162	161495
34.70973	160881
34.71785	159114
34.72598	162377
34.73410	156182
34.74222	158043
34.75035	162280
34.75847	158502
34.76660	162383
34.77472	161151
34.78283	162128
34.79097	157132
34.79908	159615
34.80722	161928
34.81533	162460
34.82345	154288
34.83158	151126
34.83970	151278
34.84783	152424
34.85595	146607
34.86407	144937
34.87220	142507
34.88032	144518
34.88843	139997
34.89657	148497
34.90468	146346
34.91282	149890
34.92093	145998
34.92905	143491
34.93718	143445
34.94530	143402
34.95343	145163
34.96155	142778
34.96967	139772
34.97780	144919
34.98592	145274
34.99403	143998
35.00217	134416
35.01028	129760
35.01842	135778
35.02653	132749
35.03465	126304
35.04278	138175
35.05090	132999
35.05903	131414
35.06715	135875
35.07527	134900
35.08340	137946
35.09152	141443
35.09965	151887
35.10777	153239
35.11588	154299
35.12402	153036
35.13213	154824
35.14025	155977
35.14838	156895
35.15650	161603
35.16463	149220
35.17275	144689
35.18087	150445
35.18900	150348
35.19712	145075
35.20525	145500
35.21337	144646
35.22148	145641
35.22962	146711
35.23773	144050
35.24585	150460
35.25398	161834
35.26210	167511
35.27023	163240
35.27835	170234
35.28647	162856
35.29460	156400
35.30272	154754
35.31085	148689
35.31897	153997
35.32708	147693
35.33522	150390
35.34333	143889
35.35147	149966
35.35958	147703
35.36770	151701
35.37583	152998
35.38395	158475
35.39207	165370
35.40020	167983
35.40832	186638
35.41645	197891
35.42457	194503
35.43268	193247
35.44082	195502
35.44893	191138
35.45707	195202
35.46518	194251
35.47330	189160
35.48143	186691
35.48955	183235
35.49768	169101
35.50580	177694
35.51392	173734
35.52205	172414
35.53017	170424
35.53828	174985
35.54642	173171
35.55453	176134
35.56267	178058
35.57078	183389
35.57890	188950
35.58703	180007
35.59515	177388
35.60328	181069
35.61140	178242
35.61952	180466
35.62765	194158
35.63577	190436
35.64388	183420
35.65202	173280
35.66013	175139
35.66827	175115
35.67638	173188
35.68450	174030
35.69263	172375
35.70075	172028
35.70888	168291
35.71700	170452
35.72512	168348
35.73325	174492
35.74137	176152
35.74950	174837
35.75762	176371
35.76573	177657
35.77387	177554
35.78198	178268
35.79010	178237
35.79823	185342
35.80635	177467
35.81448	184188
35.82260	180013
35.83072	180567
35.83885	182278
35.84697	177684
35.85510	182444
35.86322	185560
35.87133	185153
35.87947	185586
35.88758	185068
35.89572	182081
35.90383	181266
35.91195	183520
35.92008	192041
35.92820	190444
35.93632	191922
35.94445	194939
35.95257	189894
35.96070	186665
35.96882	186396
35.97693	193025
35.98507	195555
35.99318	194553
36.00132	194174
36.00943	203456
36.01755	201820
36.02568	214065
36.03380	207294
36.04192	209416
36.05005	208438
36.05817	216551
36.06630	223742
36.07442	208127
36.08253	213680
36.09067	208239
36.09878	199351
36.10692	204314
36.11503	209169
36.12315	200840
36.13128	208799
36.13940	208132
36.14753	215432
36.15565	209817
36.16377	210818
36.17190	208007
36.18002	210819
36.18813	200340
36.19627	198238
36.20438	194170
36.21252	193278
36.22063	195675
36.22875	210748
36.23688	206938
36.24500	229050
36.25313	245678
36.26125	282560
36.26937	316598
36.27750	314071
36.28562	301497
36.29375	279648
36.30187	260665
36.30998	249959
36.31812	238381
36.32623	236666
36.33435	227908
36.34248	215228
36.35060	217488
36.35873	214935
36.36685	223745
36.37497	220179
36.38310	225149
36.39122	224410
36.39935	233386
36.40747	238357
36.41558	225961
36.42372	229532
36.43183	229965
36.43995	217955
36.44808	213858
36.45620	209942
36.46433	204161
36.47245	220316
36.48057	217537
36.48870	219209
36.49682	218793
36.50495	220336
36.51307	213546
36.52118	210509
36.52932	211213
36.53743	215825
36.54557	219281
36.55368	222851
36.56180	219006
36.56993	218186
36.57805	220108
36.58617	222405
36.59430	234377
36.60242	235521
36.61055	235751
36.61867	231670
36.62678	237816
36.63492	231541
36.64303	224975
36.65117	230075
36.65928	219249
36.66740	223791
36.67553	229518
36.68365	228795
36.69177	229050
36.69990	226189
36.70802	227344
36.71615	231119
36.72427	222604
36.73238	220588
36.74052	226584
36.74863	218802
36.75677	215561
36.76488	223336
36.77300	207242
36.78113	217269
36.78925	218573
36.79738	224037
36.80550	220500
36.81362	218112
36.82175	224734
36.82987	223626
36.83798	218587
36.84612	222047
36.85423	228222
36.86237	230072
36.87048	224477
36.87860	225714
36.88673	220190
36.89485	226605
36.90298	235050
36.91110	226907
36.91922	232952
36.92735	244670
36.93547	229501
36.94360	235911
36.95172	244359
36.95983	250453
36.96797	248081
36.97608	247463
36.98420	243479
36.99233	251007
37.00045	268696
37.00858	286020
37.01670	298242
37.02482	308088
37.03295	319067
37.04107	310336
37.04920	285656
37.05732	274557
37.06543	255617
37.07357	237400
37.08168	246792
37.08980	239984
37.09793	246345
37.10605	241367
37.11418	240007
37.12230	243452
37.13042	243233
37.13855	242166
37.14667	247220
37.15480	246844
37.16292	243789
37.17103	247417
37.17917	247016
37.18728	251996
37.19542	247354
37.20353	246719
37.21165	246379
37.21978	240097
37.22790	244904
37.23602	240700
37.24415	245113
37.25227	241419
37.26040	250702
37.26852	262993
37.27663	283048
37.28477	297602
37.29288	328383
37.30102	348550
37.30913	350038
37.31725	351550
37.32538	341419
37.33350	324469
37.34163	304014
37.34975	293880
37.35787	297294
37.36600	283070
37.37412	273725
37.38223	281895
37.39037	270077
37.39848	282253
37.40662	269212
37.41473	274120
37.42285	270665
37.43098	277100
37.43910	272528
37.44723	263816
37.45535	266245
37.46347	259897
37.47160	254635
37.47972	261788
37.48783	256915
