C:\MassHunter\GCMS\1\data\JTB-E18\JTB-E18-033-06.D Mon Oct 14 11:27:58 2019
Start of data points
2.09512	182297
2.10323	167724
2.11137	170262
2.11948	167432
2.12760	160107
2.13573	164999
2.14385	156820
2.15198	147706
2.16010	142734
2.16822	147684
2.17635	135669
2.18447	138222
2.19258	127530
2.20072	132027
2.20883	121965
2.21697	129620
2.22508	122483
2.23320	119630
2.24133	114062
2.24945	118934
2.25758	121156
2.26570	175696
2.27382	771430
2.28195	1567371
2.29007	1267762
2.29820	688251
2.30632	455797
2.31443	346955
2.32257	306253
2.33068	264888
2.33880	252607
2.34693	227286
2.35505	213391
2.36318	188943
2.37130	183938
2.37942	184118
2.38755	196726
2.39567	178960
2.40380	160108
2.41192	165200
2.42003	163366
2.42817	164334
2.43628	158717
2.44440	164346
2.45253	168099
2.46065	147627
2.46878	144533
2.47690	135456
2.48502	136412
2.49315	139631
2.50127	137719
2.50940	135589
2.51752	133449
2.52563	136724
2.53377	129965
2.54188	138420
2.55002	144754
2.55813	141090
2.56625	138375
2.57438	129743
2.58250	124607
2.59062	120696
2.59875	126717
2.60687	122297
2.61500	130574
2.62312	134107
2.63123	129358
2.63937	123507
2.64748	120879
2.65562	129183
2.66373	124974
2.67185	125599
2.67998	127508
2.68810	125843
2.69623	119463
2.70435	121901
2.71247	118921
2.72060	116909
2.72872	111851
2.73683	112274
2.74497	106162
2.75308	114344
2.76122	112957
2.76933	109094
2.77745	111741
2.78558	109054
2.79370	105648
2.80183	106859
2.80995	115719
2.81807	112983
2.82620	145827
2.83432	190211
2.84243	180213
2.85057	140791
2.85868	122148
2.86682	125632
2.87493	122920
2.88305	113833
2.89118	110740
2.89930	113238
2.90743	102388
2.91555	107793
2.92367	105645
2.93180	107270
2.93992	101273
2.94805	109344
2.95617	103993
2.96428	103791
2.97242	98076
2.98053	102659
2.98865	99531
2.99678	102077
3.00490	116042
3.01303	123008
3.02115	115902
3.02927	156835
3.03740	211988
3.04552	285540
3.05365	667647
3.06177	1445096
3.06988	1572923
3.07802	921294
3.08613	472897
3.09427	314470
3.10238	245343
3.11050	217871
3.11863	194093
3.12675	169638
3.13487	160871
3.14300	147482
3.15112	141040
3.15925	138846
3.16737	132346
3.17548	132342
3.18362	128869
3.19173	120421
3.19987	122623
3.20798	116296
3.21610	118738
3.22423	121244
3.23235	119034
3.24047	110805
3.24860	111947
3.25672	110404
3.26485	110378
3.27297	109215
3.28108	165516
3.28922	399022
3.29733	888424
3.30547	1483812
3.31358	1672313
3.32170	1390361
3.32983	1052480
3.33795	812482
3.34608	673513
3.35420	580126
3.36232	509257
3.37045	481368
3.37857	494397
3.38668	481970
3.39482	438929
3.40293	464644
3.41107	682432
3.41918	897875
3.42730	841516
3.43543	589676
3.44355	431925
3.45168	349602
3.45980	317537
3.46792	291320
3.47605	269432
3.48417	256487
3.49228	233872
3.50042	236479
3.50853	221714
3.51667	218410
3.52478	211479
3.53290	205237
3.54103	193244
3.54915	191249
3.55728	187705
3.56540	188016
3.57352	180916
3.58165	186860
3.58977	180863
3.59790	171068
3.60602	175436
3.61413	190096
3.62227	244326
3.63038	361521
3.63850	458621
3.64663	439851
3.65475	321964
3.66288	244735
3.67100	211023
3.67912	199824
3.68725	184388
3.69537	182730
3.70350	175916
3.71162	166979
3.71973	167130
3.72787	165372
3.73598	161013
3.74412	162787
3.75223	150346
3.76035	156567
3.76848	156778
3.77660	150777
3.78472	153903
3.79285	144816
3.80097	147569
3.80910	144415
3.81722	147833
3.82533	145071
3.83347	145129
3.84158	148552
3.84972	138046
3.85783	134669
3.86595	131315
3.87408	140128
3.88220	133770
3.89032	134979
3.89845	133409
3.90657	133983
3.91470	126558
3.92282	128978
3.93093	129888
3.93907	128469
3.94718	123892
3.95532	130566
3.96343	130648
3.97155	124730
3.97968	124510
3.98780	125862
3.99593	124127
4.00405	122411
4.01217	127041
4.02030	126213
4.02842	121076
4.03653	124242
4.04467	121676
4.05278	121650
4.06092	116743
4.06903	115938
4.07715	116420
4.08528	131881
4.09340	121076
4.10153	117772
4.10965	115026
4.11777	116389
4.12590	117861
4.13402	121854
4.14215	122088
4.15027	125389
4.15838	130374
4.16652	124765
4.17463	123914
4.18275	122849
4.19088	117984
4.19900	115506
4.20713	114400
4.21525	114031
4.22337	120513
4.23150	127849
4.23962	134747
4.24775	132369
4.25587	130620
4.26398	123700
4.27212	123975
4.28023	119398
4.28835	114239
4.29648	111875
4.30460	115885
4.31273	119019
4.32085	119474
4.32897	121524
4.33710	117461
4.34522	116958
4.35335	114080
4.36147	113938
4.36958	110871
4.37772	116666
4.38583	107573
4.39397	113565
4.40208	108047
4.41020	108450
4.41833	105191
4.42645	104481
4.43457	100731
4.44270	108325
4.45082	111425
4.45895	116246
4.46707	112443
4.47518	117799
4.48332	107394
4.49143	108035
4.49957	108920
4.50768	103411
4.51580	106496
4.52393	104911
4.53205	104767
4.54018	103569
4.54830	103722
4.55642	100553
4.56455	103056
4.57267	104608
4.58078	103616
4.58892	99470
4.59703	99750
4.60517	99252
4.61328	99240
4.62140	104058
4.62953	103743
4.63765	99878
4.64578	100618
4.65390	102942
4.66202	98449
4.67015	104156
4.67827	99246
4.68638	103929
4.69452	97783
4.70263	100895
4.71077	100942
4.71888	93817
4.72700	98730
4.73513	94876
4.74325	99759
4.75138	97560
4.75950	99593
4.76762	97423
4.77575	100337
4.78387	95254
4.79200	98603
4.80012	97238
4.80823	100081
4.81637	102025
4.82448	98578
4.83260	96772
4.84073	100942
4.84885	98772
4.85698	103905
4.86510	109313
4.87322	103025
4.88135	101536
4.88947	104058
4.89760	100113
4.90572	102470
4.91383	114674
4.92197	166621
4.93008	284364
4.93820	470273
4.94633	620584
4.95445	656100
4.96258	583916
4.97070	456282
4.97882	365941
4.98695	313634
4.99507	274977
5.00320	244073
5.01132	225089
5.01943	201031
5.02757	179070
5.03568	186244
5.04382	172345
5.05193	167167
5.06005	161415
5.06818	171710
5.07630	157388
5.08442	159204
5.09255	154343
5.10067	157604
5.10880	168516
5.11692	178212
5.12503	173057
5.13317	160632
5.14128	155266
5.14942	147503
5.15753	141001
5.16565	142480
5.17378	149149
5.18190	161169
5.19003	164729
5.19815	160458
5.20627	152063
5.21440	135552
5.22252	139777
5.23063	132154
5.23877	123442
5.24688	130545
5.25502	125215
5.26313	123406
5.27125	119205
5.27938	116234
5.28750	115918
5.29563	116203
5.30375	110903
5.31187	113331
5.32000	113184
5.32812	110511
5.33623	111390
5.34437	112310
5.35248	108162
5.36062	109156
5.36873	108875
5.37685	106391
5.38498	103274
5.39310	101265
5.40123	99373
5.40935	98893
5.41747	99026
5.42560	95180
5.43372	100434
5.44185	100857
5.44997	104984
5.45808	99056
5.46622	102075
5.47433	101991
5.48245	102503
5.49058	100869
5.49870	95028
5.50683	95509
5.51495	99634
5.52307	95931
5.53120	95695
5.53932	99839
5.54745	98011
5.55557	105234
5.56368	98719
5.57182	96876
5.57993	101420
5.58807	108269
5.59618	109972
5.60430	103758
5.61243	109048
5.62055	109885
5.62867	116973
5.63680	119998
5.64492	124505
5.65305	120286
5.66117	110269
5.66928	108058
5.67742	109700
5.68553	108030
5.69367	109358
5.70178	114914
5.70990	110492
5.71803	114376
5.72615	122521
5.73427	123189
5.74240	112709
5.75052	114829
5.75865	113132
5.76677	116976
5.77488	126974
5.78302	115833
5.79113	109049
5.79927	114314
5.80738	142084
5.81550	201230
5.82363	275227
5.83175	355045
5.83988	369662
5.84800	314532
5.85612	250479
5.86425	194261
5.87237	158791
5.88048	135520
5.88862	130053
5.89673	129168
5.90487	132285
5.91298	131251
5.92110	157293
5.92923	180239
5.93735	190499
5.94548	181443
5.95360	149876
5.96172	124804
5.96985	121796
5.97797	128301
5.98608	131419
5.99422	124124
6.00233	110622
6.01047	96497
6.01858	94076
6.02670	85360
6.03483	87991
6.04295	83332
6.05108	81825
6.05920	80046
6.06732	80271
6.07545	72289
6.08357	76136
6.09170	73316
6.09982	71603
6.10793	75893
6.11607	74933
6.12418	72804
6.13230	71995
6.14043	75414
6.14855	76566
6.15668	79181
6.16480	82223
6.17292	82662
6.18105	84086
6.18917	90120
6.19730	96874
6.20542	103661
6.21353	103383
6.22167	100106
6.22978	105175
6.23792	104419
6.24603	104540
6.25415	108838
6.26228	106422
6.27040	103537
6.27852	108619
6.28665	117368
6.29477	118691
6.30290	125370
6.31102	113869
6.31913	129793
6.32727	121812
6.33538	127822
6.34352	122624
6.35163	130920
6.35975	128994
6.36788	133501
6.37600	139610
6.38412	141719
6.39225	138513
6.40037	136814
6.40850	145719
6.41662	152488
6.42473	147732
6.43287	147003
6.44098	149212
6.44912	155709
6.45723	149302
6.46535	155059
6.47348	163254
6.48160	170778
6.48973	162724
6.49785	166928
6.50597	174355
6.51410	167001
6.52222	167927
6.53033	128682
6.53847	107828
6.54658	99090
6.55472	96869
6.56283	93036
6.57095	82968
6.57908	84888
6.58720	88539
6.59533	81590
6.60345	84540
6.61157	77748
6.61970	80508
6.62782	77114
6.63595	75071
6.64407	75227
6.65218	73214
6.66032	67856
6.66843	73548
6.67655	69666
6.68468	69250
6.69280	69436
6.70093	69433
6.70905	71223
6.71717	69240
6.72530	80828
6.73342	84253
6.74155	90476
6.74967	95239
6.75778	93023
6.76592	82922
6.77403	76779
6.78215	73684
6.79028	69377
6.79840	66850
6.80653	68559
6.81465	66152
6.82277	59723
6.83090	63172
6.83902	64606
6.84715	65740
6.85527	82532
6.86338	109563
6.87152	158028
6.87963	220658
6.88777	270741
6.89588	273973
6.90400	229651
6.91213	174206
6.92025	125814
6.92837	93605
6.93650	71935
6.94462	67818
6.95275	64848
6.96087	60237
6.96898	53388
6.97712	53035
6.98523	55505
6.99337	52431
7.00148	53258
7.00960	55638
7.01773	63006
7.02585	80291
7.03397	88661
7.04210	112558
7.05022	115642
7.05835	107009
7.06647	96995
7.07458	83424
7.08272	72558
7.09083	66491
7.09897	62636
7.10708	58969
7.11520	58666
7.12333	56908
7.13145	55749
7.13958	55147
7.14770	53760
7.15582	52013
7.16395	52192
7.17207	49054
7.18018	49055
7.18832	49553
7.19643	53073
7.20457	52703
7.21268	52255
7.22080	51928
7.22893	49233
7.23705	51825
7.24518	50255
7.25330	55567
7.26142	58190
7.26955	57126
7.27767	64443
7.28580	63147
7.29392	64478
7.30203	62103
7.31017	58454
7.31828	54762
7.32640	54506
7.33453	53496
7.34265	58904
7.35078	60554
7.35890	56245
7.36702	53834
7.37515	52073
7.38327	57780
7.39140	62580
7.39952	71293
7.40763	81471
7.41577	86786
7.42388	82611
7.43202	75380
7.44013	70104
7.44825	62968
7.45638	61493
7.46450	56852
7.47262	56125
7.48075	55699
7.48887	58253
7.49700	57345
7.50512	62549
7.51323	67536
7.52137	74701
7.52948	70956
7.53762	65736
7.54573	59969
7.55385	55564
7.56198	53386
7.57010	50852
7.57822	50100
7.58635	48150
7.59447	50987
7.60260	47419
7.61072	45713
7.61883	42568
7.62697	46144
7.63508	44978
7.64322	48351
7.65133	44121
7.65945	45545
7.66758	46138
7.67570	46230
7.68383	44757
7.69195	43451
7.70007	45570
7.70820	42205
7.71632	41644
7.72443	45829
7.73257	43605
7.74068	44050
7.74882	42993
7.75693	40433
7.76505	41190
7.77318	40563
7.78130	42335
7.78943	45686
7.79755	45331
7.80567	42443
7.81380	43426
7.82192	42407
7.83003	43128
7.83817	38185
7.84628	38503
7.85442	42087
7.86253	42175
7.87065	40260
7.87878	37954
7.88690	39206
7.89503	42511
7.90315	45457
7.91127	35802
7.91940	42319
7.92752	36464
7.93565	38302
7.94377	39020
7.95188	40985
7.96002	42311
7.96813	40152
7.97625	40650
7.98438	46271
7.99250	42083
8.00063	40043
8.00875	41969
8.01687	40362
8.02500	38370
8.03312	40292
8.04125	40955
8.04937	40936
8.05748	39705
8.06562	37937
8.07373	41606
8.08187	39693
8.08998	39967
8.09810	38262
8.10623	40911
8.11435	35426
8.12247	39446
8.13060	38494
8.13872	37978
8.14685	37656
8.15497	42638
8.16308	43157
8.17122	41899
8.17933	43738
8.18747	43028
8.19558	44452
8.20370	38526
8.21183	39474
8.21995	37479
8.22807	41397
8.23620	42099
8.24432	38889
8.25245	38165
8.26057	37484
8.26868	37452
8.27682	36627
8.28493	37704
8.29307	39259
8.30118	39001
8.30930	38781
8.31743	36117
8.32555	36424
8.33368	43525
8.34180	46500
8.34992	48983
8.35805	49357
8.36617	46897
8.37428	44288
8.38242	45743
8.39053	42245
8.39867	42275
8.40678	39731
8.41490	37627
8.42303	38883
8.43115	36498
8.43928	39433
8.44740	38547
8.45552	38710
8.46365	40309
8.47177	37883
8.47990	38491
8.48802	39959
8.49613	39347
8.50427	44903
8.51238	51791
8.52050	50094
8.52863	55199
8.53675	53133
8.54488	48717
8.55300	46343
8.56112	44780
8.56925	45725
8.57737	45095
8.58550	42752
8.59362	42081
8.60173	39911
8.60987	40575
8.61798	37601
8.62610	41955
8.63423	37976
8.64235	39832
8.65048	40661
8.65860	38893
8.66672	38557
8.67485	35921
8.68297	41863
8.69110	37028
8.69922	41246
8.70733	48311
8.71547	48864
8.72358	62369
8.73172	91777
8.73983	131883
8.74795	188327
8.75608	223485
8.76420	213204
8.77232	186882
8.78045	147956
8.78857	115798
8.79670	97317
8.80482	85728
8.81293	83466
8.82107	77770
8.82918	69885
8.83732	69320
8.84543	67427
8.85355	60262
8.86168	64892
8.86980	59821
8.87792	53811
8.88605	57548
8.89417	50889
8.90230	53851
8.91042	54073
8.91853	49220
8.92667	52110
8.93478	51181
8.94292	49127
8.95103	50218
8.95915	52910
8.96728	51888
8.97540	45598
8.98353	48821
8.99165	48560
8.99977	46556
9.00790	46475
9.01602	48145
9.02413	45500
9.03227	44763
9.04038	46180
9.04852	47502
9.05663	43265
9.06475	46076
9.07288	45784
9.08100	46617
9.08913	45538
9.09725	43506
9.10537	44625
9.11350	43039
9.12162	43122
9.12975	43456
9.13787	44351
9.14598	41037
9.15412	41923
9.16223	38990
9.17035	40630
9.17848	40341
9.18660	40477
9.19473	43609
9.20285	38710
9.21097	38656
9.21910	39237
9.22722	41610
9.23535	40728
9.24347	40814
9.25158	40514
9.25972	36639
9.26783	43711
9.27595	46264
9.28408	46437
9.29220	56092
9.30033	57006
9.30845	53468
9.31657	47049
9.32470	46738
9.33282	43728
9.34095	43307
9.34907	40941
9.35718	43273
9.36532	41378
9.37343	42276
9.38157	44384
9.38968	36001
9.39780	37241
9.40593	37002
9.41405	37448
9.42217	35705
9.43030	37875
9.43842	35614
9.44655	38196
9.45467	32437
9.46278	34956
9.47092	37932
9.47903	36311
9.48717	36537
9.49528	36679
9.50340	33890
9.51153	37565
9.51965	37717
9.52778	35843
9.53590	36390
9.54402	37179
9.55215	36026
9.56027	40634
9.56838	36263
9.57652	34289
9.58463	36199
9.59277	39053
9.60088	40131
9.60900	40935
9.61713	39349
9.62525	40139
9.63338	39877
9.64150	36337
9.64962	38461
9.65775	40164
9.66587	43263
9.67398	39100
9.68212	38340
9.69023	35410
9.69837	29975
9.70648	29317
9.71460	28116
9.72273	30893
9.73085	25487
9.73898	28787
9.74710	32974
9.75522	30401
9.76335	31752
9.77147	29225
9.77960	28452
9.78772	27998
9.79583	28570
9.80397	29277
9.81208	29338
9.82020	29266
9.82833	27732
9.83645	27862
9.84458	29806
9.85270	29661
9.86082	26132
9.86895	29153
9.87707	27350
9.88520	27393
9.89332	25613
9.90143	26182
9.90957	26756
9.91768	29104
9.92582	28451
9.93393	28309
9.94205	27801
9.95018	25897
9.95830	29467
9.96642	29842
9.97455	31018
9.98267	33350
9.99080	35426
9.99892	32317
10.00703	27972
10.01517	30387
10.02328	29127
10.03142	30274
10.03953	29493
10.04765	27772
10.05578	26295
10.06390	27210
10.07202	24959
10.08015	26760
10.08827	23429
10.09640	27663
10.10452	27585
10.11263	25687
10.12077	25178
10.12888	24484
10.13702	28419
10.14513	27807
10.15325	27588
10.16138	30298
10.16950	25576
10.17763	22703
10.18575	27066
10.19387	25285
10.20200	27926
10.21012	26603
10.21823	28296
10.22637	27398
10.23448	29516
10.24262	27239
10.25073	29798
10.25885	26983
10.26698	27772
10.27510	31153
10.28323	25846
10.29135	30883
10.29947	28479
10.30760	32248
10.31572	28364
10.32383	25421
10.33197	30824
10.34008	27797
10.34822	24248
10.35633	22999
10.36445	25985
10.37258	26044
10.38070	24407
10.38883	28242
10.39695	26548
10.40507	27511
10.41320	28165
10.42132	28944
10.42945	28254
10.43757	25451
10.44568	25813
10.45382	25576
10.46193	24080
10.47005	25573
10.47818	24230
10.48630	21859
10.49443	23724
10.50255	24088
10.51067	23431
10.51880	25977
10.52692	24447
10.53505	24912
10.54317	29363
10.55128	28343
10.55942	28723
10.56753	24372
10.57567	24885
10.58378	27149
10.59190	24655
10.60003	25704
10.60815	26154
10.61627	22213
10.62440	25480
10.63252	24930
10.64065	26053
10.64877	27972
10.65688	24824
10.66502	22698
10.67313	22228
10.68127	21618
10.68938	26241
10.69750	26632
10.70563	25830
10.71375	26178
10.72187	26356
10.73000	28324
10.73812	25594
10.74625	27765
10.75437	28058
10.76248	30189
10.77062	29266
10.77873	28253
10.78687	26478
10.79498	26817
10.80310	29289
10.81123	26530
10.81935	24539
10.82748	22707
10.83560	26553
10.84372	26055
10.85185	25823
10.85997	25318
10.86808	23996
10.87622	22248
10.88433	24129
10.89247	20750
10.90058	23669
10.90870	23891
10.91683	21738
10.92495	26141
10.93308	24006
10.94120	24195
10.94932	25693
10.95745	23789
10.96557	24399
10.97370	23666
10.98182	25058
10.98993	23127
10.99807	28281
11.00618	28681
11.01430	26241
11.02243	25765
11.03055	26077
11.03868	28964
11.04680	23660
11.05492	23288
11.06305	23204
11.07117	23923
11.07930	20135
11.08742	20757
11.09553	22806
11.10367	23741
11.11178	25315
11.11990	25721
11.12803	26382
11.13615	27146
11.14428	24859
11.15240	23233
11.16052	22102
11.16865	22618
11.17677	24228
11.18490	24708
11.19302	25332
11.20113	23202
11.20927	27726
11.21738	22952
11.22552	22851
11.23363	21348
11.24175	24583
11.24988	25752
11.25800	25973
11.26612	26027
11.27425	24550
11.28237	27715
11.29050	33316
11.29862	35915
11.30673	41724
11.31487	45038
11.32298	43469
11.33112	41342
11.33923	41482
11.34735	45049
11.35548	38474
11.36360	34621
11.37172	33846
11.37985	33890
11.38797	29914
11.39610	28638
11.40422	26502
11.41233	26863
11.42047	25229
11.42858	23967
11.43672	24140
11.44483	26241
11.45295	24283
11.46108	22841
11.46920	23056
11.47733	23876
11.48545	24061
11.49357	28542
11.50170	28772
11.50982	27287
11.51793	26790
11.52607	27361
11.53418	26500
11.54232	27706
11.55043	26903
11.55855	27098
11.56668	27075
11.57480	28096
11.58293	28976
11.59105	31064
11.59917	29580
11.60730	28270
11.61542	25512
11.62355	27965
11.63167	27186
11.63978	24690
11.64792	22080
11.65603	25860
11.66415	23820
11.67228	24917
11.68040	26739
11.68853	26225
11.69665	32277
11.70477	32418
11.71290	32962
11.72102	38180
11.72915	37170
11.73727	34296
11.74538	33922
11.75352	30641
11.76163	30977
11.76975	31337
11.77788	29875
11.78600	27434
11.79413	28473
11.80225	28299
11.81037	27589
11.81850	23801
11.82662	24647
11.83475	26174
11.84287	23101
11.85098	26720
11.85912	28030
11.86723	25805
11.87537	24645
11.88348	26657
11.89160	24536
11.89973	25364
11.90785	25632
11.91597	23650
11.92410	23088
11.93222	21787
11.94035	24846
11.94847	29233
11.95658	27896
11.96472	29060
11.97283	32285
11.98097	31585
11.98908	27238
11.99720	25516
12.00533	27118
12.01345	28412
12.02158	25608
12.02970	23903
12.03782	22218
12.04595	25155
12.05407	22730
12.06218	23295
12.07032	23870
12.07843	22851
12.08657	22801
12.09468	23328
12.10280	22946
12.11093	25707
12.11905	23074
12.12718	23770
12.13530	23059
12.14342	25028
12.15155	20825
12.15967	24588
12.16778	22818
12.17592	24060
12.18403	21702
12.19217	26391
12.20028	24006
12.20840	22289
12.21653	21383
12.22465	21974
12.23278	23394
12.24090	21216
12.24902	21369
12.25715	21378
12.26527	21601
12.27340	22313
12.28152	23551
12.28963	22434
12.29777	22117
12.30588	22847
12.31400	23274
12.32213	21391
12.33025	20838
12.33838	21845
12.34650	21366
12.35462	19084
12.36275	21497
12.37087	21759
12.37900	21571
12.38712	22534
12.39523	22031
12.40337	22383
12.41148	20800
12.41960	21766
12.42773	21004
12.43585	23659
12.44398	19915
12.45210	23876
12.46022	23156
12.46835	25275
12.47647	25014
12.48460	24459
12.49272	22869
12.50083	24127
12.50897	22696
12.51708	22232
12.52522	21337
12.53333	20706
12.54145	22524
12.54958	22444
12.55770	19880
12.56582	20175
12.57395	22084
12.58207	21479
12.59020	21358
12.59832	21897
12.60643	21016
12.61457	20840
12.62268	20032
12.63082	19059
12.63893	22420
12.64705	19691
12.65518	22880
12.66330	22292
12.67143	21435
12.67955	21163
12.68767	23341
12.69580	21205
12.70392	21119
12.71203	25468
12.72017	24045
12.72828	27258
12.73642	28254
12.74453	30415
12.75265	34300
12.76078	32488
12.76890	27532
12.77703	29760
12.78515	26590
12.79327	20958
12.80140	23380
12.80952	23053
12.81765	23294
12.82577	25512
12.83388	26516
12.84202	29897
12.85013	25994
12.85825	24600
12.86638	23612
12.87450	25655
12.88263	25658
12.89075	23056
12.89887	21720
12.90700	22673
12.91512	25649
12.92325	25091
12.93137	23264
12.93948	19567
12.94762	23479
12.95573	23206
12.96385	27704
12.97198	34035
12.98010	43547
12.98823	43091
12.99635	44559
13.00447	44146
13.01260	41616
13.02072	39515
13.02885	33923
13.03697	34768
13.04508	33163
13.05322	28220
13.06133	26482
13.06947	26163
13.07758	26513
13.08570	28586
13.09383	24587
13.10195	25054
13.11007	22986
13.11820	25062
13.12632	23244
13.13445	24885
13.14257	23730
13.15068	25035
13.15882	24660
13.16693	23081
13.17507	26520
13.18318	22849
13.19130	25043
13.19943	26114
13.20755	26289
13.21567	24342
13.22380	23485
13.23192	23449
13.24005	22418
13.24817	25771
13.25628	23369
13.26442	24377
13.27253	25706
13.28067	29035
13.28878	28312
13.29690	26736
13.30503	24631
13.31315	24754
13.32128	27341
13.32940	29307
13.33752	29089
13.34565	32151
13.35377	24068
13.36188	25568
13.37002	23629
13.37813	27145
13.38627	27739
13.39438	29070
13.40250	22788
13.41063	22704
13.41875	21268
13.42688	22327
13.43500	24999
13.44312	21035
13.45125	22917
13.45937	22355
13.46750	21771
13.47562	21014
13.48373	21349
13.49187	23262
13.49998	22109
13.50810	22177
13.51623	19908
13.52435	24147
13.53248	24617
13.54060	22970
13.54872	21990
13.55685	22396
13.56497	22436
13.57310	23917
13.58122	26261
13.58933	28126
13.59747	27354
13.60558	24282
13.61370	26681
13.62183	27878
13.62995	29751
13.63808	31527
13.64620	32410
13.65432	33076
13.66245	30811
13.67057	29929
13.67870	25319
13.68682	27659
13.69493	24810
13.70307	24676
13.71118	24884
13.71932	25397
13.72743	22788
13.73555	25099
13.74368	25094
13.75180	24970
13.75992	23753
13.76805	28232
13.77617	22005
13.78430	26932
13.79242	25706
13.80053	24085
13.80867	23103
13.81678	26809
13.82492	21736
13.83303	22900
13.84115	21469
13.84928	23048
13.85740	24403
13.86553	22510
13.87365	23463
13.88177	23410
13.88990	21675
13.89802	23578
13.90613	25755
13.91427	24718
13.92238	26397
13.93052	26851
13.93863	25925
13.94675	26914
13.95488	26033
13.96300	25155
13.97113	25536
13.97925	26117
13.98737	26895
13.99550	25269
14.00362	21143
14.01173	24000
14.01987	22373
14.02798	22842
14.03612	24540
14.04423	29150
14.05235	23844
14.06048	27429
14.06860	25548
14.07673	24591
14.08485	24291
14.09297	23933
14.10110	29121
14.10922	26159
14.11735	28696
14.12547	41961
14.13358	68897
14.14172	90028
14.14983	114113
14.15795	126914
14.16608	114403
14.17420	91013
14.18233	74085
14.19045	62117
14.19857	52561
14.20670	49394
14.21482	44631
14.22295	42857
14.23107	39815
14.23918	34787
14.24732	31832
14.25543	39229
14.26355	32776
14.27168	31009
14.27980	32747
14.28793	33735
14.29605	31608
14.30417	29577
14.31230	24908
14.32042	24335
14.32855	20823
14.33667	22134
14.34478	23691
14.35292	19664
14.36103	21241
14.36917	22012
14.37728	21065
14.38540	24176
14.39353	22721
14.40165	22927
14.40977	20966
14.41790	20605
14.42602	25573
14.43415	20230
14.44227	22071
14.45038	21081
14.45852	25242
14.46663	23153
14.47477	21633
14.48288	20939
14.49100	21213
14.49913	23054
14.50725	20459
14.51538	19607
14.52350	19355
14.53162	21287
14.53975	21163
14.54787	22987
14.55598	17900
14.56412	20971
14.57223	20931
14.58037	21888
14.58848	20606
14.59660	24946
14.60473	21257
14.61285	21093
14.62098	19635
14.62910	19695
14.63722	19608
14.64535	20956
14.65347	19896
14.66158	21997
14.66972	20059
14.67783	19641
14.68597	21279
14.69408	19960
14.70220	19947
14.71033	21312
14.71845	19200
14.72658	21558
14.73470	20840
14.74282	21315
14.75095	20344
14.75907	20342
14.76720	20343
14.77532	21005
14.78343	21633
14.79157	20933
14.79968	18963
14.80780	22011
14.81593	21061
14.82405	25159
14.83218	19515
14.84030	21865
14.84842	22322
14.85655	20502
14.86467	22281
14.87280	23688
14.88092	21853
14.88903	23189
14.89717	23444
14.90528	22204
14.91342	22468
14.92153	22228
14.92965	23218
14.93778	22610
14.94590	21754
14.95402	19714
14.96215	22467
14.97027	21893
14.97840	21851
14.98652	22680
14.99463	22661
15.00277	23915
15.01088	21432
15.01902	22976
15.02713	20754
15.03525	18614
15.04338	19338
15.05150	22251
15.05962	23813
15.06775	20911
15.07587	18828
15.08400	19976
15.09212	20234
15.10023	20149
15.10837	22229
15.11648	20308
15.12462	18900
15.13273	20960
15.14085	19807
15.14898	19895
15.15710	21270
15.16523	21744
15.17335	20480
15.18147	20692
15.18960	21717
15.19772	22379
15.20583	19840
15.21397	23576
15.22208	22284
15.23022	22673
15.23833	20592
15.24645	20599
15.25458	17653
15.26270	19411
15.27083	19117
15.27895	19547
15.28707	23607
15.29520	22285
15.30332	19016
15.31143	19510
15.31957	21319
15.32768	22714
15.33582	21712
15.34393	18269
15.35205	18746
15.36018	16798
15.36830	18265
15.37643	21029
15.38455	20533
15.39267	18857
15.40080	18584
15.40892	18507
15.41705	21237
15.42517	18949
15.43328	20004
15.44142	19881
15.44953	23364
15.45765	19371
15.46578	18707
15.47390	20389
15.48203	20915
15.49015	20696
15.49827	20222
15.50640	20002
15.51452	21194
15.52265	19746
15.53077	22449
15.53888	20653
15.54702	17704
15.55513	17505
15.56327	19053
15.57138	19160
15.57950	19252
15.58763	18112
15.59575	19036
15.60387	20810
15.61200	21353
15.62012	19425
15.62825	20970
15.63637	18976
15.64448	20691
15.65262	21108
15.66073	20681
15.66887	19438
15.67698	19350
15.68510	22877
15.69323	19926
15.70135	22235
15.70947	18892
15.71760	17828
15.72572	18550
15.73385	20027
15.74197	20528
15.75008	23680
15.75822	26807
15.76633	28782
15.77447	31030
15.78258	28571
15.79070	29682
15.79883	28766
15.80695	26495
15.81508	26758
15.82320	21386
15.83132	22525
15.83945	22013
15.84757	20279
15.85568	23440
15.86382	20988
15.87193	20261
15.88007	21700
15.88818	18977
15.89630	20099
15.90443	19689
15.91255	21349
15.92068	22103
15.92880	24093
15.93692	27033
15.94505	23452
15.95317	22183
15.96130	24664
15.96942	23241
15.97753	25227
15.98567	19937
15.99378	25354
16.00190	31610
16.01003	31052
16.01815	35222
16.02628	40613
16.03440	40317
16.04252	42550
16.05065	39814
16.05877	34200
16.06690	30774
16.07502	30281
16.08313	27259
16.09127	24392
16.09938	23614
16.10750	25341
16.11563	22689
16.12375	25627
16.13188	27207
16.14000	24233
16.14812	23147
16.15625	22686
16.16437	21668
16.17250	21341
16.18062	19769
16.18873	22661
16.19687	20547
16.20498	22612
16.21312	21676
16.22123	22039
16.22935	20221
16.23748	21421
16.24560	21162
16.25372	21627
16.26185	21529
16.26997	21673
16.27810	21479
16.28622	22076
16.29433	21600
16.30247	19650
16.31058	20530
16.31872	19882
16.32683	20987
16.33495	20737
16.34308	20729
16.35120	20248
16.35933	21922
16.36745	21515
16.37557	23220
16.38370	21128
16.39182	20640
16.39993	18686
16.40807	21512
16.41618	21193
16.42432	22824
16.43243	21669
16.44055	20545
16.44868	22628
16.45680	22368
16.46493	22696
16.47305	22961
16.48117	20363
16.48930	26869
16.49742	23857
16.50553	19277
16.51367	19083
16.52178	19551
16.52992	26638
16.53803	18923
16.54615	19916
16.55428	21787
16.56240	21694
16.57053	22069
16.57865	20283
16.58677	21555
16.59490	19395
16.60302	23301
16.61115	20901
16.61927	21052
16.62738	20447
16.63552	20117
16.64363	24311
16.65175	21318
16.65988	20056
16.66800	19817
16.67613	18906
16.68425	22422
16.69237	20980
16.70050	21656
16.70862	19667
16.71675	19774
16.72487	20644
16.73298	21373
16.74112	22880
16.74923	22522
16.75735	22429
16.76548	22980
16.77360	20761
16.78173	21037
16.78985	20135
16.79797	19588
16.80610	23621
16.81422	19819
16.82235	22234
16.83047	19753
16.83858	22074
16.84672	23589
16.85483	20550
16.86297	21227
16.87108	21523
16.87920	23579
16.88733	22365
16.89545	19757
16.90357	23237
16.91170	19882
16.91982	21405
16.92795	21858
16.93607	22967
16.94418	21322
16.95232	21283
16.96043	19496
16.96857	25450
16.97668	22413
16.98480	21115
16.99293	21704
17.00105	21221
17.00918	20802
17.01730	19786
17.02542	22957
17.03355	17811
17.04167	21957
17.04978	21278
17.05792	21489
17.06603	22836
17.07417	23487
17.08228	21362
17.09040	23232
17.09853	21557
17.10665	21342
17.11478	20795
17.12290	24176
17.13102	21403
17.13915	20481
17.14727	21583
17.15538	25326
17.16352	19812
17.17163	25395
17.17977	23771
17.18788	19552
17.19600	22563
17.20413	22593
17.21225	21325
17.22038	20863
17.22850	22506
17.23662	23650
17.24475	21779
17.25287	21250
17.26100	20043
17.26912	21321
17.27723	21510
17.28537	18970
17.29348	18098
17.30160	21700
17.30973	19980
17.31785	20776
17.32598	22849
17.33410	21503
17.34222	19429
17.35035	20175
17.35847	20135
17.36660	20561
17.37472	20456
17.38283	23180
17.39097	24211
17.39908	23270
17.40722	26463
17.41533	23522
17.42345	23061
17.43158	23484
17.43970	24023
17.44782	23583
17.45595	20806
17.46407	19669
17.47220	25895
17.48032	25911
17.48843	25044
17.49657	22652
17.50468	20306
17.51282	25524
17.52093	26728
17.52905	28594
17.53718	29565
17.54530	28850
17.55342	32789
17.56155	34606
17.56967	32517
17.57780	28942
17.58592	30526
17.59403	27408
17.60217	25514
17.61028	22746
17.61842	22759
17.62653	21419
17.63465	22029
17.64278	22562
17.65090	22364
17.65903	21853
17.66715	20523
17.67527	24316
17.68340	26361
17.69152	23738
17.69963	20441
17.70777	24309
17.71588	24250
17.72402	22397
17.73213	20007
17.74025	22626
17.74838	20442
17.75650	22375
17.76463	22104
17.77275	22027
17.78087	21372
17.78900	21870
17.79712	19586
17.80523	23054
17.81337	22481
17.82148	23410
17.82962	27089
17.83773	24808
17.84585	26961
17.85398	27619
17.86210	24598
17.87023	25871
17.87835	23769
17.88647	24781
17.89460	22590
17.90272	23520
17.91085	24163
17.91897	25671
17.92708	21822
17.93522	21083
17.94333	22243
17.95145	23319
17.95958	25670
17.96770	21024
17.97583	21891
17.98395	24921
17.99207	18993
18.00020	18957
18.00832	21643
18.01645	21224
18.02457	23155
18.03268	24155
18.04082	23304
18.04893	23225
18.05707	23984
18.06518	21783
18.07330	22643
18.08143	26458
18.08955	24446
18.09767	24544
18.10580	24344
18.11392	26120
18.12205	21691
18.13017	24145
18.13828	24195
18.14642	23836
18.15453	24956
18.16267	22790
18.17078	19744
18.17890	24692
18.18703	20225
18.19515	26203
18.20328	24046
18.21140	19136
18.21952	23270
18.22765	22766
18.23577	20813
18.24388	19364
18.25202	22243
18.26013	25256
18.26827	24490
18.27638	23296
18.28450	22046
18.29263	20990
18.30075	22164
18.30888	23783
18.31700	20771
18.32512	20033
18.33325	19692
18.34137	22064
18.34948	21823
18.35762	24268
18.36573	21776
18.37387	21695
18.38198	23771
18.39010	23254
18.39823	22893
18.40635	21072
18.41448	23131
18.42260	20094
18.43072	20667
18.43885	21152
18.44697	21841
18.45510	21767
18.46322	22336
18.47133	21031
18.47947	20429
18.48758	21415
18.49570	23006
18.50383	21730
18.51195	21125
18.52008	20734
18.52820	24199
18.53632	22244
18.54445	20046
18.55257	20063
18.56070	20790
18.56882	22271
18.57693	20579
18.58507	22142
18.59318	20630
18.60130	23219
18.60943	20424
18.61755	23977
18.62568	22953
18.63380	22971
18.64192	21832
18.65005	22430
18.65817	21723
18.66630	21113
18.67442	23385
18.68253	23088
18.69067	21303
18.69878	23056
18.70692	20896
18.71503	20775
18.72315	20657
18.73128	22083
18.73940	20881
18.74752	22559
18.75565	22217
18.76377	21276
18.77190	20715
18.78002	20309
18.78813	21500
18.79627	19717
18.80438	22062
18.81252	25948
18.82063	21963
18.82875	24006
18.83688	28369
18.84500	22314
18.85313	22589
18.86125	23492
18.86937	26448
18.87750	26240
18.88562	27075
18.89373	25109
18.90187	26909
18.90998	23233
18.91812	27673
18.92623	26270
18.93435	24611
18.94248	23722
18.95060	22816
18.95873	25211
18.96685	24569
18.97497	25528
18.98310	24162
18.99122	24378
18.99933	29547
19.00747	27871
19.01558	28176
19.02372	25100
19.03183	24188
19.03995	26214
19.04808	27087
19.05620	27593
19.06433	35039
19.07245	35131
19.08057	41508
19.08870	53854
19.09682	63970
19.10495	70085
19.11307	65739
19.12118	59953
19.12932	49156
19.13743	44728
19.14555	42844
19.15368	46258
19.16180	39960
19.16993	38299
19.17805	34917
19.18617	33903
19.19430	33008
19.20242	33285
19.21055	32063
19.21867	27706
19.22678	28626
19.23492	28512
19.24303	25292
19.25117	28982
19.25928	29568
19.26740	31137
19.27553	32774
19.28365	27747
19.29177	31132
19.29990	31437
19.30802	32258
19.31615	31692
19.32427	26402
19.33238	27954
19.34052	29977
19.34863	25868
19.35677	24683
19.36488	25802
19.37300	28585
19.38113	29225
19.38925	22364
19.39737	24997
19.40550	25807
19.41362	30419
19.42175	40253
19.42987	55652
19.43798	71958
19.44612	83201
19.45423	86133
19.46237	78839
19.47048	58715
19.47860	45551
19.48673	37528
19.49485	30419
19.50298	29571
19.51110	26986
19.51922	25892
19.52735	28881
19.53547	26354
19.54358	26775
19.55172	25427
19.55983	25051
19.56797	25275
19.57608	23752
19.58420	26159
19.59233	22888
19.60045	22508
19.60858	23822
19.61670	22592
19.62482	27565
19.63295	31654
19.64107	31354
19.64918	39368
19.65732	41150
19.66543	45346
19.67357	45893
19.68168	39825
19.68980	40242
19.69793	37572
19.70605	33735
19.71418	30815
19.72230	28739
19.73042	29428
19.73855	24840
19.74667	27400
19.75480	24626
19.76292	27418
19.77103	27446
19.77917	27404
19.78728	24873
19.79540	21846
19.80353	22075
19.81165	25923
19.81978	26546
19.82790	25557
19.83602	24925
19.84415	25471
19.85227	25451
19.86040	27979
19.86852	25599
19.87663	28611
19.88477	30841
19.89288	33767
19.90102	40557
19.90913	39516
19.91725	40832
19.92538	38555
19.93350	38851
19.94162	41605
19.94975	37097
19.95787	39089
19.96600	37647
19.97412	32938
19.98223	36042
19.99037	35224
19.99848	36545
20.00662	34559
20.01473	37790
20.02285	36070
20.03098	30348
20.03910	33008
20.04722	29630
20.05535	28530
20.06347	27443
20.07160	27366
20.07972	29009
20.08783	30846
20.09597	26473
20.10408	26841
20.11222	25189
20.12033	27458
20.12845	25526
20.13658	25634
20.14470	25867
20.15283	25561
20.16095	25398
20.16907	27330
20.17720	25934
20.18532	28612
20.19343	31148
20.20157	26547
20.20968	26449
20.21782	28292
20.22593	31007
20.23405	34286
20.24218	34041
20.25030	37764
20.25843	43520
20.26655	40774
20.27467	36415
20.28280	40885
20.29092	35229
20.29905	32146
20.30717	30075
20.31528	29265
20.32342	26984
20.33153	24238
20.33965	26376
20.34778	25315
20.35590	23519
20.36403	24770
20.37215	25204
20.38027	23795
20.38840	27911
20.39652	28588
20.40465	28570
20.41277	28544
20.42088	26638
20.42902	29709
20.43713	27335
20.44525	30336
20.45338	26748
20.46150	25324
20.46963	26502
20.47775	23570
20.48587	25379
20.49400	27750
20.50212	24674
20.51025	21240
20.51837	24957
20.52648	20893
20.53462	18833
20.54273	25524
20.55087	23033
20.55898	23009
20.56710	21902
20.57523	24473
20.58335	23080
20.59147	22591
20.59960	23234
20.60772	23197
20.61585	23087
20.62397	24538
20.63208	22855
20.64022	21886
20.64833	21651
20.65647	23623
20.66458	24227
20.67270	23061
20.68083	22659
20.68895	22481
20.69707	24440
20.70520	22946
20.71332	21995
20.72145	23221
20.72957	20911
20.73768	21407
20.74582	23383
20.75393	23361
20.76207	24138
20.77018	30475
20.77830	21688
20.78643	22414
20.79455	20150
20.80268	20677
20.81080	22789
20.81892	22792
20.82705	23064
20.83517	23213
20.84328	25072
20.85142	20557
20.85953	20552
20.86767	22090
20.87578	21271
20.88390	21261
20.89203	20374
20.90015	26853
20.90828	22744
20.91640	20410
20.92452	22326
20.93265	22404
20.94077	21358
20.94890	21991
20.95702	21028
20.96513	21413
20.97327	21981
20.98138	20982
20.98950	21400
20.99763	20467
21.00575	22887
21.01388	21430
21.02200	22080
21.03012	24039
21.03825	21519
21.04637	21609
21.05450	22042
21.06262	20756
21.07073	23039
21.07887	22657
21.08698	19089
21.09510	20852
21.10323	22724
21.11135	20678
21.11948	22896
21.12760	21613
21.13572	22186
21.14385	23675
21.15197	25352
21.16010	23251
21.16822	24586
21.17633	24402
21.18447	21800
21.19258	23469
21.20072	23154
21.20883	25250
21.21695	23194
21.22508	21348
21.23320	24557
21.24132	24073
21.24945	22340
21.25757	25033
21.26570	20909
21.27382	24958
21.28193	20474
21.29007	24484
21.29818	24790
21.30632	25871
21.31443	19789
21.32255	24370
21.33068	21889
21.33880	22846
21.34693	21642
21.35505	22223
21.36317	21846
21.37130	22501
21.37942	21542
21.38753	20711
21.39567	23121
21.40378	23553
21.41192	22820
21.42003	24117
21.42815	21943
21.43628	21013
21.44440	23356
21.45253	24039
21.46065	20927
21.46877	24946
21.47690	23599
21.48502	23522
21.49313	24530
21.50127	22624
21.50938	23675
21.51752	21305
21.52563	23301
21.53375	22927
21.54188	23097
21.55000	23248
21.55813	21552
21.56625	22765
21.57437	22344
21.58250	31115
21.59062	26015
21.59875	28052
21.60687	28368
21.61498	28144
21.62312	24059
21.63123	22100
21.63935	22245
21.64748	22652
21.65560	23064
21.66373	23426
21.67185	25176
21.67997	22120
21.68810	24067
21.69622	21526
21.70435	20278
21.71247	22884
21.72058	21348
21.72872	21307
21.73683	24106
21.74497	21885
21.75308	20504
21.76120	23367
21.76933	23964
21.77745	25117
21.78557	26151
21.79370	27318
21.80182	27211
21.80995	28455
21.81807	23956
21.82618	22768
21.83432	25066
21.84243	23063
21.85057	21996
21.85868	20031
21.86680	24173
21.87493	21605
21.88305	22722
21.89117	22750
21.89930	22121
21.90742	23830
21.91555	22847
21.92367	20112
21.93178	20630
21.93992	22990
21.94803	23948
21.95617	22040
21.96428	22751
21.97240	24116
21.98053	23783
21.98865	20700
21.99678	22089
22.00490	22926
22.01302	22964
22.02115	23223
22.02927	22525
22.03738	25223
22.04552	18616
22.05363	21901
22.06177	21665
22.06988	22185
22.07800	24328
22.08613	22595
22.09425	21764
22.10238	24308
22.11050	24980
22.11862	21295
22.12675	23990
22.13487	22265
22.14298	23106
22.15112	20707
22.15923	21817
22.16737	23134
22.17548	28162
22.18360	25876
22.19173	20754
22.19985	22734
22.20798	22329
22.21610	22222
22.22422	23351
22.23235	20617
22.24047	21835
22.24860	22863
22.25672	23132
22.26483	21331
22.27297	19920
22.28108	21659
22.28920	20056
22.29733	21722
22.30545	22191
22.31358	22214
22.32170	21457
22.32982	21618
22.33795	23532
22.34607	25294
22.35420	23047
22.36232	25238
22.37043	23199
22.37857	22605
22.38668	20146
22.39482	21542
22.40293	20413
22.41105	21416
22.41918	20438
22.42730	21278
22.43542	21675
22.44355	19966
22.45167	22252
22.45980	21938
22.46792	20806
22.47603	21008
22.48417	22133
22.49228	21483
22.50042	20993
22.50853	20784
22.51665	22774
22.52478	23756
22.53290	26993
22.54102	21649
22.54915	20610
22.55727	20798
22.56540	20616
22.57352	22831
22.58163	22654
22.58977	20939
22.59788	25043
22.60602	21471
22.61413	22720
22.62225	19015
22.63038	19212
22.63850	22916
22.64663	18861
22.65475	21353
22.66287	21801
22.67100	19285
22.67912	20511
22.68723	23335
22.69537	17617
22.70348	21416
22.71162	20613
22.71973	21335
22.72785	19839
22.73598	19395
22.74410	22569
22.75223	21385
22.76035	21476
22.76847	18626
22.77660	19641
22.78472	21373
22.79285	20855
22.80097	19575
22.80908	20720
22.81722	20287
22.82533	19763
22.83345	21038
22.84158	21656
22.84970	21963
22.85783	21388
22.86595	21453
22.87407	21221
22.88220	22191
22.89032	25252
22.89845	23917
22.90657	28530
22.91468	23686
22.92282	29639
22.93093	29984
22.93905	32101
22.94718	31652
22.95530	32405
22.96343	30234
22.97155	29770
22.97967	33938
22.98780	30404
22.99592	31372
23.00405	28286
23.01217	27494
23.02028	25718
23.02842	25839
23.03653	25982
23.04467	25279
23.05278	24921
23.06090	25050
23.06903	24854
23.07715	22907
23.08527	24401
23.09340	23669
23.10152	24327
23.10965	20781
23.11777	25610
23.12588	23799
23.13402	24401
23.14213	21387
23.15027	21278
23.15838	24702
23.16650	22454
23.17463	28159
23.18275	22163
23.19087	22377
23.19900	20608
23.20712	22494
23.21525	22142
23.22337	22241
23.23148	21192
23.23962	23224
23.24773	23089
23.25587	20269
23.26398	24869
23.27210	22931
23.28023	26721
23.28835	23963
23.29648	21041
23.30460	22525
23.31272	22576
23.32085	22673
23.32897	21465
23.33708	21734
23.34522	24188
23.35333	22646
23.36147	24827
23.36958	24369
23.37770	25065
23.38583	27337
23.39395	26304
23.40208	22165
23.41020	23472
23.41832	24614
23.42645	23785
23.43457	21184
23.44270	21663
23.45082	25396
23.45893	21867
23.46707	20900
23.47518	21949
23.48330	22495
23.49143	21348
23.49955	23901
23.50768	21514
23.51580	19828
23.52392	22481
23.53205	23810
23.54017	24132
23.54830	22984
23.55642	23769
23.56453	23349
23.57267	24128
23.58078	24971
23.58892	22864
23.59703	24416
23.60515	25061
23.61328	22568
23.62140	25339
23.62952	25775
23.63765	24603
23.64577	29387
23.65390	28066
23.66202	28893
23.67013	26235
23.67827	27584
23.68638	28257
23.69452	25691
23.70263	25932
23.71075	26421
23.71888	24470
23.72700	30565
23.73512	41421
23.74325	72663
23.75137	141941
23.75950	289068
23.76762	541239
23.77573	908288
23.78387	1208814
23.79198	1371669
23.80012	1280103
23.80823	1058204
23.81635	853354
23.82448	675817
23.83260	501591
23.84073	394479
23.84885	304834
23.85697	241229
23.86510	203442
23.87322	178812
23.88133	157873
23.88947	140853
23.89758	127604
23.90572	123813
23.91383	106114
23.92195	101150
23.93008	88250
23.93820	87688
23.94633	79349
23.95445	80367
23.96257	73477
23.97070	68782
23.97882	71758
23.98693	64078
23.99507	62433
24.00318	61943
24.01132	59015
24.01943	56027
24.02755	57223
24.03568	57258
24.04380	53799
24.05193	49098
24.06005	54349
24.06817	49377
24.07630	49019
24.08442	50938
24.09255	50012
24.10067	47123
24.10878	46697
24.11692	46918
24.12503	46770
24.13315	44755
24.14128	45679
24.14940	43816
24.15753	42528
24.16565	43014
24.17377	43288
24.18190	41524
24.19002	42542
24.19815	41463
24.20627	40231
24.21438	40443
24.22252	41888
24.23063	38841
24.23877	37407
24.24688	38381
24.25500	34445
24.26313	36919
24.27125	36488
24.27937	36728
24.28750	36752
24.29562	39845
24.30375	45209
24.31187	51713
24.31998	61203
24.32812	69531
24.33623	68008
24.34437	64816
24.35248	50296
24.36060	45500
24.36873	36290
24.37685	36047
24.38497	33333
24.39310	33361
24.40122	36304
24.40935	30870
24.41747	32061
24.42558	32779
24.43372	35659
24.44183	36155
24.44997	35179
24.45808	36038
24.46620	37211
24.47433	33742
24.48245	33017
24.49058	31454
24.49870	27318
24.50682	32388
24.51495	33003
24.52307	28156
24.53118	29954
24.53932	28132
24.54743	29515
24.55557	32340
24.56368	27081
24.57180	27284
24.57993	32096
24.58805	31011
24.59618	27584
24.60430	29319
24.61242	30623
24.62055	29932
24.62867	28672
24.63680	27534
24.64492	31216
24.65303	31089
24.66117	27215
24.66928	26302
24.67740	29743
24.68553	28581
24.69365	28112
24.70178	29472
24.70990	28072
24.71802	26694
24.72615	27724
24.73427	24625
24.74240	28427
24.75052	32115
24.75863	29591
24.76677	25806
24.77488	28613
24.78300	29041
24.79113	29472
24.79925	28167
24.80738	29097
24.81550	26389
24.82362	27751
24.83175	28667
24.83987	26252
24.84800	26748
24.85612	22319
24.86423	27996
24.87237	26258
24.88048	24567
24.88862	27816
24.89673	27503
24.90485	26348
24.91298	27045
24.92110	28405
24.92922	26666
24.93735	27808
24.94547	24400
24.95360	27695
24.96172	25313
24.96983	30131
24.97797	25143
24.98608	26190
24.99422	25170
25.00233	25209
25.01045	23073
25.01858	24741
25.02670	27309
25.03482	25899
25.04295	24737
25.05107	25632
25.05920	26454
25.06732	24773
25.07543	23652
25.08357	24103
25.09168	24047
25.09982	26226
25.10793	25370
25.11605	25861
25.12418	24511
25.13230	27117
25.14043	27284
25.14855	27880
25.15667	29504
25.16480	27008
25.17292	26292
25.18103	25643
25.18917	24977
25.19728	25480
25.20542	22304
25.21353	24329
25.22165	24462
25.22978	23055
25.23790	25698
25.24603	24832
25.25415	25136
25.26227	23820
25.27040	24001
25.27852	24393
25.28665	25351
25.29477	25010
25.30288	30347
25.31102	26186
25.31913	29244
25.32725	28796
25.33538	29285
25.34350	28544
25.35163	25426
25.35975	24357
25.36787	24870
25.37600	23564
25.38412	22774
25.39225	24709
25.40037	25163
25.40848	25455
25.41662	24845
25.42473	25082
25.43285	22190
25.44098	23267
25.44910	21964
25.45723	25976
25.46535	23526
25.47347	24040
25.48160	26307
25.48972	22017
25.49785	23643
25.50597	23939
25.51408	21764
25.52222	22659
25.53033	22710
25.53847	25312
25.54658	24681
25.55470	29210
25.56283	23591
25.57095	23451
25.57907	22769
25.58720	22607
25.59532	22617
25.60345	20778
25.61157	23333
25.61968	21416
25.62782	22418
25.63593	22840
25.64407	21311
25.65218	21452
25.66030	21727
25.66843	22526
25.67655	22548
25.68468	24230
25.69280	21162
25.70092	23668
25.70905	24148
25.71717	23217
25.72528	24333
25.73342	24120
25.74153	23361
25.74967	23314
25.75778	23360
25.76590	21746
25.77403	23749
25.78215	22971
25.79028	21367
25.79840	21098
25.80652	22340
25.81465	20829
25.82277	21399
25.83088	25501
25.83902	22978
25.84713	20003
25.85527	21107
25.86338	23941
25.87150	22477
25.87963	23589
25.88775	22550
25.89588	21783
25.90400	21285
25.91212	23483
25.92025	21121
25.92837	20512
25.93650	21245
25.94462	21378
25.95273	22251
25.96087	22652
25.96898	23062
25.97710	22870
25.98523	22047
25.99335	20494
26.00148	23637
26.00960	19928
26.01772	26853
26.02585	20212
26.03397	23227
26.04210	24785
26.05022	26106
26.05833	25179
26.06647	21883
26.07458	19574
26.08272	22163
26.09083	20396
26.09895	24145
26.10708	23290
26.11520	23820
26.12332	24739
26.13145	24391
26.13957	25893
26.14770	26629
26.15582	26456
26.16393	28190
26.17207	24795
26.18018	24101
26.18832	23515
26.19643	24457
26.20455	25122
26.21268	21130
26.22080	22285
26.22892	22591
26.23705	20981
26.24517	21881
26.25330	19636
26.26142	22355
26.26953	25106
26.27767	21890
26.28578	21270
26.29392	21436
26.30203	22383
26.31015	19360
26.31828	22203
26.32640	21230
26.33453	22675
26.34265	21529
26.35077	23076
26.35890	22584
26.36702	22768
26.37513	24911
26.38327	23148
26.39138	25754
26.39952	20479
26.40763	22507
26.41575	24244
26.42388	20047
26.43200	18596
26.44013	20197
26.44825	21224
26.45637	22098
26.46450	19851
26.47262	21185
26.48073	21921
26.48887	19486
26.49698	20654
26.50512	22543
26.51323	23090
26.52135	25786
26.52948	21251
26.53760	20420
26.54573	21886
26.55385	19430
26.56197	25071
26.57010	20429
26.57822	21447
26.58635	20032
26.59447	24785
26.60258	19896
26.61072	21860
26.61883	21597
26.62695	24606
26.63508	22837
26.64320	23076
26.65133	24323
26.65945	24110
26.66757	23573
26.67570	22314
26.68382	23127
26.69195	23130
26.70007	22169
26.70818	20840
26.71632	21323
26.72443	21220
26.73257	22286
26.74068	20836
26.74880	22181
26.75693	23075
26.76505	23846
26.77317	20932
26.78130	23860
26.78942	21393
26.79755	22685
26.80567	26000
26.81378	24891
26.82192	24681
26.83003	23811
26.83817	23229
26.84628	21596
26.85440	22914
26.86253	20021
26.87065	19047
26.87877	23512
26.88690	19794
26.89502	21682
26.90315	21160
26.91127	20696
26.91938	20158
26.92752	20616
26.93563	25140
26.94377	27961
26.95188	34114
26.96000	55800
26.96813	72182
26.97625	111203
26.98438	156197
26.99250	173918
27.00062	200288
27.00875	194879
27.01687	168094
27.02498	159474
27.03312	127829
27.04123	111083
27.04937	88500
27.05748	73170
27.06560	63556
27.07373	60242
27.08185	51500
27.08998	45240
27.09810	46224
27.10622	37821
27.11435	37766
27.12247	35540
27.13060	34936
27.13872	34004
27.14683	33886
27.15497	34232
27.16308	33592
27.17120	33490
27.17933	32717
27.18745	29246
27.19558	27546
27.20370	32419
27.21182	31315
27.21995	29619
27.22807	28558
27.23620	26966
27.24432	31054
27.25243	28606
27.26057	28318
27.26868	26443
27.27680	27680
27.28493	27904
27.29305	27185
27.30118	23304
27.30930	24335
27.31742	28256
27.32555	26768
27.33367	25520
27.34180	22166
27.34992	24661
27.35803	24173
27.36617	22687
27.37428	21580
27.38242	24609
27.39053	27117
27.39865	26067
27.40678	25806
27.41490	30104
27.42302	25556
27.43115	26206
27.43927	25868
27.44740	28990
27.45552	24120
27.46363	25285
27.47177	23372
27.47988	22559
27.48802	23846
27.49613	20625
27.50425	22758
27.51238	24068
27.52050	27457
27.52862	23655
27.53675	22267
27.54487	23054
27.55300	25983
27.56112	23562
27.56923	24619
27.57737	24294
27.58548	22530
27.59362	24619
27.60173	22362
27.60985	25970
27.61798	26678
27.62610	21110
27.63423	21890
27.64235	25221
27.65047	23279
27.65860	23715
27.66672	24473
27.67483	21342
27.68297	23347
27.69108	25199
27.69922	23387
27.70733	19839
27.71545	22800
27.72358	22601
27.73170	24557
27.73983	23284
27.74795	23475
27.75607	27326
27.76420	24471
27.77232	23749
27.78045	23845
27.78857	23267
27.79668	22606
27.80482	24223
27.81293	21164
27.82105	22312
27.82918	22420
27.83730	24017
27.84543	23805
27.85355	22104
27.86167	23426
27.86980	24447
27.87792	25853
27.88605	21353
27.89417	22782
27.90228	21120
27.91042	22170
27.91853	22861
27.92665	23134
27.93478	21990
27.94290	22392
27.95103	20602
27.95915	20929
27.96727	23395
27.97540	22759
27.98352	20028
27.99165	24818
27.99977	26348
28.00788	23030
28.01602	25353
28.02413	20027
28.03227	21267
28.04038	22764
28.04850	21160
28.05663	24873
28.06475	22310
28.07287	21072
28.08100	23383
28.08912	22475
28.09725	25314
28.10537	25419
28.11348	29089
28.12162	30064
28.12973	30140
28.13787	27918
28.14598	24986
28.15410	23875
28.16223	24495
28.17035	22829
28.17848	23081
28.18660	25075
28.19472	24325
28.20285	23090
28.21097	22658
28.21908	24839
28.22722	23069
28.23533	22992
28.24347	21907
28.25158	21911
28.25970	30288
28.26783	34589
28.27595	40242
28.28408	47334
28.29220	60952
28.30032	61967
28.30845	65516
28.31657	72407
28.32468	69352
28.33282	69875
28.34093	73844
28.34907	64028
28.35718	66312
28.36530	57849
28.37343	49227
28.38155	44744
28.38968	48063
28.39780	43575
28.40592	37418
28.41405	35196
28.42217	34319
28.43030	33202
28.43842	32059
28.44653	29996
28.45467	29757
28.46278	27534
28.47090	27334
28.47903	27969
28.48715	29117
28.49528	31443
28.50340	28174
28.51152	26883
28.51965	27382
28.52777	28940
28.53590	25569
28.54402	23993
28.55213	26856
28.56027	24983
28.56838	27625
28.57650	24908
28.58463	25677
28.59275	24198
28.60088	24408
28.60900	24105
28.61712	25957
28.62525	24156
28.63337	25442
28.64150	28398
28.64962	29990
28.65773	30633
28.66587	28959
28.67398	33088
28.68212	35148
28.69023	39957
28.69835	42252
28.70648	43331
28.71460	38058
28.72272	34873
28.73085	27443
28.73897	26269
28.74710	25137
28.75522	25153
28.76333	24537
28.77147	26461
28.77958	23562
28.78772	24949
28.79583	22151
28.80395	24874
28.81208	22415
28.82020	26822
28.82833	25678
28.83645	26169
28.84457	23560
28.85270	25517
28.86082	31099
28.86893	24260
28.87707	25913
28.88518	29985
28.89332	26363
28.90143	25020
28.90955	25370
28.91768	26047
28.92580	26345
28.93393	24964
28.94205	24047
28.95017	22516
28.95830	23820
28.96642	24422
28.97455	24894
28.98267	23622
28.99078	22032
28.99892	23419
29.00703	23249
29.01515	25005
29.02328	25321
29.03140	26570
29.03953	27776
29.04765	27924
29.05577	25554
29.06390	25258
29.07202	23673
29.08015	23301
29.08827	22923
29.09638	22479
29.10452	23011
29.11263	24684
29.12075	26903
29.12888	22738
29.13700	25106
29.14513	24267
29.15325	26536
29.16137	25614
29.16950	26011
29.17762	23654
29.18575	22420
29.19387	21832
29.20198	22430
29.21012	18966
29.21823	22918
29.22637	22811
29.23448	23780
29.24260	25567
29.25073	24097
29.25885	24971
29.26697	27155
29.27510	24948
29.28322	25806
29.29135	26199
29.29947	23408
29.30758	24636
29.31572	24561
29.32383	25213
29.33197	27371
29.34008	23817
29.34820	23314
29.35633	22138
29.36445	23598
29.37257	21907
29.38070	23512
29.38882	22910
29.39695	24220
29.40507	30200
29.41318	26158
29.42132	26915
29.42943	23948
29.43757	25931
29.44568	22996
29.45380	23332
29.46193	22692
29.47005	24844
29.47818	24052
29.48630	23650
29.49442	26028
29.50255	22981
29.51067	25793
29.51878	25036
29.52692	25149
29.53503	26220
29.54317	22893
29.55128	23170
29.55940	23255
29.56753	24645
29.57565	23109
29.58378	22966
29.59190	27175
29.60002	24535
29.60815	27357
29.61627	25574
29.62440	23324
29.63252	23283
29.64063	22291
29.64877	22906
29.65688	19426
29.66500	20908
29.67313	21890
29.68125	19982
29.68938	22855
29.69750	23722
29.70562	23946
29.71375	22984
29.72187	23201
29.73000	25136
29.73812	23912
29.74623	22254
29.75437	25249
29.76248	21317
29.77060	21716
29.77873	26008
29.78685	26044
29.79498	22612
29.80310	21672
29.81122	22255
29.81935	20943
29.82747	21839
29.83560	26249
29.84372	25478
29.85183	23522
29.85997	22399
29.86808	26933
29.87622	25740
29.88433	27535
29.89245	29236
29.90058	36124
29.90870	36426
29.91682	37491
29.92495	41483
29.93307	45112
29.94120	42507
29.94932	42438
29.95743	45366
29.96557	47652
29.97368	44688
29.98182	41468
29.98993	41472
29.99805	41399
30.00618	39589
30.01430	35047
30.02243	36302
30.03055	36268
30.03867	34266
30.04680	30970
30.05492	29616
30.06303	30776
30.07117	33724
30.07928	32629
30.08742	31370
30.09553	30051
30.10365	27205
30.11178	30570
30.11990	25501
30.12803	27207
30.13615	30250
30.14427	25600
30.15240	26228
30.16052	28835
30.16863	31395
30.17677	27076
30.18488	27924
30.19302	28130
30.20113	24757
30.20925	25764
30.21738	25540
30.22550	23575
30.23363	27551
30.24175	24519
30.24987	26586
30.25800	25201
30.26612	24089
30.27425	26660
30.28237	23006
30.29048	24722
30.29862	25911
30.30673	25666
30.31485	25909
30.32298	28106
30.33110	25689
30.33923	25645
30.34735	24690
30.35547	21861
30.36360	24977
30.37172	24245
30.37985	23564
30.38797	23742
30.39608	25626
30.40422	24716
30.41233	24551
30.42045	25218
30.42858	26906
30.43670	24529
30.44483	26211
30.45295	24746
30.46107	23775
30.46920	24333
30.47732	24648
30.48545	20813
30.49357	26560
30.50168	28376
30.50982	24549
30.51793	23327
30.52607	24685
30.53418	26002
30.54230	24629
30.55043	25536
30.55855	27605
30.56667	23084
30.57480	25891
30.58292	23484
30.59105	22754
30.59917	23516
30.60728	25838
30.61542	24399
30.62353	25648
30.63167	26248
30.63978	23129
30.64790	25469
30.65603	25199
30.66415	20642
30.67228	24824
30.68040	23713
30.68852	23112
30.69665	23717
30.70477	23834
30.71288	26067
30.72102	23846
30.72913	24040
30.73727	22075
30.74538	25156
30.75350	22536
30.76163	20867
30.76975	25505
30.77788	23667
30.78600	25162
30.79412	26614
30.80225	27747
30.81037	25356
30.81848	24000
30.82662	23932
30.83473	23895
30.84287	23358
30.85098	25335
30.85910	24263
30.86723	22610
30.87535	24949
30.88348	23880
30.89160	21629
30.89972	22513
30.90785	24345
30.91597	25421
30.92410	24476
30.93222	22692
30.94033	24819
30.94847	23897
30.95658	23651
30.96470	25205
30.97283	20624
30.98095	23209
30.98908	22895
30.99720	23737
31.00532	22303
31.01345	25105
31.02157	24092
31.02970	27075
31.03782	25443
31.04593	23750
31.05407	24295
31.06218	23823
31.07032	24667
31.07843	24206
31.08655	26833
31.09468	24798
31.10280	26264
31.11092	28027
31.11905	31487
31.12717	27139
31.13530	25254
31.14342	24569
31.15153	28929
31.15967	28714
31.16778	33080
31.17592	42890
31.18403	48981
31.19215	63117
31.20028	74392
31.20840	85486
31.21652	86512
31.22465	80557
31.23277	66651
31.24090	55643
31.24902	47832
31.25713	37488
31.26527	28325
31.27338	27272
31.28152	27104
31.28963	27418
31.29775	25537
31.30588	26103
31.31400	27501
31.32213	25934
31.33025	25651
31.33837	25036
31.34650	24152
31.35462	25492
31.36273	27926
31.37087	26550
31.37898	26079
31.38712	28165
31.39523	24463
31.40335	24615
31.41148	25148
31.41960	23199
31.42773	23639
31.43585	24375
31.44397	25562
31.45210	24334
31.46022	23920
31.46835	23782
31.47647	24935
31.48458	26633
31.49272	22822
31.50083	23425
31.50895	24665
31.51708	24385
31.52520	25374
31.53333	25633
31.54145	24451
31.54957	24391
31.55770	23351
31.56582	23323
31.57395	23949
31.58207	23535
31.59018	22214
31.59832	26005
31.60643	25805
31.61455	24099
31.62268	27923
31.63080	26771
31.63893	26494
31.64705	23428
31.65517	24988
31.66330	24470
31.67142	25690
31.67955	24813
31.68767	25245
31.69578	28585
31.70392	26365
31.71203	26453
31.72017	25579
31.72828	24161
31.73640	23459
31.74453	25462
31.75265	27039
31.76077	30007
31.76890	25948
31.77702	26480
31.78515	24949
31.79327	26696
31.80138	25846
31.80952	27254
31.81763	27610
31.82577	27246
31.83388	27649
31.84200	33621
31.85013	34065
31.85825	32042
31.86637	36820
31.87450	39384
31.88262	36611
31.89075	39845
31.89887	39354
31.90698	37719
31.91512	39525
31.92323	36326
31.93137	39867
31.93948	37992
31.94760	36002
31.95573	34032
31.96385	32911
31.97198	31499
31.98010	31521
31.98822	31408
31.99635	32456
32.00447	29298
32.01258	31174
32.02072	28587
32.02883	30662
32.03697	29875
32.04508	26241
32.05320	25667
32.06133	27914
32.06945	26704
32.07758	28095
32.08570	28695
32.09382	26936
32.10195	27420
32.11007	27358
32.11820	27978
32.12632	23800
32.13443	26886
32.14257	29035
32.15068	24631
32.15880	25470
32.16693	24905
32.17505	25622
32.18318	25851
32.19130	26059
32.19942	26398
32.20755	27105
32.21567	27762
32.22380	27124
32.23192	25919
32.24003	27016
32.24817	24640
32.25628	27677
32.26440	27168
32.27253	24010
32.28065	23288
32.28878	25738
32.29690	24128
32.30502	25219
32.31315	27745
32.32127	24685
32.32940	23997
32.33752	27730
32.34563	27665
32.35377	28449
32.36188	25595
32.37002	29217
32.37813	24692
32.38625	23342
32.39438	24013
32.40250	24851
32.41062	24457
32.41875	25960
32.42687	23815
32.43500	26392
32.44312	24160
32.45123	25222
32.45937	23924
32.46748	26217
32.47562	26292
32.48373	25919
32.49185	29180
32.49998	26105
32.50810	26957
32.51623	26682
32.52435	24945
32.53247	28330
32.54060	27921
32.54872	27399
32.55683	30165
32.56497	32640
32.57308	35378
32.58122	39173
32.58933	40427
32.59745	37078
32.60558	38756
32.61370	31694
32.62183	29788
32.62995	25887
32.63807	27472
32.64620	28276
32.65432	25962
32.66243	26982
32.67057	26050
32.67868	26031
32.68682	24607
32.69493	26604
32.70305	27231
32.71118	29979
32.71930	31359
32.72743	29054
32.73555	26339
32.74367	26034
32.75180	29597
32.75992	24822
32.76805	26011
32.77617	27539
32.78428	24707
32.79242	24442
32.80053	26544
32.80865	27217
32.81678	25604
32.82490	27621
32.83303	25841
32.84115	24987
32.84927	23597
32.85740	27032
32.86552	28377
32.87365	28704
32.88177	25960
32.88988	27715
32.89802	28234
32.90613	26287
32.91425	28236
32.92238	24433
32.93050	28304
32.93863	29466
32.94675	27175
32.95487	25985
32.96300	30108
32.97112	29080
32.97925	29175
32.98737	26050
32.99548	25466
33.00362	26455
33.01173	28023
33.01987	28759
33.02798	25350
33.03610	26066
33.04423	26371
33.05235	26242
33.06047	23775
33.06860	26183
33.07672	26176
33.08485	30445
33.09297	30137
33.10108	36448
33.10922	40348
33.11733	42666
33.12547	39889
33.13358	35205
33.14170	34223
33.14983	31666
33.15795	31625
33.16608	29120
33.17420	30923
33.18232	30753
33.19045	26620
33.19857	26426
33.20668	29774
33.21482	26961
33.22293	26457
33.23107	32887
33.23918	30818
33.24730	27499
33.25543	32325
33.26355	29212
33.27168	27863
33.27980	27135
33.28792	29692
33.29605	28696
33.30417	29168
33.31228	24351
33.32042	32647
33.32853	28567
33.33667	26934
33.34478	26401
33.35290	25696
33.36103	26289
33.36915	29777
33.37728	27098
33.38540	26875
33.39352	30841
33.40165	27717
33.40977	28812
33.41790	29027
33.42602	28416
33.43413	25806
33.44227	26395
33.45038	27702
33.45850	26366
33.46663	25975
33.47475	28996
33.48288	27881
33.49100	28748
33.49912	24936
33.50725	30025
33.51537	28545
33.52350	26737
33.53162	27359
33.53973	26886
33.54787	28686
33.55598	25956
33.56412	27666
33.57223	26814
33.58035	27097
33.58848	28077
33.59660	31444
33.60472	26337
33.61285	30104
33.62097	26909
33.62910	25939
33.63722	26640
33.64533	26816
33.65347	31137
33.66158	28649
33.66972	29841
33.67783	27802
33.68595	29041
33.69408	28744
33.70220	29769
33.71032	26120
33.71845	30766
33.72657	26549
33.73470	28060
33.74282	28052
33.75093	29695
33.75907	29503
33.76718	27501
33.77532	31627
33.78343	31821
33.79155	28870
33.79968	30013
33.80780	30521
33.81593	30442
33.82405	29416
33.83217	28926
33.84030	31071
33.84842	28463
33.85653	30162
33.86467	30935
33.87278	31743
33.88092	29017
33.88903	31928
33.89715	30645
33.90528	32197
33.91340	31357
33.92153	29204
33.92965	30187
33.93777	26678
33.94590	24598
33.95402	26650
33.96215	25072
33.97027	30024
33.97838	28009
33.98652	30040
33.99463	30512
34.00275	29954
34.01088	28693
34.01900	29062
34.02713	28440
34.03525	28783
34.04337	30631
34.05150	28528
34.05962	28116
34.06775	29219
34.07587	30044
34.08398	28283
34.09212	28700
34.10023	28412
34.10835	32696
34.11648	29346
34.12460	26746
34.13273	30337
34.14085	28311
34.14897	30616
34.15710	28287
34.16522	28485
34.17335	29114
34.18147	30932
34.18958	30767
34.19772	29211
34.20583	28332
34.21397	32198
34.22208	29555
34.23020	27739
34.23833	29329
34.24645	29041
34.25457	29256
34.26270	28809
34.27082	31511
34.27895	31767
34.28707	30181
34.29518	27497
34.30332	30444
34.31143	32683
34.31957	30819
34.32768	34425
34.33580	29385
34.34393	29846
34.35205	28445
34.36018	30107
34.36830	33829
34.37642	29182
34.38455	31032
34.39267	34390
34.40078	33562
34.40892	32556
34.41703	33049
34.42517	30603
34.43328	32588
34.44140	33346
34.44953	39242
34.45765	41482
34.46578	44769
34.47390	46457
34.48202	47761
34.49015	47531
34.49827	46905
34.50638	46303
34.51452	44527
34.52263	44298
34.53077	42723
34.53888	40549
34.54700	37569
34.55513	36147
34.56325	38858
34.57138	37788
34.57950	37884
34.58762	33291
34.59575	38071
34.60387	36748
34.61200	36040
34.62012	32756
34.62823	37131
34.63637	35665
34.64448	34590
34.65260	34174
34.66073	32681
34.66885	33222
34.67698	33072
34.68510	36886
34.69322	31879
34.70135	30803
34.70947	33166
34.71760	29978
34.72572	31512
34.73383	32273
34.74197	29797
34.75008	32675
34.75820	31857
34.76633	32985
34.77445	32832
34.78258	34152
34.79070	31393
34.79882	35305
34.80695	32071
34.81507	32504
34.82320	33040
34.83132	32031
34.83943	33226
34.84757	33412
34.85568	32917
34.86382	31979
34.87193	32894
34.88005	32684
34.88818	31253
34.89630	31826
34.90442	31899
34.91255	34727
34.92067	30286
34.92880	28305
34.93692	31181
34.94503	32405
34.95317	32655
34.96128	35179
34.96942	36163
34.97753	33727
34.98565	32521
34.99378	35043
35.00190	31655
35.01003	33036
35.01815	33747
35.02627	34593
35.03440	32655
35.04252	33317
35.05063	36091
35.05877	32439
35.06688	33476
35.07502	33360
35.08313	32712
35.09125	29558
35.09938	29351
35.10750	34942
35.11563	31061
35.12375	34754
35.13187	37372
35.14000	31417
35.14812	33000
35.15623	30627
35.16437	31535
35.17248	31044
35.18062	34208
35.18873	33291
35.19685	33159
35.20498	33249
35.21310	32626
35.22123	35565
35.22935	32958
35.23747	32256
35.24560	33733
35.25372	36406
35.26185	30563
35.26997	31450
35.27808	35684
35.28622	34543
35.29433	36167
35.30245	35253
35.31058	32502
35.31870	34071
35.32683	35599
35.33495	30780
35.34307	33526
35.35120	34897
35.35932	35372
35.36745	35396
35.37557	35493
35.38368	33961
35.39182	33126
35.39993	34046
35.40807	34146
35.41618	34373
35.42430	31558
35.43243	35097
35.44055	34580
35.44867	32897
35.45680	34265
35.46492	34430
35.47305	35100
35.48117	34756
35.48928	35287
35.49742	31999
35.50553	34080
35.51367	35808
35.52178	35201
35.52990	32817
35.53803	33717
35.54615	33338
35.55427	35808
35.56240	36347
35.57052	33797
35.57865	38141
35.58677	36617
35.59488	36360
35.60302	37011
35.61113	37987
35.61927	36852
35.62738	35344
35.63550	34834
35.64363	36995
35.65175	39135
35.65988	34434
35.66800	33106
35.67612	31849
35.68425	36062
35.69237	32702
35.70048	35854
35.70862	36883
35.71673	36475
35.72487	37557
35.73298	35018
35.74110	35942
35.74923	33456
35.75735	34960
35.76548	35712
35.77360	38856
35.78172	39355
35.78985	38057
35.79797	36208
35.80608	36586
35.81422	38236
35.82233	35792
35.83047	34061
35.83858	37255
35.84670	35268
35.85483	37286
35.86295	35938
35.87108	36693
35.87920	38081
35.88732	40709
35.89545	40368
35.90357	37252
35.91170	39675
35.91982	35332
35.92793	39545
35.93607	36085
35.94418	40113
35.95230	39397
35.96043	38525
35.96855	40600
35.97668	36941
35.98480	43230
35.99292	41562
36.00105	40817
36.00917	41657
36.01730	34559
36.02542	37780
36.03353	38978
36.04167	42317
36.04978	43384
36.05792	39077
36.06603	38799
36.07415	40607
36.08228	41531
36.09040	41438
36.09852	40908
36.10665	37334
36.11477	35916
36.12290	34974
36.13102	39262
36.13913	38233
36.14727	39347
36.15538	38834
36.16352	36404
36.17163	37186
36.17975	39021
36.18788	37418
36.19600	39907
36.20412	45288
36.21225	47815
36.22037	50784
36.22850	53019
36.23662	53295
36.24473	50154
36.25287	45518
36.26098	42550
36.26912	41288
36.27723	37606
36.28535	38823
36.29348	38944
36.30160	40934
36.30973	39406
36.31785	39384
36.32597	39153
36.33410	39633
36.34222	39574
36.35033	40056
36.35847	37978
36.36658	42570
36.37472	42976
36.38283	41691
36.39095	41761
36.39908	41579
36.40720	39633
36.41533	39951
36.42345	40943
36.43157	39810
36.43970	41039
36.44782	40879
36.45595	38864
36.46407	39826
36.47218	37529
36.48032	40994
36.48843	37554
36.49655	38058
36.50468	39963
36.51280	40130
36.52093	40504
36.52905	38843
36.53717	46765
36.54530	38837
36.55342	39862
36.56155	38416
36.56967	39483
36.57778	39845
36.58592	41644
36.59403	39934
36.60215	40693
36.61028	40077
36.61840	40266
36.62653	41956
36.63465	38555
36.64277	41133
36.65090	40578
36.65902	45718
36.66715	39425
36.67527	41908
36.68338	39184
36.69152	41727
36.69963	38820
36.70777	39970
36.71588	43073
36.72400	40408
36.73213	41516
36.74025	45238
36.74837	39720
36.75650	41092
36.76462	43392
36.77275	43344
36.78087	40169
36.78898	42245
36.79712	38713
36.80523	40266
36.81337	44312
36.82148	40294
36.82960	38800
36.83773	40463
36.84585	40252
36.85398	42061
36.86210	45030
36.87022	42275
36.87835	40971
36.88647	44566
36.89458	41339
36.90272	41592
36.91083	44593
36.91897	42857
36.92708	42007
36.93520	44860
36.94333	44854
36.95145	41822
36.95958	42105
36.96770	46160
36.97582	42699
36.98395	46320
36.99207	42753
37.00018	48440
37.00832	50299
37.01643	50039
37.02457	53284
37.03268	54781
37.04080	52874
37.04893	49831
37.05705	50002
37.06518	46665
37.07330	51339
37.08142	46489
37.08955	45151
37.09767	45995
37.10580	44169
37.11392	48416
37.12203	45024
37.13017	44776
37.13828	48744
37.14640	45379
37.15453	50349
37.16265	46217
37.17078	45352
37.17890	40014
37.18702	44615
37.19515	44170
37.20327	50927
37.21140	44778
37.21952	45324
37.22763	45361
37.23577	49123
37.24388	51330
37.25200	57817
37.26013	57776
37.26825	61530
37.27638	65107
37.28450	62122
37.29262	63465
37.30075	60692
37.30887	56550
37.31700	55397
37.32512	56134
37.33323	52269
37.34137	52459
37.34948	46106
37.35762	49225
37.36573	50026
37.37385	47845
37.38198	50094
37.39010	45845
37.39822	49589
37.40635	51138
37.41447	46585
37.42260	49381
37.43072	48018
37.43883	49923
37.44697	51426
37.45508	47992
37.46322	50924
37.47133	52263
37.47945	53449
37.48758	47295
