C:\MassHunter\GCMS\1\data\JTB-E18\JTB-E18-026-09.D Tue Sep 17 17:08:57 2019
Start of data points
2.09533	117899
2.10345	117997
2.11157	118818
2.11970	115890
2.12782	117984
2.13595	121820
2.14407	117984
2.15218	117942
2.16032	117364
2.16843	114402
2.17655	110652
2.18468	107484
2.19280	109525
2.20093	108736
2.20905	108375
2.21717	105486
2.22530	99814
2.23342	102183
2.24155	99093
2.24967	102143
2.25778	103311
2.26592	151472
2.27403	768976
2.28217	1860801
2.29028	1350547
2.29840	615131
2.30653	394176
2.31465	310026
2.32277	271811
2.33090	249352
2.33902	236991
2.34715	220519
2.35527	202325
2.36338	186266
2.37152	179429
2.37963	195919
2.38777	255084
2.39588	218428
2.40400	175112
2.41213	165773
2.42025	162253
2.42837	170038
2.43650	160536
2.44462	165495
2.45275	164405
2.46087	155930
2.46898	136743
2.47712	146649
2.48523	137955
2.49337	171941
2.50148	189560
2.50960	164762
2.51773	146346
2.52585	142427
2.53398	140228
2.54210	136752
2.55022	142145
2.55835	138947
2.56647	134590
2.57458	135285
2.58272	133959
2.59083	132648
2.59897	130905
2.60708	140563
2.61520	157364
2.62333	163456
2.63145	157194
2.63958	139765
2.64770	136651
2.65582	137149
2.66395	140998
2.67207	147791
2.68020	176032
2.68832	173317
2.69643	145681
2.70457	129794
2.71268	130318
2.72080	118953
2.72893	120573
2.73705	120237
2.74518	116742
2.75330	122038
2.76142	123487
2.76955	117906
2.77767	123716
2.78580	112575
2.79392	120575
2.80203	121966
2.81017	125977
2.81828	149719
2.82640	313228
2.83453	642714
2.84265	600482
2.85078	352767
2.85890	249719
2.86702	236196
2.87515	209011
2.88327	167062
2.89140	152991
2.89952	138068
2.90763	136418
2.91577	128972
2.92388	122983
2.93202	124041
2.94013	116919
2.94825	117211
2.95638	122569
2.96450	113934
2.97262	112163
2.98075	118935
2.98887	118242
2.99700	124088
3.00512	133559
3.01323	135722
3.02137	175218
3.02948	351058
3.03762	638224
3.04573	991794
3.05385	2914712
3.06198	6607946
3.07010	7110951
3.07823	4191908
3.08635	2091312
3.09447	1226677
3.10260	833072
3.11072	620239
3.11883	501424
3.12697	397193
3.13508	327199
3.14322	286243
3.15133	249441
3.15945	232173
3.16758	213081
3.17570	217082
3.18383	201408
3.19195	186271
3.20007	177924
3.20820	165391
3.21632	166018
3.22443	172582
3.23257	176980
3.24068	167966
3.24882	157891
3.25693	146879
3.26505	149643
3.27318	158614
3.28130	339713
3.28943	1443327
3.29755	4710288
3.30567	9052783
3.31380	1.031128E+07
3.32192	7950873
3.33005	5037889
3.33817	3243375
3.34628	2262326
3.35442	1704690
3.36253	1359732
3.37065	1253098
3.37878	1350762
3.38690	1330532
3.39503	1155967
3.40315	1400543
3.41127	2651747
3.41940	3838332
3.42752	3289156
3.43565	1983090
3.44377	1174935
3.45188	846073
3.46002	702972
3.46813	611742
3.47625	533756
3.48438	481171
3.49250	434142
3.50063	405924
3.50875	375249
3.51687	353899
3.52500	339758
3.53312	320955
3.54125	307899
3.54937	297082
3.55748	282800
3.56562	270445
3.57373	270115
3.58187	275727
3.58998	258411
3.59810	255501
3.60623	254752
3.61435	336003
3.62247	714744
3.63060	1495977
3.63872	2073014
3.64685	1777573
3.65497	1100014
3.66308	667456
3.67122	477759
3.67933	392443
3.68747	347529
3.69558	311082
3.70370	284407
3.71183	271567
3.71995	255958
3.72808	259419
3.73620	249551
3.74432	254369
3.75245	256673
3.76057	258262
3.76868	246897
3.77682	227159
3.78493	222997
3.79307	217038
3.80118	219539
3.80930	218171
3.81743	211931
3.82555	216040
3.83368	215310
3.84180	212494
3.84992	204802
3.85805	200301
3.86617	191231
3.87428	192229
3.88242	187379
3.89053	188017
3.89867	194967
3.90678	184734
3.91490	190701
3.92303	187155
3.93115	182053
3.93928	182051
3.94740	175101
3.95552	178415
3.96365	175045
3.97177	180382
3.97990	169116
3.98802	166994
3.99613	172243
4.00427	180322
4.01238	171820
4.02050	171820
4.02863	176120
4.03675	175383
4.04488	175019
4.05300	176683
4.06112	179427
4.06925	181164
4.07737	175688
4.08550	179607
4.09362	172013
4.10173	167887
4.10987	167599
4.11798	166124
4.12612	195775
4.13423	289968
4.14235	549527
4.15048	882149
4.15860	905763
4.16672	653753
4.17485	416599
4.18297	298835
4.19110	241342
4.19922	228290
4.20733	258689
4.21547	547731
4.22358	1526583
4.23172	2920986
4.23983	3474021
4.24795	2767630
4.25608	1744607
4.26420	1138568
4.27232	801166
4.28045	595188
4.28857	499631
4.29670	412941
4.30482	355532
4.31293	321470
4.32107	294455
4.32918	276366
4.33732	269606
4.34543	252965
4.35355	238114
4.36168	237425
4.36980	230874
4.37793	224978
4.38605	215613
4.39417	211316
4.40230	196728
4.41042	189643
4.41853	194918
4.42667	195127
4.43478	192498
4.44292	193190
4.45103	203493
4.45915	212638
4.46728	213177
4.47540	203529
4.48353	186353
4.49165	186600
4.49977	178011
4.50790	173854
4.51602	171940
4.52413	179741
4.53227	171223
4.54038	168714
4.54852	166707
4.55663	162298
4.56475	167253
4.57288	168219
4.58100	156714
4.58913	159364
4.59725	155758
4.60537	159478
4.61350	159995
4.62162	156395
4.62975	152883
4.63787	151364
4.64598	153581
4.65412	155091
4.66223	151778
4.67035	152710
4.67848	151619
4.68660	148549
4.69473	151640
4.70285	148265
4.71097	144625
4.71910	151492
4.72722	149399
4.73535	144475
4.74347	142604
4.75158	144375
4.75972	145990
4.76783	141288
4.77597	145878
4.78408	144907
4.79220	141699
4.80033	143499
4.80845	155794
4.81657	147753
4.82470	144824
4.83282	141475
4.84095	147243
4.84907	147038
4.85718	148347
4.86532	149037
4.87343	145157
4.88157	149632
4.88968	145066
4.89780	145275
4.90593	156385
4.91405	208083
4.92218	433909
4.93030	1074295
4.93842	2284793
4.94655	3505567
4.95467	4055757
4.96278	3542544
4.97092	2607890
4.97903	1772755
4.98717	1267530
4.99528	917296
5.00340	713960
5.01153	588391
5.01965	489511
5.02778	436156
5.03590	401742
5.04402	360056
5.05215	328167
5.06027	305717
5.06838	283435
5.07652	268538
5.08463	260600
5.09277	282290
5.10088	313230
5.10900	360731
5.11713	408623
5.12525	401363
5.13338	361377
5.14150	304915
5.14962	271829
5.15775	262140
5.16587	276541
5.17400	330911
5.18212	378977
5.19023	412004
5.19837	385491
5.20648	326912
5.21460	276388
5.22273	263705
5.23085	290463
5.23898	334630
5.24710	361480
5.25522	334401
5.26335	328413
5.27147	254558
5.27960	236026
5.28772	230416
5.29583	220072
5.30397	207257
5.31208	198930
5.32020	198628
5.32833	201033
5.33645	199381
5.34458	195489
5.35270	195513
5.36082	187030
5.36895	178597
5.37707	184011
5.38520	173160
5.39332	174498
5.40143	172134
5.40957	157179
5.41768	163587
5.42582	157576
5.43393	161553
5.44205	168283
5.45018	170524
5.45830	163446
5.46642	161860
5.47455	157974
5.48267	161625
5.49080	159613
5.49892	159630
5.50703	161729
5.51517	167188
5.52328	167570
5.53142	158353
5.53953	161944
5.54765	158674
5.55578	159024
5.56390	157653
5.57203	160814
5.58015	159744
5.58827	165566
5.59640	165552
5.60452	166446
5.61263	160659
5.62077	167365
5.62888	175110
5.63702	183330
5.64513	180764
5.65325	177438
5.66138	172545
5.66950	170611
5.67763	166020
5.68575	172299
5.69387	177749
5.70200	179005
5.71012	200105
5.71823	216956
5.72637	240863
5.73448	245260
5.74262	239137
5.75073	224130
5.75885	241523
5.76698	256303
5.77510	259484
5.78323	248313
5.79135	242622
5.79947	267557
5.80760	449454
5.81572	786552
5.82385	1263756
5.83197	1625560
5.84008	1615629
5.84822	1285934
5.85633	896823
5.86445	583860
5.87258	412642
5.88070	330421
5.88883	279994
5.89695	260791
5.90507	298682
5.91320	402027
5.92132	582903
5.92945	752849
5.93757	785482
5.94568	669643
5.95382	480255
5.96193	345158
5.97007	259687
5.97818	214200
5.98630	193968
5.99443	177307
6.00255	158971
6.01067	146431
6.01880	139884
6.02692	134371
6.03505	127287
6.04317	128196
6.05128	125851
6.05942	121656
6.06753	119084
6.07567	120404
6.08378	111719
6.09190	108858
6.10003	113065
6.10815	107322
6.11627	104834
6.12440	107354
6.13252	113442
6.14065	108925
6.14877	111972
6.15688	117302
6.16502	126615
6.17313	134255
6.18127	140574
6.18938	160556
6.19750	172724
6.20563	190036
6.21375	176831
6.22188	156370
6.23000	142467
6.23812	150489
6.24625	138106
6.25437	139013
6.26248	144295
6.27062	139704
6.27873	147769
6.28687	141835
6.29498	149081
6.30310	151266
6.31123	150555
6.31935	156213
6.32748	161249
6.33560	168707
6.34372	171272
6.35185	170536
6.35997	177590
6.36808	177563
6.37622	178363
6.38433	176901
6.39247	170179
6.40058	178996
6.40870	173885
6.41683	180788
6.42495	185784
6.43308	179309
6.44120	187275
6.44932	196891
6.45745	197170
6.46557	198198
6.47370	205037
6.48182	204401
6.48993	206693
6.49807	192194
6.50618	152094
6.51430	147290
6.52243	132113
6.53055	127900
6.53868	130569
6.54680	134799
6.55492	128286
6.56305	123318
6.57117	123885
6.57930	117515
6.58742	118857
6.59553	116107
6.60367	111495
6.61178	113781
6.61992	113272
6.62803	114240
6.63615	109195
6.64428	108897
6.65240	104763
6.66052	104964
6.66865	106385
6.67677	104311
6.68490	102333
6.69302	102438
6.70113	102983
6.70927	108809
6.71738	113879
6.72552	143500
6.73363	188569
6.74175	225727
6.74988	242698
6.75800	257569
6.76612	227901
6.77425	180642
6.78237	151871
6.79050	130109
6.79862	118153
6.80673	106293
6.81487	105135
6.82298	92909
6.83112	96040
6.83923	102514
6.84735	107278
6.85548	143587
6.86360	225631
6.87173	393836
6.87985	668665
6.88797	951075
6.89610	1123326
6.90422	1093413
6.91233	890536
6.92047	609777
6.92858	389361
6.93672	245483
6.94483	172613
6.95295	124080
6.96108	111847
6.96920	97070
6.97733	87766
6.98545	88203
6.99357	78701
7.00170	75724
7.00982	84110
7.01795	120009
7.02607	172661
7.03418	268829
7.04232	394372
7.05043	485873
7.05855	533992
7.06668	485900
7.07480	396358
7.08293	292212
7.09105	227277
7.09917	174666
7.10730	151318
7.11542	129858
7.12355	120919
7.13167	122824
7.13978	110385
7.14792	106759
7.15603	107615
7.16415	102492
7.17228	91988
7.18040	91578
7.18853	93166
7.19665	92954
7.20477	97248
7.21290	109557
7.22102	110644
7.22915	107086
7.23727	109705
7.24538	105015
7.25352	109660
7.26163	115367
7.26977	127793
7.27788	146750
7.28600	175053
7.29413	185456
7.30225	190026
7.31037	171990
7.31850	151425
7.32662	135241
7.33475	130243
7.34287	137146
7.35098	145134
7.35912	143231
7.36723	132081
7.37537	128516
7.38348	131037
7.39160	163342
7.39973	213024
7.40785	296510
7.41597	333543
7.42410	349859
7.43222	313100
7.44035	244907
7.44847	184991
7.45658	148981
7.46472	119653
7.47283	110927
7.48097	108045
7.48908	115871
7.49720	133158
7.50533	172676
7.51345	205377
7.52158	246773
7.52970	261818
7.53782	237694
7.54595	193514
7.55407	155588
7.56218	137044
7.57032	109009
7.57843	95819
7.58657	92856
7.59468	87072
7.60280	83159
7.61093	85514
7.61905	84164
7.62718	87034
7.63530	85358
7.64342	92011
7.65155	85252
7.65967	83223
7.66780	85265
7.67592	78071
7.68403	77281
7.69217	79063
7.70028	78288
7.70840	74678
7.71653	70175
7.72465	70369
7.73278	67333
7.74090	69090
7.74902	69330
7.75715	65494
7.76527	62252
7.77340	66654
7.78152	61424
7.78963	66234
7.79777	66681
7.80588	66411
7.81400	61692
7.82213	65105
7.83025	70836
7.83838	66794
7.84650	64037
7.85462	64993
7.86275	62381
7.87087	66387
7.87900	63297
7.88712	63954
7.89523	66981
7.90337	66497
7.91148	66636
7.91962	68363
7.92773	63364
7.93585	63696
7.94398	61841
7.95210	62375
7.96022	63884
7.96835	61770
7.97647	66610
7.98460	69471
7.99272	67221
8.00083	64504
8.00897	63667
8.01708	62705
8.02522	61173
8.03333	63405
8.04145	63156
8.04958	64172
8.05770	63089
8.06583	63063
8.07395	58198
8.08207	58307
8.09020	57845
8.09832	57934
8.10643	57983
8.11457	56390
8.12268	59735
8.13082	57667
8.13893	58796
8.14705	63602
8.15518	60090
8.16330	61202
8.17143	58078
8.17955	60805
8.18767	67166
8.19580	56586
8.20392	62473
8.21203	57471
8.22017	59630
8.22828	58942
8.23642	58496
8.24453	61759
8.25265	60383
8.26078	57812
8.26890	58677
8.27703	54905
8.28515	55958
8.29327	58297
8.30140	55756
8.30952	56245
8.31765	57212
8.32577	58463
8.33388	59317
8.34202	60024
8.35013	58041
8.35825	61763
8.36638	67079
8.37450	60239
8.38263	60704
8.39075	60505
8.39887	56993
8.40700	56893
8.41512	59006
8.42325	54716
8.43137	53438
8.43948	55616
8.44762	52469
8.45573	53037
8.46387	54906
8.47198	58673
8.48010	56616
8.48823	58033
8.49635	58750
8.50447	64844
8.51260	66727
8.52072	68143
8.52885	61057
8.53697	62459
8.54508	58296
8.55322	57485
8.56133	60560
8.56947	59481
8.57758	60029
8.58570	58241
8.59383	57899
8.60195	54254
8.61007	54957
8.61820	60590
8.62632	57423
8.63445	52178
8.64257	53155
8.65068	55948
8.65882	54674
8.66693	54122
8.67507	54381
8.68318	52129
8.69130	56502
8.69943	54833
8.70755	54414
8.71568	56841
8.72380	69487
8.73192	117697
8.74005	254540
8.74817	516443
8.75628	899501
8.76442	1229914
8.77253	1254233
8.78067	1014135
8.78878	698229
8.79690	469115
8.80503	320616
8.81315	238444
8.82128	186881
8.82940	156590
8.83752	141884
8.84565	127525
8.85377	114622
8.86188	106768
8.87002	104937
8.87813	97250
8.88627	96047
8.89438	90710
8.90250	91136
8.91063	86997
8.91875	87077
8.92688	80131
8.93500	83078
8.94312	83887
8.95125	82900
8.95937	78867
8.96750	76847
8.97562	77972
8.98373	75856
8.99187	75266
8.99998	78756
9.00810	71596
9.01623	70167
9.02435	75719
9.03248	72000
9.04060	70532
9.04872	76449
9.05685	67764
9.06497	71715
9.07310	70081
9.08122	69439
9.08933	74932
9.09747	68458
9.10558	69036
9.11372	68790
9.12183	73812
9.12995	73614
9.13808	69936
9.14620	70185
9.15432	67238
9.16245	63414
9.17057	68908
9.17870	70050
9.18682	66151
9.19493	64990
9.20307	68701
9.21118	60841
9.21932	61929
9.22743	60810
9.23555	59738
9.24368	59434
9.25180	59791
9.25992	57351
9.26805	59960
9.27617	57868
9.28430	56304
9.29242	61860
9.30053	62435
9.30867	58504
9.31678	64099
9.32492	63620
9.33303	56936
9.34115	61743
9.34928	59477
9.35740	66606
9.36553	66977
9.37365	61703
9.38177	56238
9.38990	60836
9.39802	58194
9.40613	58597
9.41427	59923
9.42238	57771
9.43052	59104
9.43863	57994
9.44675	60113
9.45488	55406
9.46300	56577
9.47113	54347
9.47925	57615
9.48737	55157
9.49550	55441
9.50362	53729
9.51175	57137
9.51987	50855
9.52798	54215
9.53612	53473
9.54423	52257
9.55235	47735
9.56048	47531
9.56860	45948
9.57673	45014
9.58485	42626
9.59297	47026
9.60110	43787
9.60922	43888
9.61735	44632
9.62547	42628
9.63358	44074
9.64172	39338
9.64983	41054
9.65795	39002
9.66608	38725
9.67420	37478
9.68233	35972
9.69045	37391
9.69857	36575
9.70670	39886
9.71482	37832
9.72295	44295
9.73107	34677
9.73918	37444
9.74732	38549
9.75543	40288
9.76357	35591
9.77168	35898
9.77980	35437
9.78793	36297
9.79605	35136
9.80417	35861
9.81230	37481
9.82042	38148
9.82855	39953
9.83667	37337
9.84478	40494
9.85292	38222
9.86103	37606
9.86917	40798
9.87728	37385
9.88540	39283
9.89353	41197
9.90165	36755
9.90977	35839
9.91790	39192
9.92602	38320
9.93415	35919
9.94227	38305
9.95038	37849
9.95852	40775
9.96663	40288
9.97477	44161
9.98288	49630
9.99100	49150
9.99913	56338
10.00725	54640
10.01538	48161
10.02350	48075
10.03162	51667
10.03975	43951
10.04787	44070
10.05598	41458
10.06412	36743
10.07223	39635
10.08037	41291
10.08848	41694
10.09660	37949
10.10473	35025
10.11285	36982
10.12098	37298
10.12910	37059
10.13722	39606
10.14535	37665
10.15347	41395
10.16160	37061
10.16972	35410
10.17783	39670
10.18597	34087
10.19408	32861
10.20220	40338
10.21033	37590
10.21845	43368
10.22658	38995
10.23470	39504
10.24282	42468
10.25095	42588
10.25907	40751
10.26720	43104
10.27532	41356
10.28343	44987
10.29157	45460
10.29968	49969
10.30782	47577
10.31593	48442
10.32405	47371
10.33218	47854
10.34030	44422
10.34842	45122
10.35655	41942
10.36467	44794
10.37280	43174
10.38092	41551
10.38903	44849
10.39717	47606
10.40528	43064
10.41342	46676
10.42153	47436
10.42965	42989
10.43778	41203
10.44590	39309
10.45402	37320
10.46215	40529
10.47027	33784
10.47840	39761
10.48652	36234
10.49463	39287
10.50277	40078
10.51088	37778
10.51902	41583
10.52713	43523
10.53525	49001
10.54338	48842
10.55150	47623
10.55963	44560
10.56775	49873
10.57587	47873
10.58400	43737
10.59212	46095
10.60023	46174
10.60837	38651
10.61648	39467
10.62462	42262
10.63273	39130
10.64085	41595
10.64898	36842
10.65710	41618
10.66523	39811
10.67335	44124
10.68147	43768
10.68960	41238
10.69772	41952
10.70583	50712
10.71397	47843
10.72208	52170
10.73022	47362
10.73833	48269
10.74645	48204
10.75458	48198
10.76270	45698
10.77083	48757
10.77895	47659
10.78707	42627
10.79520	45526
10.80332	41517
10.81145	38726
10.81957	44370
10.82768	39456
10.83582	37712
10.84393	38491
10.85205	35877
10.86018	38672
10.86830	36998
10.87643	38645
10.88455	37035
10.89267	35856
10.90080	34049
10.90892	34966
10.91705	36022
10.92517	36383
10.93328	35844
10.94142	33261
10.94953	35973
10.95767	35722
10.96578	35350
10.97390	41702
10.98203	35617
10.99015	33729
10.99827	35572
11.00640	45878
11.01452	37399
11.02265	35594
11.03077	36441
11.03888	33879
11.04702	38745
11.05513	35198
11.06327	35364
11.07138	33468
11.07950	29630
11.08763	31206
11.09575	33125
11.10387	35319
11.11200	39101
11.12012	38073
11.12825	43761
11.13637	51094
11.14448	48637
11.15262	53431
11.16073	50167
11.16887	55254
11.17698	54626
11.18510	54977
11.19323	55735
11.20135	49145
11.20948	50992
11.21760	53934
11.22572	51783
11.23385	53172
11.24197	55380
11.25008	51913
11.25822	53032
11.26633	48730
11.27447	60137
11.28258	73285
11.29070	90418
11.29883	128810
11.30695	169989
11.31508	199203
11.32320	219794
11.33132	216413
11.33945	223859
11.34757	217373
11.35570	189312
11.36382	171573
11.37193	155511
11.38007	128800
11.38818	106546
11.39630	92221
11.40443	83213
11.41255	71983
11.42068	66623
11.42880	64083
11.43692	55676
11.44505	64801
11.45317	55290
11.46130	53099
11.46942	51174
11.47753	46668
11.48567	54892
11.49378	45101
11.50190	46635
11.51003	49395
11.51815	48043
11.52628	57726
11.53440	62982
11.54252	65201
11.55065	74509
11.55877	79461
11.56690	85824
11.57502	84350
11.58313	83529
11.59127	81984
11.59938	84613
11.60752	70867
11.61563	74155
11.62375	66582
11.63188	58298
11.64000	53023
11.64812	51800
11.65625	52428
11.66437	51503
11.67250	53077
11.68062	54746
11.68873	57346
11.69687	57924
11.70498	58267
11.71312	60890
11.72123	66575
11.72935	72843
11.73748	78175
11.74560	84323
11.75372	90522
11.76185	94258
11.76997	95207
11.77810	94145
11.78622	91921
11.79433	85188
11.80247	82646
11.81058	76352
11.81872	69138
11.82683	62811
11.83495	59782
11.84308	56807
11.85120	56217
11.85933	57709
11.86745	52306
11.87557	54713
11.88370	48729
11.89182	48438
11.89993	50460
11.90807	51964
11.91618	49221
11.92432	54090
11.93243	61831
11.94055	68688
11.94868	71784
11.95680	87766
11.96493	93171
11.97305	98587
11.98117	95186
11.98930	93586
11.99742	87133
12.00555	85136
12.01367	77114
12.02178	71994
12.02992	66592
12.03803	63239
12.04615	54035
12.05428	55667
12.06240	50524
12.07053	50617
12.07865	55622
12.08677	55986
12.09490	48685
12.10302	46970
12.11115	47385
12.11927	47329
12.12738	49981
12.13552	42625
12.14363	49335
12.15175	46196
12.15988	46128
12.16800	48037
12.17613	47015
12.18425	49007
12.19237	44739
12.20050	44602
12.20862	44643
12.21675	44374
12.22487	42712
12.23298	42755
12.24112	42004
12.24923	41068
12.25737	45386
12.26548	43584
12.27360	48900
12.28173	45096
12.28985	42417
12.29797	43826
12.30610	46543
12.31422	42744
12.32235	45495
12.33047	47034
12.33858	43655
12.34672	39634
12.35483	42429
12.36297	44609
12.37108	53229
12.37920	50254
12.38733	50506
12.39545	63657
12.40358	70391
12.41170	74574
12.41982	67075
12.42795	67482
12.43607	60639
12.44418	51321
12.45232	50875
12.46043	54342
12.46857	49107
12.47668	51074
12.48480	45083
12.49293	47446
12.50105	44525
12.50918	46834
12.51730	48205
12.52542	47836
12.53355	43019
12.54167	44913
12.54978	47777
12.55792	46542
12.56603	47222
12.57417	43789
12.58228	43613
12.59040	43582
12.59853	44957
12.60665	43633
12.61478	44447
12.62290	42781
12.63102	46756
12.63915	45655
12.64727	44206
12.65540	42828
12.66352	45002
12.67163	42545
12.67977	41306
12.68788	39927
12.69600	43571
12.70413	42566
12.71225	46168
12.72038	45627
12.72850	47649
12.73662	47082
12.74475	46452
12.75287	44719
12.76100	43671
12.76912	49193
12.77723	45839
12.78537	47524
12.79348	55614
12.80162	51022
12.80973	62165
12.81785	64551
12.82598	66908
12.83410	69871
12.84222	65326
12.85035	67931
12.85847	63716
12.86660	61765
12.87472	55596
12.88283	52989
12.89097	54046
12.89908	49020
12.90722	49035
12.91533	47764
12.92345	49771
12.93158	48066
12.93970	49897
12.94782	56432
12.95595	68966
12.96407	92239
12.97220	129912
12.98032	157971
12.98843	191430
12.99657	217690
13.00468	238250
13.01282	226993
13.02093	208012
13.02905	185621
13.03718	155244
13.04530	126763
13.05343	109601
13.06155	92236
13.06967	81335
13.07780	75887
13.08592	67454
13.09403	64702
13.10217	66526
13.11028	66979
13.11842	62035
13.12653	60197
13.13465	50779
13.14278	55250
13.15090	57895
13.15903	52564
13.16715	55461
13.17527	58123
13.18340	54174
13.19152	54850
13.19963	58624
13.20777	55268
13.21588	56918
13.22402	55484
13.23213	50727
13.24025	54157
13.24838	52206
13.25650	56212
13.26463	63965
13.27275	77547
13.28087	83929
13.28900	90915
13.29712	96627
13.30525	99088
13.31337	99758
13.32148	98102
13.32962	97558
13.33773	98059
13.34585	99730
13.35398	97957
13.36210	101611
13.37023	95321
13.37835	84436
13.38647	79809
13.39460	76004
13.40272	68189
13.41085	66344
13.41897	60579
13.42708	61072
13.43522	59730
13.44333	55586
13.45147	56576
13.45958	56742
13.46770	56892
13.47583	53049
13.48395	53653
13.49207	49910
13.50020	52280
13.50832	52886
13.51645	47950
13.52457	49967
13.53268	52108
13.54082	55250
13.54893	57127
13.55707	61945
13.56518	67473
13.57330	80479
13.58143	85278
13.58955	92999
13.59767	91315
13.60580	92439
13.61392	91954
13.62205	100397
13.63017	104266
13.63828	110571
13.64642	114389
13.65453	122479
13.66267	123481
13.67078	120520
13.67890	110968
13.68703	101114
13.69515	97883
13.70328	81652
13.71140	77454
13.71952	75273
13.72765	69408
13.73577	66501
13.74388	67400
13.75202	69813
13.76013	68266
13.76827	67191
13.77638	66775
13.78450	66442
13.79263	65258
13.80075	62864
13.80888	60579
13.81700	61298
13.82512	57726
13.83325	54254
13.84137	57044
13.84950	52636
13.85762	54692
13.86573	54770
13.87387	56961
13.88198	60296
13.89010	61163
13.89823	68902
13.90635	73919
13.91448	80772
13.92260	84494
13.93072	89567
13.93885	90961
13.94697	95835
13.95510	92190
13.96322	86847
13.97133	82170
13.97947	79270
13.98758	76417
13.99570	74708
14.00383	79335
14.01195	76339
14.02008	72363
14.02820	73531
14.03632	69710
14.04445	69972
14.05257	69350
14.06070	63883
14.06882	60538
14.07693	58930
14.08507	59012
14.09318	58459
14.10132	53834
14.10943	51351
14.11755	56796
14.12568	56600
14.13380	76466
14.14192	121623
14.15005	203701
14.15817	294836
14.16630	392726
14.17442	421134
14.18253	369626
14.19067	282536
14.19878	197798
14.20692	156205
14.21503	135234
14.22315	113987
14.23128	102224
14.23940	94962
14.24752	89280
14.25565	86467
14.26377	78272
14.27190	75976
14.28002	72960
14.28813	68522
14.29627	63766
14.30438	62430
14.31252	56896
14.32063	55785
14.32875	48840
14.33688	47611
14.34500	43217
14.35313	40541
14.36125	38848
14.36937	38069
14.37750	37763
14.38562	43444
14.39373	40320
14.40187	41525
14.40998	42229
14.41812	40982
14.42623	40441
14.43435	38949
14.44248	37539
14.45060	36767
14.45873	38686
14.46685	38830
14.47497	37560
14.48310	37343
14.49122	37533
14.49935	34962
14.50747	32847
14.51558	38612
14.52372	37903
14.53183	35557
14.53995	36111
14.54808	35323
14.55620	37027
14.56433	37122
14.57245	43306
14.58057	39122
14.58870	39276
14.59682	36905
14.60495	34201
14.61307	35286
14.62118	37211
14.62932	32947
14.63743	37764
14.64557	35565
14.65368	34109
14.66180	38026
14.66993	36096
14.67805	34796
14.68617	33793
14.69430	33614
14.70242	34394
14.71055	33154
14.71867	30515
14.72678	29545
14.73492	34601
14.74303	34229
14.75117	31764
14.75928	35777
14.76740	37461
14.77553	36608
14.78365	33129
14.79177	34900
14.79990	35545
14.80802	32055
14.81615	36109
14.82427	36623
14.83238	39004
14.84052	38014
14.84863	40611
14.85677	37147
14.86488	38683
14.87300	38363
14.88113	36138
14.88925	37780
14.89738	34898
14.90550	36564
14.91362	35684
14.92175	34544
14.92987	33100
14.93798	33430
14.94612	36960
14.95423	40703
14.96237	34022
14.97048	35118
14.97860	36019
14.98673	36441
14.99485	33582
15.00298	36738
15.01110	34336
15.01922	34968
15.02735	35887
15.03547	35526
15.04358	31679
15.05172	37223
15.05983	34699
15.06797	32573
15.07608	31554
15.08420	32057
15.09233	35397
15.10045	33686
15.10858	33502
15.11670	35289
15.12482	33226
15.13295	33825
15.14107	36332
15.14920	35678
15.15732	35976
15.16543	31859
15.17357	31170
15.18168	35403
15.18980	33893
15.19793	32584
15.20605	33021
15.21418	34321
15.22230	32288
15.23042	32648
15.23855	33342
15.24667	31435
15.25480	31689
15.26292	33438
15.27103	34147
15.27917	31104
15.28728	32290
15.29542	34025
15.30353	32079
15.31165	30634
15.31978	30865
15.32790	28474
15.33602	31929
15.34415	31830
15.35227	30417
15.36040	30066
15.36852	32036
15.37663	29842
15.38477	30436
15.39288	31749
15.40102	29596
15.40913	30384
15.41725	33101
15.42538	30314
15.43350	29525
15.44162	33351
15.44975	39567
15.45787	32024
15.46600	31833
15.47412	29745
15.48223	34059
15.49037	31149
15.49848	35739
15.50662	35003
15.51473	33506
15.52285	34532
15.53098	32719
15.53910	32207
15.54723	34615
15.55535	28951
15.56347	30752
15.57160	34508
15.57972	36035
15.58783	35309
15.59597	32014
15.60408	30481
15.61222	29474
15.62033	31301
15.62845	28765
15.63658	32872
15.64470	31294
15.65283	38999
15.66095	29473
15.66907	32947
15.67720	30802
15.68532	30596
15.69345	31494
15.70157	31446
15.70968	29366
15.71782	31961
15.72593	31688
15.73405	37017
15.74218	32339
15.75030	31141
15.75843	36287
15.76655	34324
15.77467	32868
15.78280	32018
15.79092	32553
15.79905	34769
15.80717	33585
15.81528	36282
15.82342	35320
15.83153	31063
15.83965	31326
15.84778	33150
15.85590	32631
15.86403	33657
15.87215	29962
15.88027	30021
15.88840	32332
15.89652	29737
15.90465	30722
15.91277	30265
15.92088	34323
15.92902	32953
15.93713	34896
15.94527	29700
15.95338	30982
15.96150	30064
15.96963	35105
15.97775	30164
15.98587	32528
15.99400	34577
16.00212	35169
16.01025	39471
16.01837	39472
16.02648	43726
16.03462	43094
16.04273	41872
16.05087	38180
16.05898	44572
16.06710	34937
16.07523	37080
16.08335	38471
16.09147	31939
16.09960	32335
16.10772	32328
16.11585	32013
16.12397	33547
16.13208	33941
16.14022	31234
16.14833	30991
16.15647	30733
16.16458	34251
16.17270	31367
16.18083	38790
16.18895	30881
16.19708	32629
16.20520	34163
16.21332	33075
16.22145	35239
16.22957	34238
16.23768	33986
16.24582	32718
16.25393	32559
16.26207	34706
16.27018	32965
16.27830	33778
16.28643	32863
16.29455	32451
16.30268	32876
16.31080	32796
16.31892	36648
16.32705	35460
16.33517	36926
16.34330	39213
16.35142	37231
16.35953	34063
16.36767	33309
16.37578	33162
16.38390	33287
16.39203	34030
16.40015	33361
16.40828	34803
16.41640	32889
16.42452	32083
16.43265	30578
16.44077	33332
16.44890	35278
16.45702	31140
16.46513	35929
16.47327	35602
16.48138	36683
16.48950	39288
16.49763	35419
16.50575	30947
16.51388	35275
16.52200	39020
16.53012	34829
16.53825	35985
16.54637	35018
16.55450	35137
16.56262	37029
16.57073	36714
16.57887	34021
16.58698	34024
16.59512	37903
16.60323	34919
16.61135	37826
16.61948	34755
16.62760	36799
16.63572	36800
16.64385	34450
16.65197	35556
16.66010	32840
16.66822	34427
16.67633	36183
16.68447	31993
16.69258	31835
16.70072	35916
16.70883	34974
16.71695	32574
16.72508	33501
16.73320	30560
16.74133	33246
16.74945	35319
16.75757	35149
16.76570	35031
16.77382	31605
16.78193	35014
16.79007	32435
16.79818	35462
16.80632	35374
16.81443	34563
16.82255	34305
16.83068	34229
16.83880	37146
16.84693	35278
16.85505	35621
16.86317	36367
16.87130	38333
16.87942	37705
16.88753	34053
16.89567	37283
16.90378	38916
16.91192	32488
16.92003	34966
16.92815	35158
16.93628	33195
16.94440	38003
16.95253	41705
16.96065	39138
16.96877	34770
16.97690	36276
16.98502	34322
16.99315	33711
17.00127	34843
17.00938	34202
17.01752	35068
17.02563	34466
17.03375	33035
17.04188	33752
17.05000	34187
17.05813	38526
17.06625	34515
17.07437	36913
17.08250	38290
17.09062	36774
17.09875	36797
17.10687	37035
17.11498	35273
17.12312	36815
17.13123	39543
17.13935	39851
17.14748	39451
17.15560	39586
17.16373	37960
17.17185	35266
17.17997	33125
17.18810	37984
17.19622	32119
17.20435	35290
17.21247	36209
17.22058	35656
17.22872	36534
17.23683	36346
17.24497	35968
17.25308	37954
17.26120	37836
17.26933	35801
17.27745	35926
17.28557	36123
17.29370	36661
17.30182	34653
17.30995	35124
17.31807	36664
17.32618	38321
17.33432	40461
17.34243	39782
17.35057	40227
17.35868	40065
17.36680	43113
17.37493	42436
17.38305	43622
17.39118	43997
17.39930	43972
17.40742	49656
17.41555	44089
17.42367	51057
17.43178	42660
17.43992	44934
17.44803	43125
17.45617	43404
17.46428	42211
17.47240	39227
17.48053	40405
17.48865	38795
17.49678	39223
17.50490	43848
17.51302	46870
17.52115	47198
17.52927	55750
17.53738	62924
17.54552	71642
17.55363	77456
17.56177	76400
17.56988	81365
17.57800	72664
17.58613	66735
17.59425	59470
17.60238	54457
17.61050	54907
17.61862	42839
17.62675	38960
17.63487	41466
17.64300	40229
17.65112	37683
17.65923	43158
17.66737	42589
17.67548	43459
17.68360	43601
17.69173	37326
17.69985	47338
17.70798	43286
17.71610	41997
17.72422	38646
17.73235	40839
17.74047	40993
17.74860	47434
17.75672	41717
17.76483	41099
17.77297	36689
17.78108	37828
17.78922	36578
17.79733	36525
17.80545	39678
17.81358	35945
17.82170	37334
17.82982	40810
17.83795	41170
17.84607	44327
17.85420	43540
17.86232	46660
17.87043	48326
17.87857	51063
17.88668	42196
17.89482	40017
17.90293	38328
17.91105	39121
17.91918	35252
17.92730	35873
17.93542	37232
17.94355	34550
17.95167	38163
17.95980	40004
17.96792	33596
17.97603	36337
17.98417	38197
17.99228	38186
18.00042	37721
18.00853	37652
18.01665	38392
18.02478	43129
18.03290	42314
18.04103	42014
18.04915	44210
18.05727	44157
18.06540	45049
18.07352	43216
18.08163	43266
18.08977	48231
18.09788	46808
18.10602	45306
18.11413	47275
18.12225	50826
18.13038	46209
18.13850	47320
18.14663	44580
18.15475	43958
18.16287	45567
18.17100	47124
18.17912	51839
18.18725	43749
18.19537	41480
18.20348	41778
18.21162	44605
18.21973	43816
18.22785	44723
18.23598	43270
18.24410	45095
18.25223	49150
18.26035	44942
18.26847	44686
18.27660	44814
18.28472	41345
18.29285	40802
18.30097	39434
18.30908	39956
18.31722	40838
18.32533	39361
18.33345	44085
18.34158	45913
18.34970	51360
18.35783	55689
18.36595	60798
18.37407	59453
18.38220	62335
18.39032	66780
18.39845	71189
18.40657	65065
18.41468	68955
18.42282	64412
18.43093	73110
18.43907	63357
18.44718	69897
18.45530	66293
18.46343	60771
18.47155	68024
18.47967	67214
18.48780	64938
18.49592	65509
18.50405	59971
18.51217	62494
18.52028	58179
18.52842	56923
18.53653	61530
18.54467	61182
18.55278	56863
18.56090	56215
18.56903	59977
18.57715	63364
18.58527	60638
18.59340	59089
18.60152	64136
18.60965	59596
18.61777	62357
18.62588	65787
18.63402	61384
18.64213	56136
18.65027	56249
18.65838	57147
18.66650	57309
18.67463	55671
18.68275	54198
18.69088	55278
18.69900	56145
18.70712	51912
18.71525	55319
18.72337	54887
18.73148	49694
18.73962	45959
18.74773	47908
18.75587	46869
18.76398	48007
18.77210	45368
18.78023	43161
18.78835	46079
18.79648	46776
18.80460	55686
18.81272	43802
18.82085	43256
18.82897	48748
18.83710	46901
18.84522	49294
18.85333	44903
18.86147	47870
18.86958	50232
18.87770	46543
18.88583	51017
18.89395	49158
18.90208	48016
18.91020	50720
18.91832	53094
18.92645	48779
18.93457	46527
18.94270	46266
18.95082	46378
18.95893	44432
18.96707	43726
18.97518	43236
18.98330	42389
18.99143	45647
18.99955	44996
19.00768	47446
19.01580	48994
19.02392	49710
19.03205	51666
19.04017	52931
19.04830	48799
19.05642	50738
19.06453	49929
19.07267	50152
19.08078	53345
19.08892	54992
19.09703	55752
19.10515	64630
19.11328	68027
19.12140	70743
19.12952	80321
19.13765	80219
19.14577	94619
19.15390	103667
19.16202	107600
19.17013	108719
19.17827	108538
19.18638	102864
19.19452	96581
19.20263	88594
19.21075	84625
19.21888	87322
19.22700	84808
19.23513	80735
19.24325	78705
19.25137	80519
19.25950	85382
19.26762	81951
19.27573	82304
19.28387	83530
19.29198	83441
19.30012	92582
19.30823	84335
19.31635	83047
19.32448	84780
19.33260	80938
19.34073	81180
19.34885	80729
19.35697	74746
19.36510	79332
19.37322	81658
19.38133	78608
19.38947	79430
19.39758	72377
19.40572	73734
19.41383	82524
19.42195	81618
19.43008	93348
19.43820	103666
19.44633	134188
19.45445	180168
19.46257	211445
19.47070	235173
19.47882	216827
19.48695	163885
19.49507	125396
19.50318	90347
19.51132	71853
19.51943	62431
19.52755	57759
19.53568	55943
19.54380	55189
19.55193	55783
19.56005	53203
19.56817	53615
19.57630	52685
19.58442	50916
19.59255	51416
19.60067	49113
19.60878	49576
19.61692	51668
19.62503	64041
19.63315	71699
19.64128	80563
19.64940	92843
19.65753	106705
19.66565	111806
19.67377	101583
19.68190	91924
19.69002	83138
19.69815	73718
19.70627	67243
19.71438	64354
19.72252	60536
19.73063	62974
19.73877	57760
19.74688	56669
19.75500	55473
19.76313	55868
19.77125	54608
19.77937	55700
19.78750	55068
19.79562	55023
19.80375	55938
19.81187	52571
19.81998	57008
19.82812	53004
19.83623	54983
19.84437	56832
19.85248	57571
19.86060	70429
19.86873	66536
19.87685	83041
19.88498	97937
19.89310	131326
19.90122	147218
19.90935	169567
19.91747	178837
19.92558	186074
19.93372	180013
19.94183	178065
19.94997	169698
19.95808	165911
19.96620	161698
19.97433	154339
19.98245	149038
19.99058	142936
19.99870	145267
20.00682	136909
20.01495	129660
20.02307	132164
20.03120	114736
20.03932	111178
20.04743	101003
20.05557	89819
20.06368	78464
20.07180	72682
20.07993	70964
20.08805	67803
20.09618	69742
20.10430	64435
20.11242	68636
20.12055	64404
20.12867	65588
20.13680	67135
20.14492	65821
20.15303	65602
20.16117	64972
20.16928	69542
20.17740	68996
20.18553	69598
20.19365	73447
20.20178	72944
20.20990	70919
20.21802	70145
20.22615	71603
20.23427	79353
20.24240	88245
20.25052	95232
20.25863	98151
20.26677	110125
20.27488	102159
20.28302	92800
20.29113	81361
20.29925	74552
20.30738	68848
20.31550	59999
20.32362	58495
20.33175	52855
20.33987	49403
20.34800	48653
20.35612	49168
20.36423	43881
20.37237	42643
20.38048	44016
20.38862	47530
20.39673	48343
20.40485	49645
20.41298	53432
20.42110	53458
20.42922	51971
20.43735	52893
20.44547	53276
20.45360	47518
20.46172	45216
20.46983	45489
20.47797	50923
20.48608	43907
20.49422	43496
20.50233	43657
20.51045	40969
20.51858	42838
20.52670	39333
20.53483	38686
20.54295	37944
20.55107	42246
20.55920	43405
20.56732	37658
20.57543	40902
20.58357	39522
20.59168	40563
20.59982	42012
20.60793	40382
20.61605	38670
20.62418	36918
20.63230	38726
20.64043	36288
20.64855	38612
20.65667	35992
20.66480	38884
20.67292	37586
20.68105	40768
20.68917	37876
20.69728	41911
20.70542	40429
20.71353	45506
20.72165	38564
20.72978	36669
20.73790	40250
20.74603	41795
20.75415	39582
20.76227	38414
20.77040	38642
20.77852	41422
20.78665	41722
20.79477	43169
20.80288	39770
20.81102	41888
20.81913	40314
20.82725	38790
20.83538	39092
20.84350	40343
20.85163	38362
20.85975	38618
20.86787	38778
20.87600	40070
20.88412	40261
20.89225	37778
20.90037	38002
20.90848	35260
20.91662	35563
20.92473	36116
20.93287	37232
20.94098	38191
20.94910	37393
20.95723	39745
20.96535	40323
20.97347	39070
20.98160	39657
20.98972	34798
20.99785	34613
21.00597	37384
21.01408	40393
21.02222	39544
21.03033	34605
21.03847	36321
21.04658	39809
21.05470	34984
21.06283	39096
21.07095	39165
21.07908	38872
21.08720	40782
21.09532	36603
21.10345	40397
21.11157	35534
21.11968	40890
21.12782	38679
21.13593	39825
21.14407	40857
21.15218	45800
21.16030	41252
21.16843	41225
21.17655	36193
21.18468	43134
21.19280	41097
21.20092	36470
21.20905	40329
21.21717	39464
21.22528	39445
21.23342	40745
21.24153	42054
21.24967	38469
21.25778	39756
21.26590	46567
21.27403	43719
21.28215	44659
21.29028	45096
21.29840	40743
21.30652	37848
21.31465	41205
21.32277	46313
21.33090	40111
21.33902	41788
21.34713	45381
21.35527	40649
21.36338	43055
21.37150	43185
21.37963	46547
21.38775	44949
21.39588	43984
21.40400	44501
21.41212	42235
21.42025	43696
21.42837	42556
21.43650	46619
21.44462	45276
21.45273	47507
21.46087	46589
21.46898	45557
21.47710	44015
21.48523	44379
21.49335	41341
21.50148	43062
21.50960	45466
21.51772	45763
21.52585	46983
21.53397	46423
21.54210	49796
21.55022	48155
21.55833	51158
21.56647	48747
21.57458	48547
21.58272	55625
21.59083	62159
21.59895	65726
21.60708	68109
21.61520	66003
21.62332	61991
21.63145	61833
21.63957	57244
21.64770	52067
21.65582	53222
21.66393	51143
21.67207	49715
21.68018	46426
21.68832	47061
21.69643	48434
21.70455	43359
21.71268	43077
21.72080	49131
21.72893	44786
21.73705	47964
21.74517	43690
21.75330	46343
21.76142	47873
21.76953	47705
21.77767	49357
21.78578	55898
21.79392	55440
21.80203	56209
21.81015	53171
21.81828	58379
21.82640	51337
21.83453	48531
21.84265	44880
21.85077	44638
21.85890	41783
21.86702	41567
21.87513	41544
21.88327	41379
21.89138	39659
21.89952	48662
21.90763	41700
21.91575	42022
21.92388	41207
21.93200	40544
21.94013	43506
21.94825	39844
21.95637	43469
21.96450	36947
21.97262	41604
21.98075	41040
21.98887	41393
21.99698	41593
22.00512	41048
22.01323	42876
22.02135	39232
22.02948	46710
22.03760	50745
22.04573	46741
22.05385	49827
22.06197	49346
22.07010	48132
22.07822	50573
22.08635	51577
22.09447	50442
22.10258	51216
22.11072	46867
22.11883	49196
22.12697	46131
22.13508	49912
22.14320	43355
22.15133	44595
22.15945	40471
22.16757	43999
22.17570	44974
22.18382	45474
22.19195	42293
22.20007	40744
22.20818	44134
22.21632	39779
22.22443	36278
22.23257	41262
22.24068	40792
22.24880	41044
22.25693	40104
22.26505	39026
22.27317	41330
22.28130	33687
22.28942	39795
22.29755	41406
22.30567	39177
22.31378	39961
22.32192	41075
22.33003	40241
22.33817	36559
22.34628	37272
22.35440	40004
22.36253	39771
22.37065	38777
22.37878	39412
22.38690	37643
22.39502	41554
22.40315	40848
22.41127	36901
22.41938	36164
22.42752	39619
22.43563	37401
22.44377	39392
22.45188	39334
22.46000	37768
22.46813	36724
22.47625	37949
22.48438	34904
22.49250	39673
22.50062	35656
22.50875	35072
22.51687	40028
22.52500	36067
22.53312	38222
22.54123	37065
22.54937	37773
22.55748	38953
22.56560	38803
22.57373	38332
22.58185	37708
22.58998	36156
22.59810	34660
22.60622	34489
22.61435	34859
22.62247	37565
22.63060	37524
22.63872	36109
22.64683	34912
22.65497	35411
22.66308	40700
22.67120	39204
22.67933	34653
22.68745	33966
22.69558	36029
22.70370	34295
22.71182	36400
22.71995	39463
22.72807	39294
22.73620	38104
22.74432	39626
22.75243	34378
22.76057	37380
22.76868	37109
22.77682	37011
22.78493	38167
22.79305	38844
22.80118	39481
22.80930	37961
22.81742	35814
22.82555	38162
22.83367	40465
22.84180	37390
22.84992	38338
22.85803	43220
22.86617	39909
22.87428	40278
22.88242	42847
22.89053	45349
22.89865	48040
22.90678	52140
22.91490	51012
22.92302	57933
22.93115	57161
22.93927	60581
22.94740	61698
22.95552	62692
22.96363	59138
22.97177	58985
22.97988	51256
22.98802	53781
22.99613	50830
23.00425	52280
23.01238	46737
23.02050	45692
23.02863	43518
23.03675	45489
23.04487	42260
23.05300	44977
23.06112	43505
23.06923	38294
23.07737	41799
23.08548	41813
23.09362	39801
23.10173	42250
23.10985	40343
23.11798	42829
23.12610	45814
23.13423	38845
23.14235	42387
23.15047	40294
23.15860	43357
23.16672	43984
23.17485	38796
23.18297	44705
23.19108	46405
23.19922	46324
23.20733	44987
23.21545	43418
23.22358	46571
23.23170	46058
23.23983	46201
23.24795	42347
23.25607	45973
23.26420	51575
23.27232	50736
23.28045	52539
23.28857	52536
23.29668	55474
23.30482	56107
23.31293	54403
23.32105	56032
23.32918	54922
23.33730	56912
23.34543	61332
23.35355	60130
23.36167	62671
23.36980	62098
23.37792	64124
23.38605	64521
23.39417	63205
23.40228	66164
23.41042	69049
23.41853	64478
23.42667	65978
23.43478	66542
23.44290	63400
23.45103	66985
23.45915	70323
23.46727	68000
23.47540	67535
23.48352	65343
23.49165	69688
23.49977	67138
23.50788	70346
23.51602	68961
23.52413	70578
23.53227	73910
23.54038	77309
23.54850	77272
23.55663	75134
23.56475	77843
23.57288	77002
23.58100	76797
23.58912	80178
23.59725	76616
23.60537	78664
23.61348	76896
23.62162	76703
23.62973	77341
23.63787	77966
23.64598	78430
23.65410	82128
23.66223	80082
23.67035	85517
23.67848	82939
23.68660	81798
23.69472	82396
23.70285	78444
23.71097	78950
23.71908	86673
23.72722	98375
23.73533	154017
23.74347	296377
23.75158	613759
23.75970	1181953
23.76783	1937646
23.77595	2652830
23.78408	2968172
23.79220	2838111
23.80032	2326138
23.80845	1790394
23.81657	1306312
23.82470	953723
23.83282	718982
23.84093	565032
23.84907	453981
23.85718	363372
23.86530	306214
23.87343	274883
23.88155	241678
23.88968	227413
23.89780	204040
23.90592	180847
23.91405	164754
23.92217	159985
23.93030	148561
23.93842	137700
23.94653	133746
23.95467	121904
23.96278	125700
23.97090	119896
23.97903	115708
23.98715	107412
23.99528	105161
24.00340	105860
24.01152	96504
24.01965	101248
24.02777	96722
24.03590	95034
24.04402	96945
24.05213	89224
24.06027	93105
24.06838	86507
24.07652	85482
24.08463	94244
24.09275	92571
24.10088	87299
24.10900	85988
24.11712	88192
24.12525	85827
24.13337	81599
24.14150	78382
24.14962	79611
24.15773	79193
24.16587	87880
24.17398	90560
24.18212	87345
24.19023	92141
24.19835	89079
24.20648	77700
24.21460	78011
24.22273	72957
24.23085	71448
24.23897	64835
24.24710	60556
24.25522	61673
24.26333	60464
24.27147	65108
24.27958	64139
24.28772	67745
24.29583	79906
24.30395	92039
24.31208	118341
24.32020	145672
24.32833	180191
24.33645	218003
24.34457	235258
24.35270	236088
24.36082	236819
24.36895	178841
24.37707	136861
24.38518	94742
24.39332	80410
24.40143	65543
24.40955	66750
24.41768	64893
24.42580	64193
24.43393	68194
24.44205	64892
24.45017	67955
24.45830	70250
24.46642	68205
24.47455	64455
24.48267	66310
24.49078	66518
24.49892	53977
24.50703	55685
24.51515	53152
24.52328	55336
24.53140	53451
24.53953	52247
24.54765	47991
24.55577	57147
24.56390	48821
24.57202	48757
24.58015	50384
24.58827	50279
24.59638	52110
24.60452	47155
24.61263	50215
24.62077	50748
24.62888	49064
24.63700	48826
24.64513	48405
24.65325	50143
24.66137	48029
24.66950	45444
24.67762	48962
24.68575	49389
24.69387	45606
24.70198	43332
24.71012	45423
24.71823	46223
24.72637	42753
24.73448	43625
24.74260	46466
24.75073	41944
24.75885	40539
24.76697	40022
24.77510	45027
24.78322	42822
24.79135	44167
24.79947	48358
24.80758	43760
24.81572	42288
24.82383	45859
24.83197	43232
24.84008	42850
24.84820	42948
24.85633	43410
24.86445	44854
24.87258	40330
24.88070	39005
24.88882	38108
24.89695	44889
24.90507	45555
24.91318	40936
24.92132	41554
24.92943	39311
24.93757	39879
24.94568	41356
24.95380	40591
24.96193	41502
24.97005	44987
24.97818	41002
24.98630	40652
24.99442	42413
25.00255	44566
25.01067	44057
25.01878	44002
25.02692	40302
25.03503	40552
25.04317	45217
25.05128	43004
25.05940	42503
25.06753	39391
25.07565	39519
25.08378	37659
25.09190	40355
25.10002	41730
25.10815	43122
25.11627	43373
25.12440	46492
25.13252	47970
25.14063	49741
25.14877	45224
25.15688	45660
25.16500	44571
25.17313	45798
25.18125	37713
25.18938	42655
25.19750	38349
25.20562	40160
25.21375	40536
25.22187	39210
25.23000	38978
25.23812	39868
25.24623	39966
25.25437	38273
25.26248	36319
25.27062	42024
25.27873	40395
25.28685	43254
25.29498	47881
25.30310	47094
25.31122	51056
25.31935	54842
25.32747	49717
25.33560	43103
25.34372	41585
25.35183	40008
25.35997	39204
25.36808	39258
25.37622	35787
25.38433	40586
25.39245	37727
25.40058	39695
25.40870	37681
25.41683	39314
25.42495	39857
25.43307	43457
25.44120	39108
25.44932	37254
25.45743	37147
25.46557	41947
25.47368	35857
25.48182	37173
25.48993	39019
25.49805	33055
25.50618	34482
25.51430	34236
25.52243	33980
25.53055	36839
25.53867	36149
25.54680	33138
25.55492	41005
25.56303	34621
25.57117	35017
25.57928	34477
25.58742	32095
25.59553	32226
25.60365	32709
25.61178	34949
25.61990	32926
25.62803	34389
25.63615	34313
25.64427	36030
25.65240	32634
25.66052	34128
25.66865	32839
25.67677	34534
25.68488	36393
25.69302	34746
25.70113	34959
25.70925	34311
25.71738	32459
25.72550	36159
25.73363	35173
25.74175	35432
25.74987	31865
25.75800	36856
25.76612	38142
25.77425	36055
25.78237	34591
25.79048	32184
25.79862	37616
25.80673	35167
25.81485	33580
25.82298	36672
25.83110	34378
25.83923	35460
25.84735	32912
25.85547	33571
25.86360	32628
25.87172	33235
25.87985	33046
25.88797	30825
25.89608	30979
25.90422	33281
25.91233	32988
25.92047	32810
25.92858	31641
25.93670	32052
25.94483	38183
25.95295	31213
25.96107	33664
25.96920	30736
25.97732	32849
25.98545	35060
25.99357	33323
26.00168	31787
26.00982	32352
26.01793	37386
26.02607	34289
26.03418	32303
26.04230	35147
26.05043	34041
26.05855	32475
26.06668	35793
26.07480	34143
26.08292	33055
26.09105	30171
26.09917	33884
26.10728	35188
26.11542	35319
26.12353	38623
26.13167	39552
26.13978	41564
26.14790	46184
26.15603	40490
26.16415	37645
26.17228	38410
26.18040	35302
26.18852	34503
26.19665	36007
26.20477	36331
26.21288	34376
26.22102	37305
26.22913	32195
26.23727	38658
26.24538	32639
26.25350	33481
26.26163	33505
26.26975	35881
26.27788	36227
26.28600	33417
26.29412	37442
26.30225	31330
26.31037	33166
26.31850	31700
26.32662	34056
26.33473	32838
26.34287	36501
26.35098	34258
26.35910	32575
26.36723	36814
26.37535	35232
26.38348	36846
26.39160	36389
26.39972	39277
26.40785	34821
26.41597	36955
26.42410	35085
26.43222	36335
26.44033	34040
26.44847	31764
26.45658	33374
26.46472	34448
26.47283	33800
26.48095	31522
26.48908	34682
26.49720	33036
26.50532	33986
26.51345	33416
26.52157	29520
26.52970	32082
26.53782	31315
26.54593	32268
26.55407	34423
26.56218	34575
26.57032	32807
26.57843	35101
26.58655	39583
26.59468	31716
26.60280	31833
26.61092	34008
26.61905	34864
26.62717	33391
26.63530	32161
26.64342	28900
26.65153	35092
26.65967	31280
26.66778	34713
26.67592	35689
26.68403	35695
26.69215	35278
26.70028	35109
26.70840	32882
26.71653	35976
26.72465	35630
26.73277	37642
26.74090	35897
26.74902	37730
26.75713	34694
26.76527	37594
26.77338	38695
26.78152	35018
26.78963	38758
26.79775	36465
26.80588	43275
26.81400	38411
26.82213	41740
26.83025	38232
26.83837	34393
26.84650	32039
26.85462	32321
26.86273	37756
26.87087	43695
26.87898	40513
26.88712	38486
26.89523	43460
26.90335	43432
26.91148	44393
26.91960	41878
26.92773	49828
26.93585	53906
26.94397	70230
26.95210	94786
26.96022	155659
26.96835	245771
26.97647	392568
26.98458	580392
26.99272	760878
27.00083	893538
27.00895	914056
27.01708	837891
27.02520	744954
27.03333	554313
27.04145	438435
27.04957	341671
27.05770	264930
27.06582	207195
27.07395	181194
27.08207	160865
27.09018	133752
27.09832	117791
27.10643	109589
27.11457	100502
27.12268	91722
27.13080	89873
27.13893	83771
27.14705	80291
27.15517	79225
27.16330	74290
27.17142	71942
27.17955	67304
27.18767	67094
27.19578	63512
27.20392	66628
27.21203	60778
27.22017	62644
27.22828	60017
27.23640	57236
27.24453	55954
27.25265	53671
27.26077	54940
27.26890	52543
27.27702	52408
27.28515	53592
27.29327	52609
27.30138	54130
27.30952	50836
27.31763	52261
27.32577	47268
27.33388	50673
27.34200	43616
27.35013	44619
27.35825	43787
27.36638	48562
27.37450	48655
27.38262	45365
27.39075	48199
27.39887	48660
27.40698	46100
27.41512	46906
27.42323	45797
27.43137	45553
27.43948	45104
27.44760	41489
27.45573	45012
27.46385	43391
27.47198	40992
27.48010	48354
27.48822	45445
27.49635	41807
27.50447	45362
27.51260	41462
27.52072	40060
27.52883	46789
27.53697	45967
27.54508	42009
27.55320	42825
27.56133	45143
27.56945	44631
27.57758	41995
27.58570	40773
27.59382	41014
27.60195	41301
27.61007	41314
27.61820	42647
27.62632	38060
27.63443	37371
27.64257	38651
27.65068	37225
27.65880	37986
27.66693	37361
27.67505	39268
27.68318	37758
27.69130	37412
27.69942	41591
27.70755	41742
27.71567	41517
27.72380	45895
27.73192	50695
27.74003	56657
27.74817	55654
27.75628	56608
27.76442	58214
27.77253	47205
27.78065	42527
27.78878	37246
27.79690	35739
27.80502	39167
27.81315	37869
27.82127	38343
27.82940	40263
27.83752	37627
27.84563	37523
27.85377	39073
27.86188	38725
27.87002	40269
27.87813	38569
27.88625	39812
27.89438	36118
27.90250	35074
27.91063	38806
27.91875	37486
27.92687	36060
27.93500	38406
27.94312	41665
27.95123	40646
27.95937	41548
27.96748	42772
27.97562	42796
27.98373	41396
27.99185	48896
27.99998	46446
28.00810	43594
28.01623	45431
28.02435	41572
28.03247	42230
28.04060	41339
28.04872	37799
28.05683	39485
28.06497	43592
28.07308	54311
28.08122	57010
28.08933	76797
28.09745	90317
28.10558	100751
28.11370	101500
28.12183	100517
28.12995	90765
28.13807	73503
28.14620	62486
28.15432	54378
28.16245	48978
28.17057	47938
28.17868	46839
28.18682	44394
28.19493	40322
28.20305	40544
28.21118	37245
28.21930	38134
28.22743	40062
28.23555	41753
28.24367	47106
28.25180	56501
28.25992	83559
28.26805	108474
28.27617	158543
28.28428	208757
28.29242	270284
28.30053	321575
28.30865	360473
28.31678	392069
28.32490	404560
28.33303	414414
28.34115	393631
28.34927	346730
28.35740	319023
28.36552	288685
28.37365	260981
28.38177	226693
28.38988	188106
28.39802	163786
28.40613	154283
28.41427	139407
28.42238	130524
28.43050	110368
28.43863	100840
28.44675	95670
28.45487	94530
28.46300	85407
28.47112	85337
28.47925	81083
28.48737	81086
28.49548	75519
28.50362	73283
28.51173	69674
28.51987	71172
28.52798	66598
28.53610	68050
28.54423	58767
28.55235	61907
28.56048	56645
28.56860	58515
28.57672	54065
28.58485	54682
28.59297	53992
28.60108	50511
28.60922	50985
28.61733	54677
28.62547	56116
28.63358	57615
28.64170	59658
28.64983	62031
28.65795	57932
28.66608	60380
28.67420	59269
28.68232	62990
28.69045	68572
28.69857	81457
28.70668	99587
28.71482	133609
28.72293	147271
28.73107	143292
28.73918	128619
28.74730	93633
28.75543	73735
28.76355	59340
28.77168	55252
28.77980	51364
28.78792	48115
28.79605	48237
28.80417	43466
28.81230	42294
28.82042	45937
28.82853	43204
28.83667	42812
28.84478	45308
28.85290	44760
28.86103	47773
28.86915	48214
28.87728	47942
28.88540	44059
28.89352	40993
28.90165	42936
28.90977	44257
28.91790	44981
28.92602	42922
28.93413	43188
28.94227	44517
28.95038	45946
28.95852	45354
28.96663	44178
28.97475	48241
28.98288	42956
28.99100	44284
28.99912	41151
29.00725	45715
29.01537	38896
29.02350	38214
29.03162	42686
29.03973	45008
29.04787	42350
29.05598	45523
29.06412	40740
29.07223	47335
29.08035	41168
29.08848	38143
29.09660	41103
29.10472	38862
29.11285	38164
29.12097	40148
29.12910	41662
29.13722	40098
29.14533	40793
29.15347	43689
29.16158	39488
29.16972	37637
29.17783	37635
29.18595	40177
29.19408	41762
29.20220	39178
29.21033	44357
29.21845	46008
29.22657	43981
29.23470	42726
29.24282	46146
29.25093	47028
29.25907	48909
29.26718	46828
29.27532	43697
29.28343	50267
29.29155	45283
29.29968	41905
29.30780	38085
29.31593	43463
29.32405	37744
29.33217	38997
29.34030	36919
29.34842	38540
29.35653	36687
29.36467	34279
29.37278	36566
29.38092	33932
29.38903	37227
29.39715	38069
29.40528	38218
29.41340	36080
29.42153	37179
29.42965	38753
29.43777	39080
29.44590	39468
29.45402	40505
29.46215	47417
29.47027	41989
29.47838	40631
29.48652	42644
29.49463	41221
29.50275	45685
29.51088	42695
29.51900	43025
29.52713	43099
29.53525	38626
29.54337	39554
29.55150	40492
29.55962	42879
29.56775	45618
29.57587	44780
29.58398	48764
29.59212	52852
29.60023	54462
29.60837	50993
29.61648	52507
29.62460	49118
29.63273	45325
29.64085	40475
29.64897	37957
29.65710	38511
29.66522	40101
29.67335	39107
29.68147	36002
29.68958	38402
29.69772	39479
29.70583	41452
29.71397	39672
29.72208	39096
29.73020	42042
29.73833	37262
29.74645	36154
29.75457	39912
29.76270	37903
29.77082	36856
29.77895	39392
29.78707	36855
29.79518	36442
29.80332	37812
29.81143	38015
29.81957	36870
29.82768	41626
29.83580	40278
29.84393	40560
29.85205	36619
29.86018	42477
29.86830	43744
29.87642	49719
29.88455	59860
29.89267	76574
29.90078	91541
29.90892	112420
29.91703	124948
29.92517	144027
29.93328	156971
29.94140	178429
29.94953	186679
29.95765	203162
29.96578	209346
29.97390	196374
29.98202	190247
29.99015	185104
29.99827	165193
30.00640	156364
30.01452	147860
30.02263	134124
30.03077	123132
30.03888	117777
30.04700	103584
30.05513	100673
30.06325	94886
30.07138	86350
30.07950	81830
30.08762	77853
30.09575	76004
30.10387	69834
30.11200	72246
30.12012	66025
30.12823	73882
30.13637	63863
30.14448	65366
30.15260	62076
30.16073	59532
30.16885	57790
30.17698	66416
30.18510	55977
30.19322	50030
30.20135	53278
30.20947	54085
30.21760	52590
30.22572	50324
30.23383	52381
30.24197	48691
30.25008	49345
30.25822	47734
30.26633	47930
30.27445	46412
30.28258	46159
30.29070	48235
30.29882	46260
30.30695	42646
30.31507	45390
30.32320	40402
30.33132	46907
30.33943	49721
30.34757	44389
30.35568	45092
30.36382	44958
30.37193	45722
30.38005	45274
30.38818	43156
30.39630	42180
30.40442	43000
30.41255	46487
30.42067	39175
30.42880	45030
30.43692	39192
30.44503	43979
30.45317	41601
30.46128	44078
30.46942	45293
30.47753	43687
30.48565	37806
30.49378	40390
30.50190	42212
30.51003	45062
30.51815	41702
30.52627	41576
30.53440	40882
30.54252	41109
30.55063	41126
30.55877	41752
30.56688	45789
30.57502	43745
30.58313	40762
30.59125	38243
30.59938	41461
30.60750	41233
30.61563	41781
30.62375	41159
30.63187	37773
30.64000	37623
30.64812	41987
30.65625	40639
30.66437	37239
30.67248	42043
30.68062	34762
30.68873	39819
30.69685	40637
30.70498	38243
30.71310	38068
30.72123	43710
30.72935	40689
30.73747	40375
30.74560	41773
30.75372	43717
30.76185	38644
30.76997	39295
30.77808	42425
30.78622	41664
30.79433	40698
30.80247	44985
30.81058	38947
30.81870	39066
30.82683	42735
30.83495	40300
30.84307	41389
30.85120	39586
30.85932	39289
30.86745	39092
30.87557	38800
30.88368	38169
30.89182	38516
30.89993	41178
30.90807	39409
30.91618	38508
30.92430	34906
30.93243	36466
30.94055	40485
30.94867	38033
30.95680	37973
30.96492	37707
30.97305	37816
30.98117	36996
30.98928	37758
30.99742	35729
31.00553	36151
31.01367	37490
31.02178	40011
31.02990	40021
31.03803	40226
31.04615	39020
31.05428	38560
31.06240	43809
31.07052	43115
31.07865	44068
31.08677	42194
31.09488	47637
31.10302	42723
31.11113	44639
31.11927	43595
31.12738	41043
31.13550	40696
31.14363	40768
31.15175	44285
31.15988	46845
31.16800	53143
31.17612	62783
31.18425	81918
31.19237	105152
31.20048	116177
31.20862	125312
31.21673	129853
31.22487	111348
31.23298	99903
31.24110	75635
31.24923	61985
31.25735	49496
31.26548	41174
31.27360	44617
31.28172	45325
31.28985	44140
31.29797	42467
31.30610	37067
31.31422	41246
31.32233	39935
31.33047	39888
31.33858	42168
31.34670	42008
31.35483	43805
31.36295	42763
31.37108	39232
31.37920	40550
31.38732	43511
31.39545	38157
31.40357	39291
31.41170	40545
31.41982	40752
31.42793	43398
31.43607	40942
31.44418	39515
31.45232	41378
31.46043	38746
31.46855	38194
31.47668	38988
31.48480	39540
31.49292	44300
31.50105	38145
31.50917	38763
31.51730	39556
31.52542	41715
31.53353	40536
31.54167	37652
31.54978	40344
31.55792	36078
31.56603	40869
31.57415	39423
31.58228	36181
31.59040	37863
31.59852	38001
31.60665	42468
31.61477	40176
31.62290	38895
31.63102	38051
31.63913	40113
31.64727	37630
31.65538	43513
31.66352	42500
31.67163	44406
31.67975	47048
31.68788	48397
31.69600	53237
31.70413	49148
31.71225	48622
31.72037	45973
31.72850	41104
31.73662	40807
31.74473	44361
31.75287	43847
31.76098	40853
31.76912	35227
31.77723	40599
31.78535	43409
31.79348	41813
31.80160	41529
31.80973	42759
31.81785	43940
31.82597	49039
31.83410	51157
31.84222	63972
31.85035	70615
31.85847	82214
31.86658	90703
31.87472	104366
31.88283	115741
31.89095	124209
31.89908	118200
31.90720	112502
31.91533	116147
31.92345	114905
31.93157	114063
31.93970	101011
31.94782	100613
31.95595	98942
31.96407	91058
31.97218	85558
31.98032	81401
31.98843	75230
31.99655	78490
32.00468	73086
32.01280	73502
32.02093	72513
32.02905	60635
32.03717	61573
32.04530	61816
32.05342	58938
32.06155	55595
32.06967	57074
32.07778	51426
32.08592	48953
32.09403	52281
32.10217	48748
32.11028	48494
32.11840	49479
32.12653	49039
32.13465	46864
32.14277	50007
32.15090	53056
32.15902	47871
32.16715	46661
32.17527	52483
32.18338	45295
32.19152	44298
32.19963	46381
32.20777	44343
32.21588	43946
32.22400	48774
32.23213	45827
32.24025	44725
32.24837	46961
32.25650	45056
32.26462	48787
32.27275	45361
32.28087	42195
32.28898	45901
32.29712	47718
32.30523	44144
32.31337	45369
32.32148	47628
32.32960	52768
32.33773	42556
32.34585	41322
32.35398	47688
32.36210	45999
32.37022	43562
32.37835	44422
32.38647	45709
32.39458	43446
32.40272	42308
32.41083	41902
32.41897	48265
32.42708	43818
32.43520	45164
32.44333	43300
32.45145	44913
32.45958	44574
32.46770	43993
32.47582	45481
32.48395	45570
32.49207	41687
32.50020	43317
32.50832	49275
32.51643	43015
32.52457	43352
32.53268	45334
32.54080	46259
32.54893	47211
32.55705	42557
32.56518	45621
32.57330	45904
32.58142	51906
32.58955	58842
32.59767	79781
32.60580	86642
32.61392	99795
32.62203	100520
32.63017	86973
32.63828	77029
32.64640	65710
32.65453	54830
32.66265	49305
32.67078	45637
32.67890	48038
32.68702	47698
32.69515	43934
32.70327	48359
32.71140	48375
32.71952	43954
32.72763	42876
32.73577	42310
32.74388	43815
32.75202	41464
32.76013	44021
32.76825	39835
32.77638	41713
32.78450	42670
32.79262	42686
32.80075	43800
32.80887	40493
32.81700	41835
32.82512	38728
32.83323	40647
32.84137	41285
32.84948	42362
32.85762	43109
32.86573	41293
32.87385	43371
32.88198	46431
32.89010	42075
32.89823	41216
32.90635	42939
32.91447	45528
32.92260	40402
32.93072	39261
32.93883	44628
32.94697	40782
32.95508	45181
32.96322	41487
32.97133	41627
32.97945	42251
32.98758	44453
32.99570	42163
33.00383	43881
33.01195	46902
33.02007	42729
33.02820	44685
33.03632	46550
33.04443	45505
33.05257	47919
33.06068	51062
33.06882	51907
33.07693	52780
33.08505	54218
33.09318	61528
33.10130	62740
33.10943	67314
33.11755	67732
33.12567	57878
33.13380	60418
33.14192	55035
33.15005	48701
33.15817	44598
33.16628	46107
33.17442	43413
33.18253	44873
33.19065	43657
33.19878	44002
33.20690	42199
33.21503	44465
33.22315	45458
33.23127	40361
33.23940	43661
33.24752	42077
33.25565	39876
33.26377	43867
33.27188	44500
33.28002	43399
33.28813	45648
33.29627	45693
33.30438	43278
33.31250	43691
33.32063	43384
33.32875	41195
33.33687	43269
33.34500	43554
33.35312	49188
33.36125	41184
33.36937	38848
33.37748	45282
33.38562	44548
33.39373	42776
33.40187	44504
33.40998	39959
33.41810	41687
33.42623	43219
33.43435	42833
33.44247	38538
33.45060	41508
33.45872	44407
33.46685	43827
33.47497	42241
33.48308	39223
33.49122	42151
33.49933	40116
33.50747	43114
33.51558	42523
33.52370	40861
33.53183	40916
33.53995	41512
33.54808	43989
33.55620	39675
33.56432	42284
33.57245	41807
33.58057	39607
33.58868	39546
33.59682	43335
33.60493	39745
33.61307	43825
33.62118	44804
33.62930	40877
33.63743	43982
33.64555	44691
33.65368	42797
33.66180	44374
33.66992	43031
33.67805	40035
33.68617	44954
33.69428	43397
33.70242	45873
33.71053	45751
33.71867	43800
33.72678	45971
33.73490	43194
33.74303	41609
33.75115	43100
33.75928	42195
33.76740	44580
33.77552	47653
33.78365	47848
33.79177	44836
33.79990	47054
33.80802	42102
33.81613	46550
33.82427	46116
33.83238	46927
33.84050	49887
33.84863	49494
33.85675	51388
33.86488	49636
33.87300	54073
33.88112	52427
33.88925	52271
33.89737	53264
33.90550	50880
33.91362	51142
33.92173	52750
33.92987	50134
33.93798	53612
33.94612	53053
33.95423	53625
33.96235	52492
33.97048	52156
33.97860	55467
33.98672	52499
33.99485	53393
34.00297	51225
34.01110	50210
34.01922	51446
34.02733	50830
34.03547	52304
34.04358	48606
34.05172	48318
34.05983	47775
34.06795	49345
34.07608	50464
34.08420	47024
34.09232	50553
34.10045	48690
34.10857	46713
34.11670	40715
34.12482	47170
34.13293	47097
34.14107	46975
34.14918	47813
34.15732	48356
34.16543	45096
34.17355	50761
34.18168	49948
34.18980	45660
34.19793	50394
34.20605	48680
34.21417	44898
34.22230	48307
34.23042	44779
34.23853	50694
34.24667	46938
34.25478	45035
34.26292	44400
34.27103	45112
34.27915	46257
34.28728	53107
34.29540	50043
34.30353	50736
34.31165	52741
34.31977	51198
34.32790	49702
34.33602	49135
34.34415	49669
34.35227	48665
34.36038	46558
34.36852	48338
34.37663	50886
34.38475	50768
34.39288	51225
34.40100	45716
34.40913	46634
34.41725	50359
34.42537	48041
34.43350	48315
34.44162	52605
34.44975	59932
34.45787	68447
34.46598	78392
34.47412	102241
34.48223	115252
34.49035	116931
34.49848	129372
34.50660	126447
34.51473	116798
34.52285	110373
34.53097	109185
34.53910	93877
34.54722	90996
34.55535	83461
34.56347	83725
34.57158	74180
34.57972	80211
34.58783	70219
34.59597	66578
34.60408	67577
34.61220	68707
34.62033	64057
34.62845	66513
34.63657	64027
34.64470	60495
34.65282	66573
34.66095	63336
34.66907	64385
34.67718	63802
34.68532	62810
34.69343	60069
34.70157	58138
34.70968	60757
34.71780	62972
34.72593	62161
34.73405	64808
34.74217	60383
34.75030	60535
34.75842	60946
34.76655	57562
34.77467	58059
34.78278	56266
34.79092	61091
34.79903	59705
34.80717	61259
34.81528	64858
34.82340	61007
34.83153	56084
34.83965	56346
34.84778	54561
34.85590	62062
34.86402	62152
34.87215	51168
34.88027	56578
34.88838	59017
34.89652	57493
34.90463	59295
34.91277	57479
34.92088	54047
34.92900	56199
34.93713	54480
34.94525	58383
34.95338	56906
34.96150	60222
34.96962	57260
34.97775	59458
34.98587	61749
34.99400	57392
35.00212	55882
35.01023	58176
35.01837	58172
35.02648	51269
35.03460	57756
35.04273	49604
35.05085	53841
35.05898	51725
35.06710	53540
35.07522	53241
35.08335	54872
35.09147	53840
35.09960	53387
35.10772	52688
35.11583	59603
35.12397	57103
35.13208	54807
35.14020	54607
35.14833	52396
35.15645	56838
35.16458	58995
35.17270	54911
35.18082	55856
35.18895	50090
35.19707	54053
35.20520	55359
35.21332	54577
35.22143	53864
35.22957	50496
35.23768	57006
35.24582	57728
35.25393	57156
35.26205	56990
35.27018	57718
35.27830	53121
35.28642	53818
35.29455	56414
35.30267	57013
35.31080	56870
35.31892	54814
35.32703	57169
35.33517	56766
35.34328	50360
35.35142	54756
35.35953	53989
35.36765	57113
35.37578	53782
35.38390	56376
35.39203	53872
35.40015	57052
35.40827	58530
35.41640	57508
35.42452	55031
35.43263	58612
35.44077	55698
35.44888	58968
35.45702	59837
35.46513	58422
35.47325	57939
35.48138	62037
35.48950	59110
35.49763	57911
35.50575	60341
35.51387	56147
35.52200	58663
35.53012	58098
35.53823	59905
35.54637	55625
35.55448	60552
35.56262	54268
35.57073	57435
35.57885	56910
35.58698	59075
35.59510	55563
35.60323	60856
35.61135	58533
35.61947	65012
35.62760	62932
35.63572	58894
35.64385	63071
35.65197	60406
35.66008	60908
35.66822	57085
35.67633	57137
35.68445	62495
35.69258	59118
35.70070	57201
35.70883	55735
35.71695	61027
35.72507	59698
35.73320	57522
35.74132	60907
35.74945	58409
35.75757	60682
35.76568	55803
35.77382	58936
35.78193	58526
35.79005	55781
35.79818	55773
35.80630	55335
35.81443	56415
35.82255	60486
35.83067	56555
35.83880	53596
35.84692	54759
35.85505	57083
35.86317	60065
35.87128	55860
35.87942	57057
35.88753	57510
35.89567	59486
35.90378	57557
35.91190	61098
35.92003	59371
35.92815	54776
35.93627	60399
35.94440	54983
35.95252	58229
35.96065	56538
35.96877	52758
35.97688	56807
35.98502	63902
35.99313	63303
36.00127	60935
36.00938	66497
36.01750	66866
36.02563	63997
36.03375	65086
36.04188	65741
36.05000	63844
36.05812	60037
36.06625	64893
36.07437	58115
36.08248	60708
36.09062	61140
36.09873	56826
36.10687	57940
36.11498	58246
36.12310	57808
36.13123	61098
36.13935	64126
36.14748	61898
36.15560	62878
36.16372	59331
36.17185	56320
36.17997	58401
36.18810	61999
36.19622	59123
36.20433	54588
36.21247	62487
36.22058	58999
36.22870	68284
36.23683	80914
36.24495	86838
36.25308	106081
36.26120	113622
36.26932	110099
36.27745	102957
36.28557	84210
36.29370	79799
36.30182	71774
36.30993	59783
36.31807	63610
36.32618	61136
36.33430	61640
36.34243	59459
36.35055	60485
36.35868	65379
36.36680	64231
36.37492	61361
36.38305	63111
36.39117	63163
36.39930	61658
36.40742	66721
36.41553	65039
36.42367	61037
36.43178	65537
36.43992	63309
36.44803	59173
36.45615	63275
36.46428	58971
36.47240	61120
36.48052	61862
36.48865	62168
36.49677	59881
36.50490	60768
36.51302	62037
36.52113	55668
36.52927	63056
36.53738	59892
36.54552	61356
36.55363	63112
36.56175	60122
36.56988	59938
36.57800	63320
36.58612	64332
36.59425	67334
36.60237	64388
36.61050	65172
36.61862	66547
36.62673	64587
36.63487	66015
36.64298	66138
36.65112	67187
36.65923	61977
36.66735	65068
36.67548	64343
36.68360	59704
36.69173	62389
36.69985	65243
36.70797	61723
36.71610	63086
36.72422	63161
36.73233	63957
36.74047	64932
36.74858	65769
36.75672	67428
36.76483	65839
36.77295	61089
36.78108	62173
36.78920	59062
36.79733	63911
36.80545	64431
36.81357	62545
36.82170	63445
36.82982	62501
36.83795	60934
36.84607	64032
36.85418	62035
36.86232	61247
36.87043	72211
36.87855	64801
36.88668	61579
36.89480	67919
36.90293	63836
36.91105	67997
36.91917	60618
36.92730	65392
36.93542	65389
36.94355	64912
36.95167	65869
36.95978	65961
36.96792	66989
36.97603	69132
36.98415	68070
36.99228	73159
37.00040	81194
37.00853	91902
37.01665	108089
37.02477	112526
37.03290	114908
37.04102	110739
37.04915	103444
37.05727	85703
37.06538	84571
37.07352	77210
37.08163	72839
37.08977	67393
37.09788	64304
37.10600	71782
37.11413	69589
37.12225	74830
37.13037	68992
37.13850	71126
37.14662	69318
37.15475	68320
37.16287	75060
37.17098	69874
37.17912	68215
37.18723	71742
37.19537	66592
37.20348	72992
37.21160	67769
37.21973	68823
37.22785	72716
37.23598	74891
37.24410	69999
37.25222	71446
37.26035	88342
37.26847	98943
37.27658	108641
37.28472	120376
37.29283	127454
37.30097	135525
37.30908	133060
37.31720	127130
37.32533	123428
37.33345	109782
37.34158	103561
37.34970	95406
37.35782	95655
37.36595	93708
37.37407	88917
37.38218	91414
37.39032	89277
37.39843	83117
37.40657	84359
37.41468	79355
37.42280	82380
37.43093	81041
37.43905	83526
37.44718	80252
37.45530	81583
37.46342	83121
37.47155	81293
37.47967	81896
37.48780	83814
