Z:\data\JTB-E02\BACandBLUE\JTB-E02-206-08.D Wed Mar 13 10:33:44 2019
Start of data points
2.09517	53698
2.10328	54497
2.11142	56908
2.11953	54082
2.12765	61477
2.13578	51895
2.14390	54789
2.15203	53409
2.16015	55484
2.16827	48987
2.17640	45562
2.18452	48132
2.19265	45488
2.20077	43901
2.20888	42394
2.21702	44439
2.22513	42132
2.23325	44280
2.24138	41962
2.24950	47275
2.25763	46972
2.26575	72618
2.27387	840518
2.28200	3436945
2.29012	3154704
2.29825	1374489
2.30637	755219
2.31448	571468
2.32262	491921
2.33073	448684
2.33887	409626
2.34698	365917
2.35510	320532
2.36323	279386
2.37135	250025
2.37947	236820
2.38760	240160
2.39572	219077
2.40385	216669
2.41197	244018
2.42008	264920
2.42822	379286
2.43633	321731
2.44447	258832
2.45258	247519
2.46070	233939
2.46883	213354
2.47695	191463
2.48508	176933
2.49320	171208
2.50132	161462
2.50945	153733
2.51757	158492
2.52568	159682
2.53382	149185
2.54193	154903
2.55007	155620
2.55818	168417
2.56630	188064
2.57443	169998
2.58255	147138
2.59068	140196
2.59880	129504
2.60692	127435
2.61505	154276
2.62317	165112
2.63128	137358
2.63942	130977
2.64753	124089
2.65567	122859
2.66378	125553
2.67190	117694
2.68003	115385
2.68815	114631
2.69628	117352
2.70440	106264
2.71252	108694
2.72065	109105
2.72877	110192
2.73690	102134
2.74502	105771
2.75313	103410
2.76127	100363
2.76938	97535
2.77750	95928
2.78563	94242
2.79375	97424
2.80188	99769
2.81000	105358
2.81812	103365
2.82625	99291
2.83437	97798
2.84250	94348
2.85062	97349
2.85873	100106
2.86687	98352
2.87498	96621
2.88312	92125
2.89123	95624
2.89935	94903
2.90748	92572
2.91560	94343
2.92372	86446
2.93185	93911
2.93997	88790
2.94810	82073
2.95622	88475
2.96433	85960
2.97247	85893
2.98058	89323
2.98872	87099
2.99683	83780
3.00495	88756
3.01308	90291
3.02120	87005
3.02932	83622
3.03745	79607
3.04557	74414
3.05370	78014
3.06182	80049
3.06993	75832
3.07807	81446
3.08618	82089
3.09432	80813
3.10243	90348
3.11055	131827
3.11868	161732
3.12680	150613
3.13493	131220
3.14305	114301
3.15117	107284
3.15930	95727
3.16742	90652
3.17553	88014
3.18367	89225
3.19178	87675
3.19992	86471
3.20803	85865
3.21615	86332
3.22428	84021
3.23240	81958
3.24053	81036
3.24865	81458
3.25677	72362
3.26490	76365
3.27302	74273
3.28113	87334
3.28927	233799
3.29738	1298075
3.30552	5200122
3.31363	1.190991E+07
3.32175	1.560247E+07
3.32988	1.404579E+07
3.33800	1.042626E+07
3.34613	7500813
3.35425	5617680
3.36237	4374867
3.37050	3517047
3.37862	2945190
3.38675	2477322
3.39487	2127499
3.40298	1877403
3.41112	1658669
3.41923	1487734
3.42735	1350485
3.43548	1221255
3.44360	1148942
3.45173	1059940
3.45985	989572
3.46797	923023
3.47610	881420
3.48422	846515
3.49235	784643
3.50047	763147
3.50858	732080
3.51672	698845
3.52483	651594
3.53297	621025
3.54108	592009
3.54920	588755
3.55733	564729
3.56545	536787
3.57357	530359
3.58170	527501
3.58982	507202
3.59795	495252
3.60607	474915
3.61418	459211
3.62232	472769
3.63043	454949
3.63857	440915
3.64668	421210
3.65480	403604
3.66293	404904
3.67105	393278
3.67918	383358
3.68730	383129
3.69542	382115
3.70355	382123
3.71167	362025
3.71978	352080
3.72792	359655
3.73603	347458
3.74417	338482
3.75228	325821
3.76040	326256
3.76853	315165
3.77665	319351
3.78478	310077
3.79290	308788
3.80102	319820
3.80915	310977
3.81727	309765
3.82538	306516
3.83352	308710
3.84163	295688
3.84977	289757
3.85788	281842
3.86600	280565
3.87413	268078
3.88225	258370
3.89038	260314
3.89850	270120
3.90662	260151
3.91475	253892
3.92287	255787
3.93100	246734
3.93912	238938
3.94723	235359
3.95537	241864
3.96348	230823
3.97160	237717
3.97973	243349
3.98785	233472
3.99598	230167
4.00410	222008
4.01222	237284
4.02035	237356
4.02847	238377
4.03660	236293
4.04472	237504
4.05283	237653
4.06097	226076
4.06908	224984
4.07720	215987
4.08533	221599
4.09345	208045
4.10158	211114
4.10970	209934
4.11782	210339
4.12595	200278
4.13407	205743
4.14220	217411
4.15032	236500
4.15843	263817
4.16657	258235
4.17468	246437
4.18282	224567
4.19093	214629
4.19905	202955
4.20718	196555
4.21530	198392
4.22342	207844
4.23155	227315
4.23967	249352
4.24780	234569
4.25592	228342
4.26403	207927
4.27217	198086
4.28028	188224
4.28842	195243
4.29653	188025
4.30465	182486
4.31278	177614
4.32090	183972
4.32903	195009
4.33715	192843
4.34527	195078
4.35340	196387
4.36152	187167
4.36963	191401
4.37777	192911
4.38588	194951
4.39402	193247
4.40213	186281
4.41025	177032
4.41838	182555
4.42650	173536
4.43463	170102
4.44275	163270
4.45087	163993
4.45900	170013
4.46712	163590
4.47523	163790
4.48337	160054
4.49148	160368
4.49962	164671
4.50773	168356
4.51585	161629
4.52398	163022
4.53210	163718
4.54023	154085
4.54835	158703
4.55647	147370
4.56460	157722
4.57272	154540
4.58085	148349
4.58897	144647
4.59708	142488
4.60522	145754
4.61333	152970
4.62145	143065
4.62958	141823
4.63770	149319
4.64583	144969
4.65395	142878
4.66207	146969
4.67020	142880
4.67832	143817
4.68645	137970
4.69457	142147
4.70268	142192
4.71082	139516
4.71893	135983
4.72707	134400
4.73518	134469
4.74330	136627
4.75143	132601
4.75955	132931
4.76767	135158
4.77580	129108
4.78392	125798
4.79205	129714
4.80017	141223
4.80828	136878
4.81642	136014
4.82453	138474
4.83267	135653
4.84078	138162
4.84890	137257
4.85703	134474
4.86515	138840
4.87327	144196
4.88140	147602
4.88952	143700
4.89765	135963
4.90577	138891
4.91388	134077
4.92202	135527
4.93013	136987
4.93827	212099
4.94638	525634
4.95450	1421938
4.96263	3148597
4.97075	5029544
4.97888	5904470
4.98700	5387102
4.99512	4248077
5.00325	3148847
5.01137	2322355
5.01948	1803936
5.02762	1470764
5.03573	1222059
5.04387	1076316
5.05198	944045
5.06010	834429
5.06823	766272
5.07635	696551
5.08448	658478
5.09260	607098
5.10072	569611
5.10885	545267
5.11697	518543
5.12508	501270
5.13322	474142
5.14133	460886
5.14947	439216
5.15758	426967
5.16570	413269
5.17383	399447
5.18195	387232
5.19008	383425
5.19820	376400
5.20632	372520
5.21445	349418
5.22257	344942
5.23070	351742
5.23882	354192
5.24693	357169
5.25507	363445
5.26318	362505
5.27130	332145
5.27943	302294
5.28755	299475
5.29568	296240
5.30380	271525
5.31192	287193
5.32005	277383
5.32817	267902
5.33630	264152
5.34442	260385
5.35253	263030
5.36067	253216
5.36878	260879
5.37692	250928
5.38503	239759
5.39315	244241
5.40128	237909
5.40940	236886
5.41752	228608
5.42565	224875
5.43377	221047
5.44190	221215
5.45002	225857
5.45813	216511
5.46627	216829
5.47438	219592
5.48252	205460
5.49063	207933
5.49875	201213
5.50688	203421
5.51500	202465
5.52312	207571
5.53125	198898
5.53937	194114
5.54750	191305
5.55562	187578
5.56373	192707
5.57187	192631
5.57998	198995
5.58812	197597
5.59623	193763
5.60435	191428
5.61248	197878
5.62060	211982
5.62873	225369
5.63685	252033
5.64497	268803
5.65310	270982
5.66122	250828
5.66933	234971
5.67747	235536
5.68558	267690
5.69372	295598
5.70183	315360
5.70995	310901
5.71808	265562
5.72620	233828
5.73433	207767
5.74245	199761
5.75057	195647
5.75870	181188
5.76682	168504
5.77495	178204
5.78307	166923
5.79118	171726
5.79932	167815
5.80743	169016
5.81555	170413
5.82368	166077
5.83180	162839
5.83993	158353
5.84805	160250
5.85617	156534
5.86430	149805
5.87242	156534
5.88055	156480
5.88867	150258
5.89678	150374
5.90492	151608
5.91303	130737
5.92115	125151
5.92928	119897
5.93740	116635
5.94553	118895
5.95365	122139
5.96177	123310
5.96990	128164
5.97802	144202
5.98615	153579
5.99427	165541
6.00238	163686
6.01052	150628
6.01863	140613
6.02677	126541
6.03488	126838
6.04300	121950
6.05113	119135
6.05925	123027
6.06737	119643
6.07550	116942
6.08362	116236
6.09175	106690
6.09987	109080
6.10798	113488
6.11612	115419
6.12423	118849
6.13237	123773
6.14048	117878
6.14860	123266
6.15673	115339
6.16485	121318
6.17297	123521
6.18110	123296
6.18922	117998
6.19735	128046
6.20547	128736
6.21358	128762
6.22172	130307
6.22983	130922
6.23797	140849
6.24608	136675
6.25420	143480
6.26233	153397
6.27045	151440
6.27858	142799
6.28670	144677
6.29482	150913
6.30295	147556
6.31107	146056
6.31918	158438
6.32732	159328
6.33543	155604
6.34357	160024
6.35168	153110
6.35980	151363
6.36793	164101
6.37605	156945
6.38418	158168
6.39230	164965
6.40042	159803
6.40855	166077
6.41667	175449
6.42480	161102
6.43292	169466
6.44103	172522
6.44917	171884
6.45728	180917
6.46540	181681
6.47353	187862
6.48165	160846
6.48978	150678
6.49790	140702
6.50602	134681
6.51415	128964
6.52227	118954
6.53040	119383
6.53852	117570
6.54663	115507
6.55477	115775
6.56288	113397
6.57100	111574
6.57913	108740
6.58725	111936
6.59538	107420
6.60350	105440
6.61162	101640
6.61975	101944
6.62787	104135
6.63600	102186
6.64412	107378
6.65223	105600
6.66037	102137
6.66848	106207
6.67662	107290
6.68473	98667
6.69285	103570
6.70098	96063
6.70910	94700
6.71722	102594
6.72535	96304
6.73347	93830
6.74160	94499
6.74972	95611
6.75783	96825
6.76597	101009
6.77408	91381
6.78222	95078
6.79033	93555
6.79845	87261
6.80658	87895
6.81470	89225
6.82283	92831
6.83095	94273
6.83907	89853
6.84720	85190
6.85532	81674
6.86343	86017
6.87157	85386
6.87968	102091
6.88782	122690
6.89593	126857
6.90405	117197
6.91218	104566
6.92030	85121
6.92843	77778
6.93655	71414
6.94467	64906
6.95280	62654
6.96092	62668
6.96903	63807
6.97717	58510
6.98528	59203
6.99342	65044
7.00153	62057
7.00965	63039
7.01778	61133
7.02590	60870
7.03403	62050
7.04215	59658
7.05027	54944
7.05840	56966
7.06652	57990
7.07465	54212
7.08277	64848
7.09088	60378
7.09902	59234
7.10713	55528
7.11525	56199
7.12338	54968
7.13150	57148
7.13963	57191
7.14775	58532
7.15587	58008
7.16400	59733
7.17212	59103
7.18025	60072
7.18837	59533
7.19648	59114
7.20462	57656
7.21273	59440
7.22087	54338
7.22898	55491
7.23710	59398
7.24523	58763
7.25335	57100
7.26147	56029
7.26960	56604
7.27772	53195
7.28585	54217
7.29397	53989
7.30208	54557
7.31022	59821
7.31833	53069
7.32647	51782
7.33458	56397
7.34270	59748
7.35083	57406
7.35895	53628
7.36707	56614
7.37520	49232
7.38332	53262
7.39145	57476
7.39957	55507
7.40768	49846
7.41582	54238
7.42393	52628
7.43207	55379
7.44018	59150
7.44830	67336
7.45643	78969
7.46455	83665
7.47268	94363
7.48080	93876
7.48892	85650
7.49705	77595
7.50517	73709
7.51328	61359
7.52142	60702
7.52953	54949
7.53767	56593
7.54578	52470
7.55390	52760
7.56203	50422
7.57015	52091
7.57828	57879
7.58640	53854
7.59452	55657
7.60265	53572
7.61077	52458
7.61888	53375
7.62702	51259
7.63513	52107
7.64327	52476
7.65138	54153
7.65950	56339
7.66763	53278
7.67575	54723
7.68388	50820
7.69200	52059
7.70012	50332
7.70825	55616
7.71637	55879
7.72450	52462
7.73262	51509
7.74073	49914
7.74887	49473
7.75698	49976
7.76510	48971
7.77323	49044
7.78135	52656
7.78948	47581
7.79760	52323
7.80572	47338
7.81385	52343
7.82197	50059
7.83010	55880
7.83822	50756
7.84633	50937
7.85447	49210
7.86258	48481
7.87072	48910
7.87883	49721
7.88695	47718
7.89508	46118
7.90320	47587
7.91132	43777
7.91945	47834
7.92757	45892
7.93570	50478
7.94382	49317
7.95193	45999
7.96007	47956
7.96818	45211
7.97632	46412
7.98443	48973
7.99255	61362
8.00068	58693
8.00880	57521
8.01692	55720
8.02505	49450
8.03317	49378
8.04130	51617
8.04942	50824
8.05753	50872
8.06567	48808
8.07378	50440
8.08192	46746
8.09003	46849
8.09815	47944
8.10628	49537
8.11440	44701
8.12253	49725
8.13065	55624
8.13877	49727
8.14690	55187
8.15502	54414
8.16313	55655
8.17127	58403
8.17938	62444
8.18752	64448
8.19563	62217
8.20375	59514
8.21188	61305
8.22000	57600
8.22813	60148
8.23625	54714
8.24437	59524
8.25250	54637
8.26062	59077
8.26875	52663
8.27687	54381
8.28498	57576
8.29312	55217
8.30123	57982
8.30935	59368
8.31748	54777
8.32560	57180
8.33373	57748
8.34185	56970
8.34997	67949
8.35810	69938
8.36622	75658
8.37435	71907
8.38247	70844
8.39058	66452
8.39872	60950
8.40683	60264
8.41495	56668
8.42308	60443
8.43120	57715
8.43933	54228
8.44745	58173
8.45557	54974
8.46370	56526
8.47182	56758
8.47995	53836
8.48807	57711
8.49618	58982
8.50432	59417
8.51243	71460
8.52057	76103
8.52868	72533
8.53680	70343
8.54493	68242
8.55305	65128
8.56117	60717
8.56930	62710
8.57742	63871
8.58555	61450
8.59367	55606
8.60178	61941
8.60992	59859
8.61803	57892
8.62617	56159
8.63428	55593
8.64240	60786
8.65053	58297
8.65865	59510
8.66677	56661
8.67490	55165
8.68302	53131
8.69115	54478
8.69927	53971
8.70738	54003
8.71552	54266
8.72363	52842
8.73177	51368
8.73988	52688
8.74800	52430
8.75613	55953
8.76425	60799
8.77238	86372
8.78050	166078
8.78862	352396
8.79675	662246
8.80487	1030219
8.81298	1303112
8.82112	1289530
8.82923	1108843
8.83737	874770
8.84548	676951
8.85360	538503
8.86173	429932
8.86985	366849
8.87798	318286
8.88610	280325
8.89422	248245
8.90235	240443
8.91047	221056
8.91860	208273
8.92672	194611
8.93483	186764
8.94297	181850
8.95108	171328
8.95920	171693
8.96733	162103
8.97545	162756
8.98358	148011
8.99170	152441
8.99982	143739
9.00795	141529
9.01607	140958
9.02420	133943
9.03232	133086
9.04043	134091
9.04857	132593
9.05668	128921
9.06482	127920
9.07293	119455
9.08105	116724
9.08918	116641
9.09730	118778
9.10542	118170
9.11355	113948
9.12167	110090
9.12980	112037
9.13792	115057
9.14603	110568
9.15417	109422
9.16228	111490
9.17042	109774
9.17853	115310
9.18665	110515
9.19478	111204
9.20290	113900
9.21102	109219
9.21915	109669
9.22727	104793
9.23540	98766
9.24352	101823
9.25163	102331
9.25977	99851
9.26788	98991
9.27602	97597
9.28413	93191
9.29225	93877
9.30038	91740
9.30850	94851
9.31663	91468
9.32475	93266
9.33287	95890
9.34100	97745
9.34912	100374
9.35723	91561
9.36537	88969
9.37348	84269
9.38162	87104
9.38973	87223
9.39785	82494
9.40598	83968
9.41410	82875
9.42223	80145
9.43035	84064
9.43847	78677
9.44660	78302
9.45472	72746
9.46283	79743
9.47097	77663
9.47908	77391
9.48722	77692
9.49533	75677
9.50345	77744
9.51158	73780
9.51970	76478
9.52783	82400
9.53595	84272
9.54407	87335
9.55220	94550
9.56032	97404
9.56845	94023
9.57657	84153
9.58468	84698
9.59282	82915
9.60093	89881
9.60905	101695
9.61718	104409
9.62530	97654
9.63343	88030
9.64155	78014
9.64967	67966
9.65780	67569
9.66592	68524
9.67405	62384
9.68217	57836
9.69028	59544
9.69842	59058
9.70653	60178
9.71467	56774
9.72278	59810
9.73090	54888
9.73903	57135
9.74715	55501
9.75527	62013
9.76340	55146
9.77152	54576
9.77965	53293
9.78777	52456
9.79588	57261
9.80402	57554
9.81213	49432
9.82027	49760
9.82838	55653
9.83650	58654
9.84463	63736
9.85275	56879
9.86087	64429
9.86900	58660
9.87712	61808
9.88525	56504
9.89337	57395
9.90148	50395
9.90962	50703
9.91773	53777
9.92587	53247
9.93398	57679
9.94210	48625
9.95023	51744
9.95835	53073
9.96648	54090
9.97460	61972
9.98272	64624
9.99085	66941
9.99897	71392
10.00708	76384
10.01522	80446
10.02333	84627
10.03147	87881
10.03958	98772
10.04770	95666
10.05583	95706
10.06395	93059
10.07208	87395
10.08020	80125
10.08832	75446
10.09645	69668
10.10457	69731
10.11270	64459
10.12082	61720
10.12893	62128
10.13707	66725
10.14518	59272
10.15330	56987
10.16143	62868
10.16955	61926
10.17768	58739
10.18580	54359
10.19392	57279
10.20205	54177
10.21017	54383
10.21830	57799
10.22642	61473
10.23453	69982
10.24267	81002
10.25078	82245
10.25890	82504
10.26703	81172
10.27515	75032
10.28328	73975
10.29140	68357
10.29952	70694
10.30765	68616
10.31577	79412
10.32390	78964
10.33202	84633
10.34013	81142
10.34827	75486
10.35638	73836
10.36452	69171
10.37263	71748
10.38075	67623
10.38888	63473
10.39700	62691
10.40512	62588
10.41325	65544
10.42137	60726
10.42950	59101
10.43762	54233
10.44573	58010
10.45387	58728
10.46198	55693
10.47012	59870
10.47823	54154
10.48635	54396
10.49448	51301
10.50260	54719
10.51072	54671
10.51885	49443
10.52697	50911
10.53510	53747
10.54322	54690
10.55133	54944
10.55947	56754
10.56758	55655
10.57572	53546
10.58383	56837
10.59195	55749
10.60008	56864
10.60820	53754
10.61633	55561
10.62445	55820
10.63257	52021
10.64070	52696
10.64882	52438
10.65693	47785
10.66507	52614
10.67318	52318
10.68132	54565
10.68943	54082
10.69755	55418
10.70568	55881
10.71380	56048
10.72193	55525
10.73005	54023
10.73817	48452
10.74630	51734
10.75442	58454
10.76255	57108
10.77067	56179
10.77878	59396
10.78692	57098
10.79503	60054
10.80315	54049
10.81128	55605
10.81940	52534
10.82753	51429
10.83565	53282
10.84377	49650
10.85190	50413
10.86002	51259
10.86815	48599
10.87627	46623
10.88438	53741
10.89252	50386
10.90063	50407
10.90875	47208
10.91688	52797
10.92500	44466
10.93313	44375
10.94125	47644
10.94937	56889
10.95750	47658
10.96562	48658
10.97375	47570
10.98187	52598
10.98998	51856
10.99812	51102
11.00623	49505
11.01437	48750
11.02248	50527
11.03060	49861
11.03873	50697
11.04685	49389
11.05497	48690
11.06310	43576
11.07122	47433
11.07935	45272
11.08747	44467
11.09558	46060
11.10372	47185
11.11183	48370
11.11997	48085
11.12808	47262
11.13620	44683
11.14433	49105
11.15245	44977
11.16058	48535
11.16870	51022
11.17682	56209
11.18495	59536
11.19307	76384
11.20118	96343
11.20932	105244
11.21743	115405
11.22557	110703
11.23368	100067
11.24180	89113
11.24993	75213
11.25805	63830
11.26618	61921
11.27430	58001
11.28242	55197
11.29055	55960
11.29867	48184
11.30678	46680
11.31492	46640
11.32303	52048
11.33117	55248
11.33928	50856
11.34740	53240
11.35553	53358
11.36365	49682
11.37178	52425
11.37990	47156
11.38802	48211
11.39615	44409
11.40427	46328
11.41240	47656
11.42052	49871
11.42863	49222
11.43677	44841
11.44488	45172
11.45300	49332
11.46113	44661
11.46925	43452
11.47738	43888
11.48550	46021
11.49362	46229
11.50175	47593
11.50987	43615
11.51800	50492
11.52612	51003
11.53423	48533
11.54237	43044
11.55048	42540
11.55862	49550
11.56673	44834
11.57485	45488
11.58298	44089
11.59110	41914
11.59922	45078
11.60735	45717
11.61547	49769
11.62360	46089
11.63172	44985
11.63983	45570
11.64797	45242
11.65608	45650
11.66422	44999
11.67233	44901
11.68045	42631
11.68858	42098
11.69670	43643
11.70482	49234
11.71295	51310
11.72107	56170
11.72920	53877
11.73732	56247
11.74543	58834
11.75357	53820
11.76168	52840
11.76982	50132
11.77793	56532
11.78605	56144
11.79418	56751
11.80230	50988
11.81043	53216
11.81855	50250
11.82667	49622
11.83480	49549
11.84292	53030
11.85103	50939
11.85917	51803
11.86728	46360
11.87542	48851
11.88353	52699
11.89165	53302
11.89978	49268
11.90790	47085
11.91603	47727
11.92415	44993
11.93227	41953
11.94040	46016
11.94852	48397
11.95663	43940
11.96477	44205
11.97288	44655
11.98102	48371
11.98913	45763
11.99725	48310
12.00538	43860
12.01350	51968
12.02163	44646
12.02975	48945
12.03787	47295
12.04600	49835
12.05412	45018
12.06225	52862
12.07037	42356
12.07848	45208
12.08662	45904
12.09473	48054
12.10285	46517
12.11098	41366
12.11910	43042
12.12723	44364
12.13535	48142
12.14347	47343
12.15160	51311
12.15972	47745
12.16785	51378
12.17597	49421
12.18408	47118
12.19222	48905
12.20033	47330
12.20847	45627
12.21658	46391
12.22470	48623
12.23283	50498
12.24095	43497
12.24907	44939
12.25720	48954
12.26532	43561
12.27345	47826
12.28157	51345
12.28968	41198
12.29782	45287
12.30593	47942
12.31407	46095
12.32218	46787
12.33030	44401
12.33843	44606
12.34655	43106
12.35467	46665
12.36280	47929
12.37092	44666
12.37905	44059
12.38717	46172
12.39528	44225
12.40342	49478
12.41153	46764
12.41967	50848
12.42778	50569
12.43590	52703
12.44403	50760
12.45215	54243
12.46028	54442
12.46840	53419
12.47652	59606
12.48465	60694
12.49277	59537
12.50088	50002
12.50902	52648
12.51713	48366
12.52527	52147
12.53338	51513
12.54150	45172
12.54963	49646
12.55775	50824
12.56588	48181
12.57400	47521
12.58212	47981
12.59025	48590
12.59837	48871
12.60650	44505
12.61462	42562
12.62273	46080
12.63087	44086
12.63898	46062
12.64710	49007
12.65523	45598
12.66335	44093
12.67148	52895
12.67960	47732
12.68772	49022
12.69585	42314
12.70397	47247
12.71210	46358
12.72022	51667
12.72833	56901
12.73647	72850
12.74458	87046
12.75270	102493
12.76083	104463
12.76895	102824
12.77708	92471
12.78520	81262
12.79332	75981
12.80145	61945
12.80957	55335
12.81770	52548
12.82582	61121
12.83393	53204
12.84207	53792
12.85018	48269
12.85832	51076
12.86643	47621
12.87455	49681
12.88268	48750
12.89080	50994
12.89892	50365
12.90705	45881
12.91517	50930
12.92330	48546
12.93142	47820
12.93953	46849
12.94767	48266
12.95578	47895
12.96392	48463
12.97203	45764
12.98015	49595
12.98828	49111
12.99640	47777
13.00452	48236
13.01265	45233
13.02077	44483
13.02890	44001
13.03702	48139
13.04513	48493
13.05327	42991
13.06138	43267
13.06952	47954
13.07763	47920
13.08575	50367
13.09388	42493
13.10200	45967
13.11013	41941
13.11825	44501
13.12637	49193
13.13450	50192
13.14262	49757
13.15073	48024
13.15887	43314
13.16698	45804
13.17512	44468
13.18323	49193
13.19135	55048
13.19948	57615
13.20760	57725
13.21573	62383
13.22385	63709
13.23197	61841
13.24010	58516
13.24822	61485
13.25635	51978
13.26447	50578
13.27258	50363
13.28072	49454
13.28883	50436
13.29695	46515
13.30508	54664
13.31320	47186
13.32133	44766
13.32945	44214
13.33757	46681
13.34570	48956
13.35382	46108
13.36195	41956
13.37007	46938
13.37818	49311
13.38632	48791
13.39443	48370
13.40255	44012
13.41068	45052
13.41880	47333
13.42693	47525
13.43505	48463
13.44317	47004
13.45130	44491
13.45942	45885
13.46755	45848
13.47567	47844
13.48378	48453
13.49192	47102
13.50003	47318
13.50817	41449
13.51628	52243
13.52440	46254
13.53253	46809
13.54065	50555
13.54877	50816
13.55690	48425
13.56502	47332
13.57315	49725
13.58127	53566
13.58938	48327
13.59752	48298
13.60563	46123
13.61377	43627
13.62188	46657
13.63000	46998
13.63813	49491
13.64625	43685
13.65438	48104
13.66250	47146
13.67062	45128
13.67875	48538
13.68687	43818
13.69498	45503
13.70312	47517
13.71123	44754
13.71937	48388
13.72748	47720
13.73560	45551
13.74373	46719
13.75185	45700
13.75998	47583
13.76810	50703
13.77622	48795
13.78435	44415
13.79247	46051
13.80058	49575
13.80872	48937
13.81683	49577
13.82497	50886
13.83308	48930
13.84120	45393
13.84933	47795
13.85745	51726
13.86558	52817
13.87370	49941
13.88182	46669
13.88995	50396
13.89807	49789
13.90620	49041
13.91432	49291
13.92243	52234
13.93057	57093
13.93868	59237
13.94680	62232
13.95493	56203
13.96305	56788
13.97118	54614
13.97930	52391
13.98742	52402
13.99555	52340
14.00367	52201
14.01180	54472
14.01992	50978
14.02803	49583
14.03617	50189
14.04428	52786
14.05240	51481
14.06053	51114
14.06865	53728
14.07678	53494
14.08490	53756
14.09302	55319
14.10115	57753
14.10927	54050
14.11740	53658
14.12552	55566
14.13363	54986
14.14177	50891
14.14988	54135
14.15802	51732
14.16613	51669
14.17425	56691
14.18238	66579
14.19050	76199
14.19862	114883
14.20675	181246
14.21487	260038
14.22300	354042
14.23112	376202
14.23923	350789
14.24737	303807
14.25548	248321
14.26362	213459
14.27173	186730
14.27985	167358
14.28798	150615
14.29610	137217
14.30423	134296
14.31235	119089
14.32047	107380
14.32860	113970
14.33672	105113
14.34483	101403
14.35297	98236
14.36108	87262
14.36922	85207
14.37733	72405
14.38545	72583
14.39358	67641
14.40170	61715
14.40983	65781
14.41795	65040
14.42607	58995
14.43420	56715
14.44232	60762
14.45045	61405
14.45857	57396
14.46668	54615
14.47482	57700
14.48293	55438
14.49105	58745
14.49918	53745
14.50730	56888
14.51543	57841
14.52355	58501
14.53167	53332
14.53980	55781
14.54792	55179
14.55605	55864
14.56417	55206
14.57228	63193
14.58042	52813
14.58853	56498
14.59665	59103
14.60478	58462
14.61290	57246
14.62103	54719
14.62915	55414
14.63727	53418
14.64540	52466
14.65352	49701
14.66165	53215
14.66977	49933
14.67788	47417
14.68602	50553
14.69413	49384
14.70227	47339
14.71038	52044
14.71850	51880
14.72663	54562
14.73475	55372
14.74287	53374
14.75100	52228
14.75912	54121
14.76725	50514
14.77537	53905
14.78348	52797
14.79162	50434
14.79973	51807
14.80787	50360
14.81598	52079
14.82410	52727
14.83223	55250
14.84035	65038
14.84847	76112
14.85660	66742
14.86472	72849
14.87285	73767
14.88097	75200
14.88908	73464
14.89722	70972
14.90533	68161
14.91347	66027
14.92158	66301
14.92970	68543
14.93783	65978
14.94595	65016
14.95408	70984
14.96220	64087
14.97032	66261
14.97845	61982
14.98657	61952
14.99468	64559
15.00282	70296
15.01093	62068
15.01907	62543
15.02718	60290
15.03530	61246
15.04343	63511
15.05155	60844
15.05968	60649
15.06780	61790
15.07592	63207
15.08405	57528
15.09217	59547
15.10030	55882
15.10842	58245
15.11653	61492
15.12467	58254
15.13278	55786
15.14090	53671
15.14903	56828
15.15715	56531
15.16528	57031
15.17340	56248
15.18152	49133
15.18965	57209
15.19777	52476
15.20590	55510
15.21402	55891
15.22213	50082
15.23027	55718
15.23838	51219
15.24650	56534
15.25463	50319
15.26275	56522
15.27088	51163
15.27900	52679
15.28712	49161
15.29525	50325
15.30337	55211
15.31150	53673
15.31962	51445
15.32773	46622
15.33587	52449
15.34398	52707
15.35212	48853
15.36023	52804
15.36835	48255
15.37648	49775
15.38460	51615
15.39272	53747
15.40085	48952
15.40897	48246
15.41710	50260
15.42522	49060
15.43333	49407
15.44147	50097
15.44958	53522
15.45772	48322
15.46583	52367
15.47395	55570
15.48208	51540
15.49020	47174
15.49833	51126
15.50645	57951
15.51457	55097
15.52270	54197
15.53082	54687
15.53893	52842
15.54707	52045
15.55518	52989
15.56332	55376
15.57143	50644
15.57955	51726
15.58768	52873
15.59580	54888
15.60393	54253
15.61205	50215
15.62017	54462
15.62830	51860
15.63642	48330
15.64453	47480
15.65267	52127
15.66078	53814
15.66892	54578
15.67703	56877
15.68515	49263
15.69328	51524
15.70140	51524
15.70953	50853
15.71765	52040
15.72577	49116
15.73390	57922
15.74202	52276
15.75015	52618
15.75827	52624
15.76638	49750
15.77452	56971
15.78263	56243
15.79075	54460
15.79888	52523
15.80700	57946
15.81513	51941
15.82325	52137
15.83137	55030
15.83950	54617
15.84762	55676
15.85575	56695
15.86387	53874
15.87198	50631
15.88012	52587
15.88823	54702
15.89635	54707
15.90448	56108
15.91260	55938
15.92073	58436
15.92885	55607
15.93697	57420
15.94510	53110
15.95322	51123
15.96135	53915
15.96947	47530
15.97758	60692
15.98572	51417
15.99383	58522
16.00197	67391
16.01008	83398
16.01820	117675
16.02633	162824
16.03445	215991
16.04257	281691
16.05070	294233
16.05882	269158
16.06695	216999
16.07507	165520
16.08318	130397
16.09132	108093
16.09943	95357
16.10757	86919
16.11568	84785
16.12380	77751
16.13193	77225
16.14005	73356
16.14818	72294
16.15630	71186
16.16442	70080
16.17255	66904
16.18067	66075
16.18878	69808
16.19692	66902
16.20503	66577
16.21317	68946
16.22128	67382
16.22940	67314
16.23753	64045
16.24565	65498
16.25378	60681
16.26190	62858
16.27002	62403
16.27815	64203
16.28627	63718
16.29438	61446
16.30252	66847
16.31063	65326
16.31877	56939
16.32688	62944
16.33500	66017
16.34313	62095
16.35125	62473
16.35938	66779
16.36750	67366
16.37562	62470
16.38375	61694
16.39187	62575
16.40000	61934
16.40812	59570
16.41623	59719
16.42437	62415
16.43248	61695
16.44060	60621
16.44873	57616
16.45685	58676
16.46498	61104
16.47310	62706
16.48122	60956
16.48935	58592
16.49747	57817
16.50560	60983
16.51372	65318
16.52183	66695
16.52997	60980
16.53808	65178
16.54622	62491
16.55433	59947
16.56245	62338
16.57058	64993
16.57870	56827
16.58682	57138
16.59495	57337
16.60307	57558
16.61120	58044
16.61932	57239
16.62743	57849
16.63557	55579
16.64368	54459
16.65182	60310
16.65993	62265
16.66805	56752
16.67618	55503
16.68430	52553
16.69242	54398
16.70055	53232
16.70867	53794
16.71680	51906
16.72492	56881
16.73303	54385
16.74117	53865
16.74928	54162
16.75742	52846
16.76553	50984
16.77365	51456
16.78178	54203
16.78990	50782
16.79803	57070
16.80615	52723
16.81427	50447
16.82240	52009
16.83052	52280
16.83863	51155
16.84677	53061
16.85488	54355
16.86302	55262
16.87113	54404
16.87925	53696
16.88738	49118
16.89550	52487
16.90363	50777
16.91175	53864
16.91987	52081
16.92800	49915
16.93612	51912
16.94425	50931
16.95237	51851
16.96048	56088
16.96862	53547
16.97673	55218
16.98485	54175
16.99298	49631
17.00110	52304
17.00923	48735
17.01735	49726
17.02547	53388
17.03360	53892
17.04172	54323
17.04985	53013
17.05797	55192
17.06608	51801
17.07422	48975
17.08233	49776
17.09045	48906
17.09858	51433
17.10670	50540
17.11483	55129
17.12295	50928
17.13107	56283
17.13920	58148
17.14732	50906
17.15545	50267
17.16357	50951
17.17168	46190
17.17982	51812
17.18793	50034
17.19607	50399
17.20418	50453
17.21230	47276
17.22043	53471
17.22855	48952
17.23667	43495
17.24480	45094
17.25292	53680
17.26105	49683
17.26917	47059
17.27728	51575
17.28542	51109
17.29353	49106
17.30167	52650
17.30978	55222
17.31790	48064
17.32603	50454
17.33415	54006
17.34227	51511
17.35040	50957
17.35852	56771
17.36665	64862
17.37477	58477
17.38288	62140
17.39102	66603
17.39913	61427
17.40727	68000
17.41538	65135
17.42350	56629
17.43163	58095
17.43975	52148
17.44788	53503
17.45600	56114
17.46412	52959
17.47225	56753
17.48037	55664
17.48848	51762
17.49662	53627
17.50473	51040
17.51287	52630
17.52098	58601
17.52910	54101
17.53723	55242
17.54535	54721
17.55348	54868
17.56160	55579
17.56972	54823
17.57785	55258
17.58597	52925
17.59410	55330
17.60222	50505
17.61033	50360
17.61847	50068
17.62658	48726
17.63470	48960
17.64283	49167
17.65095	51568
17.65908	52372
17.66720	53792
17.67532	60502
17.68345	59229
17.69157	67977
17.69970	61646
17.70782	66362
17.71593	58142
17.72407	63053
17.73218	60308
17.74030	55458
17.74843	57766
17.75655	59700
17.76468	64286
17.77280	63074
17.78092	63073
17.78905	59382
17.79717	54544
17.80530	57859
17.81342	54650
17.82153	54194
17.82967	61827
17.83778	62166
17.84592	65255
17.85403	67477
17.86215	65139
17.87028	66256
17.87840	63408
17.88652	62325
17.89465	59820
17.90277	54646
17.91090	57146
17.91902	57871
17.92713	53892
17.93527	57340
17.94338	53446
17.95152	54171
17.95963	57621
17.96775	53225
17.97588	50316
17.98400	49811
17.99213	60226
18.00025	56604
18.00837	50635
18.01650	46365
18.02462	49820
18.03273	51791
18.04087	52616
18.04898	57535
18.05712	59545
18.06523	57098
18.07335	60658
18.08148	59912
18.08960	63224
18.09773	75661
18.10585	72534
18.11397	68520
18.12210	75629
18.13022	74599
18.13833	67067
18.14647	70496
18.15458	71941
18.16272	62133
18.17083	67908
18.17895	64941
18.18708	62939
18.19520	63458
18.20333	61986
18.21145	56499
18.21957	59942
18.22770	64824
18.23582	63273
18.24395	68673
18.25207	69844
18.26018	65280
18.26832	68961
18.27643	73696
18.28455	71726
18.29268	65231
18.30080	68123
18.30893	61731
18.31705	59680
18.32517	63336
18.33330	52928
18.34142	54277
18.34955	56066
18.35767	56393
18.36578	54736
18.37392	55377
18.38203	53129
18.39015	50602
18.39828	54963
18.40640	55692
18.41453	56887
18.42265	55596
18.43077	50847
18.43890	48927
18.44702	52377
18.45515	53925
18.46327	54432
18.47138	56211
18.47952	59834
18.48763	58123
18.49577	52499
18.50388	50707
18.51200	49966
18.52013	52150
18.52825	52686
18.53637	52084
18.54450	51581
18.55262	53833
18.56075	54335
18.56887	52278
18.57698	53323
18.58512	52609
18.59323	51444
18.60137	53895
18.60948	54191
18.61760	52757
18.62573	57040
18.63385	60881
18.64198	49601
18.65010	52120
18.65822	51308
18.66635	46347
18.67447	51343
18.68258	53721
18.69072	52703
18.69883	47321
18.70697	49012
18.71508	50826
18.72320	53538
18.73133	53123
18.73945	51343
18.74758	49475
18.75570	49498
18.76382	45865
18.77195	52449
18.78007	52000
18.78818	49664
18.79632	46590
18.80443	48424
18.81257	54588
18.82068	50422
18.82880	50664
18.83693	49360
18.84505	49707
18.85318	55456
18.86130	49490
18.86942	49623
18.87755	53097
18.88567	47250
18.89380	54071
18.90192	51635
18.91003	54666
18.91817	47415
18.92628	49043
18.93440	51384
18.94253	47120
18.95065	53024
18.95878	52969
18.96690	53102
18.97502	55446
18.98315	53348
18.99127	51801
18.99940	50799
19.00752	49933
19.01563	56775
19.02377	46643
19.03188	54103
19.04002	47589
19.04813	56308
19.05625	53542
19.06438	49006
19.07250	50860
19.08062	54613
19.08875	59708
19.09687	60274
19.10500	71805
19.11312	73767
19.12123	82887
19.12937	85581
19.13748	81543
19.14562	78049
19.15373	72727
19.16185	72134
19.16998	68898
19.17810	69059
19.18622	65995
19.19435	66443
19.20247	66674
19.21060	66675
19.21872	62069
19.22683	62494
19.23497	58912
19.24308	59064
19.25122	56432
19.25933	60330
19.26745	61709
19.27558	67721
19.28370	86954
19.29183	103867
19.29995	131103
19.30807	150229
19.31620	159756
19.32432	146496
19.33243	134150
19.34057	112336
19.34868	94049
19.35682	81955
19.36493	76111
19.37305	76465
19.38118	73006
19.38930	67333
19.39743	71851
19.40555	66004
19.41367	68019
19.42180	64679
19.42992	68334
19.43803	63571
19.44617	62622
19.45428	64478
19.46242	63005
19.47053	59747
19.47865	63895
19.48678	63073
19.49490	72060
19.50303	88479
19.51115	117255
19.51927	153162
19.52740	190830
19.53552	209475
19.54365	189198
19.55177	146343
19.55988	107362
19.56802	87199
19.57613	81104
19.58425	71278
19.59238	62331
19.60050	62668
19.60863	60635
19.61675	64850
19.62487	61590
19.63300	67184
19.64112	85201
19.64925	117150
19.65737	189222
19.66548	290603
19.67362	409575
19.68173	533872
19.68987	637870
19.69798	612122
19.70610	545605
19.71423	415229
19.72235	328630
19.73047	263161
19.73860	208076
19.74672	197893
19.75485	175720
19.76297	168989
19.77108	156795
19.77922	140300
19.78733	127882
19.79547	127248
19.80358	126180
19.81170	118772
19.81983	125560
19.82795	113334
19.83608	116718
19.84420	110571
19.85232	107266
19.86045	116369
19.86857	116134
19.87668	120520
19.88482	146510
19.89293	195240
19.90107	264616
19.90918	352747
19.91730	447012
19.92543	538424
19.93355	579649
19.94168	576759
19.94980	571801
19.95792	559414
19.96605	559139
19.97417	530359
19.98228	508936
19.99042	498071
19.99853	474798
20.00667	446106
20.01478	446593
20.02290	441241
20.03103	416655
20.03915	395090
20.04728	355963
20.05540	324838
20.06352	275004
20.07165	238576
20.07977	202856
20.08790	176312
20.09602	170522
20.10413	155647
20.11227	149655
20.12038	152334
20.12850	150713
20.13663	139991
20.14475	135843
20.15288	139998
20.16100	135005
20.16912	140383
20.17725	134937
20.18537	132994
20.19350	130891
20.20162	128234
20.20973	125568
20.21787	127052
20.22598	133063
20.23410	122502
20.24223	132478
20.25035	146437
20.25848	179311
20.26660	242339
20.27472	364884
20.28285	507789
20.29097	655837
20.29910	740467
20.30722	717422
20.31533	627485
20.32347	484881
20.33158	360626
20.33972	286675
20.34783	230639
20.35595	185257
20.36408	175500
20.37220	162595
20.38032	154702
20.38845	141459
20.39657	136447
20.40470	139216
20.41282	140991
20.42093	143306
20.42907	157327
20.43718	188519
20.44532	221450
20.45343	244674
20.46155	251689
20.46968	259906
20.47780	247419
20.48593	210282
20.49405	188900
20.50217	164691
20.51030	154791
20.51842	141923
20.52653	128529
20.53467	127944
20.54278	117755
20.55092	119005
20.55903	111834
20.56715	115978
20.57528	106408
20.58340	110402
20.59153	102955
20.59965	95011
20.60777	100021
20.61590	94797
20.62402	96578
20.63213	87628
20.64027	85347
20.64838	89974
20.65652	88522
20.66463	82124
20.67275	91322
20.68088	87475
20.68900	86742
20.69713	86242
20.70525	83471
20.71337	87802
20.72150	88118
20.72962	87881
20.73775	85420
20.74587	83936
20.75398	78149
20.76212	83891
20.77023	78599
20.77835	82363
20.78648	78470
20.79460	76557
20.80273	72149
20.81085	78040
20.81897	82472
20.82710	81561
20.83522	81525
20.84335	79850
20.85147	76818
20.85958	76276
20.86772	80854
20.87583	73934
20.88397	75339
20.89208	74972
20.90020	76870
20.90833	76808
20.91645	74692
20.92457	75723
20.93270	75912
20.94082	73853
20.94895	78059
20.95707	74088
20.96518	74562
20.97332	73071
20.98143	72313
20.98957	78760
20.99768	73435
21.00580	78606
21.01393	71339
21.02205	75208
21.03017	71176
21.03830	70523
21.04642	71601
21.05455	72114
21.06267	68474
21.07078	71942
21.07892	70447
21.08703	70214
21.09517	70874
21.10328	67620
21.11140	69820
21.11953	68746
21.12765	73684
21.13578	69977
21.14390	74564
21.15202	67641
21.16015	74981
21.16827	72037
21.17638	74480
21.18452	73690
21.19263	71550
21.20077	68833
21.20888	73199
21.21700	72493
21.22513	76378
21.23325	73154
21.24138	75187
21.24950	72713
21.25762	72456
21.26575	76089
21.27387	73789
21.28198	76967
21.29012	75795
21.29823	74378
21.30637	68521
21.31448	69924
21.32260	70949
21.33073	66385
21.33885	69541
21.34698	67641
21.35510	65516
21.36322	59887
21.37135	67738
21.37947	66824
21.38760	66816
21.39572	69124
21.40383	64156
21.41197	63126
21.42008	66012
21.42820	69266
21.43633	71563
21.44445	74492
21.45258	72493
21.46070	69285
21.46882	67852
21.47695	62486
21.48507	59772
21.49320	66129
21.50132	67293
21.50943	63008
21.51757	63090
21.52568	58544
21.53382	65666
21.54193	63126
21.55005	68308
21.55818	68195
21.56630	66093
21.57442	65735
21.58255	74666
21.59067	64088
21.59880	63749
21.60692	64751
21.61503	71406
21.62317	77966
21.63128	106795
21.63942	131634
21.64753	158334
21.65565	183419
21.66378	190477
21.67190	171616
21.68002	160303
21.68815	131418
21.69627	108037
21.70440	94655
21.71252	84848
21.72063	76400
21.72877	73895
21.73688	69302
21.74502	70013
21.75313	68461
21.76125	70761
21.76938	70959
21.77750	69813
21.78563	69658
21.79375	69333
21.80187	69816
21.81000	70241
21.81812	80799
21.82623	90655
21.83437	109956
21.84248	133634
21.85062	147394
21.85873	156702
21.86685	143811
21.87498	135279
21.88310	104902
21.89123	101109
21.89935	85896
21.90747	77108
21.91560	71496
21.92372	68254
21.93185	65577
21.93997	66134
21.94808	65319
21.95622	67337
21.96433	65041
21.97245	65066
21.98058	64272
21.98870	63004
21.99683	57616
22.00495	59281
22.01307	58147
22.02120	57289
22.02932	58860
22.03745	60098
22.04557	56673
22.05368	55502
22.06182	53616
22.06993	53149
22.07805	57782
22.08618	55692
22.09430	57599
22.10243	56128
22.11055	53007
22.11867	63331
22.12680	61302
22.13492	55624
22.14305	59112
22.15117	55908
22.15928	55065
22.16742	64133
22.17553	65900
22.18367	64499
22.19178	57802
22.19990	55031
22.20803	67443
22.21615	59825
22.22427	70329
22.23240	69272
22.24052	78835
22.24865	75675
22.25677	75477
22.26488	70809
22.27302	65255
22.28113	64453
22.28927	61266
22.29738	56018
22.30550	56694
22.31363	58914
22.32175	56218
22.32988	60650
22.33800	57930
22.34612	60488
22.35425	62380
22.36237	60348
22.37048	67283
22.37862	65631
22.38673	60886
22.39487	61410
22.40298	59942
22.41110	59771
22.41923	55218
22.42735	59064
22.43548	58172
22.44360	62000
22.45172	56713
22.45985	60491
22.46797	62270
22.47608	63664
22.48422	59648
22.49233	59827
22.50047	56961
22.50858	51523
22.51670	51368
22.52483	47881
22.53295	52304
22.54108	46223
22.54920	50124
22.55732	48168
22.56545	50519
22.57357	49275
22.58170	51932
22.58982	46095
22.59793	49029
22.60607	48690
22.61418	50075
22.62230	46969
22.63043	46004
22.63855	47194
22.64668	47485
22.65480	45987
22.66292	44630
22.67105	50876
22.67917	49993
22.68730	50201
22.69542	49749
22.70353	48603
22.71167	50089
22.71978	51115
22.72790	50109
22.73603	51869
22.74415	48041
22.75228	49122
22.76040	47219
22.76852	48245
22.77665	50243
22.78477	47156
22.79290	46108
22.80102	43203
22.80913	43712
22.81727	45097
22.82538	42547
22.83352	45680
22.84163	47369
22.84975	49373
22.85788	47613
22.86600	52523
22.87412	52123
22.88225	57386
22.89037	54499
22.89850	51724
22.90662	59932
22.91473	60424
22.92287	70544
22.93098	84834
22.93912	84547
22.94723	91118
22.95535	91915
22.96348	93543
22.97160	89627
22.97973	86480
22.98785	81438
22.99597	78001
23.00410	72416
23.01222	68052
23.02033	64844
23.02847	55964
23.03658	56093
23.04472	50950
23.05283	48915
23.06095	54834
23.06908	52830
23.07720	52626
23.08533	51692
23.09345	52395
23.10157	55448
23.10970	49660
23.11782	50315
23.12593	50822
23.13407	50073
23.14218	50293
23.15032	54067
23.15843	47410
23.16655	52251
23.17468	50119
23.18280	51465
23.19093	49893
23.19905	46470
23.20717	52264
23.21530	50767
23.22342	48806
23.23155	48372
23.23967	49024
23.24778	49282
23.25592	42697
23.26403	46782
23.27215	49467
23.28028	48746
23.28840	49090
23.29653	48676
23.30465	45428
23.31277	46587
23.32090	47712
23.32902	46290
23.33715	46302
23.34527	44179
23.35338	42905
23.36152	51476
23.36963	45557
23.37777	46609
23.38588	46620
23.39400	48276
23.40213	52888
23.41025	48749
23.41837	50469
23.42650	53394
23.43462	49771
23.44275	49665
23.45087	49752
23.45898	50278
23.46712	50899
23.47523	52732
23.48337	49097
23.49148	51461
23.49960	47508
23.50773	48085
23.51585	52277
23.52397	47840
23.53210	49706
23.54022	51377
23.54835	48577
23.55647	56170
23.56458	50783
23.57272	55708
23.58083	48394
23.58897	57296
23.59708	53431
23.60520	58127
23.61333	53632
23.62145	48527
23.62958	53586
23.63770	55541
23.64582	54902
23.65395	57743
23.66207	65249
23.67018	76597
23.67832	88330
23.68643	99787
23.69457	99347
23.70268	103143
23.71080	99957
23.71893	93315
23.72705	96592
23.73518	91044
23.74330	100400
23.75142	155842
23.75955	332860
23.76767	891167
23.77578	2205506
23.78392	4232873
23.79203	6053906
23.80017	7052933
23.80828	6907614
23.81640	5943589
23.82453	4578275
23.83265	3265328
23.84078	2306936
23.84890	1597402
23.85702	1158207
23.86515	901652
23.87327	730804
23.88140	633404
23.88952	555484
23.89763	471622
23.90577	431172
23.91388	390123
23.92200	360315
23.93013	334063
23.93825	321445
23.94638	291347
23.95450	285570
23.96262	265484
23.97075	251474
23.97887	238618
23.98700	225108
23.99512	216619
24.00323	207609
24.01137	203082
24.01948	197067
24.02762	187625
24.03573	183806
24.04385	176975
24.05198	178181
24.06010	169287
24.06822	158937
24.07635	156161
24.08447	149444
24.09260	152746
24.10072	145656
24.10883	144638
24.11697	146003
24.12508	139506
24.13322	147033
24.14133	149352
24.14945	161247
24.15758	158388
24.16570	155730
24.17382	156304
24.18195	149803
24.19007	140991
24.19820	131147
24.20632	129685
24.21443	132437
24.22257	134544
24.23068	152261
24.23882	162048
24.24693	155337
24.25505	142811
24.26318	139786
24.27130	123534
24.27943	126186
24.28755	117014
24.29567	119226
24.30380	110067
24.31192	110109
24.32003	106937
24.32817	103398
24.33628	98488
24.34442	98382
24.35253	98427
24.36065	95198
24.36878	95947
24.37690	100229
24.38503	96475
24.39315	105356
24.40127	125635
24.40940	146538
24.41752	158990
24.42565	176631
24.43377	162911
24.44188	146835
24.45002	121203
24.45813	102008
24.46625	93694
24.47438	93156
24.48250	91252
24.49063	92129
24.49875	98101
24.50687	103144
24.51500	116108
24.52312	127464
24.53125	139502
24.53937	137070
24.54748	138372
24.55562	125437
24.56373	113141
24.57185	104710
24.57998	97281
24.58810	97352
24.59623	96568
24.60435	90860
24.61247	89065
24.62060	88383
24.62872	89884
24.63685	89645
24.64497	95792
24.65308	92518
24.66122	90237
24.66933	91185
24.67747	97065
24.68558	97097
24.69370	90548
24.70183	84509
24.70995	83891
24.71807	80178
24.72620	77672
24.73432	79260
24.74245	72448
24.75057	79007
24.75868	78891
24.76682	74962
24.77493	79032
24.78307	71877
24.79118	74663
24.79930	78221
24.80743	75180
24.81555	69294
24.82367	69288
24.83180	65498
24.83992	69569
24.84805	67280
24.85617	71373
24.86428	72236
24.87242	67531
24.88053	68310
24.88867	77990
24.89678	74417
24.90490	70879
24.91303	70572
24.92115	71430
24.92928	71529
24.93740	69840
24.94552	72009
24.95365	69049
24.96177	70350
24.96988	61542
24.97802	65520
24.98613	64626
24.99427	66274
25.00238	66121
25.01050	65440
25.01863	65984
25.02675	62397
25.03488	60869
25.04300	65681
25.05112	71246
25.05925	65912
25.06737	67443
25.07550	62897
25.08362	64067
25.09173	64852
25.09987	62355
25.10798	67604
25.11610	66049
25.12423	70171
25.13235	74615
25.14048	87305
25.14860	100165
25.15672	114403
25.16485	130266
25.17297	129365
25.18110	116163
25.18922	109095
25.19733	95528
25.20547	85633
25.21358	82898
25.22172	78394
25.22983	79061
25.23795	73016
25.24608	74357
25.25420	68939
25.26232	66136
25.27045	68111
25.27857	71712
25.28670	65380
25.29482	73051
25.30293	76900
25.31107	82162
25.31918	84805
25.32732	85133
25.33543	91620
25.34355	79398
25.35168	74070
25.35980	76503
25.36792	71827
25.37605	66256
25.38417	62726
25.39230	59852
25.40042	60151
25.40853	60256
25.41667	59095
25.42478	56306
25.43292	55709
25.44103	59203
25.44915	59682
25.45728	58035
25.46540	56547
25.47353	63291
25.48165	68199
25.48977	69889
25.49790	73915
25.50602	74563
25.51413	74168
25.52227	68307
25.53038	64935
25.53852	61851
25.54663	62318
25.55475	65707
25.56288	58867
25.57100	57504
25.57913	58318
25.58725	57568
25.59537	53604
25.60350	58561
25.61162	55731
25.61973	55286
25.62787	58411
25.63598	56928
25.64412	60030
25.65223	55854
25.66035	59703
25.66848	61302
25.67660	59813
25.68473	59116
25.69285	54088
25.70097	57499
25.70910	56365
25.71722	58697
25.72535	57529
25.73347	62742
25.74158	57147
25.74972	55929
25.75783	56344
25.76595	57459
25.77408	57969
25.78220	60746
25.79033	54286
25.79845	55677
25.80657	59568
25.81470	60125
25.82282	59704
25.83095	60625
25.83907	58273
25.84718	57828
25.85532	60553
25.86343	54223
25.87157	56455
25.87968	58060
25.88780	55112
25.89593	57153
25.90405	57067
25.91217	54160
25.92030	60540
25.92842	52922
25.93655	54890
25.94467	56043
25.95278	52371
25.96092	55359
25.96903	52353
25.97717	49461
25.98528	52800
25.99340	53322
26.00153	50052
26.00965	50730
26.01777	55571
26.02590	49397
26.03402	52246
26.04215	52189
26.05027	55093
26.05838	55134
26.06652	52285
26.07463	51832
26.08277	56496
26.09088	54037
26.09900	56039
26.10713	57662
26.11525	56812
26.12338	56282
26.13150	65705
26.13962	69077
26.14775	68952
26.15587	69501
26.16398	67536
26.17212	74782
26.18023	73300
26.18837	68606
26.19648	65019
26.20460	58089
26.21273	64307
26.22085	58481
26.22898	57232
26.23710	56874
26.24522	52925
26.25335	52174
26.26147	54559
26.26960	52099
26.27772	56610
26.28583	65555
26.29397	58076
26.30208	53547
26.31020	52510
26.31833	57225
26.32645	53056
26.33458	55483
26.34270	46392
26.35082	49110
26.35895	48923
26.36707	51812
26.37520	51781
26.38332	54188
26.39143	54126
26.39957	54119
26.40768	56298
26.41580	56635
26.42393	54869
26.43205	55917
26.44018	55405
26.44830	53874
26.45642	50611
26.46455	57148
26.47267	47839
26.48080	53294
26.48892	52747
26.49703	47027
26.50517	49883
26.51328	48920
26.52142	50428
26.52953	47230
26.53765	50700
26.54578	48440
26.55390	49528
26.56202	48472
26.57015	49082
26.57827	47051
26.58640	48584
26.59452	52655
26.60263	49593
26.61077	48367
26.61888	51264
26.62702	50381
26.63513	50716
26.64325	46223
26.65138	54699
26.65950	52206
26.66762	57567
26.67575	57441
26.68387	60192
26.69200	61411
26.70012	64886
26.70823	64274
26.71637	62655
26.72448	58629
26.73262	56559
26.74073	56650
26.74885	57520
26.75698	54628
26.76510	58442
26.77323	58535
26.78135	58507
26.78947	56713
26.79760	61723
26.80572	61482
26.81383	64746
26.82197	68042
26.83008	65054
26.83822	62671
26.84633	67120
26.85445	62241
26.86258	65781
26.87070	65601
26.87883	64803
26.88695	70281
26.89507	65976
26.90320	67895
26.91132	65084
26.91945	62103
26.92757	67217
26.93568	65960
26.94382	71915
26.95193	81088
26.96005	104958
26.96818	194546
26.97630	416935
26.98443	974200
26.99255	2419964
27.00067	5217608
27.00880	8886478
27.01692	1.206445E+07
27.02505	1.283238E+07
27.03317	1.173077E+07
27.04128	9864916
27.04942	7552634
27.05753	5611777
27.06565	3817758
27.07378	2771069
27.08190	2019333
27.09003	1547109
27.09815	1251904
27.10627	995250
27.11440	841546
27.12252	719191
27.13065	629901
27.13877	577158
27.14688	522089
27.15502	476612
27.16313	429319
27.17127	416955
27.17938	372307
27.18750	353116
27.19563	333133
27.20375	316748
27.21187	305294
27.22000	277610
27.22812	267932
27.23625	257608
27.24437	249488
27.25248	239363
27.26062	231722
27.26873	218524
27.27687	209655
27.28498	204600
27.29310	213633
27.30123	196196
27.30935	189320
27.31748	184026
27.32560	176874
27.33372	170999
27.34185	176077
27.34997	166324
27.35808	162431
27.36622	154282
27.37433	150193
27.38247	152395
27.39058	148785
27.39870	148423
27.40683	136814
27.41495	132828
27.42308	140079
27.43120	128149
27.43932	132317
27.44745	125800
27.45557	131916
27.46368	124629
27.47182	126623
27.47993	125750
27.48807	123119
27.49618	119159
27.50430	115165
27.51243	113926
27.52055	118186
27.52868	111147
27.53680	121281
27.54492	124253
27.55305	127811
27.56117	122233
27.56930	117173
27.57742	108151
27.58553	107371
27.59367	103492
27.60178	112750
27.60990	105895
27.61803	103709
27.62615	107563
27.63428	105497
27.64240	109889
27.65052	105225
27.65865	103505
27.66677	96907
27.67490	90752
27.68302	95845
27.69113	91748
27.69927	91738
27.70738	95574
27.71552	92292
27.72363	91756
27.73175	87158
27.73988	89712
27.74800	86076
27.75612	82514
27.76425	85807
27.77237	86085
27.78050	83449
27.78862	86780
27.79673	86852
27.80487	85305
27.81298	80549
27.82112	82960
27.82923	86628
27.83735	80108
27.84548	87830
27.85360	88301
27.86172	85230
27.86985	83474
27.87797	80500
27.88610	82923
27.89422	81678
27.90233	75674
27.91047	82662
27.91858	77820
27.92672	79065
27.93483	73015
27.94295	75781
27.95108	70980
27.95920	76217
27.96733	71484
27.97545	69564
27.98357	75805
27.99170	72969
27.99982	71488
28.00793	67510
28.01607	70694
28.02418	70810
28.03232	72252
28.04043	71288
28.04855	67966
28.05668	65380
28.06480	69019
28.07293	67312
28.08105	71888
28.08917	67695
28.09730	66888
28.10542	66965
28.11353	68238
28.12167	65562
28.12978	62416
28.13792	66965
28.14603	69056
28.15415	59574
28.16228	66807
28.17040	63732
28.17853	64865
28.18665	64388
28.19477	65452
28.20290	68745
28.21102	76507
28.21915	85328
28.22727	87952
28.23538	89653
28.24352	92332
28.25163	82248
28.25975	77380
28.26788	73246
28.27600	77075
28.28413	76575
28.29225	96985
28.30037	122857
28.30850	189226
28.31662	303467
28.32475	486274
28.33287	731523
28.34098	1051465
28.34912	1410663
28.35723	1808222
28.36537	2164908
28.37348	2454682
28.38160	2509164
28.38973	2543695
28.39785	2373795
28.40597	2126288
28.41410	1863443
28.42222	1587910
28.43035	1367236
28.43847	1166236
28.44658	981602
28.45472	830940
28.46283	709421
28.47097	621898
28.47908	532243
28.48720	470279
28.49533	436141
28.50345	380493
28.51157	359237
28.51970	330453
28.52782	305801
28.53595	281125
28.54407	266289
28.55218	267580
28.56032	240838
28.56843	239036
28.57657	225505
28.58468	215954
28.59280	198785
28.60093	201005
28.60905	187979
28.61718	188215
28.62530	184047
28.63342	174551
28.64155	173301
28.64967	175962
28.65778	180650
28.66592	176108
28.67403	176807
28.68217	169129
28.69028	168503
28.69840	161216
28.70653	159414
28.71465	149275
28.72278	151404
28.73090	139312
28.73902	133733
28.74715	135165
28.75527	134105
28.76340	136049
28.77152	140349
28.77963	136768
28.78777	159421
28.79588	163386
28.80400	146464
28.81213	149645
28.82025	139789
28.82838	127785
28.83650	128872
28.84462	121254
28.85275	117956
28.86087	111748
28.86900	114502
28.87712	110659
28.88523	108957
28.89337	108762
28.90148	109823
28.90960	107518
28.91773	103005
28.92585	108696
28.93398	107194
28.94210	103708
28.95022	98684
28.95835	103167
28.96647	102271
28.97460	107759
28.98272	109215
28.99083	100358
28.99897	105837
29.00708	98390
29.01522	94716
29.02333	98941
29.03145	97976
29.03958	95210
29.04770	94237
29.05582	89895
29.06395	98623
29.07207	91807
29.08020	90432
29.08832	93730
29.09643	93690
29.10457	90282
29.11268	94747
29.12082	92987
29.12893	82587
29.13705	88704
29.14518	90249
29.15330	89162
29.16142	87996
29.16955	89153
29.17767	88014
29.18580	89094
29.19392	91943
29.20203	89618
29.21017	83393
29.21828	85617
29.22642	81853
29.23453	89769
29.24265	83123
29.25078	87462
29.25890	87481
29.26703	82944
29.27515	88909
29.28327	86668
29.29140	85771
29.29952	89680
29.30763	80747
29.31577	89445
29.32388	83607
29.33202	80335
29.34013	81471
29.34825	84384
29.35638	79802
29.36450	84660
29.37263	80841
29.38075	78095
29.38887	77952
29.39700	81317
29.40512	87142
29.41325	84686
29.42137	77135
29.42948	79934
29.43762	79281
29.44573	80097
29.45385	78912
29.46198	77607
29.47010	79479
29.47823	73617
29.48635	79605
29.49447	83083
29.50260	86485
29.51072	89147
29.51885	94106
29.52697	92180
29.53508	88052
29.54322	83704
29.55133	74387
29.55945	71541
29.56758	71201
29.57570	72998
29.58383	68464
29.59195	72215
29.60007	73409
29.60820	75350
29.61632	67200
29.62445	75089
29.63257	66366
29.64068	72118
29.64882	66630
29.65693	66849
29.66507	72130
29.67318	68192
29.68130	68268
29.68943	66101
29.69755	62877
29.70567	62957
29.71380	63654
29.72192	64017
29.73005	61205
29.73817	63125
29.74628	64473
29.75442	67161
29.76253	66999
29.77067	63119
29.77878	64134
29.78690	66658
29.79503	61209
29.80315	62880
29.81128	64142
29.81940	63097
29.82752	63538
29.83565	59292
29.84377	61802
29.85188	62816
29.86002	58431
29.86813	63649
29.87627	66634
29.88438	76681
29.89250	88269
29.90063	101881
29.90875	112293
29.91688	117319
29.92500	115453
29.93312	114405
29.94125	109428
29.94937	118431
29.95748	129403
29.96562	158258
29.97373	212891
29.98187	262207
29.98998	311124
29.99810	377544
30.00623	459532
30.01435	499103
30.02248	581041
30.03060	648778
30.03872	688398
30.04685	685058
30.05497	679346
30.06310	670257
30.07122	670184
30.07933	638553
30.08747	622925
30.09558	574039
30.10370	511602
30.11183	472058
30.11995	425157
30.12808	383465
30.13620	350418
30.14432	330635
30.15245	288336
30.16057	278550
30.16870	255277
30.17682	227248
30.18493	227099
30.19307	201129
30.20118	180407
30.20930	184194
30.21743	169482
30.22555	167376
30.23368	147699
30.24180	144000
30.24992	143623
30.25805	130024
30.26617	125513
30.27430	120366
30.28242	116268
30.29053	119222
30.29867	113501
30.30678	113018
30.31492	106596
30.32303	107858
30.33115	107643
30.33928	104268
30.34740	99838
30.35552	100399
30.36365	99552
30.37177	89480
30.37990	98511
30.38802	93329
30.39613	94096
30.40427	89847
30.41238	91839
30.42052	88565
30.42863	84730
30.43675	89979
30.44488	82381
30.45300	84872
30.46113	81104
30.46925	82980
30.47737	85680
30.48550	80957
30.49362	86242
30.50173	78435
30.50987	80039
30.51798	84154
30.52612	79188
30.53423	81276
30.54235	84005
30.55048	77820
30.55860	78480
30.56673	77016
30.57485	77519
30.58297	75680
30.59110	72409
30.59922	74005
30.60735	72410
30.61547	71695
30.62358	69332
30.63172	73328
30.63983	70206
30.64795	74346
30.65608	67819
30.66420	69159
30.67233	70604
30.68045	70398
30.68857	69774
30.69670	67383
30.70482	71696
30.71295	66375
30.72107	68076
30.72918	65728
30.73732	71582
30.74543	67251
30.75355	64762
30.76168	66602
30.76980	66391
30.77793	67049
30.78605	69183
30.79417	68121
30.80230	70089
30.81042	71918
30.81855	75053
30.82667	82487
30.83478	77434
30.84292	73399
30.85103	75699
30.85917	72122
30.86728	66556
30.87540	62061
30.88353	69714
30.89165	70665
30.89977	64916
30.90790	62861
30.91602	62263
30.92415	60921
30.93227	64394
30.94038	58519
30.94852	62302
30.95663	61780
30.96477	63962
30.97288	60643
30.98100	62971
30.98913	63557
30.99725	64115
31.00537	59896
31.01350	58319
31.02162	64339
31.02975	64203
31.03787	64234
31.04598	60068
31.05412	59740
31.06223	58021
31.07037	62829
31.07848	64096
31.08660	64755
31.09473	73381
31.10285	88712
31.11098	93235
31.11910	102746
31.12722	102230
31.13535	94598
31.14347	83176
31.15158	76977
31.15972	73581
31.16783	68478
31.17597	71853
31.18408	69209
31.19220	81315
31.20033	79288
31.20845	81479
31.21658	92325
31.22470	99686
31.23282	108214
31.24095	108792
31.24907	106204
31.25720	90399
31.26532	92054
31.27343	76001
31.28157	72679
31.28968	67189
31.29780	63412
31.30593	64918
31.31405	63350
31.32218	67788
31.33030	64325
31.33842	56162
31.34655	56922
31.35467	55138
31.36280	58771
31.37092	56914
31.37903	56169
31.38717	60152
31.39528	60411
31.40340	56411
31.41153	56408
31.41965	57566
31.42778	54365
31.43590	61861
31.44402	61282
31.45215	61201
31.46027	61469
31.46840	58929
31.47652	58578
31.48463	53173
31.49277	55453
31.50088	53132
31.50902	57359
31.51713	54168
31.52525	54418
31.53338	53087
31.54150	51693
31.54962	54539
31.55775	56319
31.56587	60442
31.57400	57128
31.58212	52553
31.59023	52881
31.59837	56413
31.60648	55851
31.61462	55570
31.62273	53551
31.63085	53448
31.63898	58328
31.64710	58265
31.65523	61253
31.66335	60126
31.67147	61724
31.67960	62062
31.68772	56607
31.69583	57606
31.70397	58508
31.71208	54967
31.72022	54284
31.72833	60096
31.73645	57563
31.74458	55456
31.75270	55116
31.76083	54228
31.76895	55525
31.77707	54850
31.78520	55914
31.79332	58357
31.80143	57874
31.80957	58126
31.81768	58777
31.82582	59250
31.83393	57496
31.84205	62533
31.85018	55738
31.85830	62284
31.86643	60076
31.87455	61982
31.88267	68290
31.89080	66565
31.89892	64261
31.90705	77692
31.91517	88143
31.92328	102118
31.93142	129972
31.93953	158845
31.94765	183807
31.95578	222477
31.96390	248390
31.97203	284403
31.98015	293267
31.98827	308606
31.99640	297825
32.00452	300543
32.01265	294209
32.02077	272445
32.02888	244739
32.03702	232914
32.04513	217864
32.05325	193388
32.06138	176336
32.06950	174667
32.07763	164466
32.08575	151993
32.09387	149230
32.10200	144702
32.11012	135017
32.11825	130821
32.12637	112310
32.13448	106581
32.14262	111979
32.15073	98388
32.15887	98376
32.16698	88121
32.17510	91312
32.18323	85569
32.19135	87538
32.19947	83939
32.20760	77089
32.21572	81883
32.22385	78473
32.23197	80107
32.24008	78705
32.24822	84340
32.25633	75264
32.26447	69358
32.27258	62910
32.28070	77850
32.28883	73685
32.29695	68420
32.30508	68882
32.31320	66833
32.32132	67837
32.32945	68237
32.33757	71575
32.34568	69953
32.35382	72798
32.36193	68776
32.37007	69020
32.37818	67665
32.38630	65807
32.39443	66406
32.40255	65945
32.41068	68644
32.41880	61868
32.42692	64793
32.43505	65691
32.44317	60534
32.45128	65878
32.45942	64676
32.46753	68166
32.47567	57825
32.48378	62215
32.49190	64000
32.50003	57506
32.50815	58017
32.51628	57845
32.52440	62248
32.53252	62724
32.54065	59765
32.54877	58480
32.55690	60314
32.56502	59083
32.57313	56912
32.58127	59326
32.58938	62864
32.59750	59250
32.60563	57071
32.61375	56459
32.62188	54109
32.63000	55994
32.63812	56305
32.64625	57212
32.65437	61421
32.66250	62854
32.67062	69744
32.67873	70981
32.68687	83378
32.69498	80562
32.70312	83419
32.71123	75425
32.71935	67836
32.72748	63630
32.73560	67674
32.74372	59128
32.75185	58923
32.75997	56754
32.76810	59785
32.77622	55237
32.78433	49840
32.79247	60124
32.80058	53957
32.80872	54073
32.81683	54242
32.82495	51569
32.83308	51695
32.84120	56316
32.84932	53814
32.85745	55879
32.86557	55185
32.87370	47757
32.88182	51947
32.88993	57390
32.89807	53682
32.90618	53262
32.91432	50340
32.92243	50634
32.93055	52648
32.93868	51020
32.94680	56771
32.95493	49233
32.96305	54090
32.97117	48587
32.97930	53883
32.98742	52983
32.99553	54964
33.00367	57816
33.01178	54015
33.01992	58002
33.02803	57143
33.03615	50140
33.04428	54966
33.05240	55393
33.06053	51575
33.06865	49963
33.07677	55767
33.08490	50143
33.09302	55629
33.10115	61547
33.10927	64439
33.11738	63286
33.12552	70688
33.13363	73886
33.14175	70393
33.14988	72710
33.15800	62755
33.16613	57217
33.17425	58971
33.18237	54594
33.19050	52612
33.19862	57678
33.20675	59976
33.21487	65166
33.22298	56569
33.23112	58712
33.23923	59120
33.24735	56667
33.25548	56172
33.26360	54525
33.27173	53749
33.27985	54860
33.28797	55685
33.29610	50339
33.30422	51018
33.31235	54425
33.32047	52613
33.32858	52670
33.33672	50414
33.34483	49559
33.35297	55085
33.36108	54315
33.36920	53536
33.37733	54475
33.38545	54054
33.39357	52370
33.40170	50459
33.40982	52508
33.41795	54023
33.42607	49520
33.43418	51666
33.44232	50023
33.45043	52389
33.45857	49273
33.46668	49353
33.47480	53752
33.48293	51864
33.49105	49334
33.49917	49719
33.50730	55164
33.51542	49320
33.52355	46762
33.53167	49689
33.53978	50688
33.54792	52393
33.55603	49442
33.56417	51707
33.57228	49774
33.58040	50450
33.58853	48596
33.59665	52242
33.60478	54157
33.61290	50973
33.62102	48845
33.62915	48468
33.63727	45791
33.64538	46959
33.65352	53602
33.66163	52474
33.66977	51067
33.67788	48524
33.68600	49485
33.69413	50818
33.70225	50446
33.71038	57411
33.71850	50741
33.72662	48161
33.73475	47899
33.74287	48428
33.75100	45122
33.75912	44436
33.76723	47233
33.77537	48560
33.78348	49113
33.79160	48535
33.79973	42799
33.80785	45100
33.81598	51551
33.82410	49147
33.83222	50172
33.84035	49747
33.84847	52468
33.85660	52323
33.86472	52714
33.87283	51682
33.88097	48752
33.88908	46934
33.89720	51269
33.90533	53786
33.91345	51878
33.92158	50335
33.92970	51867
33.93782	53949
33.94595	53529
33.95407	50553
33.96220	55471
33.97032	56615
33.97843	54954
33.98657	54196
33.99468	52768
34.00282	53241
34.01093	52481
34.01905	46773
34.02718	53867
34.03530	55361
34.04342	48837
34.05155	46596
34.05967	47850
34.06780	52869
34.07592	46373
34.08403	50108
34.09217	51967
34.10028	55397
34.10842	48529
34.11653	49828
34.12465	48025
34.13278	50053
34.14090	56477
34.14903	49398
34.15715	49057
34.16527	52781
34.17340	46865
34.18152	50300
34.18963	48623
34.19777	50942
34.20588	43834
34.21402	52069
34.22213	47713
34.23025	51931
34.23838	51643
34.24650	48913
34.25463	48060
34.26275	52115
34.27087	48795
34.27900	53717
34.28712	48580
34.29523	52235
34.30337	51968
34.31148	49663
34.31962	49797
34.32773	53498
34.33585	49094
34.34398	50266
34.35210	53034
34.36023	56567
34.36835	53636
34.37647	50727
34.38460	52424
34.39272	52955
34.40085	56159
34.40897	53760
34.41708	50795
34.42522	48570
34.43333	49150
34.44145	57225
34.44958	57303
34.45770	47923
34.46583	53398
34.47395	46553
34.48207	48488
34.49020	53680
34.49832	55583
34.50645	53813
34.51457	61899
34.52268	67891
34.53082	86286
34.53893	109515
34.54705	140293
34.55518	161905
34.56330	187925
34.57143	193694
34.57955	202632
34.58767	191859
34.59580	174815
34.60392	160943
34.61205	139907
34.62017	125149
34.62828	112175
34.63642	104416
34.64453	97815
34.65267	91219
34.66078	87229
34.66890	83486
34.67703	76958
34.68515	75622
34.69327	76505
34.70140	73899
34.70952	73547
34.71765	70879
34.72577	72754
34.73388	73033
34.74202	70045
34.75013	72269
34.75827	67496
34.76638	64194
34.77450	67512
34.78263	68263
34.79075	60278
34.79888	60399
34.80700	61729
34.81512	68162
34.82325	65090
34.83137	59595
34.83948	62705
34.84762	63649
34.85573	62332
34.86387	62438
34.87198	58162
34.88010	57756
34.88823	60184
34.89635	59484
34.90448	59328
34.91260	54973
34.92072	60585
34.92885	57464
34.93697	58941
34.94510	62972
34.95322	67135
34.96133	71637
34.96947	73147
34.97758	80645
34.98570	83184
34.99383	83211
35.00195	78832
35.01008	76773
35.01820	73466
35.02632	66913
35.03445	62108
35.04257	65666
35.05070	61868
35.05882	61768
35.06693	63258
35.07507	59284
35.08318	59909
35.09130	62078
35.09943	61378
35.10755	63170
35.11568	61922
35.12380	62984
35.13192	57381
35.14005	64998
35.14817	63291
35.15630	63899
35.16442	68834
35.17253	67802
35.18067	70105
35.18878	66913
35.19692	73705
35.20503	63153
35.21315	59106
35.22128	61725
35.22940	60816
35.23752	58725
35.24565	60664
35.25377	56433
35.26190	55544
35.27002	59061
35.27813	59059
35.28627	56231
35.29438	60516
35.30252	56028
35.31063	60167
35.31875	58769
35.32688	56946
35.33500	54030
35.34312	54150
35.35125	51838
35.35937	50737
35.36750	55270
35.37562	50267
35.38373	51111
35.39187	55289
35.39998	54044
35.40812	56014
35.41623	54128
35.42435	55617
35.43248	60796
35.44060	54404
35.44873	54324
35.45685	61122
35.46497	58206
35.47310	59563
35.48122	60517
35.48933	61120
35.49747	60598
35.50558	57330
35.51372	54900
35.52183	57888
35.52995	53344
35.53808	56984
35.54620	56368
35.55433	54207
35.56245	52316
35.57057	59610
35.57870	59753
35.58682	59263
35.59495	61392
35.60307	59337
35.61118	55519
35.61932	56849
35.62743	51290
35.63555	57921
35.64368	53665
35.65180	54390
35.65993	53366
35.66805	54483
35.67617	63843
35.68430	64484
35.69242	63507
35.70055	68432
35.70867	69432
35.71678	68929
35.72492	62236
35.73303	59216
35.74115	59937
35.74928	60544
35.75740	61959
35.76553	58155
35.77365	57506
35.78177	57468
35.78990	63593
35.79802	57165
35.80615	63045
35.81427	62079
35.82238	55774
35.83052	59092
35.83863	54947
35.84677	57404
35.85488	58638
35.86300	61824
35.87113	62474
35.87925	55116
35.88737	58743
35.89550	58634
35.90362	54710
35.91175	57106
35.91987	57225
35.92798	60152
35.93612	61454
35.94423	55911
35.95237	53737
35.96048	59886
35.96860	57200
35.97673	58718
35.98485	55598
35.99298	56138
36.00110	54300
36.00922	55830
36.01735	58953
36.02547	58879
36.03358	68510
36.04172	62901
36.04983	61728
36.05797	61127
36.06608	61278
36.07420	57969
36.08233	56632
36.09045	59193
36.09858	58431
36.10670	60442
36.11482	64547
36.12295	56463
36.13107	63398
36.13918	56807
36.14732	54696
36.15543	58531
36.16357	57969
36.17168	57781
36.17980	64304
36.18793	58327
36.19605	56817
36.20418	55514
36.21230	63599
36.22042	59188
36.22855	56427
36.23667	59707
36.24480	52174
36.25292	55422
36.26103	57977
36.26917	57022
36.27728	55061
36.28540	58594
36.29353	57016
36.30165	56923
36.30978	59377
36.31790	63679
36.32602	71347
36.33415	81451
36.34227	76978
36.35040	68378
36.35852	68354
36.36663	60973
36.37477	63331
36.38288	66555
36.39100	64617
36.39913	61839
36.40725	63986
36.41538	60055
36.42350	59954
36.43162	57166
36.43975	56344
36.44787	53386
36.45600	57256
36.46412	55031
36.47223	51008
36.48037	58429
36.48848	56891
36.49662	58181
36.50473	55811
36.51285	54790
36.52098	57906
36.52910	55433
36.53722	54017
36.54535	54149
36.55347	56722
36.56160	53766
36.56972	55073
36.57783	62014
36.58597	56271
36.59408	55660
36.60222	61083
36.61033	58167
36.61845	52934
36.62658	53540
36.63470	52632
36.64283	54419
36.65095	53508
36.65907	54297
36.66720	64235
36.67532	59331
36.68343	53592
36.69157	62839
36.69968	60179
36.70782	58502
36.71593	58953
36.72405	54196
36.73218	61761
36.74030	53067
36.74843	56527
36.75655	58541
36.76467	62087
36.77280	59571
36.78092	55326
36.78903	57619
36.79717	59552
36.80528	62211
36.81342	53586
36.82153	55626
36.82965	62835
36.83778	60503
36.84590	53109
36.85403	58413
36.86215	52709
36.87027	53447
36.87840	61708
36.88652	57519
36.89465	56623
36.90277	56575
36.91088	59323
36.91902	57256
36.92713	55244
36.93525	57586
36.94338	57788
36.95150	61626
36.95963	60434
36.96775	59143
36.97587	60395
36.98400	56291
36.99212	57006
37.00025	58241
37.00837	65648
37.01648	58763
37.02462	58209
37.03273	57009
37.04087	55617
37.04898	62205
37.05710	57829
37.06523	63239
37.07335	62398
37.08147	57696
37.08960	60102
37.09772	60584
37.10585	64439
37.11397	62158
37.12208	64809
37.13022	63993
37.13833	62671
37.14647	65974
37.15458	61412
37.16270	62230
37.17083	61410
37.17895	65110
37.18707	65237
37.19520	65271
37.20332	60576
37.21145	66346
37.21957	60537
37.22768	66419
37.23582	65946
37.24393	61141
37.25207	62587
37.26018	58974
37.26830	62085
37.27643	58676
37.28455	62225
37.29268	58107
37.30080	61719
37.30892	58344
37.31705	63999
37.32517	66671
37.33328	71803
37.34142	80083
37.34953	92512
37.35767	109875
37.36578	126813
37.37390	133232
37.38203	134547
37.39015	136491
37.39828	118187
37.40640	106329
37.41452	99408
37.42265	95233
37.43077	91969
37.43890	87239
37.44702	84496
37.45513	78632
37.46327	80029
37.47138	79888
37.47950	77299
37.48763	79798
