Z:\data\JTB-E02\BACandBLUE\JTB-E02-203-11.D Fri Mar 08 11:58:49 2019
Start of data points
2.09515	68041
2.10328	57511
2.11140	59414
2.11953	60937
2.12765	62300
2.13577	57383
2.14390	58683
2.15202	61107
2.16013	58825
2.16827	54574
2.17638	54011
2.18452	51787
2.19263	49700
2.20075	47934
2.20888	50648
2.21700	50147
2.22513	50698
2.23325	47195
2.24137	43513
2.24950	48539
2.25762	48823
2.26573	71334
2.27387	622942
2.28198	2264046
2.29012	2005961
2.29823	948250
2.30635	636147
2.31448	536253
2.32260	469519
2.33073	403782
2.33885	359238
2.34697	325462
2.35510	301770
2.36322	277085
2.37135	265325
2.37947	245738
2.38758	233280
2.39572	213348
2.40383	200963
2.41195	200805
2.42008	203856
2.42820	201271
2.43633	189247
2.44445	178533
2.45257	185805
2.46070	177514
2.46882	165760
2.47695	165082
2.48507	162575
2.49318	166028
2.50132	170760
2.50943	157888
2.51757	160465
2.52568	149213
2.53380	150080
2.54193	141141
2.55005	148233
2.55817	319058
2.56630	890770
2.57442	900954
2.58255	602710
2.59067	484853
2.59878	422562
2.60692	523606
2.61503	1012567
2.62317	1055768
2.63128	695854
2.63940	506267
2.64753	424230
2.65565	360897
2.66377	325907
2.67190	284773
2.68002	267663
2.68815	259115
2.69627	247751
2.70438	227659
2.71252	215573
2.72063	213609
2.72877	202505
2.73688	197771
2.74500	191440
2.75313	178426
2.76125	178811
2.76938	185572
2.77750	424269
2.78562	1983752
2.79375	3557377
2.80187	2443393
2.80998	1375236
2.81812	1029232
2.82623	850312
2.83437	728832
2.84248	613601
2.85060	526040
2.85873	467871
2.86685	433556
2.87498	391875
2.88310	360970
2.89122	331672
2.89935	309259
2.90747	287226
2.91558	281202
2.92372	263296
2.93183	247765
2.93997	236893
2.94808	230926
2.95620	213916
2.96433	230007
2.97245	236864
2.98058	221579
2.98870	214271
2.99682	222265
3.00495	224575
3.01307	215804
3.02120	207428
3.02932	198460
3.03743	189731
3.04557	179100
3.05368	172971
3.06180	177191
3.06993	172275
3.07805	216844
3.08618	643263
3.09430	2087130
3.10242	3694099
3.11055	5290224
3.11867	5810692
3.12680	4022349
3.13492	2613014
3.14303	2036563
3.15117	1634734
3.15928	1381757
3.16742	1174780
3.17553	1099815
3.18365	1118500
3.19178	1631480
3.19990	2338773
3.20802	2093639
3.21615	1508842
3.22427	1204448
3.23240	1035579
3.24052	903800
3.24863	794108
3.25677	714466
3.26488	649185
3.27302	595799
3.28113	573985
3.28925	740898
3.29738	1879110
3.30550	5351461
3.31363	9529002
3.32175	1.077686E+07
3.32987	8957801
3.33800	6552041
3.34612	5094499
3.35423	4137528
3.36237	3503543
3.37048	2989895
3.37862	2628886
3.38673	2309307
3.39485	2055166
3.40298	1858655
3.41110	1668267
3.41923	1585957
3.42735	1450410
3.43547	1362204
3.44360	1275127
3.45172	1199805
3.45983	1096552
3.46797	1087884
3.47608	1045443
3.48422	1021132
3.49233	928605
3.50045	890329
3.50858	840531
3.51670	805159
3.52483	747195
3.53295	752477
3.54107	749854
3.54920	735931
3.55732	704958
3.56545	704203
3.57357	804277
3.58168	947444
3.58982	887895
3.59793	761034
3.60605	692198
3.61418	636016
3.62230	631974
3.63043	619143
3.63855	617791
3.64667	601987
3.65480	591744
3.66292	1120627
3.67105	5020246
3.67917	1.45493E+07
3.68728	2.060483E+07
3.69542	1.669601E+07
3.70353	1.022741E+07
3.71165	6884805
3.71978	5412532
3.72790	4535371
3.73603	3935196
3.74415	3474308
3.75227	3101036
3.76040	2822907
3.76852	2607725
3.77665	2395074
3.78477	2251953
3.79288	2124318
3.80102	2122424
3.80913	2817860
3.81727	4212530
3.82538	4857010
3.83350	3983902
3.84163	2994216
3.84975	2473555
3.85787	2170951
3.86600	1994305
3.87412	1845437
3.88225	1729502
3.89037	1635170
3.89848	1549406
3.90662	1458302
3.91473	1429361
3.92287	1494503
3.93098	1620110
3.93910	1677029
3.94723	1654383
3.95535	2344682
3.96348	4270364
3.97160	6045873
3.97972	5600419
3.98785	3935732
3.99597	3429438
4.00408	6744332
4.01222	1.569424E+07
4.02033	2.318357E+07
4.02847	2.11093E+07
4.03658	1.31156E+07
4.04470	7294506
4.05283	4784286
4.06095	3575604
4.06908	2915507
4.07720	2493489
4.08532	2161059
4.09345	1935739
4.10157	1747328
4.10968	1610275
4.11782	1489651
4.12593	1379989
4.13407	1288002
4.14218	1236740
4.15030	1175129
4.15843	1163275
4.16655	1140190
4.17468	1108886
4.18280	1097127
4.19092	1051563
4.19905	978347
4.20717	1027330
4.21530	1871488
4.22342	5219719
4.23153	1.158975E+07
4.23967	1.702234E+07
4.24778	1.748465E+07
4.25590	1.311014E+07
4.26403	8582558
4.27215	6178799
4.28028	4743120
4.28840	3765105
4.29652	3084059
4.30465	2575419
4.31277	2227949
4.32090	1929355
4.32902	1743843
4.33713	1560475
4.34527	1423091
4.35338	1361314
4.36152	1371617
4.36963	1405003
4.37775	1368545
4.38588	1231381
4.39400	1090300
4.40212	990417
4.41025	923315
4.41837	865174
4.42650	826606
4.43462	802373
4.44273	744545
4.45087	744744
4.45898	696565
4.46712	677181
4.47523	666886
4.48335	647371
4.49148	626681
4.49960	601247
4.50772	604249
4.51585	585993
4.52397	583178
4.53210	580667
4.54022	561628
4.54833	578832
4.55647	580656
4.56458	567109
4.57272	534082
4.58083	507620
4.58895	499406
4.59708	495425
4.60520	483067
4.61333	479684
4.62145	503915
4.62957	629013
4.63770	908164
4.64582	1156778
4.65393	1172795
4.66207	942705
4.67018	760886
4.67832	668064
4.68643	637943
4.69455	582197
4.70268	535615
4.71080	487561
4.71893	468953
4.72705	449017
4.73517	429259
4.74330	419117
4.75142	414066
4.75953	404412
4.76767	388923
4.77578	384141
4.78392	386512
4.79203	412725
4.80015	494929
4.80828	570358
4.81640	611809
4.82453	555681
4.83265	494740
4.84077	497393
4.84890	519074
4.85702	531940
4.86515	495355
4.87327	460851
4.88138	425580
4.88952	393237
4.89763	389756
4.90575	369681
4.91388	358007
4.92200	351623
4.93013	354261
4.93825	400117
4.94637	618116
4.95450	1094958
4.96262	1977590
4.97075	2814037
4.97887	3143374
4.98698	3002120
4.99512	2594821
5.00323	2208887
5.01137	1859460
5.01948	1656646
5.02760	1501474
5.03573	1433155
5.04385	1478638
5.05197	1392904
5.06010	1260445
5.06822	1127251
5.07635	1019986
5.08447	937617
5.09258	854529
5.10072	829092
5.10883	785265
5.11697	735151
5.12508	709267
5.13320	687345
5.14133	655325
5.14945	647840
5.15757	722961
5.16570	803692
5.17382	854254
5.18195	827492
5.19007	768498
5.19818	737559
5.20632	772409
5.21443	830417
5.22257	821122
5.23068	748828
5.23880	678839
5.24693	626459
5.25505	585079
5.26318	538243
5.27130	535317
5.27942	469146
5.28755	453176
5.29567	437510
5.30378	434810
5.31192	421096
5.32003	414033
5.32817	435145
5.33628	475147
5.34440	527187
5.35253	526190
5.36065	475519
5.36878	437723
5.37690	407880
5.38502	442064
5.39315	472282
5.40127	509371
5.40940	516811
5.41752	472984
5.42563	429647
5.43377	400161
5.44188	390261
5.45000	416851
5.45813	444802
5.46625	479490
5.47438	448968
5.48250	398729
5.49062	363253
5.49875	347161
5.50687	341295
5.51500	342713
5.52312	343377
5.53123	348057
5.53937	345458
5.54748	339080
5.55560	400799
5.56373	614243
5.57185	895024
5.57998	1147717
5.58810	1197913
5.59622	1056543
5.60435	823543
5.61247	631062
5.62060	508826
5.62872	440265
5.63683	392701
5.64497	367583
5.65308	351223
5.66122	327601
5.66933	330865
5.67745	342321
5.68558	385875
5.69370	413307
5.70182	452493
5.70995	441831
5.71807	399855
5.72620	359206
5.73432	330314
5.74243	309967
5.75057	295289
5.75868	288090
5.76682	287226
5.77493	271639
5.78305	274374
5.79118	273355
5.79930	263193
5.80743	261594
5.81555	259009
5.82367	258128
5.83180	258456
5.83992	269400
5.84803	256344
5.85617	261463
5.86428	253194
5.87242	252939
5.88053	249563
5.88865	242303
5.89678	241491
5.90490	253510
5.91303	240609
5.92115	255981
5.92927	255175
5.93740	252014
5.94552	227877
5.95363	241332
5.96177	290559
5.96988	399904
5.97802	598201
5.98613	830238
5.99425	926328
6.00238	802896
6.01050	639568
6.01863	475413
6.02675	385442
6.03487	334820
6.04300	303634
6.05112	272380
6.05925	253865
6.06737	240545
6.07548	234717
6.08362	234036
6.09173	224942
6.09985	214079
6.10798	216175
6.11610	226131
6.12423	252576
6.13235	306727
6.14047	464975
6.14860	613768
6.15672	654727
6.16485	571930
6.17297	441708
6.18108	359926
6.18922	307000
6.19733	295123
6.20545	276375
6.21358	253591
6.22170	251001
6.22983	250177
6.23795	255074
6.24607	263305
6.25420	292013
6.26232	332652
6.27045	347297
6.27857	333004
6.28668	299827
6.29482	270579
6.30293	257919
6.31107	241382
6.31918	237386
6.32730	248730
6.33543	259400
6.34355	254444
6.35167	253678
6.35980	242832
6.36792	239554
6.37605	238719
6.38417	245562
6.39228	245590
6.40042	243297
6.40853	240392
6.41667	229542
6.42478	228589
6.43290	233308
6.44103	235178
6.44915	242636
6.45728	238715
6.46540	255339
6.47352	241699
6.48165	244424
6.48977	243150
6.49788	241398
6.50602	244475
6.51413	244982
6.52227	245520
6.53038	246193
6.53850	246298
6.54663	243597
6.55475	257290
6.56288	313534
6.57100	470434
6.57912	737306
6.58725	945309
6.59537	918452
6.60348	731211
6.61162	507387
6.61973	385708
6.62787	340542
6.63598	322479
6.64410	466139
6.65223	1186578
6.66035	3333562
6.66848	6844064
6.67660	9348225
6.68472	8743265
6.69285	5977884
6.70097	3478153
6.70910	2030029
6.71722	1417877
6.72533	1112830
6.73347	940028
6.74158	834575
6.74970	750827
6.75783	693972
6.76595	648584
6.77408	562382
6.78220	515979
6.79032	459999
6.79845	439080
6.80657	403254
6.81470	380539
6.82282	357225
6.83093	342540
6.83907	344003
6.84718	345017
6.85532	375218
6.86343	372335
6.87155	372015
6.87968	340096
6.88780	294070
6.89592	253101
6.90405	238891
6.91217	217887
6.92030	217001
6.92842	198705
6.93653	190902
6.94467	189518
6.95278	188023
6.96092	191135
6.96903	220251
6.97715	259921
6.98528	281892
6.99340	280461
7.00152	236622
7.00965	195710
7.01777	164773
7.02590	160817
7.03402	177714
7.04213	231748
7.05027	293214
7.05838	345277
7.06652	360496
7.07463	360785
7.08275	322904
7.09088	268528
7.09900	243675
7.10713	226372
7.11525	207365
7.12337	196687
7.13150	186506
7.13962	188369
7.14773	205552
7.15587	245920
7.16398	298240
7.17212	321259
7.18023	303270
7.18835	253158
7.19648	218423
7.20460	200806
7.21273	212590
7.22085	341934
7.22897	733701
7.23710	1478597
7.24522	2263072
7.25333	2419072
7.26147	1927903
7.26958	1240193
7.27772	760264
7.28583	545318
7.29395	411037
7.30208	311341
7.31020	253365
7.31833	220119
7.32645	213171
7.33457	209770
7.34270	194258
7.35082	186077
7.35895	160208
7.36707	156977
7.37518	158508
7.38332	156171
7.39143	147030
7.39955	138413
7.40768	133431
7.41580	134740
7.42393	134191
7.43205	130969
7.44017	129258
7.44830	139785
7.45642	130432
7.46455	139556
7.47267	147236
7.48078	142492
7.48892	131182
7.49703	132582
7.50517	152378
7.51328	259325
7.52140	535594
7.52953	1122675
7.53765	2073065
7.54577	3215693
7.55390	4239738
7.56202	4582270
7.57015	4157786
7.57827	3260321
7.58638	2218916
7.59452	1389496
7.60263	901641
7.61077	587287
7.61888	434801
7.62700	351977
7.63513	296054
7.64325	260996
7.65137	223716
7.65950	197411
7.66762	180782
7.67575	171292
7.68387	154488
7.69198	152184
7.70012	148280
7.70823	145591
7.71637	146012
7.72448	144742
7.73260	131163
7.74073	118228
7.74885	118079
7.75698	118410
7.76510	129144
7.77322	148436
7.78135	159997
7.78947	180074
7.79758	211393
7.80572	216749
7.81383	228110
7.82197	221032
7.83008	200493
7.83820	178396
7.84633	171833
7.85445	175048
7.86258	185962
7.87070	204020
7.87882	242321
7.88695	265423
7.89507	262968
7.90320	234365
7.91132	200242
7.91943	175803
7.92757	211815
7.93568	305694
7.94380	426747
7.95193	514627
7.96005	519011
7.96818	440262
7.97630	316566
7.98442	219928
7.99255	177514
8.00067	138969
8.00880	131547
8.01692	120785
8.02503	120145
8.03317	117110
8.04128	118510
8.04940	113245
8.05753	113096
8.06565	113002
8.07378	104842
8.08190	106838
8.09002	100344
8.09815	100039
8.10627	101900
8.11440	99313
8.12252	99027
8.13063	111386
8.13877	125712
8.14688	135743
8.15502	144853
8.16313	144780
8.17125	141143
8.17938	130572
8.18750	110485
8.19562	105466
8.20375	97586
8.21187	99138
8.22000	101283
8.22812	95706
8.23623	90589
8.24437	87670
8.25248	83621
8.26062	83535
8.26873	78955
8.27685	77794
8.28498	82200
8.29310	85713
8.30122	96509
8.30935	102804
8.31747	115881
8.32560	119053
8.33372	113054
8.34183	103157
8.34997	92626
8.35808	88545
8.36622	86308
8.37433	94753
8.38245	100282
8.39058	95299
8.39870	98132
8.40683	88740
8.41495	86994
8.42307	80370
8.43120	74746
8.43932	77677
8.44743	78746
8.45557	78773
8.46368	81526
8.47182	90811
8.47993	83126
8.48805	85945
8.49618	78792
8.50430	75809
8.51243	73397
8.52055	75552
8.52867	98957
8.53680	141413
8.54492	249913
8.55305	382121
8.56117	484135
8.56928	458377
8.57742	361127
8.58553	252445
8.59365	181820
8.60178	142512
8.60990	133886
8.61803	128462
8.62615	123905
8.63427	113708
8.64240	109422
8.65052	102231
8.65865	86871
8.66677	89963
8.67488	88997
8.68302	88376
8.69113	89710
8.69927	96307
8.70738	92940
8.71550	89501
8.72363	87118
8.73175	81119
8.73987	75232
8.74800	87009
8.75612	92918
8.76425	131169
8.77237	239375
8.78048	425582
8.78862	647919
8.79673	807154
8.80487	851689
8.81298	759060
8.82110	586514
8.82923	448155
8.83735	351274
8.84547	313480
8.85360	313247
8.86172	311792
8.86985	305246
8.87797	295844
8.88608	267933
8.89422	243552
8.90233	239855
8.91047	222730
8.91858	209719
8.92670	207299
8.93483	204140
8.94295	217233
8.95108	225457
8.95920	226776
8.96732	225359
8.97545	227070
8.98357	225953
8.99168	222971
8.99982	215042
9.00793	203516
9.01607	188916
9.02418	171154
9.03230	153383
9.04043	146081
9.04855	144150
9.05668	139623
9.06480	137133
9.07292	135119
9.08105	138343
9.08917	147142
9.09728	170767
9.10542	203986
9.11353	228728
9.12167	262602
9.12978	261066
9.13790	222596
9.14603	201512
9.15415	162098
9.16228	155531
9.17040	136993
9.17852	133660
9.18665	120971
9.19477	118304
9.20290	110892
9.21102	117958
9.21913	121731
9.22727	124768
9.23538	132171
9.24350	133928
9.25163	133632
9.25975	130346
9.26788	132191
9.27600	119806
9.28412	118938
9.29225	111050
9.30037	118571
9.30850	105743
9.31662	107511
9.32473	105913
9.33287	102936
9.34098	109833
9.34912	102550
9.35723	112944
9.36535	109385
9.37348	112422
9.38160	132735
9.38972	140381
9.39785	160395
9.40597	178376
9.41410	204516
9.42222	246651
9.43033	287237
9.43847	330887
9.44658	328259
9.45472	287925
9.46283	233180
9.47095	189981
9.47908	141955
9.48720	122122
9.49532	118850
9.50345	121519
9.51157	132320
9.51970	167647
9.52782	179489
9.53593	187108
9.54407	177251
9.55218	155618
9.56032	137996
9.56843	122713
9.57655	108027
9.58468	117862
9.59280	121713
9.60093	118170
9.60905	108432
9.61717	93341
9.62530	83361
9.63342	78532
9.64153	80137
9.64967	81201
9.65778	79934
9.66592	82199
9.67403	79952
9.68215	77406
9.69028	71661
9.69840	71285
9.70653	74864
9.71465	71307
9.72277	66848
9.73090	70151
9.73902	70828
9.74715	66696
9.75527	66118
9.76338	63733
9.77152	62850
9.77963	63408
9.78775	63509
9.79588	67426
9.80400	62282
9.81213	62400
9.82025	60303
9.82837	66579
9.83650	61748
9.84462	65325
9.85275	65509
9.86087	65262
9.86898	70559
9.87712	74628
9.88523	71281
9.89335	68757
9.90148	68408
9.90960	70959
9.91773	79887
9.92585	111206
9.93397	155566
9.94210	215031
9.95022	262630
9.95835	280871
9.96647	273035
9.97458	217908
9.98272	177715
9.99083	130926
9.99897	106411
10.00708	100744
10.01520	107098
10.02333	101164
10.03145	99525
10.03957	90166
10.04770	88086
10.05582	85245
10.06395	82723
10.07207	83984
10.08018	91483
10.08832	94237
10.09643	101212
10.10457	103848
10.11268	98785
10.12080	98441
10.12893	85747
10.13705	83294
10.14517	80260
10.15330	80753
10.16142	72504
10.16955	74509
10.17767	76716
10.18578	72947
10.19392	71242
10.20203	66622
10.21017	63899
10.21828	64040
10.22640	70011
10.23453	74994
10.24265	83789
10.25078	86565
10.25890	111308
10.26702	168805
10.27515	335318
10.28327	762674
10.29138	1517348
10.29952	2480814
10.30763	3520161
10.31577	4804138
10.32388	6724204
10.33200	9585919
10.34013	1.22593E+07
10.34825	1.327806E+07
10.35638	1.18533E+07
10.36450	9296988
10.37262	6826810
10.38075	4806802
10.38887	3360167
10.39700	2163523
10.40512	1365511
10.41323	880718
10.42137	621179
10.42948	498476
10.43760	457930
10.44573	463884
10.45385	461559
10.46198	489431
10.47010	489903
10.47822	445604
10.48635	412558
10.49447	370201
10.50260	336933
10.51072	311047
10.51883	287075
10.52697	272824
10.53508	263735
10.54320	246232
10.55133	244401
10.55945	229712
10.56758	222955
10.57570	208239
10.58382	205249
10.59195	193167
10.60007	189021
10.60820	179761
10.61632	172400
10.62443	168924
10.63257	179430
10.64068	159106
10.64882	149283
10.65693	152087
10.66505	145481
10.67318	146979
10.68130	152132
10.68942	148345
10.69755	156403
10.70567	161135
10.71380	160234
10.72192	157935
10.73003	144190
10.73817	133675
10.74628	129431
10.75442	125459
10.76253	125115
10.77065	118231
10.77878	123922
10.78690	125169
10.79503	117986
10.80315	139601
10.81127	146654
10.81940	146256
10.82752	146074
10.83563	134471
10.84377	122807
10.85188	110803
10.86002	98778
10.86813	95426
10.87625	97336
10.88438	90497
10.89250	92648
10.90063	88044
10.90875	95034
10.91687	90983
10.92500	84661
10.93312	90950
10.94123	84357
10.94937	90198
10.95748	87626
10.96562	94050
10.97373	90824
10.98185	100060
10.98998	110301
10.99810	117378
11.00623	116302
11.01435	123523
11.02247	119681
11.03060	105854
11.03872	99430
11.04685	88247
11.05497	84623
11.06308	93954
11.07122	98681
11.07933	113457
11.08745	121963
11.09558	124989
11.10370	124694
11.11183	118743
11.11995	110544
11.12807	95833
11.13620	91525
11.14432	83812
11.15245	88261
11.16057	88248
11.16868	87796
11.17682	86785
11.18493	90213
11.19305	95880
11.20118	95099
11.20930	86578
11.21743	85935
11.22555	82706
11.23367	81990
11.24180	78449
11.24992	73135
11.25805	71357
11.26617	69386
11.27428	72367
11.28242	70452
11.29053	85582
11.29867	138431
11.30678	282904
11.31490	577866
11.32303	1190732
11.33115	2019550
11.33927	2793557
11.34740	3201630
11.35552	2948773
11.36365	2276142
11.37177	1596021
11.37988	997487
11.38802	632118
11.39613	465254
11.40427	413841
11.41238	395834
11.42050	385172
11.42863	358825
11.43675	324007
11.44488	293823
11.45300	273333
11.46112	253971
11.46925	226893
11.47737	235403
11.48548	258999
11.49362	293374
11.50173	332308
11.50987	355722
11.51798	339262
11.52610	289436
11.53423	237327
11.54235	208541
11.55048	186919
11.55860	182786
11.56672	177225
11.57485	180282
11.58297	171098
11.59108	166541
11.59922	158896
11.60733	171423
11.61547	204003
11.62358	216188
11.63170	220603
11.63983	201231
11.64795	188195
11.65608	153985
11.66420	140811
11.67232	125722
11.68045	132931
11.68857	136088
11.69670	142197
11.70482	148900
11.71293	151669
11.72107	136466
11.72918	122928
11.73730	109586
11.74543	105905
11.75355	101125
11.76168	97087
11.76980	92082
11.77792	95008
11.78605	91397
11.79417	89875
11.80230	90993
11.81042	84591
11.81853	82230
11.82667	84557
11.83478	90962
11.84292	96109
11.85103	96082
11.85915	101601
11.86728	112928
11.87540	111166
11.88352	104641
11.89165	96296
11.89977	89759
11.90790	81026
11.91602	82187
11.92413	81141
11.93227	84560
11.94038	82287
11.94852	85038
11.95663	74189
11.96475	74507
11.97288	72446
11.98100	67457
11.98912	72797
11.99725	80097
12.00537	93438
12.01350	96934
12.02162	113115
12.02973	102307
12.03787	95187
12.04598	87072
12.05412	76290
12.06223	70655
12.07035	76202
12.07848	90079
12.08660	110519
12.09473	153763
12.10285	266863
12.11097	470603
12.11910	761146
12.12722	1103639
12.13533	1335207
12.14347	1321523
12.15158	1081143
12.15972	771390
12.16783	454171
12.17595	275797
12.18408	190298
12.19220	167286
12.20033	170765
12.20845	185445
12.21657	180835
12.22470	179205
12.23282	167534
12.24095	157371
12.24907	156623
12.25718	144673
12.26532	151257
12.27343	138387
12.28155	132241
12.28968	124133
12.29780	109068
12.30593	108275
12.31405	106128
12.32217	102854
12.33030	101461
12.33842	98021
12.34655	96985
12.35467	95912
12.36278	110298
12.37092	109359
12.37903	108466
12.38715	102201
12.39528	98235
12.40340	100464
12.41153	116916
12.41965	132198
12.42777	158849
12.43590	164189
12.44402	164914
12.45215	159265
12.46027	148598
12.46838	122072
12.47652	111567
12.48463	112302
12.49277	106451
12.50088	108743
12.50900	98895
12.51713	94338
12.52525	95407
12.53337	93970
12.54150	108506
12.54962	106852
12.55775	109047
12.56587	124436
12.57398	125363
12.58212	121635
12.59023	112791
12.59837	105349
12.60648	97734
12.61460	92099
12.62273	97429
12.63085	88463
12.63897	86776
12.64710	80925
12.65522	76951
12.66335	73432
12.67147	76210
12.67958	73916
12.68772	70633
12.69583	73257
12.70397	72822
12.71208	74347
12.72020	75831
12.72833	77862
12.73645	80876
12.74458	82162
12.75270	78636
12.76082	78209
12.76895	73294
12.77707	70085
12.78518	70983
12.79332	71314
12.80143	65585
12.80957	68326
12.81768	65241
12.82580	64615
12.83393	55055
12.84205	57986
12.85018	56212
12.85830	54617
12.86642	52202
12.87455	54183
12.88267	53929
12.89080	52617
12.89892	57261
12.90703	53634
12.91517	55510
12.92328	52486
12.93140	55285
12.93953	52004
12.94765	51022
12.95578	53180
12.96390	50629
12.97202	59156
12.98015	63677
12.98827	69219
12.99640	62376
13.00452	59268
13.01263	60136
13.02077	57945
13.02888	58787
13.03700	55642
13.04513	56997
13.05325	55371
13.06138	55674
13.06950	56119
13.07762	57022
13.08575	55187
13.09387	56092
13.10200	57601
13.11012	50310
13.11823	52808
13.12637	49961
13.13448	52105
13.14262	50664
13.15073	48192
13.15885	50577
13.16698	51315
13.17510	52125
13.18322	54916
13.19135	58448
13.19947	63234
13.20760	64214
13.21572	64977
13.22383	66420
13.23197	67813
13.24008	72757
13.24822	63894
13.25633	63597
13.26445	60655
13.27258	56449
13.28070	54012
13.28883	51087
13.29695	52741
13.30507	55637
13.31320	59820
13.32132	58056
13.32943	52570
13.33757	55057
13.34568	54815
13.35382	50566
13.36193	54239
13.37005	46382
13.37818	49548
13.38630	44523
13.39443	48234
13.40255	50070
13.41067	46574
13.41880	46309
13.42692	52591
13.43503	50364
13.44317	49757
13.45128	53912
13.45942	55853
13.46753	58569
13.47565	59394
13.48378	55266
13.49190	55960
13.50003	54809
13.50815	53561
13.51627	49501
13.52440	53252
13.53252	53522
13.54065	53822
13.54877	55158
13.55688	57456
13.56502	65191
13.57313	69786
13.58125	73345
13.58938	72128
13.59750	72277
13.60563	72539
13.61375	77592
13.62187	70870
13.63000	62990
13.63812	67741
13.64625	65915
13.65437	66857
13.66248	60384
13.67062	50756
13.67873	51643
13.68685	48598
13.69498	53502
13.70310	48318
13.71123	50880
13.71935	53548
13.72747	51435
13.73560	60362
13.74372	59510
13.75185	63869
13.75997	85304
13.76808	99054
13.77622	139596
13.78433	173949
13.79247	212460
13.80058	231752
13.80870	274471
13.81683	327227
13.82495	397152
13.83307	468859
13.84120	505659
13.84932	497686
13.85745	434394
13.86557	356758
13.87368	270935
13.88182	220994
13.88993	171135
13.89807	141044
13.90618	126199
13.91430	114889
13.92243	98841
13.93055	96024
13.93868	89872
13.94680	87862
13.95492	98974
13.96305	101401
13.97117	113453
13.97928	150408
13.98742	180730
13.99553	178917
14.00367	165393
14.01178	141006
14.01990	124218
14.02803	100135
14.03615	101783
14.04428	87573
14.05240	81801
14.06052	79671
14.06865	83458
14.07677	86452
14.08490	79601
14.09302	81813
14.10113	82379
14.10927	74936
14.11738	67488
14.12550	68091
14.13363	69606
14.14175	76753
14.14988	78180
14.15800	89833
14.16612	97422
14.17425	99194
14.18237	108745
14.19050	111509
14.19862	146941
14.20673	214935
14.21487	301940
14.22298	369472
14.23110	381983
14.23923	359416
14.24735	329839
14.25548	289088
14.26360	252350
14.27172	223952
14.27985	186156
14.28797	166517
14.29610	148993
14.30422	129549
14.31233	125941
14.32047	112315
14.32858	104849
14.33672	107689
14.34483	106290
14.35295	94435
14.36108	89861
14.36920	81193
14.37732	74664
14.38545	73576
14.39357	83587
14.40170	75078
14.40982	80419
14.41793	79434
14.42607	89629
14.43418	85442
14.44232	77296
14.45043	78182
14.45855	74749
14.46668	81289
14.47480	86924
14.48292	82230
14.49105	83715
14.49917	77140
14.50730	71306
14.51542	75217
14.52353	68615
14.53167	72781
14.53978	68671
14.54792	67069
14.55603	66459
14.56415	65905
14.57228	64875
14.58040	55188
14.58853	55311
14.59665	54822
14.60477	50371
14.61290	50091
14.62102	56792
14.62913	50876
14.63727	48068
14.64538	51179
14.65352	49410
14.66163	49823
14.66975	45008
14.67788	48574
14.68600	52508
14.69413	48350
14.70225	47471
14.71037	47252
14.71850	51483
14.72662	52607
14.73473	49717
14.74287	50253
14.75098	58437
14.75912	54653
14.76723	60057
14.77535	59915
14.78348	64184
14.79160	84294
14.79973	167900
14.80785	416821
14.81597	1026760
14.82410	2115725
14.83222	3350466
14.84035	4299280
14.84847	4439305
14.85658	3709065
14.86472	2495136
14.87283	1526183
14.88095	914381
14.88908	598057
14.89720	442809
14.90533	363066
14.91345	323557
14.92157	281444
14.92970	262064
14.93782	246679
14.94595	221909
14.95407	205675
14.96218	200183
14.97032	193788
14.97843	174350
14.98657	169385
14.99468	159713
15.00280	151110
15.01093	151659
15.01905	152483
15.02717	149824
15.03530	134278
15.04342	131557
15.05155	125319
15.05967	130233
15.06778	119051
15.07592	114317
15.08403	109628
15.09217	108373
15.10028	104284
15.10840	101922
15.11653	99964
15.12465	104446
15.13278	106915
15.14090	105027
15.14902	110796
15.15715	109523
15.16527	109988
15.17338	101001
15.18152	84051
15.18963	83545
15.19777	71446
15.20588	68602
15.21400	68772
15.22213	64727
15.23025	63845
15.23838	66594
15.24650	64485
15.25462	68159
15.26275	61211
15.27087	60610
15.27898	60637
15.28712	55435
15.29523	56700
15.30337	53051
15.31148	55575
15.31960	59826
15.32773	55673
15.33585	51725
15.34398	57729
15.35210	58066
15.36022	55390
15.36835	56061
15.37647	51266
15.38460	53504
15.39272	58357
15.40083	54141
15.40897	58143
15.41708	56170
15.42520	55319
15.43333	59460
15.44145	55273
15.44958	54712
15.45770	69663
15.46582	80923
15.47395	134711
15.48207	200193
15.49020	280068
15.49832	390403
15.50643	455091
15.51457	454239
15.52268	430113
15.53080	380730
15.53893	356063
15.54705	316197
15.55518	277982
15.56330	242817
15.57142	209014
15.57955	159622
15.58767	128944
15.59580	114220
15.60392	94686
15.61203	95557
15.62017	96688
15.62828	80645
15.63642	83136
15.64453	79344
15.65265	77371
15.66078	75647
15.66890	75282
15.67702	72380
15.68515	70323
15.69327	68742
15.70140	69107
15.70952	67949
15.71763	64888
15.72577	62749
15.73388	68249
15.74202	59392
15.75013	72890
15.75825	78888
15.76638	96444
15.77450	141674
15.78263	197083
15.79075	258188
15.79887	306288
15.80700	290449
15.81512	257311
15.82323	192933
15.83137	144264
15.83948	114378
15.84762	95190
15.85573	90209
15.86385	84752
15.87198	81044
15.88010	84729
15.88823	88379
15.89635	85928
15.90447	87780
15.91260	77941
15.92072	77530
15.92883	71803
15.93697	73990
15.94508	70300
15.95322	76621
15.96133	73848
15.96945	86697
15.97758	91603
15.98570	93749
15.99383	97070
16.00195	101505
16.01007	104601
16.01820	112724
16.02632	115939
16.03445	110868
16.04257	113412
16.05068	102229
16.05882	93859
16.06693	88074
16.07505	77936
16.08318	73775
16.09130	68128
16.09943	70829
16.10755	72289
16.11567	71740
16.12380	70546
16.13192	71012
16.14005	76735
16.14817	82462
16.15628	82070
16.16442	86204
16.17253	85716
16.18067	79812
16.18878	68097
16.19690	67778
16.20503	67950
16.21315	69394
16.22127	67658
16.22940	61808
16.23752	69695
16.24565	63149
16.25377	67703
16.26188	63673
16.27002	69240
16.27813	66812
16.28627	71191
16.29438	73438
16.30250	84720
16.31063	84745
16.31875	77944
16.32687	88778
16.33500	75780
16.34312	79203
16.35125	77459
16.35937	80934
16.36748	92427
16.37562	104783
16.38373	114014
16.39187	112769
16.39998	102820
16.40810	93961
16.41623	86661
16.42435	79699
16.43248	72630
16.44060	73896
16.44872	90947
16.45685	134436
16.46497	224975
16.47308	402387
16.48122	647000
16.48933	835029
16.49747	845819
16.50558	732854
16.51370	525223
16.52183	348311
16.52995	230737
16.53808	162364
16.54620	132120
16.55432	117268
16.56245	105207
16.57057	104027
16.57868	98832
16.58682	91223
16.59493	99258
16.60307	104311
16.61118	108843
16.61930	109807
16.62743	108814
16.63555	108837
16.64368	91036
16.65180	87521
16.65992	78036
16.66805	74900
16.67617	74396
16.68430	72260
16.69242	69853
16.70053	73832
16.70867	71393
16.71678	66057
16.72490	66925
16.73303	60702
16.74115	63051
16.74928	58186
16.75740	67951
16.76552	64636
16.77365	73252
16.78177	71331
16.78990	68546
16.79802	65769
16.80613	61089
16.81427	63615
16.82238	62919
16.83052	55667
16.83863	52353
16.84675	53614
16.85488	57243
16.86300	52457
16.87112	55098
16.87925	54223
16.88737	49096
16.89550	51793
16.90362	52470
16.91173	51360
16.91987	50045
16.92798	53455
16.93612	52995
16.94423	53344
16.95235	54086
16.96048	50959
16.96860	52642
16.97672	50075
16.98485	51065
16.99297	52136
17.00110	57770
17.00922	53844
17.01733	53665
17.02547	53487
17.03358	52346
17.04172	55064
17.04983	55362
17.05795	61568
17.06608	60463
17.07420	55723
17.08233	62813
17.09045	59102
17.09857	60959
17.10670	58499
17.11482	57174
17.12293	64715
17.13107	60842
17.13918	60698
17.14732	64910
17.15543	63775
17.16355	61304
17.17168	62454
17.17980	62380
17.18793	54760
17.19605	52074
17.20417	52427
17.21230	53901
17.22042	54472
17.22855	52103
17.23667	51284
17.24478	52502
17.25292	51454
17.26103	49901
17.26915	55509
17.27728	60830
17.28540	53369
17.29353	50835
17.30165	51068
17.30977	57857
17.31790	55206
17.32602	59557
17.33415	65550
17.34227	67050
17.35038	72749
17.35852	79326
17.36663	78383
17.37475	76068
17.38288	78358
17.39100	83031
17.39913	75816
17.40725	82327
17.41537	85503
17.42350	85961
17.43162	88592
17.43975	78758
17.44787	80754
17.45598	74121
17.46412	73833
17.47223	73542
17.48037	65859
17.48848	59292
17.49660	55648
17.50473	56042
17.51285	57803
17.52097	60079
17.52910	56501
17.53722	56535
17.54535	55898
17.55347	60599
17.56158	63408
17.56972	75609
17.57783	111432
17.58597	172626
17.59408	266467
17.60220	363180
17.61033	479345
17.61845	506250
17.62658	473475
17.63470	385836
17.64282	327495
17.65095	272637
17.65907	273699
17.66718	291016
17.67532	307191
17.68343	291483
17.69157	275378
17.69968	230255
17.70780	179322
17.71593	161479
17.72405	141079
17.73218	126391
17.74030	120484
17.74842	117927
17.75655	117024
17.76467	108067
17.77278	104353
17.78092	96298
17.78903	85673
17.79717	88576
17.80528	93980
17.81340	87232
17.82153	93316
17.82965	100190
17.83778	105719
17.84590	109960
17.85402	116762
17.86215	116391
17.87027	123017
17.87840	113974
17.88652	105590
17.89463	107408
17.90277	87368
17.91088	75104
17.91900	69327
17.92713	66533
17.93525	69928
17.94338	68548
17.95150	62179
17.95962	68889
17.96775	63447
17.97587	61593
17.98400	61000
17.99212	61265
18.00023	56175
18.00837	62267
18.01648	66381
18.02460	77592
18.03273	90544
18.04085	103072
18.04898	117687
18.05710	134771
18.06522	186042
18.07335	326108
18.08147	601834
18.08960	935503
18.09772	1300638
18.10583	1451337
18.11397	1363094
18.12208	1102669
18.13022	810433
18.13833	627826
18.14645	455186
18.15458	383890
18.16270	323614
18.17082	284759
18.17895	256217
18.18707	235436
18.19520	214145
18.20332	200690
18.21143	182703
18.21957	175345
18.22768	155978
18.23582	149747
18.24393	139743
18.25205	131622
18.26018	136881
18.26830	117721
18.27643	113491
18.28455	99707
18.29267	90013
18.30080	86893
18.30892	77558
18.31703	66674
18.32517	67376
18.33328	62874
18.34142	64625
18.34953	66550
18.35765	62397
18.36578	63265
18.37390	67130
18.38203	66591
18.39015	57378
18.39827	64432
18.40640	65272
18.41452	73204
18.42263	83189
18.43077	101274
18.43888	123846
18.44702	127787
18.45513	149269
18.46325	164155
18.47138	182290
18.47950	201597
18.48763	215356
18.49575	214537
18.50387	200240
18.51200	169813
18.52012	140838
18.52825	110517
18.53637	87382
18.54448	87439
18.55262	73484
18.56073	76785
18.56885	75622
18.57698	68299
18.58510	71176
18.59323	71845
18.60135	77261
18.60947	83615
18.61760	92833
18.62572	95397
18.63385	97592
18.64197	97894
18.65008	96936
18.65822	94848
18.66633	80597
18.67447	75595
18.68258	77857
18.69070	72273
18.69883	60013
18.70695	66703
18.71507	68510
18.72320	62730
18.73132	63393
18.73945	64410
18.74757	57430
18.75568	56404
18.76382	57106
18.77193	56608
18.78007	53651
18.78818	56036
18.79630	54654
18.80443	58071
18.81255	58114
18.82067	54757
18.82880	58207
18.83692	53681
18.84505	54556
18.85317	56471
18.86128	66444
18.86942	67388
18.87753	73526
18.88567	76368
18.89378	82375
18.90190	72246
18.91003	72672
18.91815	61303
18.92628	63442
18.93440	64332
18.94252	65760
18.95065	67498
18.95877	65221
18.96688	71145
18.97502	68178
18.98313	67124
18.99127	58951
18.99938	63987
19.00750	58225
19.01563	60905
19.02375	55917
19.03188	58267
19.04000	58804
19.04812	49688
19.05625	55520
19.06437	56081
19.07248	58707
19.08062	62069
19.08873	69904
19.09687	92510
19.10498	120999
19.11310	135828
19.12123	147441
19.12935	142876
19.13748	145734
19.14560	122945
19.15372	118271
19.16185	105198
19.16997	104647
19.17810	105958
19.18622	104048
19.19433	108671
19.20247	112618
19.21058	116866
19.21870	126449
19.22683	136865
19.23495	134686
19.24308	144086
19.25120	146016
19.25932	141295
19.26745	141860
19.27557	152203
19.28370	156997
19.29182	161362
19.29993	178876
19.30807	173774
19.31618	178088
19.32432	177120
19.33243	180162
19.34055	173027
19.34868	175325
19.35680	182466
19.36492	184577
19.37305	205377
19.38117	206673
19.38930	216312
19.39742	206306
19.40553	196593
19.41367	182308
19.42178	176648
19.42992	162931
19.43803	159513
19.44615	155578
19.45428	152269
19.46240	148556
19.47053	151177
19.47865	148185
19.48677	152595
19.49490	171350
19.50302	194735
19.51113	248046
19.51927	316081
19.52738	365228
19.53552	380154
19.54363	348599
19.55175	288926
19.55988	238625
19.56800	200673
19.57613	182382
19.58425	169368
19.59237	159380
19.60050	155565
19.60862	146763
19.61673	137095
19.62487	156192
19.63298	164429
19.64112	223527
19.64923	331229
19.65735	542279
19.66548	813796
19.67360	1152599
19.68173	1379737
19.68985	1377251
19.69797	1255126
19.70610	1013870
19.71422	784993
19.72235	582021
19.73047	455802
19.73858	372928
19.74672	312999
19.75483	284052
19.76295	245022
19.77108	227549
19.77920	227487
19.78733	246060
19.79545	249177
19.80357	270923
19.81170	277514
19.81982	257086
19.82795	249407
19.83607	223835
19.84418	233095
19.85232	360718
19.86043	817268
19.86855	2253897
19.87668	5549413
19.88480	1.144502E+07
19.89293	1.912299E+07
19.90105	2.712027E+07
19.90917	3.25209E+07
19.91730	3.314043E+07
19.92542	2.875786E+07
19.93355	2.208129E+07
19.94167	1.526353E+07
19.94978	9886752
19.95792	6705126
19.96603	4998401
19.97417	4039810
19.98228	3517221
19.99040	3169077
19.99853	2838132
20.00665	2600310
20.01477	2431625
20.02290	2230675
20.03102	1986402
20.03915	1834920
20.04727	1599563
20.05538	1376091
20.06352	1150103
20.07163	960015
20.07977	808784
20.08788	717367
20.09600	652444
20.10413	609367
20.11225	547401
20.12038	520108
20.12850	447667
20.13662	437051
20.14475	439102
20.15287	522633
20.16098	677944
20.16912	965053
20.17723	1299546
20.18537	1705499
20.19348	2016560
20.20160	2150960
20.20973	2042144
20.21785	1880782
20.22598	1622636
20.23410	1369930
20.24222	1199721
20.25035	1199060
20.25847	1306564
20.26658	1524987
20.27472	1798832
20.28283	1980996
20.29097	2030033
20.29908	1959056
20.30720	1724803
20.31533	1418667
20.32345	1089027
20.33158	829242
20.33970	633639
20.34782	503268
20.35595	397010
20.36407	322686
20.37220	276783
20.38032	238062
20.38843	221078
20.39657	209447
20.40468	194387
20.41280	190310
20.42093	197576
20.42905	217921
20.43718	242385
20.44530	285064
20.45342	319417
20.46155	335327
20.46967	330137
20.47780	311785
20.48592	263765
20.49403	231093
20.50217	195624
20.51028	176565
20.51842	157574
20.52653	143691
20.53465	142064
20.54278	143314
20.55090	139852
20.55902	128442
20.56715	130484
20.57527	129971
20.58340	127480
20.59152	120979
20.59963	123020
20.60777	121683
20.61588	115119
20.62402	117791
20.63213	117260
20.64025	122900
20.64838	122715
20.65650	114639
20.66462	128862
20.67275	120581
20.68087	117826
20.68900	114233
20.69712	121466
20.70523	109086
20.71337	103019
20.72148	104537
20.72962	102170
20.73773	102844
20.74585	104102
20.75398	100209
20.76210	107161
20.77023	111818
20.77835	115861
20.78647	128720
20.79460	170360
20.80272	235861
20.81083	332308
20.81897	424727
20.82708	496777
20.83522	483390
20.84333	409274
20.85145	317567
20.85958	231820
20.86770	176084
20.87583	144808
20.88395	127077
20.89207	132798
20.90020	125242
20.90832	135080
20.91643	140863
20.92457	152955
20.93268	158101
20.94082	163432
20.94893	156477
20.95705	156965
20.96518	153002
20.97330	135271
20.98143	125922
20.98955	118399
20.99767	120716
21.00580	104950
21.01392	99320
21.02205	105747
21.03017	104459
21.03828	103864
21.04642	112524
21.05453	107591
21.06265	102054
21.07078	97044
21.07890	97175
21.08703	88409
21.09515	86551
21.10327	91580
21.11140	89850
21.11952	90544
21.12765	96025
21.13577	105162
21.14388	125468
21.15202	146373
21.16013	184579
21.16827	205011
21.17638	207517
21.18450	194877
21.19263	167978
21.20075	145720
21.20887	123266
21.21700	110699
21.22512	106537
21.23325	108760
21.24137	99709
21.24948	101657
21.25762	97466
21.26573	97945
21.27387	94653
21.28198	98392
21.29010	92435
21.29823	92248
21.30635	93765
21.31447	88293
21.32260	89022
21.33072	81368
21.33885	88036
21.34697	86341
21.35508	85687
21.36322	85522
21.37133	85278
21.37947	94597
21.38758	94365
21.39570	103970
21.40383	121463
21.41195	149307
21.42008	180310
21.42820	209463
21.43632	220940
21.44445	209963
21.45257	193201
21.46068	160354
21.46882	146521
21.47693	134270
21.48507	120668
21.49318	106324
21.50130	104008
21.50943	102353
21.51755	93561
21.52568	92623
21.53380	89967
21.54192	91392
21.55005	90128
21.55817	87276
21.56630	92922
21.57442	87928
21.58253	91165
21.59067	90296
21.59878	91752
21.60690	94389
21.61503	99002
21.62315	108293
21.63128	121928
21.63940	157156
21.64752	176466
21.65565	203877
21.66377	221483
21.67190	213038
21.68002	205018
21.68813	181835
21.69627	160704
21.70438	133213
21.71250	125862
21.72063	103414
21.72875	97685
21.73688	96418
21.74500	89661
21.75312	84197
21.76125	83741
21.76937	84427
21.77750	89833
21.78562	85224
21.79373	77925
21.80187	86564
21.80998	87792
21.81812	96216
21.82623	110398
21.83435	129267
21.84248	154360
21.85060	180639
21.85872	193631
21.86685	196654
21.87497	171376
21.88310	151975
21.89122	132453
21.89933	113385
21.90747	101571
21.91558	92055
21.92372	86533
21.93183	81022
21.93995	83221
21.94808	75247
21.95620	79754
21.96432	78024
21.97245	73473
21.98057	75047
21.98870	75401
21.99682	71794
22.00493	70694
22.01307	64550
22.02118	63956
22.02932	65706
22.03743	71464
22.04555	70078
22.05368	71551
22.06180	73892
22.06993	73398
22.07805	70409
22.08617	73716
22.09430	81944
22.10242	85967
22.11053	84403
22.11867	82215
22.12678	83852
22.13492	76912
22.14303	78220
22.15115	80027
22.15928	68904
22.16740	74315
22.17553	69175
22.18365	78265
22.19177	74683
22.19990	67874
22.20802	70696
22.21615	72984
22.22427	75960
22.23238	82932
22.24052	90500
22.24863	93028
22.25675	88508
22.26488	95716
22.27300	86458
22.28113	79699
22.28925	81094
22.29737	85454
22.30550	94070
22.31362	103952
22.32175	130045
22.32987	142273
22.33798	172431
22.34612	183061
22.35423	165012
22.36235	152234
22.37048	127050
22.37860	104484
22.38673	106562
22.39485	106671
22.40297	116728
22.41110	132991
22.41922	148184
22.42735	161470
22.43547	158588
22.44358	148563
22.45172	129567
22.45983	111315
22.46797	93766
22.47608	89519
22.48420	84578
22.49233	87413
22.50045	95330
22.50857	104058
22.51670	116112
22.52482	117883
22.53295	115751
22.54107	103342
22.54918	97461
22.55732	93667
22.56543	82406
22.57357	80794
22.58168	76113
22.58980	73249
22.59793	67432
22.60605	65534
22.61418	59723
22.62230	60192
22.63042	59853
22.63855	57678
22.64667	57221
22.65478	59355
22.66292	63259
22.67103	67247
22.67917	81034
22.68728	94289
22.69540	107022
22.70353	112423
22.71165	120546
22.71978	117989
22.72790	122460
22.73602	117533
22.74415	107357
22.75227	100096
22.76038	100095
22.76852	91536
22.77663	93724
22.78477	92575
22.79288	100889
22.80100	98081
22.80913	113790
22.81725	118764
22.82538	123234
22.83350	113934
22.84162	113921
22.84975	113262
22.85787	113114
22.86600	112773
22.87412	129238
22.88223	149449
22.89037	177860
22.89848	191794
22.90660	197933
22.91473	207812
22.92285	214195
22.93098	227944
22.93910	239122
22.94722	266732
22.95535	248687
22.96347	239788
22.97160	213657
22.97972	194602
22.98783	172513
22.99597	154681
23.00408	146132
23.01222	141484
23.02033	131701
23.02845	122102
23.03658	115427
23.04470	109270
23.05282	105004
23.06095	116139
23.06907	101772
23.07720	105274
23.08532	102748
23.09343	93029
23.10157	100452
23.10968	94144
23.11782	90469
23.12593	89905
23.13405	82565
23.14218	81741
23.15030	78638
23.15842	73163
23.16655	66285
23.17467	70535
23.18280	67646
23.19092	65837
23.19903	64598
23.20717	63533
23.21528	67140
23.22342	62209
23.23153	66610
23.23965	68057
23.24778	79047
23.25590	92054
23.26403	97719
23.27215	102395
23.28027	107526
23.28840	89653
23.29652	91901
23.30463	78961
23.31277	73141
23.32088	68244
23.32902	72702
23.33713	79535
23.34525	93677
23.35338	110329
23.36150	126182
23.36963	143620
23.37775	153095
23.38587	159382
23.39400	151122
23.40212	148329
23.41023	147958
23.41837	144865
23.42648	143972
23.43462	136426
23.44273	131862
23.45085	138859
23.45898	129374
23.46710	141985
23.47523	129156
23.48335	123645
23.49147	122205
23.49960	129990
23.50772	126318
23.51585	121520
23.52397	122198
23.53208	125237
23.54022	123278
23.54833	132766
23.55645	140346
23.56458	145970
23.57270	159671
23.58083	187760
23.58895	231157
23.59707	265822
23.60520	298819
23.61332	309582
23.62145	299831
23.62957	284646
23.63768	282467
23.64582	314938
23.65393	406155
23.66207	535349
23.67018	661183
23.67830	712745
23.68643	654306
23.69455	530094
23.70267	401672
23.71080	293607
23.71892	219144
23.72705	179655
23.73517	156462
23.74328	155999
23.75142	189350
23.75953	330225
23.76767	697986
23.77578	1482930
23.78390	2712566
23.79203	4057404
23.80015	4963044
23.80827	5194609
23.81640	4582325
23.82452	3620628
23.83265	2687709
23.84077	1843738
23.84888	1325834
23.85702	1000650
23.86513	780733
23.87327	648712
23.88138	573237
23.88950	500996
23.89763	468580
23.90575	425173
23.91388	385342
23.92200	360288
23.93012	348395
23.93825	326932
23.94637	308301
23.95448	290113
23.96262	292957
23.97073	270196
23.97887	245743
23.98698	237335
23.99510	226913
24.00323	206491
24.01135	220775
24.01948	215160
24.02760	211830
24.03572	227993
24.04385	234823
24.05197	225247
24.06010	235079
24.06822	232459
24.07633	217787
24.08447	203401
24.09258	190351
24.10070	181485
24.10883	170279
24.11695	173346
24.12508	156792
24.13320	171744
24.14132	190016
24.14945	203260
24.15757	212210
24.16570	217442
24.17382	208042
24.18193	209363
24.19007	191792
24.19818	189488
24.20630	184416
24.21443	184452
24.22255	185919
24.23068	196288
24.23880	181345
24.24692	177091
24.25505	162842
24.26317	145284
24.27130	142814
24.27942	132447
24.28753	125176
24.29567	129851
24.30378	129269
24.31192	122983
24.32003	139941
24.32815	133675
24.33628	122327
24.34440	121243
24.35252	125519
24.36065	122628
24.36877	113602
24.37690	115791
24.38502	119413
24.39313	133833
24.40127	163114
24.40938	184813
24.41752	214482
24.42563	222644
24.43375	192542
24.44188	169039
24.45000	135469
24.45812	124061
24.46625	120167
24.47437	120436
24.48250	128578
24.49062	136474
24.49873	139383
24.50687	152934
24.51498	160736
24.52312	187628
24.53123	211783
24.53935	241592
24.54748	273933
24.55560	299740
24.56373	300853
24.57185	289394
24.57997	264917
24.58810	225510
24.59622	202404
24.60433	170528
24.61247	157011
24.62058	143666
24.62872	138789
24.63683	130846
24.64495	125484
24.65308	121884
24.66120	124641
24.66933	119121
24.67745	122667
24.68557	120952
24.69370	113337
24.70182	101119
24.70995	102040
24.71807	100561
24.72618	95920
24.73432	86698
24.74243	90132
24.75055	88941
24.75868	87631
24.76680	86842
24.77493	85777
24.78305	92335
24.79117	96367
24.79930	89419
24.80742	89284
24.81555	95194
24.82367	92572
24.83178	97721
24.83992	102591
24.84803	126608
24.85617	140545
24.86428	180104
24.87240	223837
24.88053	285791
24.88865	378886
24.89677	444912
24.90490	459784
24.91302	428435
24.92115	351504
24.92927	283379
24.93738	209176
24.94552	158317
24.95363	127499
24.96177	106284
24.96988	99370
24.97800	87026
24.98613	83665
24.99425	80980
25.00237	81220
25.01050	75575
25.01862	74490
25.02675	77270
25.03487	77171
25.04298	77415
25.05112	83954
25.05923	72139
25.06737	75674
25.07548	77591
25.08360	74859
25.09173	81467
25.09985	103844
25.10798	139478
25.11610	240291
25.12422	486890
25.13235	897496
25.14047	1532791
25.14858	2080142
25.15672	2437831
25.16483	2385540
25.17297	1984763
25.18108	1451929
25.18920	961573
25.19733	608568
25.20545	412867
25.21358	308584
25.22170	252139
25.22982	221280
25.23795	209336
25.24607	216268
25.25418	233922
25.26232	245429
25.27043	276791
25.27857	291706
25.28668	290290
25.29480	276996
25.30293	253769
25.31105	231776
25.31918	207466
25.32730	204288
25.33542	183421
25.34355	178871
25.35167	179928
25.35980	167959
25.36792	159464
25.37603	158596
25.38417	158877
25.39228	148175
25.40040	148584
25.40853	146491
25.41665	150733
25.42478	156475
25.43290	145826
25.44102	147991
25.44915	155554
25.45727	146198
25.46540	154595
25.47352	149300
25.48163	168109
25.48977	164055
25.49788	162287
25.50602	166408
25.51413	161524
25.52225	156081
25.53038	148734
25.53850	155005
25.54662	146262
25.55475	144356
25.56287	142065
25.57100	139255
25.57912	137767
25.58723	135491
25.59537	142295
25.60348	140223
25.61162	134456
25.61973	127428
25.62785	129685
25.63598	135351
25.64410	130255
25.65222	137242
25.66035	140263
25.66847	141840
25.67660	146308
25.68472	140085
25.69283	136547
25.70097	133643
25.70908	136802
25.71722	126240
25.72533	129611
25.73345	132240
25.74158	116535
25.74970	117285
25.75783	113113
25.76595	101845
25.77407	89585
25.78220	84771
25.79032	82684
25.79843	85413
25.80657	87985
25.81468	80076
25.82282	79728
25.83093	88172
25.83905	90991
25.84718	89618
25.85530	88755
25.86343	85507
25.87155	85213
25.87967	88173
25.88780	83613
25.89592	86016
25.90405	75808
25.91217	79114
25.92028	77371
25.92842	77009
25.93653	78752
25.94465	77747
25.95278	74968
25.96090	77259
25.96903	85347
25.97715	78434
25.98527	66670
25.99340	69228
26.00152	69409
26.00965	63357
26.01777	68234
26.02588	64123
26.03402	65173
26.04213	68950
26.05025	66885
26.05838	64272
26.06650	63824
26.07463	71506
26.08275	66631
26.09087	71631
26.09900	72995
26.10712	75886
26.11525	76052
26.12337	81030
26.13148	100913
26.13962	128261
26.14773	154200
26.15587	170032
26.16398	184854
26.17210	188552
26.18023	192313
26.18835	190693
26.19647	182778
26.20460	183837
26.21272	183048
26.22085	176010
26.22897	182108
26.23708	184797
26.24522	174888
26.25333	171623
26.26147	175748
26.26958	188105
26.27770	178198
26.28583	174104
26.29395	176838
26.30207	179325
26.31020	174582
26.31832	174551
26.32645	171413
26.33457	172809
26.34268	176063
26.35082	192018
26.35893	222533
26.36707	283059
26.37518	382935
26.38330	513331
26.39143	671387
26.39955	785432
26.40768	845802
26.41580	790067
26.42392	659077
26.43205	538172
26.44017	398862
26.44828	316168
26.45642	250435
26.46453	220241
26.47267	194947
26.48078	187052
26.48890	178304
26.49703	170368
26.50515	162829
26.51328	164726
26.52140	160845
26.52952	146582
26.53765	151205
26.54577	153356
26.55390	155215
26.56202	147219
26.57013	139155
26.57827	143625
26.58638	141940
26.59450	135928
26.60263	145276
26.61075	142566
26.61888	130654
26.62700	144455
26.63512	134792
26.64325	138609
26.65137	133945
26.65950	138218
26.66762	136127
26.67573	141314
26.68387	145293
26.69198	139492
26.70010	142570
26.70823	137679
26.71635	131316
26.72448	131937
26.73260	130446
26.74072	125374
26.74885	130002
26.75697	131425
26.76510	119623
26.77322	121141
26.78133	122041
26.78947	124462
26.79758	128287
26.80572	124236
26.81383	123470
26.82195	131052
26.83008	132006
26.83820	133133
26.84632	123648
26.85445	122810
26.86257	118153
26.87070	121252
26.87882	120786
26.88693	116879
26.89507	117880
26.90318	108379
26.91132	115127
26.91943	110091
26.92755	108940
26.93568	111541
26.94380	106511
26.95193	108520
26.96005	118871
26.96817	139052
26.97630	215940
26.98442	406737
26.99253	800640
27.00067	1604194
27.00878	2898521
27.01692	4280919
27.02503	5096853
27.03315	5187942
27.04128	4735148
27.04940	3855334
27.05753	2899312
27.06565	2129339
27.07377	1511983
27.08190	1073932
27.09002	833807
27.09813	698278
27.10627	596771
27.11438	511020
27.12252	464329
27.13063	417685
27.13875	372550
27.14688	351067
27.15500	326781
27.16313	317250
27.17125	320785
27.17937	316119
27.18750	303851
27.19562	299533
27.20375	294455
27.21187	274766
27.21998	241414
27.22812	242504
27.23623	219713
27.24435	190790
27.25248	190904
27.26060	177742
27.26873	186413
27.27685	175044
27.28497	160569
27.29310	158248
27.30122	161826
27.30935	157686
27.31747	155820
27.32558	151163
27.33372	155126
27.34183	158098
27.34995	147292
27.35808	147051
27.36620	147635
27.37433	144136
27.38245	140042
27.39057	143106
27.39870	143662
27.40682	140631
27.41495	130862
27.42307	134228
27.43118	135449
27.43932	124974
27.44743	126780
27.45557	120124
27.46368	123036
27.47180	117559
27.47993	115355
27.48805	117181
27.49617	111714
27.50430	116527
27.51242	106223
27.52055	107410
27.52867	108870
27.53678	115700
27.54492	107592
27.55303	112986
27.56117	109762
27.56928	111057
27.57740	105468
27.58553	112072
27.59365	125086
27.60178	121965
27.60990	136574
27.61802	140040
27.62615	134630
27.63427	132150
27.64238	123138
27.65052	123026
27.65863	103542
27.66677	111238
27.67488	103802
27.68300	101438
27.69113	103759
27.69925	104203
27.70738	102423
27.71550	102206
27.72362	86448
27.73175	90256
27.73987	97004
27.74798	99187
27.75612	86126
27.76423	83509
27.77237	92507
27.78048	92809
27.78860	85045
27.79673	84832
27.80485	85021
27.81298	88175
27.82110	87383
27.82922	92340
27.83735	93463
27.84547	90403
27.85360	86493
27.86172	84863
27.86983	87982
27.87797	83569
27.88608	79544
27.89420	82393
27.90233	87050
27.91045	76268
27.91858	80327
27.92670	76265
27.93482	78217
27.94295	76218
27.95107	81627
27.95920	74806
27.96732	82381
27.97543	79194
27.98357	70763
27.99168	72283
27.99982	74519
28.00793	78164
28.01605	82891
28.02418	91272
28.03230	96048
28.04042	110076
28.04855	113344
28.05667	123782
28.06480	114377
28.07292	115613
28.08103	112814
28.08917	97398
28.09728	91089
28.10542	89851
28.11353	88832
28.12165	83385
28.12978	85415
28.13790	84240
28.14602	74369
28.15415	76709
28.16227	67608
28.17040	66569
28.17852	71299
28.18663	74882
28.19477	76757
28.20288	84793
28.21102	110098
28.21913	107414
28.22725	116460
28.23538	118306
28.24350	118399
28.25163	100539
28.25975	97636
28.26787	84978
28.27600	75928
28.28412	78187
28.29223	73720
28.30037	86628
28.30848	105229
28.31662	129899
28.32473	179314
28.33285	242032
28.34098	327438
28.34910	416289
28.35723	530823
28.36535	615967
28.37347	686381
28.38160	716869
28.38972	731202
28.39785	713882
28.40597	669849
28.41408	612891
28.42222	513978
28.43033	444587
28.43845	379155
28.44658	346932
28.45470	308866
28.46283	272989
28.47095	251569
28.47907	225693
28.48720	214387
28.49532	200995
28.50345	191053
28.51157	190273
28.51968	177122
28.52782	171279
28.53593	160123
28.54405	156209
28.55218	141437
28.56030	136977
28.56843	133037
28.57655	127699
28.58467	127657
28.59280	116261
28.60092	122623
28.60905	117953
28.61717	121306
28.62528	116991
28.63342	120687
28.64153	124216
28.64967	127678
28.65778	124138
28.66590	124525
28.67403	124498
28.68215	121142
28.69027	116740
28.69840	112946
28.70652	107038
28.71465	103916
28.72277	104545
28.73088	94789
28.73902	96387
28.74713	97575
28.75527	95768
28.76338	101182
28.77150	110802
28.77963	118942
28.78775	131759
28.79587	131500
28.80400	132740
28.81212	121652
28.82025	117730
28.82837	102514
28.83648	104923
28.84462	96901
28.85273	91996
28.86087	83143
28.86898	84041
28.87710	85495
28.88523	86098
28.89335	88804
28.90148	88567
28.90960	95439
28.91772	94681
28.92585	89803
28.93397	86597
28.94208	98647
28.95022	93523
28.95833	102731
28.96647	99814
28.97458	96081
28.98270	91143
28.99083	89903
28.99895	85152
29.00708	85783
29.01520	83912
29.02332	87797
29.03145	83946
29.03957	80171
29.04770	78941
29.05582	87058
29.06393	72223
29.07207	82681
29.08018	80627
29.08830	83089
29.09643	81945
29.10455	85098
29.11268	90364
29.12080	78431
29.12892	75882
29.13705	78019
29.14517	77516
29.15330	74429
29.16142	78191
29.16953	74751
29.17767	77331
29.18578	82809
29.19390	85647
29.20203	91635
29.21015	101779
29.21828	103851
29.22640	110400
29.23452	109931
29.24265	109541
29.25077	109240
29.25890	105101
29.26702	108808
29.27513	104212
29.28327	100048
29.29138	93110
29.29952	92007
29.30763	85609
29.31575	80371
29.32388	70830
29.33200	72968
29.34012	75627
29.34825	69379
29.35637	69169
29.36450	72804
29.37262	69122
29.38073	67983
29.38887	69684
29.39698	68137
29.40512	74333
29.41323	72812
29.42135	71164
29.42948	75688
29.43760	72067
29.44573	70232
29.45385	68260
29.46197	74679
29.47010	72275
29.47822	62258
29.48633	69409
29.49447	79942
29.50258	74795
29.51072	80379
29.51883	80673
29.52695	82814
29.53508	77886
29.54320	78273
29.55133	78250
29.55945	70072
29.56757	69931
29.57570	68258
29.58382	62491
29.59193	66969
29.60007	66711
29.60818	68438
29.61632	66141
29.62443	66012
29.63255	68391
29.64068	64334
29.64880	62726
29.65693	64536
29.66505	63029
29.67317	63542
29.68130	60896
29.68942	68431
29.69755	65121
29.70567	73711
29.71378	70595
29.72192	64776
29.73003	66022
29.73815	68233
29.74628	63595
29.75440	63898
29.76253	59781
29.77065	61339
29.77877	61576
29.78690	60822
29.79502	63951
29.80315	65358
29.81127	63805
29.81938	57202
29.82752	57866
29.83563	59000
29.84375	62014
29.85188	56127
29.86000	60784
29.86813	59360
29.87625	71432
29.88437	84046
29.89250	102800
29.90062	128022
29.90875	135504
29.91687	133894
29.92498	121563
29.93312	111758
29.94123	91222
29.94937	87362
29.95748	88357
29.96560	92947
29.97373	109776
29.98185	125969
29.98997	150173
29.99810	169439
30.00622	196871
30.01435	225860
30.02247	238610
30.03058	250142
30.03872	248142
30.04683	260287
30.05497	257773
30.06308	239007
30.07120	237590
30.07933	217066
30.08745	208074
30.09558	210412
30.10370	179700
30.11182	173913
30.11995	167841
30.12807	147046
30.13618	149047
30.14432	138989
30.15243	136038
30.16057	121948
30.16868	120672
30.17680	107977
30.18493	112331
30.19305	112943
30.20118	107720
30.20930	109881
30.21742	108524
30.22555	110467
30.23367	99220
30.24180	96327
30.24992	86113
30.25803	83527
30.26617	85487
30.27428	76166
30.28240	77698
30.29053	82766
30.29865	82554
30.30678	74893
30.31490	82202
30.32302	77643
30.33115	78083
30.33927	74335
30.34740	80264
30.35552	86028
30.36363	82916
30.37177	72477
30.37988	74904
30.38800	67922
30.39613	66797
30.40425	69378
30.41238	66384
30.42050	69325
30.42862	58447
30.43675	65148
30.44487	67239
30.45300	62940
30.46112	68145
30.46923	66312
30.47737	67239
30.48548	66345
30.49362	65451
30.50173	64513
30.50985	59599
30.51798	62884
30.52610	61915
30.53422	61917
30.54235	65976
30.55047	63241
30.55860	62727
30.56672	60354
30.57483	66310
30.58297	65302
30.59108	61235
30.59922	58928
30.60733	63585
30.61545	60721
30.62358	63858
30.63170	60033
30.63982	60701
30.64795	59898
30.65607	60152
30.66420	62168
30.67232	59765
30.68043	61038
30.68857	60750
30.69668	66006
30.70482	59461
30.71293	57123
30.72105	65763
30.72918	60589
30.73730	59596
30.74543	59634
30.75355	68749
30.76167	61039
30.76980	65505
30.77792	63287
30.78603	65340
30.79417	68331
30.80228	78475
30.81042	84437
30.81853	101402
30.82665	94654
30.83478	91285
30.84290	78128
30.85103	76075
30.85915	70006
30.86727	71895
30.87540	69588
30.88352	70738
30.89163	71988
30.89977	74645
30.90788	74347
30.91602	65257
30.92413	62275
30.93225	64862
30.94038	63042
30.94850	63683
30.95663	67709
30.96475	66654
30.97287	62479
30.98100	64726
30.98912	60906
30.99725	68877
31.00537	64252
31.01348	68208
31.02162	70187
31.02973	84765
31.03785	89875
31.04598	93706
31.05410	92605
31.06223	81644
31.07035	87493
31.07847	82321
31.08660	99421
31.09472	126908
31.10285	161924
31.11097	206108
31.11908	228120
31.12722	210377
31.13533	185466
31.14347	139714
31.15158	113148
31.15970	94178
31.16783	80960
31.17595	79506
31.18407	77591
31.19220	80928
31.20032	95294
31.20845	116478
31.21657	126157
31.22468	143490
31.23282	150312
31.24093	146517
31.24907	133188
31.25718	122996
31.26530	97642
31.27343	84681
31.28155	69630
31.28968	69928
31.29780	65464
31.30592	61612
31.31405	61179
31.32217	66225
31.33028	64560
31.33842	68819
31.34653	62403
31.35467	61129
31.36278	64675
31.37090	67538
31.37903	68501
31.38715	74231
31.39528	75296
31.40340	75594
31.41152	80604
31.41965	72863
31.42777	72876
31.43588	68091
31.44402	65999
31.45213	60451
31.46027	56333
31.46838	56798
31.47650	59869
31.48463	59247
31.49275	63189
31.50088	56867
31.50900	60568
31.51712	61424
31.52525	66570
31.53337	64882
31.54150	63302
31.54962	72169
31.55773	59974
31.56587	58157
31.57398	58188
31.58210	58927
31.59023	56207
31.59835	61401
31.60648	54188
31.61460	58706
31.62272	54381
31.63085	59537
31.63897	59106
31.64710	61284
31.65522	62220
31.66333	66236
31.67147	70521
31.67958	68440
31.68770	73054
31.69583	69990
31.70395	67523
31.71208	70216
31.72020	63589
31.72832	65807
31.73645	63816
31.74457	66606
31.75270	68674
31.76082	61535
31.76893	66095
31.77707	64771
31.78518	69359
31.79332	67840
31.80143	70326
31.80955	79284
31.81768	75392
31.82580	72703
31.83392	71138
31.84205	70592
31.85017	71654
31.85830	75118
31.86642	80135
31.87453	76750
31.88267	82822
31.89078	84930
31.89892	81301
31.90703	84023
31.91515	90885
31.92328	98609
31.93140	110677
31.93953	114065
31.94765	130179
31.95577	130117
31.96390	134567
31.97202	141510
31.98013	154955
31.98827	153450
31.99638	154872
32.00452	159491
32.01263	150744
32.02075	138875
32.02888	137426
32.03700	123903
32.04513	112872
32.05325	112009
32.06137	105536
32.06950	105169
32.07762	95335
32.08573	103231
32.09387	96898
32.10198	95314
32.11012	92978
32.11823	89838
32.12635	87032
32.13448	85835
32.14260	76840
32.15073	77293
32.15885	82210
32.16697	77837
32.17510	71281
32.18322	73254
32.19135	72245
32.19947	76388
32.20758	72029
32.21572	74402
32.22383	66993
32.23195	72179
32.24008	68486
32.24820	70051
32.25633	69424
32.26445	67485
32.27257	67959
32.28070	70341
32.28882	71514
32.29695	72972
32.30507	68274
32.31318	67853
32.32132	66608
32.32943	65841
32.33757	69502
32.34568	70001
32.35380	70138
32.36193	74778
32.37005	71947
32.37817	74882
32.38630	69573
32.39442	68000
32.40255	65353
32.41067	64724
32.41878	64174
32.42692	58011
32.43503	61175
32.44317	54713
32.45128	59722
32.45940	59455
32.46753	57040
32.47565	61215
32.48377	60741
32.49190	57033
32.50002	58401
32.50815	54958
32.51627	57319
32.52438	57092
32.53252	57264
32.54063	58237
32.54877	55241
32.55688	59449
32.56500	58714
32.57313	57171
32.58125	57165
32.58938	59694
32.59750	58143
32.60562	55546
32.61375	54260
32.62187	50762
32.62998	50914
32.63812	55187
32.64623	55628
32.65437	60816
32.66248	63086
32.67060	67653
32.67873	74952
32.68685	81832
32.69498	86432
32.70310	84451
32.71122	72525
32.71935	69906
32.72747	66402
32.73558	59124
32.74372	57136
32.75183	58132
32.75997	56414
32.76808	53545
32.77620	50644
32.78433	55075
32.79245	54506
32.80058	52372
32.80870	54282
32.81682	54013
32.82495	56040
32.83307	55575
32.84120	53666
32.84932	55413
32.85743	52443
32.86557	57441
32.87368	52554
32.88180	52700
32.88993	58911
32.89805	62452
32.90618	62752
32.91430	58199
32.92242	62114
32.93055	56896
32.93867	58291
32.94680	57144
32.95492	58816
32.96303	53412
32.97117	58101
32.97928	56180
32.98742	57452
32.99553	61920
33.00365	69336
33.01178	63356
33.01990	68948
33.02802	65403
33.03615	60655
33.04427	59450
33.05240	59174
33.06052	61494
33.06863	62168
33.07677	66158
33.08488	70091
33.09302	85610
33.10113	90092
33.10925	99208
33.11738	108526
33.12550	122410
33.13362	113007
33.14175	106998
33.14987	89824
33.15800	83396
33.16612	69355
33.17423	65089
33.18237	63610
33.19048	58361
33.19862	53178
33.20673	61958
33.21485	59847
33.22298	61657
33.23110	60353
33.23923	64547
33.24735	66107
33.25547	59961
33.26360	56047
33.27172	61538
33.27983	63300
33.28797	65345
33.29608	60753
33.30422	54880
33.31233	55693
33.32045	53751
33.32858	59300
33.33670	50464
33.34483	59911
33.35295	56856
33.36107	60120
33.36920	58374
33.37732	55415
33.38545	68317
33.39357	56590
33.40168	52247
33.40982	51620
33.41793	51332
33.42605	48131
33.43418	50211
33.44230	52279
33.45043	53688
33.45855	52002
33.46667	52437
33.47480	55889
33.48292	51816
33.49105	50316
33.49917	54478
33.50728	54283
33.51542	49786
33.52353	55173
33.53165	56225
33.53978	51696
33.54790	56951
33.55603	56278
33.56415	54324
33.57227	61061
33.58040	54571
33.58852	53803
33.59665	47478
33.60477	51489
33.61288	51747
33.62102	52220
33.62913	53435
33.63727	59590
33.64538	54066
33.65350	59555
33.66163	58639
33.66975	57261
33.67787	58237
33.68600	55544
33.69412	53982
33.70225	52486
33.71037	49037
33.71848	50843
33.72662	50161
33.73473	53093
33.74287	46658
33.75098	55487
33.75910	51442
33.76723	54307
33.77535	47920
33.78348	48467
33.79160	51076
33.79972	51973
33.80785	48433
33.81597	45662
33.82408	50592
33.83222	50664
33.84033	54628
33.84847	53361
33.85658	57094
33.86470	55719
33.87283	58486
33.88095	54480
33.88908	56159
33.89720	55386
33.90532	52766
33.91345	51072
33.92157	53739
33.92968	57748
33.93782	54912
33.94593	57001
33.95407	58208
33.96218	59054
33.97030	55006
33.97843	56629
33.98655	51102
33.99468	58051
34.00280	52890
34.01092	57707
34.01905	56187
34.02717	59422
34.03530	58216
34.04342	57549
34.05153	57510
34.05967	59688
34.06778	54214
34.07590	64181
34.08403	64218
34.09215	60495
34.10028	59984
34.10840	58449
34.11652	62912
34.12465	60228
34.13277	64415
34.14090	60311
34.14902	56107
34.15713	56527
34.16527	60010
34.17338	59372
34.18150	54379
34.18963	50312
34.19775	51427
34.20588	54024
34.21400	57771
34.22212	54853
34.23025	53597
34.23837	54548
34.24650	55056
34.25462	57741
34.26273	55453
34.27087	56567
34.27898	59290
34.28712	56643
34.29523	55670
34.30335	60246
34.31148	58580
34.31960	59063
34.32772	57079
34.33585	60484
34.34397	56469
34.35210	58763
34.36022	55815
34.36833	59390
34.37647	58189
34.38458	61100
34.39272	58359
34.40083	54627
34.40895	57244
34.41708	53941
34.42520	53129
34.43333	57369
34.44145	52901
34.44957	55585
34.45770	55608
34.46582	56221
34.47393	55034
34.48207	53789
34.49018	54267
34.49832	52992
34.50643	49484
34.51455	51572
34.52268	58089
34.53080	67867
34.53893	82042
34.54705	84072
34.55517	96547
34.56330	98505
34.57142	97159
34.57953	98890
34.58767	95224
34.59578	94244
34.60392	87406
34.61203	79399
34.62015	76880
34.62828	71788
34.63640	67687
34.64453	68714
34.65265	71603
34.66077	67098
34.66890	64937
34.67702	60942
34.68515	62083
34.69327	60321
34.70138	61029
34.70952	60217
34.71763	60179
34.72575	61324
34.73388	54650
34.74200	59116
34.75013	58571
34.75825	60318
34.76637	60161
34.77450	61970
34.78262	59554
34.79075	60358
34.79887	58683
34.80698	62954
34.81512	65604
34.82323	61033
34.83137	63074
34.83948	59853
34.84760	60227
34.85573	62794
34.86385	58599
34.87197	60246
34.88010	59209
34.88822	58409
34.89635	56478
34.90447	56992
34.91258	55532
34.92072	57506
34.92883	59234
34.93697	58290
34.94508	74484
34.95320	90526
34.96133	121650
34.96945	172592
34.97757	236237
34.98570	293658
34.99382	317193
35.00195	273820
35.01007	199532
35.01818	137996
35.02632	98977
35.03443	81156
35.04257	69403
35.05068	71086
35.05880	69505
35.06693	69247
35.07505	68366
35.08318	70532
35.09130	62763
35.09942	61111
35.10755	65975
35.11567	64128
35.12378	59126
35.13192	61196
35.14003	59724
35.14817	62339
35.15628	65923
35.16440	62900
35.17253	65336
35.18065	67393
35.18878	68565
35.19690	62530
35.20502	60838
35.21315	60799
35.22127	58630
35.22938	60304
35.23752	57680
35.24563	59096
35.25377	57277
35.26188	64507
35.27000	62980
35.27813	67972
35.28625	66598
35.29438	62750
35.30250	66073
35.31062	67550
35.31875	59559
35.32687	56584
35.33500	55301
35.34312	56874
35.35123	58011
35.35937	58096
35.36748	56945
35.37560	55369
35.38373	56960
35.39185	56825
35.39998	60631
35.40810	61764
35.41622	65973
35.42435	70512
35.43247	70066
35.44060	68999
35.44872	72561
35.45683	70535
35.46497	72080
35.47308	66838
35.48122	68651
35.48933	73754
35.49745	64387
35.50558	62305
35.51370	64800
35.52182	60469
35.52995	59599
35.53807	65778
35.54620	54438
35.55432	59563
35.56243	60460
35.57057	62607
35.57868	63568
35.58682	64719
35.59493	62428
35.60305	69284
35.61118	58801
35.61930	64691
35.62743	69060
35.63555	64070
35.64367	60735
35.65180	59706
35.65992	57799
35.66803	58377
35.67617	61590
35.68428	65194
35.69242	61858
35.70053	66338
35.70865	63732
35.71678	66150
35.72490	67257
35.73303	64901
35.74115	65330
35.74927	61581
35.75740	67867
35.76552	70696
35.77363	68785
35.78177	68701
35.78988	71399
35.79802	66048
35.80613	73910
35.81425	60415
35.82238	61206
35.83050	64651
35.83863	56223
35.84675	60891
35.85487	60921
35.86300	65787
35.87112	62117
35.87925	61649
35.88737	62285
35.89548	54953
35.90362	61540
35.91173	59164
35.91985	58263
35.92798	62956
35.93610	56731
35.94423	61224
35.95235	58005
35.96047	58469
35.96860	57687
35.97672	58807
35.98485	57089
35.99297	61286
36.00108	59875
36.00922	60386
36.01733	62755
36.02545	62849
36.03358	64397
36.04170	59172
36.04983	65361
36.05795	62943
36.06607	63794
36.07420	65336
36.08232	68335
36.09045	61516
36.09857	59471
36.10668	60591
36.11482	57498
36.12293	58735
36.13107	66132
36.13918	67788
36.14730	65601
36.15543	64148
36.16355	71218
36.17167	65972
36.17980	69218
36.18792	70401
36.19605	65140
36.20417	62646
36.21228	59378
36.22042	57186
36.22853	61994
36.23667	58461
36.24478	59377
36.25290	56835
36.26103	57600
36.26915	57546
36.27728	63457
36.28540	61799
36.29352	62348
36.30165	60188
36.30977	65197
36.31788	79055
36.32602	74120
36.33413	75706
36.34227	77505
36.35038	76576
36.35850	70722
36.36663	68407
36.37475	64007
36.38288	60148
36.39100	60705
36.39912	62049
36.40725	60425
36.41537	62706
36.42348	60586
36.43162	67090
36.43973	63176
36.44787	60398
36.45598	59305
36.46410	59760
36.47223	59424
36.48035	59535
36.48848	59814
36.49660	59378
36.50472	55083
36.51285	59404
36.52097	62456
36.52910	58261
36.53722	58372
36.54533	54405
36.55347	56298
36.56158	58020
36.56970	60390
36.57783	60854
36.58595	65491
36.59408	63152
36.60220	59296
36.61032	56329
36.61845	61651
36.62657	64659
36.63470	61851
36.64282	62990
36.65093	58249
36.65907	55221
36.66718	56717
36.67532	64565
36.68343	67979
36.69155	64561
36.69968	64199
36.70780	58923
36.71592	66961
36.72405	61991
36.73217	61797
36.74030	59303
36.74842	63255
36.75653	60084
36.76467	61451
36.77278	64508
36.78092	55435
36.78903	59959
36.79715	60116
36.80528	65189
36.81340	63248
36.82152	58133
36.82965	58135
36.83777	58801
36.84590	58482
36.85402	67127
36.86213	64763
36.87027	61846
36.87838	60121
36.88652	63097
36.89463	59941
36.90275	59687
36.91088	62768
36.91900	63886
36.92713	63367
36.93525	64130
36.94337	63518
36.95150	63804
36.95962	67930
36.96773	70218
36.97587	80986
36.98398	77097
36.99212	70492
37.00023	71669
37.00835	64921
37.01648	65930
37.02460	66550
37.03273	63000
37.04085	63510
37.04897	62673
37.05710	67034
37.06522	69297
37.07333	70193
37.08147	66431
37.08958	75102
37.09772	69842
37.10583	75731
37.11395	75325
37.12208	78703
37.13020	80280
37.13833	69955
37.14645	71885
37.15457	75437
37.16270	76174
37.17082	72627
37.17895	76662
37.18707	76383
37.19518	79151
37.20332	79905
37.21143	75585
37.21955	78160
37.22768	77735
37.23580	77044
37.24393	78221
37.25205	70773
37.26017	72499
37.26830	74657
37.27642	70832
37.28455	71263
37.29267	69508
37.30078	72420
37.30892	77185
37.31703	73629
37.32517	74113
37.33328	75467
37.34140	78735
37.34953	84627
37.35765	81701
37.36577	86027
37.37390	94835
37.38202	91159
37.39015	92260
37.39827	87751
37.40638	88678
37.41452	80586
37.42263	80193
37.43077	79700
37.43888	80145
37.44700	80951
37.45513	79615
37.46325	78337
37.47137	78387
37.47950	79930
37.48762	79718
