Z:\data\JTB-E02\BACandBLUE\JTB-E02-199-15.D Wed Feb 27 16:05:15 2019
Start of data points
2.09532	78212
2.10343	80308
2.11155	81503
2.11968	75066
2.12780	78331
2.13592	79184
2.14405	82300
2.15217	76468
2.16030	75512
2.16842	74822
2.17653	69846
2.18467	71061
2.19278	66808
2.20092	66825
2.20903	67566
2.21715	65009
2.22528	66106
2.23340	64975
2.24153	67989
2.24965	67999
2.25777	62648
2.26590	80406
2.27402	441069
2.28213	1223927
2.29027	1012431
2.29838	502459
2.30652	356356
2.31463	302211
2.32275	264562
2.33088	237828
2.33900	224969
2.34713	208273
2.35525	179781
2.36337	175592
2.37150	159195
2.37962	159502
2.38775	155446
2.39587	146900
2.40398	136401
2.41212	144900
2.42023	143876
2.42835	139870
2.43648	140482
2.44460	134557
2.45273	135702
2.46085	123841
2.46897	121265
2.47710	126142
2.48522	114826
2.49335	125215
2.50147	125423
2.50958	124535
2.51772	123814
2.52583	122444
2.53397	113344
2.54208	116086
2.55020	131822
2.55833	256229
2.56645	432959
2.57457	349111
2.58270	240191
2.59082	194249
2.59895	178939
2.60707	212443
2.61518	360474
2.62332	409577
2.63143	298385
2.63957	230301
2.64768	193223
2.65580	178200
2.66393	161086
2.67205	155383
2.68017	150613
2.68830	146786
2.69642	140375
2.70455	132447
2.71267	133167
2.72078	122906
2.72892	127698
2.73703	125724
2.74517	126868
2.75328	124760
2.76140	117360
2.76953	129278
2.77765	433353
2.78578	2407774
2.79390	4742227
2.80202	3612048
2.81015	1957913
2.81827	1346484
2.82638	1106102
2.83452	954015
2.84263	846054
2.85077	666282
2.85888	553812
2.86700	480248
2.87513	426765
2.88325	375552
2.89138	341128
2.89950	319748
2.90762	290131
2.91575	263157
2.92387	242172
2.93198	227562
2.94012	222404
2.94823	203700
2.95637	198593
2.96448	191051
2.97260	182177
2.98073	179798
2.98885	182187
2.99698	196019
3.00510	238581
3.01322	314059
3.02135	294816
3.02947	235733
3.03760	197607
3.04572	176378
3.05383	168695
3.06197	200829
3.07008	228950
3.07820	234292
3.08633	440022
3.09445	1324815
3.10258	2569779
3.11070	4490004
3.11882	5719312
3.12695	4324428
3.13507	2777924
3.14320	2037270
3.15132	1592412
3.15943	1278415
3.16757	1092582
3.17568	1004662
3.18382	1028181
3.19193	1579971
3.20005	2537301
3.20818	2471073
3.21630	1771834
3.22442	1334647
3.23255	1125900
3.24067	958689
3.24880	829806
3.25692	732041
3.26503	649523
3.27317	586527
3.28128	550737
3.28942	616453
3.29753	1280194
3.30565	3337840
3.31378	5996913
3.32190	6719065
3.33002	5274474
3.33815	3469200
3.34627	2362014
3.35440	1784729
3.36252	1482698
3.37063	1245229
3.37877	1107269
3.38688	1000459
3.39502	926574
3.40313	870634
3.41125	843588
3.41938	779573
3.42750	748004
3.43563	687344
3.44375	665611
3.45187	640295
3.46000	562516
3.46812	558766
3.47623	572378
3.48437	567900
3.49248	549518
3.50062	533544
3.50873	532398
3.51685	489726
3.52498	477749
3.53310	473410
3.54123	480192
3.54935	470723
3.55747	433230
3.56560	400503
3.57372	376280
3.58185	378911
3.58997	365637
3.59808	340272
3.60622	328864
3.61433	329087
3.62245	342503
3.63058	422417
3.63870	567292
3.64683	636301
3.65495	575762
3.66307	975481
3.67120	4736566
3.67932	1.558778E+07
3.68745	2.435061E+07
3.69557	2.27309E+07
3.70368	1.498563E+07
3.71182	9812046
3.71993	7571758
3.72805	6225428
3.73618	5259423
3.74430	4584568
3.75243	3976827
3.76055	3580141
3.76867	3203956
3.77680	2892098
3.78492	2705271
3.79305	2550573
3.80117	2556085
3.80928	3048259
3.81742	4516029
3.82553	5683744
3.83367	5037782
3.84178	3703777
3.84990	2926504
3.85803	2554728
3.86615	2255444
3.87427	2060746
3.88240	1887935
3.89052	1745082
3.89865	1647222
3.90677	1557762
3.91488	1479451
3.92302	1532314
3.93113	1707896
3.93927	1801174
3.94738	1742062
3.95550	1900727
3.96363	2858484
3.97175	4154002
3.97987	4201118
3.98800	3148687
3.99612	2311326
4.00425	2843109
4.01237	5262919
4.02048	7979288
4.02862	7922632
4.03673	5479881
4.04487	3341674
4.05298	2255863
4.06110	1733050
4.06923	1429162
4.07735	1246958
4.08548	1119043
4.09360	1034806
4.10172	979438
4.10985	932802
4.11797	869010
4.12608	830343
4.13422	778713
4.14233	776454
4.15047	790459
4.15858	819329
4.16670	812330
4.17483	810252
4.18295	828127
4.19108	777344
4.19920	715278
4.20732	713625
4.21545	1283339
4.22357	3987784
4.23170	1.00075E+07
4.23982	1.60976E+07
4.24793	1.816725E+07
4.25607	1.498794E+07
4.26418	9849979
4.27230	6503068
4.28043	4719465
4.28855	3620606
4.29668	2907030
4.30480	2369990
4.31292	1999423
4.32105	1729246
4.32917	1506295
4.33730	1347258
4.34542	1219878
4.35353	1165632
4.36167	1202903
4.36978	1311784
4.37790	1307291
4.38603	1215891
4.39415	1012919
4.40228	872850
4.41040	800553
4.41852	758243
4.42665	700520
4.43477	672390
4.44290	647659
4.45102	615608
4.45913	596262
4.46727	573923
4.47538	558346
4.48352	540902
4.49163	532397
4.49975	528169
4.50788	528253
4.51600	510422
4.52412	514448
4.53225	495448
4.54037	501677
4.54850	504741
4.55662	522362
4.56473	522010
4.57287	487279
4.58098	447493
4.58912	432641
4.59723	427017
4.60535	418750
4.61348	416986
4.62160	439157
4.62973	567887
4.63785	880838
4.64597	1244506
4.65410	1388340
4.66222	1163759
4.67033	920812
4.67847	742020
4.68658	702582
4.69472	636163
4.70283	563881
4.71095	498960
4.71908	445410
4.72720	409033
4.73533	395267
4.74345	371217
4.75157	371349
4.75970	359732
4.76782	342475
4.77593	344703
4.78407	342023
4.79218	363473
4.80032	471440
4.80843	667328
4.81655	743160
4.82468	696189
4.83280	591591
4.84093	546459
4.84905	564830
4.85717	576296
4.86530	538532
4.87342	482840
4.88155	430973
4.88967	404465
4.89778	387978
4.90592	365293
4.91403	347945
4.92215	339476
4.93028	333238
4.93840	339481
4.94653	421447
4.95465	666490
4.96277	1075087
4.97090	1436456
4.97902	1584929
4.98715	1446267
4.99527	1202855
5.00338	999039
5.01152	842430
5.01963	764549
5.02775	728654
5.03588	773265
5.04400	896473
5.05213	944765
5.06025	893881
5.06837	771810
5.07650	701107
5.08462	645940
5.09275	610935
5.10087	572339
5.10898	553325
5.11712	518984
5.12523	517496
5.13337	503513
5.14148	483647
5.14960	474674
5.15773	541982
5.16585	656025
5.17397	788229
5.18210	807955
5.19022	757465
5.19835	706496
5.20647	727816
5.21458	795574
5.22272	827470
5.23083	749378
5.23897	647217
5.24708	573789
5.25520	516546
5.26333	455776
5.27145	411273
5.27958	391674
5.28770	361707
5.29582	335116
5.30395	335315
5.31207	330511
5.32018	331433
5.32832	343933
5.33643	377989
5.34457	432268
5.35268	452443
5.36080	432342
5.36893	381681
5.37705	365543
5.38518	387723
5.39330	449043
5.40142	523620
5.40955	564442
5.41767	533440
5.42578	468428
5.43392	399557
5.44203	366610
5.45017	377325
5.45828	442834
5.46640	471518
5.47453	456766
5.48265	405347
5.49078	354774
5.49890	320253
5.50702	310311
5.51515	301396
5.52327	301941
5.53140	304019
5.53952	311824
5.54763	308772
5.55577	371453
5.56388	580615
5.57200	961090
5.58013	1334967
5.58825	1457699
5.59638	1256309
5.60450	925798
5.61262	661944
5.62075	499075
5.62887	423540
5.63700	380826
5.64512	363596
5.65323	336457
5.66137	325019
5.66948	312091
5.67762	299579
5.68573	324345
5.69385	371572
5.70198	413909
5.71010	431415
5.71822	408659
5.72635	364526
5.73447	335550
5.74260	302619
5.75072	281609
5.75883	263460
5.76697	247895
5.77508	247867
5.78322	247992
5.79133	243839
5.79945	233156
5.80758	236344
5.81570	233656
5.82382	243855
5.83195	237835
5.84007	254756
5.84820	265702
5.85632	256690
5.86443	261745
5.87257	249681
5.88068	241392
5.88882	242781
5.89693	228410
5.90505	230505
5.91318	228011
5.92130	246610
5.92943	278289
5.93755	266010
5.94567	258671
5.95380	235860
5.96192	276668
5.97003	403275
5.97817	689354
5.98628	1090180
5.99442	1340226
6.00253	1279556
6.01065	1008536
6.01878	733768
6.02690	542313
6.03503	456618
6.04315	390478
6.05127	358150
6.05940	326543
6.06752	296683
6.07565	282595
6.08377	275519
6.09188	270956
6.10002	262336
6.10813	263261
6.11625	247116
6.12438	264869
6.13250	323915
6.14063	479304
6.14875	670995
6.15687	799334
6.16500	731241
6.17312	581568
6.18125	463458
6.18937	391149
6.19748	354763
6.20562	315225
6.21373	308221
6.22185	298613
6.22998	295937
6.23810	277199
6.24623	283153
6.25435	310865
6.26247	375829
6.27060	428748
6.27872	437194
6.28685	365817
6.29497	325350
6.30308	293572
6.31122	293141
6.31933	287933
6.32747	300762
6.33558	313385
6.34370	328714
6.35183	345057
6.35995	331165
6.36807	300847
6.37620	282939
6.38432	270285
6.39245	276406
6.40057	263877
6.40868	263855
6.41682	253615
6.42493	248917
6.43307	242140
6.44118	243105
6.44930	252199
6.45743	255971
6.46555	272809
6.47367	264439
6.48180	261278
6.48992	259744
6.49805	259418
6.50617	262234
6.51428	253702
6.52242	263128
6.53053	268850
6.53867	261321
6.54678	270564
6.55490	279555
6.56303	320761
6.57115	481515
6.57928	812528
6.58740	1217325
6.59552	1385354
6.60365	1158541
6.61177	821881
6.61988	563092
6.62802	441320
6.63613	403271
6.64427	429718
6.65238	843237
6.66050	2430177
6.66863	6008581
6.67675	9994592
6.68488	1.147E+07
6.69300	9630616
6.70112	6281408
6.70925	3890604
6.71737	2632334
6.72550	2030896
6.73362	1627583
6.74173	1378014
6.74987	1197524
6.75798	1080952
6.76610	956506
6.77423	860048
6.78235	869311
6.79048	773102
6.79860	721868
6.80672	669616
6.81485	625262
6.82297	575026
6.83110	553842
6.83922	531966
6.84733	505968
6.85547	482161
6.86358	477483
6.87170	434471
6.87983	410411
6.88795	375594
6.89608	358549
6.90420	347161
6.91232	320381
6.92045	307796
6.92857	302610
6.93670	288222
6.94482	275737
6.95293	262389
6.96107	263775
6.96918	271466
6.97732	311023
6.98543	359115
6.99355	374466
7.00168	334381
7.00980	267139
7.01792	227855
7.02605	202300
7.03417	209026
7.04230	263968
7.05042	369086
7.05853	523687
7.06667	592776
7.07478	607868
7.08292	545491
7.09103	451526
7.09915	391237
7.10728	354952
7.11540	321635
7.12353	304370
7.13165	283118
7.13977	282418
7.14790	283652
7.15602	323701
7.16413	376381
7.17227	420692
7.18038	415540
7.18852	372726
7.19663	313952
7.20475	274078
7.21288	272107
7.22100	284801
7.22913	487431
7.23725	1021872
7.24537	1935427
7.25350	2796899
7.26162	3001541
7.26973	2342057
7.27787	1444387
7.28598	839731
7.29412	565473
7.30223	433779
7.31035	352784
7.31848	298332
7.32660	255975
7.33473	243565
7.34285	221636
7.35097	211413
7.35910	202219
7.36722	198439
7.37535	188898
7.38347	189670
7.39158	181164
7.39972	183411
7.40783	186155
7.41595	178500
7.42408	173627
7.43220	171279
7.44033	178933
7.44845	172250
7.45657	171399
7.46470	178772
7.47282	181433
7.48095	166526
7.48907	171196
7.49718	171626
7.50532	209647
7.51343	352295
7.52155	761050
7.52968	1625286
7.53780	3137042
7.54593	4990753
7.55405	6671606
7.56217	7334598
7.57030	6910641
7.57842	5464516
7.58655	3770040
7.59467	2373989
7.60278	1426890
7.61092	882331
7.61903	632211
7.62717	474769
7.63528	384162
7.64340	328176
7.65153	275914
7.65965	247617
7.66777	222384
7.67590	205111
7.68402	193679
7.69215	183786
7.70027	188164
7.70838	198862
7.71652	198398
7.72463	193043
7.73277	177994
7.74088	163307
7.74900	144406
7.75713	137623
7.76525	136348
7.77338	145862
7.78150	161190
7.78962	180049
7.79775	208231
7.80587	242752
7.81398	260872
7.82212	252261
7.83023	245047
7.83837	225675
7.84648	213941
7.85460	206035
7.86273	226510
7.87085	257520
7.87898	307463
7.88710	355468
7.89522	375459
7.90335	342238
7.91147	287487
7.91960	231311
7.92772	225792
7.93583	281171
7.94397	418642
7.95208	529300
7.96020	561172
7.96833	515926
7.97645	393432
7.98458	276152
7.99270	213481
8.00082	177876
8.00895	154085
8.01707	135474
8.02520	125759
8.03332	124492
8.04143	123205
8.04957	125963
8.05768	121197
8.06580	128891
8.07393	117536
8.08205	121088
8.09018	111257
8.09830	107178
8.10642	107468
8.11455	108177
8.12267	110163
8.13080	120729
8.13892	142441
8.14703	160342
8.15517	184648
8.16328	190330
8.17142	184054
8.17953	170099
8.18765	147075
8.19578	125609
8.20390	117403
8.21202	109935
8.22015	112117
8.22827	114482
8.23640	113363
8.24452	105383
8.25263	106157
8.26077	91978
8.26888	94312
8.27702	89315
8.28513	91396
8.29325	99953
8.30138	112507
8.30950	133827
8.31762	152217
8.32575	161236
8.33387	155466
8.34200	132705
8.35012	117067
8.35823	109214
8.36637	99580
8.37448	104537
8.38262	99913
8.39073	111050
8.39885	101838
8.40698	94199
8.41510	91364
8.42323	81337
8.43135	82334
8.43947	80834
8.44760	81073
8.45572	82612
8.46383	88258
8.47197	90184
8.48008	94674
8.48822	90435
8.49633	89870
8.50445	85591
8.51258	81885
8.52070	81871
8.52883	88123
8.53695	133497
8.54507	239268
8.55320	452755
8.56132	673529
8.56943	794420
8.57757	747802
8.58568	551403
8.59382	362546
8.60193	226515
8.61005	171656
8.61818	154696
8.62630	139640
8.63443	121706
8.64255	113920
8.65067	107697
8.65880	87586
8.66692	93389
8.67505	94166
8.68317	93119
8.69128	94201
8.69942	95321
8.70753	96120
8.71565	92218
8.72378	100386
8.73190	83573
8.74003	87311
8.74815	87453
8.75627	83614
8.76440	99204
8.77252	143632
8.78065	228132
8.78877	340535
8.79688	419780
8.80502	463236
8.81313	410283
8.82127	329967
8.82938	263346
8.83750	201230
8.84563	183625
8.85375	170208
8.86187	173989
8.87000	170546
8.87812	183864
8.88625	175994
8.89437	168001
8.90248	156573
8.91062	158617
8.91873	156490
8.92687	143261
8.93498	146704
8.94310	161763
8.95123	187710
8.95935	214796
8.96748	232152
8.97560	235490
8.98372	229218
8.99185	232925
8.99997	223166
9.00808	205908
9.01622	178819
9.02433	160106
9.03247	145152
9.04058	131277
9.04870	128518
9.05683	121707
9.06495	119917
9.07308	117032
9.08120	128117
9.08932	133685
9.09745	158706
9.10557	215986
9.11368	252320
9.12182	302384
9.12993	323738
9.13807	283304
9.14618	232542
9.15430	193044
9.16243	157841
9.17055	142014
9.17868	134736
9.18680	122357
9.19492	114923
9.20305	111451
9.21117	114618
9.21930	121714
9.22742	116911
9.23553	132459
9.24367	139196
9.25178	146540
9.25990	143620
9.26803	137919
9.27615	128212
9.28428	125771
9.29240	125107
9.30052	118109
9.30865	113863
9.31677	110189
9.32490	111054
9.33302	110200
9.34113	113886
9.34927	111099
9.35738	108828
9.36550	122593
9.37363	141596
9.38175	187093
9.38988	238775
9.39800	256716
9.40612	273482
9.41425	294100
9.42237	319398
9.43050	378509
9.43862	426471
9.44673	446416
9.45487	400975
9.46298	331859
9.47112	257283
9.47923	193241
9.48735	152916
9.49548	134682
9.50360	122618
9.51172	142908
9.51985	192354
9.52797	214585
9.53610	237040
9.54422	222081
9.55233	200019
9.56047	172453
9.56858	138175
9.57672	121668
9.58483	108888
9.59295	105352
9.60108	92783
9.60920	90671
9.61733	79918
9.62545	77592
9.63357	75651
9.64170	75230
9.64982	77494
9.65793	78566
9.66607	77547
9.67418	82947
9.68232	83863
9.69043	78106
9.69855	71670
9.70668	74263
9.71480	69339
9.72293	72535
9.73105	65846
9.73917	70701
9.74730	71065
9.75542	65493
9.76353	64730
9.77167	70059
9.77978	61247
9.78792	63097
9.79603	64630
9.80415	61926
9.81228	60102
9.82040	68096
9.82853	59352
9.83665	57732
9.84477	70254
9.85290	66996
9.86102	69953
9.86915	66815
9.87727	73750
9.88538	66755
9.89352	72158
9.90163	74586
9.90975	79892
9.91788	107773
9.92600	159522
9.93413	271146
9.94225	398762
9.95037	533393
9.95850	594196
9.96662	545123
9.97475	435565
9.98287	320262
9.99098	222940
9.99912	152586
10.00723	129587
10.01537	104069
10.02348	97311
10.03160	87490
10.03973	83331
10.04785	83171
10.05597	75842
10.06410	83420
10.07222	94702
10.08035	112993
10.08847	115620
10.09658	123040
10.10472	121637
10.11283	123408
10.12097	115888
10.12908	111650
10.13720	110594
10.14533	94440
10.15345	91997
10.16157	93883
10.16970	95101
10.17782	85733
10.18595	87066
10.19407	83752
10.20218	86699
10.21032	83421
10.21843	88085
10.22657	84673
10.23468	87522
10.24280	94814
10.25093	98559
10.25905	109618
10.26718	145931
10.27530	272412
10.28342	592768
10.29155	1319537
10.29967	2515277
10.30778	3905109
10.31592	5443280
10.32403	7440145
10.33217	1.066416E+07
10.34028	1.565015E+07
10.34840	2.013786E+07
10.35653	2.203633E+07
10.36465	2.004261E+07
10.37278	1.503975E+07
10.38090	1.009925E+07
10.38902	6639012
10.39715	4202812
10.40527	2585731
10.41338	1576745
10.42152	1014164
10.42963	714619
10.43777	599490
10.44588	601002
10.45400	628843
10.46213	709076
10.47025	752833
10.47838	722867
10.48650	672170
10.49462	593348
10.50275	536355
10.51087	473936
10.51900	434239
10.52712	403995
10.53523	370401
10.54337	335452
10.55148	329421
10.55960	301964
10.56773	277652
10.57585	267722
10.58398	268091
10.59210	252207
10.60022	235362
10.60835	231900
10.61647	226108
10.62460	213138
10.63272	197703
10.64083	194125
10.64897	184640
10.65708	176491
10.66522	171681
10.67333	173800
10.68145	178087
10.68958	180688
10.69770	190187
10.70582	195383
10.71395	200403
10.72207	194975
10.73020	178823
10.73832	164560
10.74643	157957
10.75457	149824
10.76268	139915
10.77082	139129
10.77893	136406
10.78705	134584
10.79518	136273
10.80330	149494
10.81142	168054
10.81955	180961
10.82767	174592
10.83580	161275
10.84392	146947
10.85203	124563
10.86017	113838
10.86828	113355
10.87642	104701
10.88453	106708
10.89265	105763
10.90078	99768
10.90890	102396
10.91703	96843
10.92515	98982
10.93327	91829
10.94140	98195
10.94952	95932
10.95763	91806
10.96577	98875
10.97388	99045
10.98202	110646
10.99013	122129
10.99825	134394
11.00638	142765
11.01450	154817
11.02263	139495
11.03075	139412
11.03887	117750
11.04700	105234
11.05512	106753
11.06325	108316
11.07137	122582
11.07948	138934
11.08762	155054
11.09573	166867
11.10385	168525
11.11198	168569
11.12010	147672
11.12823	126725
11.13635	112106
11.14447	100883
11.15260	92306
11.16072	90027
11.16885	87502
11.17697	94434
11.18508	85430
11.19322	91371
11.20133	85182
11.20945	85502
11.21758	83789
11.22570	73272
11.23383	73372
11.24195	64329
11.25007	65663
11.25820	69318
11.26632	73264
11.27445	62404
11.28257	68721
11.29068	78754
11.29882	128096
11.30693	291385
11.31507	665928
11.32318	1491098
11.33130	2771157
11.33943	4148961
11.34755	5038713
11.35567	5143778
11.36380	4378465
11.37192	3195055
11.38005	2005622
11.38817	1263896
11.39628	850080
11.40442	692092
11.41253	644656
11.42067	665396
11.42878	637831
11.43690	606789
11.44503	535931
11.45315	468945
11.46128	411383
11.46940	367499
11.47752	341999
11.48565	330299
11.49377	337008
11.50188	349651
11.51002	358783
11.51813	337209
11.52627	307598
11.53438	271058
11.54250	241927
11.55063	221090
11.55875	222755
11.56688	219419
11.57500	212195
11.58312	202187
11.59125	199912
11.59937	177531
11.60748	172104
11.61562	203561
11.62373	229524
11.63187	260357
11.63998	261927
11.64810	232613
11.65623	191314
11.66435	172605
11.67248	145134
11.68060	140058
11.68872	142183
11.69685	143335
11.70497	157705
11.71310	146133
11.72122	136512
11.72933	117725
11.73747	106896
11.74558	103119
11.75370	93127
11.76183	94269
11.76995	90824
11.77808	88839
11.78620	86146
11.79432	85811
11.80245	80488
11.81057	89020
11.81870	76497
11.82682	77680
11.83493	78397
11.84307	78239
11.85118	81097
11.85930	87740
11.86743	81053
11.87555	74280
11.88368	65243
11.89180	68004
11.89992	68945
11.90805	68019
11.91617	68956
11.92430	73935
11.93242	79573
11.94053	85162
11.94867	77302
11.95678	72654
11.96492	67929
11.97303	64583
11.98115	65042
11.98928	65244
11.99740	68357
12.00552	76050
12.01365	88489
12.02177	101186
12.02990	105940
12.03802	101729
12.04613	87981
12.05427	84663
12.06238	77817
12.07052	76965
12.07863	88777
12.08675	117674
12.09488	189448
12.10300	354028
12.11113	707013
12.11925	1273641
12.12737	1973303
12.13550	2619198
12.14362	2796626
12.15173	2497423
12.15987	1869357
12.16798	1170225
12.17612	672714
12.18423	409302
12.19235	317622
12.20048	342477
12.20860	395880
12.21673	417914
12.22485	408481
12.23297	400410
12.24110	377081
12.24922	336904
12.25733	333255
12.26547	318910
12.27358	299229
12.28172	281354
12.28983	265575
12.29795	252341
12.30608	235133
12.31420	223605
12.32233	209379
12.33045	201285
12.33857	191611
12.34670	187578
12.35482	188250
12.36295	186381
12.37107	174234
12.37918	178001
12.38732	175577
12.39543	163172
12.40355	158728
12.41168	169147
12.41980	179273
12.42793	186683
12.43605	209949
12.44417	224878
12.45230	204330
12.46042	190676
12.46855	182804
12.47667	179736
12.48478	167924
12.49292	160129
12.50103	153929
12.50917	146413
12.51728	145418
12.52540	146148
12.53353	162886
12.54165	177499
12.54977	183899
12.55790	183697
12.56602	192805
12.57415	192171
12.58227	189044
12.59038	178607
12.59852	161584
12.60663	158693
12.61477	146332
12.62288	134785
12.63100	127896
12.63913	124433
12.64725	125671
12.65537	119446
12.66350	115726
12.67162	103137
12.67975	103967
12.68787	107230
12.69598	106693
12.70412	103794
12.71223	103531
12.72037	97079
12.72848	98542
12.73660	97686
12.74473	97499
12.75285	97566
12.76098	96047
12.76910	93174
12.77722	87672
12.78535	89179
12.79347	85129
12.80158	90166
12.80972	82727
12.81783	78413
12.82597	74437
12.83408	64049
12.84220	69566
12.85033	56360
12.85845	53779
12.86658	52789
12.87470	57281
12.88282	55625
12.89095	64626
12.89907	54469
12.90718	52790
12.91532	55411
12.92343	51799
12.93157	53869
12.93968	51879
12.94780	51077
12.95593	52252
12.96405	56792
12.97218	55274
12.98030	57083
12.98842	64004
12.99655	74744
13.00467	60277
13.01280	62387
13.02092	60353
13.02903	56698
13.03717	54072
13.04528	54396
13.05340	57425
13.06153	53319
13.06965	56183
13.07778	60600
13.08590	54598
13.09402	59599
13.10215	51580
13.11027	54537
13.11840	55982
13.12652	53039
13.13463	51008
13.14277	51963
13.15088	49141
13.15902	49101
13.16713	52910
13.17525	55871
13.18338	56189
13.19150	54781
13.19962	57147
13.20775	65192
13.21587	60468
13.22400	63750
13.23212	69381
13.24023	66286
13.24837	68046
13.25648	60860
13.26462	58021
13.27273	57217
13.28085	57184
13.28898	53636
13.29710	55043
13.30522	51820
13.31335	45772
13.32147	53277
13.32960	56676
13.33772	51293
13.34583	48003
13.35397	46224
13.36208	45176
13.37022	46031
13.37833	45999
13.38645	43274
13.39458	42312
13.40270	48435
13.41083	46437
13.41895	50687
13.42707	45661
13.43520	42658
13.44332	49657
13.45143	49327
13.45957	56122
13.46768	60991
13.47582	63447
13.48393	58277
13.49205	57690
13.50018	54622
13.50830	52990
13.51643	48750
13.52455	48640
13.53267	55378
13.54080	51384
13.54892	59141
13.55705	57516
13.56517	60610
13.57328	65193
13.58142	68916
13.58953	71817
13.59765	74193
13.60578	74719
13.61390	78541
13.62203	78566
13.63015	72331
13.63827	75538
13.64640	73195
13.65452	69372
13.66265	61410
13.67077	54470
13.67888	50208
13.68702	50021
13.69513	44516
13.70325	52660
13.71138	42925
13.71950	46166
13.72763	47314
13.73575	52861
13.74387	51610
13.75200	56870
13.76012	71961
13.76825	99674
13.77637	131590
13.78448	186609
13.79262	248853
13.80073	324262
13.80887	367157
13.81698	439755
13.82510	533894
13.83323	626604
13.84135	675265
13.84947	701115
13.85760	643117
13.86572	533562
13.87385	403162
13.88197	306514
13.89008	245209
13.89822	188067
13.90633	157450
13.91447	137414
13.92258	118589
13.93070	107851
13.93883	103711
13.94695	86003
13.95507	88014
13.96320	92824
13.97132	118354
13.97945	130525
13.98757	153321
13.99568	187160
14.00382	198061
14.01193	165132
14.02007	143647
14.02818	132806
14.03630	100768
14.04443	91755
14.05255	84971
14.06068	84616
14.06880	80204
14.07692	78541
14.08505	77855
14.09317	74773
14.10128	67802
14.10942	65533
14.11753	65714
14.12567	69181
14.13378	73063
14.14190	80827
14.15003	85684
14.15815	102483
14.16628	114891
14.17440	120946
14.18252	117911
14.19065	111710
14.19877	116033
14.20690	132607
14.21502	156459
14.22313	193012
14.23127	210917
14.23938	212815
14.24750	213506
14.25563	205499
14.26375	197013
14.27188	185816
14.28000	172828
14.28812	152389
14.29625	134610
14.30437	122811
14.31250	115220
14.32062	107929
14.32873	101391
14.33687	99644
14.34498	96558
14.35312	94040
14.36123	89849
14.36935	88776
14.37748	81210
14.38560	73907
14.39372	72997
14.40185	74986
14.40997	73837
14.41810	81026
14.42622	80415
14.43433	87128
14.44247	92484
14.45058	85767
14.45872	78334
14.46683	69526
14.47495	69433
14.48308	65494
14.49120	65835
14.49932	65043
14.50745	64785
14.51557	68812
14.52370	63859
14.53182	61607
14.53993	64883
14.54807	67257
14.55618	66278
14.56432	61553
14.57243	58355
14.58055	59247
14.58868	52412
14.59680	51177
14.60493	50854
14.61305	48507
14.62117	45743
14.62930	46917
14.63742	48579
14.64553	46616
14.65367	46011
14.66178	41675
14.66992	41792
14.67803	55138
14.68615	45773
14.69428	39699
14.70240	40531
14.71053	46770
14.71865	47941
14.72677	46173
14.73490	48779
14.74302	52161
14.75113	53923
14.75927	57345
14.76738	60849
14.77552	61040
14.78363	73433
14.79175	76588
14.79988	124126
14.80800	281573
14.81613	746225
14.82425	1836924
14.83237	3519370
14.84050	5297847
14.84862	6350179
14.85675	6199609
14.86487	4895036
14.87298	3258814
14.88112	1979818
14.88923	1222027
14.89735	837589
14.90548	635454
14.91360	524290
14.92173	472808
14.92985	430617
14.93797	391440
14.94610	353505
14.95422	320041
14.96235	302636
14.97047	288409
14.97858	279512
14.98672	255011
14.99483	236712
15.00297	216144
15.01108	216490
15.01920	203812
15.02733	205535
15.03545	199912
15.04357	190300
15.05170	180204
15.05982	171161
15.06795	168974
15.07607	167237
15.08418	146806
15.09232	143160
15.10043	133968
15.10857	131338
15.11668	130210
15.12480	126817
15.13293	129411
15.14105	145379
15.14917	141745
15.15730	147026
15.16542	144066
15.17355	131770
15.18167	116479
15.18978	100331
15.19792	89286
15.20603	79618
15.21417	74657
15.22228	76982
15.23040	70725
15.23853	74733
15.24665	64975
15.25478	71922
15.26290	63158
15.27102	62464
15.27915	59797
15.28727	56232
15.29538	60948
15.30352	62648
15.31163	59835
15.31977	58747
15.32788	55586
15.33600	52769
15.34413	54521
15.35225	56425
15.36038	56529
15.36850	54631
15.37662	53105
15.38475	53977
15.39287	55879
15.40100	49775
15.40912	50490
15.41723	52132
15.42537	56692
15.43348	53395
15.44160	54117
15.44973	53813
15.45785	60436
15.46598	77702
15.47410	118572
15.48222	202456
15.49035	334425
15.49847	478416
15.50660	590535
15.51472	657151
15.52283	677952
15.53097	653683
15.53908	665454
15.54720	732214
15.55533	804241
15.56345	786114
15.57158	664120
15.57970	526162
15.58782	386442
15.59595	289957
15.60407	237132
15.61220	192567
15.62032	162653
15.62843	145289
15.63657	126782
15.64468	126413
15.65282	112209
15.66093	106705
15.66905	100617
15.67718	87525
15.68530	82957
15.69342	82210
15.70155	83502
15.70967	75689
15.71780	68494
15.72592	71571
15.73403	72646
15.74217	67304
15.75028	68009
15.75842	80819
15.76653	93780
15.77465	147363
15.78278	231357
15.79090	345663
15.79902	446406
15.80715	492535
15.81527	444796
15.82340	348437
15.83152	256560
15.83963	185945
15.84777	140222
15.85588	115900
15.86402	104294
15.87213	100555
15.88025	99972
15.88838	100374
15.89650	104469
15.90463	105435
15.91275	102987
15.92087	96674
15.92900	91893
15.93712	84637
15.94523	80205
15.95337	80203
15.96148	83199
15.96962	88761
15.97773	91072
15.98585	98868
15.99398	101466
16.00210	101961
16.01023	97538
16.01835	99950
16.02647	96250
16.03460	89629
16.04272	78472
16.05085	79523
16.05897	78954
16.06708	70485
16.07522	72507
16.08333	68994
16.09145	63343
16.09958	63392
16.10770	58095
16.11583	62560
16.12395	64367
16.13207	69587
16.14020	74133
16.14832	86264
16.15645	90546
16.16457	86535
16.17268	87040
16.18082	85118
16.18893	70219
16.19705	71600
16.20518	69620
16.21330	64161
16.22143	65299
16.22955	70998
16.23767	61526
16.24580	65601
16.25392	62034
16.26205	56856
16.27017	59026
16.27828	68070
16.28642	71168
16.29453	74774
16.30267	79367
16.31078	90758
16.31890	90188
16.32703	89890
16.33515	84151
16.34327	78287
16.35140	75110
16.35952	72680
16.36765	81364
16.37577	99681
16.38388	107747
16.39202	117879
16.40013	117393
16.40827	104805
16.41638	87339
16.42450	77302
16.43263	68467
16.44075	70129
16.44888	77597
16.45700	108768
16.46512	193797
16.47325	380916
16.48137	685251
16.48948	1025459
16.49762	1231734
16.50573	1185182
16.51387	969687
16.52198	627089
16.53010	418179
16.53823	291082
16.54635	206912
16.55448	162047
16.56260	153703
16.57072	129923
16.57885	124302
16.58697	119711
16.59508	112696
16.60322	117128
16.61133	124790
16.61947	128632
16.62758	135048
16.63570	118406
16.64383	112616
16.65195	109551
16.66008	93356
16.66820	88219
16.67632	84132
16.68445	80165
16.69257	75971
16.70070	73351
16.70882	75373
16.71693	72578
16.72507	65715
16.73318	62382
16.74130	59511
16.74943	62828
16.75755	60958
16.76568	65207
16.77380	71570
16.78192	71641
16.79005	68556
16.79817	70412
16.80630	64228
16.81442	58540
16.82253	57460
16.83067	54730
16.83878	59731
16.84692	54647
16.85503	55364
16.86315	50468
16.87128	49220
16.87940	49501
16.88752	50021
16.89565	47204
16.90377	45319
16.91190	48848
16.92002	48488
16.92813	46500
16.93627	46554
16.94438	49930
16.95252	53934
16.96063	54165
16.96875	50660
16.97688	44049
16.98500	46897
16.99312	52136
17.00125	43314
17.00937	49909
17.01750	51634
17.02562	52199
17.03373	52682
17.04187	55905
17.04998	61174
17.05812	62263
17.06623	64308
17.07435	74840
17.08248	85008
17.09060	106738
17.09873	137425
17.10685	177364
17.11497	212544
17.12310	246319
17.13122	260996
17.13933	250194
17.14747	223503
17.15558	199730
17.16372	176684
17.17183	159579
17.17995	138188
17.18808	116453
17.19620	100581
17.20433	89861
17.21245	79407
17.22057	75739
17.22870	71220
17.23682	66684
17.24493	64543
17.25307	66172
17.26118	70150
17.26932	66406
17.27743	68154
17.28555	61483
17.29368	56123
17.30180	54624
17.30993	55484
17.31805	56581
17.32617	59902
17.33430	67992
17.34242	80140
17.35055	85389
17.35867	89992
17.36678	92850
17.37492	93502
17.38303	85234
17.39115	85377
17.39928	87125
17.40740	83022
17.41553	89944
17.42365	90540
17.43177	93954
17.43990	91849
17.44802	91462
17.45615	85158
17.46427	76655
17.47238	69530
17.48052	64448
17.48863	59374
17.49677	59140
17.50488	57586
17.51300	58255
17.52113	54181
17.52925	59480
17.53737	62494
17.54550	54050
17.55362	57329
17.56175	67829
17.56987	77363
17.57798	106395
17.58612	184541
17.59423	296390
17.60237	486573
17.61048	689185
17.61860	829188
17.62673	846409
17.63485	742941
17.64297	587870
17.65110	444851
17.65922	366846
17.66735	333004
17.67547	364856
17.68358	364695
17.69172	342881
17.69983	289889
17.70797	230847
17.71608	193292
17.72420	171488
17.73233	156347
17.74045	144249
17.74858	137920
17.75670	126460
17.76482	122051
17.77295	117100
17.78107	106669
17.78918	95293
17.79732	87344
17.80543	86016
17.81357	83604
17.82168	91984
17.82980	88067
17.83793	87486
17.84605	105557
17.85418	115904
17.86230	122814
17.87042	130556
17.87855	140559
17.88667	140153
17.89480	128548
17.90292	106949
17.91103	92176
17.91917	81853
17.92728	75107
17.93540	71625
17.94353	65314
17.95165	64608
17.95978	67024
17.96790	58637
17.97602	59477
17.98415	54697
17.99227	58909
18.00040	57054
18.00852	59361
18.01663	60846
18.02477	75462
18.03288	96461
18.04100	120509
18.04913	136209
18.05725	155833
18.06538	191609
18.07350	271164
18.08162	454968
18.08975	773612
18.09787	1180962
18.10600	1474107
18.11412	1558330
18.12223	1344618
18.13037	1059490
18.13848	819533
18.14662	639451
18.15473	523597
18.16285	444777
18.17098	392875
18.17910	349890
18.18722	318240
18.19535	289812
18.20347	260822
18.21160	240594
18.21972	223171
18.22783	210861
18.23597	199381
18.24408	190535
18.25222	179295
18.26033	163233
18.26845	158869
18.27658	148827
18.28470	133477
18.29282	112169
18.30095	105967
18.30907	89782
18.31720	79586
18.32532	76145
18.33343	66097
18.34157	63486
18.34968	65367
18.35782	73200
18.36593	61405
18.37405	57951
18.38218	56699
18.39030	60169
18.39843	63010
18.40655	65563
18.41467	71549
18.42280	85679
18.43092	102228
18.43903	131201
18.44717	153255
18.45528	177181
18.46342	203706
18.47153	245763
18.47965	281232
18.48778	329657
18.49590	355936
18.50403	351064
18.51215	293414
18.52027	233767
18.52840	180969
18.53652	137239
18.54465	110921
18.55277	95337
18.56088	88742
18.56902	85708
18.57713	78751
18.58525	82500
18.59338	78403
18.60150	73094
18.60963	83033
18.61775	95064
18.62587	106227
18.63400	110304
18.64212	113621
18.65025	108562
18.65837	103596
18.66648	97348
18.67462	86179
18.68273	81990
18.69085	81653
18.69898	70358
18.70710	69371
18.71523	68639
18.72335	65546
18.73147	70911
18.73960	68666
18.74772	62279
18.75585	59217
18.76397	55590
18.77208	56421
18.78022	59318
18.78833	51198
18.79647	57422
18.80458	55551
18.81270	49038
18.82083	53618
18.82895	56214
18.83707	52366
18.84520	55957
18.85332	55353
18.86145	59561
18.86957	72750
18.87768	85567
18.88582	94070
18.89393	89678
18.90207	97625
18.91018	86559
18.91830	79875
18.92643	75189
18.93455	72044
18.94268	73648
18.95080	69454
18.95892	68567
18.96705	74941
18.97517	72455
18.98328	76454
18.99142	65213
18.99953	68342
19.00767	66394
19.01578	58269
19.02390	61527
19.03203	61298
19.04015	59469
19.04828	56558
19.05640	54201
19.06452	54746
19.07265	57712
19.08077	56057
19.08888	62241
19.09702	86729
19.10513	108716
19.11327	137870
19.12138	148817
19.12950	145012
19.13763	122957
19.14575	110731
19.15388	91341
19.16200	86711
19.17012	81705
19.17825	80848
19.18637	85252
19.19450	88819
19.20262	86127
19.21073	83151
19.21887	82262
19.22698	77844
19.23510	77221
19.24323	66248
19.25135	62204
19.25948	59478
19.26760	59154
19.27572	70136
19.28385	87431
19.29197	110436
19.30010	122354
19.30822	131448
19.31633	144191
19.32447	141632
19.33258	145870
19.34072	149518
19.34883	151804
19.35695	156598
19.36508	163936
19.37320	188826
19.38132	211255
19.38945	219014
19.39757	221593
19.40570	205595
19.41382	188466
19.42193	177660
19.43007	167943
19.43818	157306
19.44632	151882
19.45443	155389
19.46255	153292
19.47068	155511
19.47880	162323
19.48692	157090
19.49505	158748
19.50317	173044
19.51130	197195
19.51942	230108
19.52753	261954
19.53567	288321
19.54378	291153
19.55192	266262
19.56003	231043
19.56815	207373
19.57628	175806
19.58440	168267
19.59253	160636
19.60065	162029
19.60877	155573
19.61690	154108
19.62502	139481
19.63313	138788
19.64127	144382
19.64938	172085
19.65752	217738
19.66563	288177
19.67375	365862
19.68188	436092
19.69000	508141
19.69813	517093
19.70625	464626
19.71437	417433
19.72250	356370
19.73062	322686
19.73875	270476
19.74687	249316
19.75498	225035
19.76312	210383
19.77123	203215
19.77935	214007
19.78748	208140
19.79560	249318
19.80373	271303
19.81185	289500
19.81997	301322
19.82810	286531
19.83622	255389
19.84435	251737
19.85247	275116
19.86058	480466
19.86872	1148249
19.87683	2906914
19.88495	6613053
19.89308	1.257258E+07
19.90120	1.994345E+07
19.90933	2.585531E+07
19.91745	2.912568E+07
19.92557	2.782876E+07
19.93370	2.351597E+07
19.94182	1.812158E+07
19.94995	1.274423E+07
19.95807	9435954
19.96618	7194876
19.97432	6078042
19.98243	5503660
19.99057	4949627
19.99868	4560679
20.00680	4160257
20.01493	3897274
20.02305	3613843
20.03117	3410458
20.03930	3159548
20.04742	2869550
20.05555	2468523
20.06367	2041146
20.07178	1633423
20.07992	1342705
20.08803	1142404
20.09617	1016140
20.10428	916600
20.11240	850514
20.12053	772008
20.12865	725994
20.13677	645300
20.14490	658811
20.15302	721360
20.16115	924546
20.16927	1258713
20.17738	1772178
20.18552	2418958
20.19363	2973624
20.20177	3358930
20.20988	3441843
20.21800	3234655
20.22613	2830854
20.23425	2366047
20.24238	2024765
20.25050	1829060
20.25862	1866028
20.26675	2040709
20.27487	2308979
20.28298	2432383
20.29112	2438690
20.29923	2326093
20.30737	2039722
20.31548	1680402
20.32360	1322997
20.33173	1044758
20.33985	806361
20.34798	644978
20.35610	532561
20.36422	449134
20.37235	389557
20.38047	347844
20.38860	289925
20.39672	258339
20.40483	229887
20.41297	199341
20.42108	175364
20.42920	169679
20.43733	162941
20.44545	171427
20.45358	176283
20.46170	181568
20.46982	190393
20.47795	185653
20.48607	170074
20.49420	166490
20.50232	160701
20.51043	146202
20.51857	125339
20.52668	123938
20.53480	118790
20.54293	122001
20.55105	113782
20.55918	113106
20.56730	112708
20.57542	114204
20.58355	116538
20.59167	112919
20.59980	113313
20.60792	102845
20.61603	104345
20.62417	101784
20.63228	102549
20.64042	109466
20.64853	112307
20.65665	115526
20.66478	115299
20.67290	115073
20.68102	112764
20.68915	104646
20.69727	96290
20.70540	102997
20.71352	97218
20.72163	95952
20.72977	91659
20.73788	91024
20.74602	91970
20.75413	95876
20.76225	93586
20.77038	91432
20.77850	107865
20.78663	118555
20.79475	153920
20.80287	226368
20.81100	351097
20.81912	527229
20.82723	671095
20.83537	752448
20.84348	703060
20.85162	553687
20.85973	399937
20.86785	276923
20.87598	199285
20.88410	158328
20.89223	150079
20.90035	134088
20.90847	141587
20.91660	157407
20.92472	170209
20.93283	190228
20.94097	196827
20.94908	212554
20.95722	201096
20.96533	192085
20.97345	173180
20.98158	153932
20.98970	135026
20.99783	116071
21.00595	106930
21.01407	104448
21.02220	98288
21.03032	101837
21.03845	101420
21.04657	100676
21.05468	103230
21.06282	99705
21.07093	93827
21.07905	88508
21.08718	88537
21.09530	86536
21.10343	81122
21.11155	78953
21.11967	85633
21.12780	93296
21.13592	98519
21.14405	129167
21.15217	172891
21.16028	241557
21.16842	317492
21.17653	363617
21.18465	384716
21.19278	329704
21.20090	262117
21.20903	204190
21.21715	162088
21.22527	140381
21.23340	121757
21.24152	114857
21.24965	109321
21.25777	93728
21.26588	95457
21.27402	94226
21.28213	88923
21.29027	88192
21.29838	86919
21.30650	85033
21.31463	84427
21.32275	83047
21.33087	77509
21.33900	82037
21.34712	78142
21.35525	80828
21.36337	81372
21.37148	79257
21.37962	83911
21.38773	90481
21.39587	90017
21.40398	93033
21.41210	111642
21.42023	126406
21.42835	140648
21.43648	139257
21.44460	139203
21.45272	128093
21.46085	117338
21.46897	106504
21.47708	101410
21.48522	93464
21.49333	91904
21.50147	88841
21.50958	83403
21.51770	77897
21.52583	80765
21.53395	83785
21.54208	79385
21.55020	75222
21.55832	74466
21.56645	78086
21.57457	80516
21.58268	81847
21.59082	85312
21.59893	93568
21.60707	99017
21.61518	94427
21.62330	104270
21.63143	97910
21.63955	99014
21.64768	110706
21.65580	125322
21.66392	128237
21.67205	136509
21.68017	143285
21.68830	137507
21.69642	134808
21.70453	125661
21.71267	111789
21.72078	103862
21.72890	90001
21.73703	87765
21.74515	86881
21.75328	78484
21.76140	82807
21.76952	72572
21.77765	76968
21.78577	78836
21.79390	76313
21.80202	77800
21.81013	72481
21.81827	82346
21.82638	85751
21.83452	85631
21.84263	94702
21.85075	104538
21.85888	117529
21.86700	121532
21.87512	120047
21.88325	111213
21.89137	104606
21.89950	93145
21.90762	83782
21.91573	83243
21.92387	79355
21.93198	77960
21.94012	69111
21.94823	75566
21.95635	69121
21.96448	66066
21.97260	62019
21.98072	67237
21.98885	62091
21.99697	60681
22.00510	59063
22.01322	57317
22.02133	62106
22.02947	65280
22.03758	63125
22.04572	65949
22.05383	67087
22.06195	70023
22.07008	67337
22.07820	64039
22.08633	65887
22.09445	62576
22.10257	61758
22.11070	63975
22.11882	61285
22.12693	59272
22.13507	54819
22.14318	53602
22.15132	57488
22.15943	57990
22.16755	54901
22.17568	62931
22.18380	54791
22.19193	56899
22.20005	50315
22.20817	59283
22.21630	56730
22.22442	55242
22.23255	59824
22.24067	60453
22.24878	65834
22.25692	71861
22.26503	67596
22.27315	62463
22.28128	67045
22.28940	73372
22.29753	83698
22.30565	89297
22.31377	103531
22.32190	115326
22.33002	142212
22.33815	177196
22.34627	200077
22.35438	204563
22.36252	197662
22.37063	166485
22.37875	141813
22.38688	125279
22.39500	117864
22.40313	125661
22.41125	145723
22.41937	183019
22.42750	208929
22.43562	227626
22.44375	211056
22.45187	194127
22.45998	172286
22.46812	133861
22.47623	111860
22.48437	103523
22.49248	98172
22.50060	110929
22.50873	117085
22.51685	126063
22.52497	143567
22.53310	146592
22.54122	148329
22.54935	137807
22.55747	123233
22.56558	114255
22.57372	102847
22.58183	96209
22.58997	84357
22.59808	82376
22.60620	76215
22.61433	73059
22.62245	67724
22.63057	64175
22.63870	63903
22.64682	65269
22.65495	61888
22.66307	67333
22.67118	74918
22.67932	83108
22.68743	96407
22.69557	115021
22.70368	138282
22.71180	168927
22.71993	197470
22.72805	226007
22.73618	224091
22.74430	222248
22.75242	196057
22.76055	176028
22.76867	147603
22.77678	142029
22.78492	136438
22.79303	146195
22.80117	165161
22.80928	189057
22.81740	204849
22.82553	215485
22.83365	202272
22.84178	190525
22.84990	169063
22.85802	158362
22.86615	157639
22.87427	158580
22.88240	179527
22.89052	210994
22.89863	230782
22.90677	242096
22.91488	249905
22.92300	241986
22.93113	224659
22.93925	218385
22.94738	206442
22.95550	192277
22.96362	175633
22.97175	156316
22.97987	146553
22.98800	128562
22.99612	117871
23.00423	113161
23.01237	106773
23.02048	96398
23.02860	99216
23.03673	93379
23.04485	96389
23.05298	89226
23.06110	99169
23.06922	100673
23.07735	106605
23.08547	102577
23.09360	102048
23.10172	102148
23.10983	99814
23.11797	97129
23.12608	92411
23.13422	82901
23.14233	81655
23.15045	79094
23.15858	75694
23.16670	76086
23.17482	72892
23.18295	66961
23.19107	67919
23.19920	69076
23.20732	64572
23.21543	65030
23.22357	64265
23.23168	64858
23.23982	74986
23.24793	80516
23.25605	86558
23.26418	103636
23.27230	107416
23.28043	121200
23.28855	112778
23.29667	104291
23.30480	91024
23.31292	85095
23.32103	78087
23.32917	73252
23.33728	85119
23.34542	102009
23.35353	121794
23.36165	142998
23.36978	170458
23.37790	182602
23.38603	189193
23.39415	164992
23.40227	156274
23.41040	128707
23.41852	108818
23.42663	100427
23.43477	92414
23.44288	85499
23.45102	100595
23.45913	99813
23.46725	95327
23.47538	102590
23.48350	106368
23.49163	114344
23.49975	108593
23.50787	110397
23.51600	109601
23.52412	112552
23.53225	114093
23.54037	111144
23.54848	122059
23.55662	122314
23.56473	122591
23.57285	146123
23.58098	173919
23.58910	212971
23.59723	271673
23.60535	327753
23.61347	370792
23.62160	378553
23.62972	354581
23.63785	337544
23.64597	349206
23.65408	416742
23.66222	542321
23.67033	704548
23.67845	801234
23.68658	816268
23.69470	743197
23.70283	611780
23.71095	463366
23.71907	349243
23.72720	286466
23.73532	231774
23.74345	187588
23.75157	182601
23.75968	185775
23.76782	245628
23.77593	417409
23.78407	803512
23.79218	1420155
23.80030	2095572
23.80843	2584875
23.81655	2557799
23.82467	2228108
23.83280	1845944
23.84092	1384766
23.84905	1026579
23.85717	786086
23.86528	625805
23.87342	520774
23.88153	433072
23.88967	410820
23.89778	360142
23.90590	333858
23.91403	329045
23.92215	315085
23.93028	301110
23.93840	294762
23.94652	274386
23.95465	262560
23.96277	241051
23.97088	229506
23.97902	215623
23.98713	199507
23.99527	191896
24.00338	187283
24.01150	181017
24.01963	190502
24.02775	206999
24.03588	231240
24.04400	262180
24.05212	278463
24.06025	279289
24.06837	261235
24.07648	235642
24.08462	216153
24.09273	192586
24.10087	172176
24.10898	156469
24.11710	153419
24.12523	147138
24.13335	154584
24.14148	175615
24.14960	202508
24.15772	230210
24.16585	259151
24.17397	262481
24.18210	256241
24.19022	236805
24.19833	221685
24.20647	208989
24.21458	194823
24.22270	183996
24.23083	178666
24.23895	166128
24.24708	142861
24.25520	134862
24.26332	129499
24.27145	118973
24.27957	124264
24.28770	117106
24.29582	110829
24.30393	118170
24.31207	119964
24.32018	122350
24.32832	125042
24.33643	125185
24.34455	119070
24.35268	119463
24.36080	114219
24.36892	107993
24.37705	104214
24.38517	106054
24.39330	113210
24.40142	116729
24.40953	139283
24.41767	159760
24.42578	164611
24.43392	166039
24.44203	136149
24.45015	122985
24.45828	111678
24.46640	104797
24.47452	102487
24.48265	111789
24.49077	119041
24.49890	121003
24.50702	126050
24.51513	129618
24.52327	139986
24.53138	156179
24.53952	196137
24.54763	237079
24.55575	264506
24.56388	304623
24.57200	336530
24.58013	328584
24.58825	291459
24.59637	264754
24.60450	222845
24.61262	212174
24.62073	175460
24.62887	160272
24.63698	153070
24.64512	139607
24.65323	131110
24.66135	124570
24.66948	112738
24.67760	110959
24.68573	103767
24.69385	106324
24.70197	92413
24.71010	97294
24.71822	91949
24.72633	89463
24.73447	83237
24.74258	89725
24.75072	83417
24.75883	83564
24.76695	86298
24.77508	80160
24.78320	81228
24.79133	90083
24.79945	92881
24.80757	98396
24.81570	97252
24.82382	99235
24.83195	104509
24.84007	109041
24.84818	125540
24.85632	150146
24.86443	188688
24.87255	259115
24.88068	333418
24.88880	448736
24.89693	556322
24.90505	614501
24.91317	618677
24.92130	567046
24.92942	445589
24.93755	313743
24.94567	216326
24.95378	163263
24.96192	117986
24.97003	99664
24.97817	85948
24.98628	84897
24.99440	75515
25.00253	78858
25.01065	76793
25.01877	74599
25.02690	72055
25.03502	78005
25.04315	73201
25.05127	69536
25.05938	68642
25.06752	68871
25.07563	75099
25.08377	72993
25.09188	75756
25.10000	86380
25.10813	116662
25.11625	220687
25.12438	475284
25.13250	990037
25.14062	1835472
25.14875	2872312
25.15687	3831989
25.16498	4149789
25.17312	3907672
25.18123	3083716
25.18937	2172409
25.19748	1430926
25.20560	881501
25.21373	569741
25.22185	396958
25.22998	303779
25.23810	272335
25.24622	286949
25.25435	337715
25.26247	448829
25.27058	605111
25.27872	718096
25.28683	808280
25.29497	813230
25.30308	751705
25.31120	591049
25.31933	447031
25.32745	330362
25.33558	272491
25.34370	228035
25.35182	204195
25.35995	197803
25.36807	189095
25.37620	184372
25.38432	179729
25.39243	181677
25.40057	177644
25.40868	174079
25.41680	160619
25.42493	169275
25.43305	164534
25.44118	161174
25.44930	171603
25.45742	160705
25.46555	163060
25.47367	162420
25.48180	162308
25.48992	164051
25.49803	164680
25.50617	164798
25.51428	167033
25.52240	162112
25.53053	157085
25.53865	150446
25.54678	143442
25.55490	146100
25.56302	138921
25.57115	139401
25.57927	141897
25.58740	143159
25.59552	135484
25.60363	139451
25.61177	140432
25.61988	134738
25.62802	133655
25.63613	142704
25.64425	143944
25.65238	143768
25.66050	153112
25.66862	155103
25.67675	158932
25.68487	153872
25.69300	151660
25.70112	155359
25.70923	157289
25.71737	150339
25.72548	139653
25.73362	144232
25.74173	131530
25.74985	131223
25.75798	125984
25.76610	119735
25.77423	120697
25.78235	106469
25.79047	92956
25.79860	85283
25.80672	88407
25.81483	86012
25.82297	95459
25.83108	89944
25.83922	98008
25.84733	101923
25.85545	101679
25.86358	98867
25.87170	94504
25.87983	88153
25.88795	92479
25.89607	92593
25.90420	83582
25.91232	83630
25.92043	75297
25.92857	71916
25.93668	75659
25.94482	77759
25.95293	72198
25.96105	79751
25.96918	70603
25.97730	77903
25.98543	74612
25.99355	73158
26.00167	66264
26.00980	68496
26.01792	64314
26.02605	61721
26.03417	71090
26.04228	61973
26.05042	62638
26.05853	63724
26.06665	67528
26.07478	69178
26.08290	67768
26.09103	72666
26.09915	79610
26.10727	71138
26.11540	76451
26.12352	72841
26.13165	69693
26.13977	74441
26.14788	84510
26.15602	107473
26.16413	137924
26.17227	168688
26.18038	183431
26.18850	195664
26.19663	188105
26.20475	194146
26.21287	192258
26.22100	194851
26.22912	189679
26.23725	197527
26.24537	189614
26.25348	196839
26.26162	183707
26.26973	187583
26.27787	192295
26.28598	189980
26.29410	186161
26.30223	190818
26.31035	184398
26.31847	184779
26.32660	184478
26.33472	184832
26.34285	185495
26.35097	200104
26.35908	244086
26.36722	313931
26.37533	459529
26.38347	692628
26.39158	976010
26.39970	1270680
26.40783	1496392
26.41595	1577628
26.42408	1452685
26.43220	1176999
26.44032	933099
26.44845	693609
26.45657	509460
26.46468	389437
26.47282	313076
26.48093	260197
26.48907	232906
26.49718	219836
26.50530	216151
26.51343	202220
26.52155	196020
26.52968	187901
26.53780	183729
26.54592	175593
26.55405	171523
26.56217	176935
26.57028	161923
26.57842	168672
26.58653	158012
26.59467	155199
26.60278	160845
26.61090	157742
26.61903	151825
26.62715	157554
26.63528	151089
26.64340	154565
26.65152	160904
26.65965	160990
26.66777	155147
26.67590	158646
26.68402	155285
26.69213	152636
26.70027	156630
26.70838	146955
26.71650	139643
26.72463	140727
26.73275	136790
26.74088	143047
26.74900	134942
26.75712	142604
26.76525	136493
26.77337	137642
26.78150	139364
26.78962	140494
26.79773	135114
26.80587	131918
26.81398	137701
26.82212	135451
26.83023	139351
26.83835	137409
26.84648	131557
26.85460	125775
26.86272	131956
26.87085	119891
26.87897	124044
26.88710	116456
26.89522	118921
26.90333	111635
26.91147	120946
26.91958	103002
26.92772	100619
26.93583	101549
26.94395	101127
26.95208	101570
26.96020	104765
26.96832	110439
26.97645	111926
26.98457	138331
26.99270	167477
27.00082	230002
27.00893	325988
27.01707	458067
27.02518	612774
27.03332	757363
27.04143	806785
27.04955	793832
27.05768	674092
27.06580	537655
27.07393	437958
27.08205	374142
27.09017	312744
27.09830	256402
27.10642	235159
27.11453	218944
27.12267	209633
27.13078	185990
27.13892	186360
27.14703	171785
27.15515	166916
27.16328	178243
27.17140	191954
27.17953	207618
27.18765	226319
27.19577	253102
27.20390	264637
27.21202	238646
27.22015	221207
27.22827	197668
27.23638	169309
27.24452	149307
27.25263	142518
27.26075	135148
27.26888	125659
27.27700	121810
27.28513	113561
27.29325	111303
27.30137	109515
27.30950	105886
27.31762	108565
27.32575	111340
27.33387	107676
27.34198	101882
27.35012	117971
27.35823	108447
27.36635	106039
27.37448	112242
27.38260	103475
27.39073	105847
27.39885	107218
27.40697	100420
27.41510	100763
27.42322	99588
27.43135	101124
27.43947	95582
27.44758	100195
27.45572	97180
27.46383	92950
27.47197	87105
27.48008	88737
27.48820	91585
27.49633	83827
27.50445	85462
27.51257	86941
27.52070	87884
27.52882	83854
27.53695	81849
27.54507	78523
27.55318	88178
27.56132	77038
27.56943	78667
27.57757	83555
27.58568	95165
27.59380	98691
27.60193	115558
27.61005	117737
27.61818	118119
27.62630	129786
27.63442	117541
27.64255	105298
27.65067	100846
27.65878	91397
27.66692	86771
27.67503	89694
27.68317	87980
27.69128	95016
27.69940	90751
27.70753	95669
27.71565	93668
27.72378	89845
27.73190	82394
27.74002	76138
27.74815	77828
27.75627	71352
27.76438	70772
27.77252	80332
27.78063	94101
27.78877	103456
27.79688	119144
27.80500	120256
27.81313	115963
27.82125	110917
27.82938	105570
27.83750	90927
27.84562	85094
27.85375	82834
27.86187	80386
27.87000	72528
27.87812	71382
27.88623	72376
27.89437	69502
27.90248	73932
27.91060	71008
27.91873	68032
27.92685	73978
27.93498	70305
27.94310	68759
27.95122	71195
27.95935	66958
27.96747	66868
27.97560	68315
27.98372	72392
27.99183	66736
27.99997	70135
28.00808	73466
28.01620	72398
28.02433	83516
28.03245	90808
28.04058	104026
28.04870	125886
28.05682	134757
28.06495	136497
28.07307	139968
28.08120	121285
28.08932	108560
28.09743	96315
28.10557	85856
28.11368	79034
28.12182	75926
28.12993	72381
28.13805	73935
28.14618	70660
28.15430	69633
28.16242	65920
28.17055	72923
28.17867	62790
28.18680	63480
28.19492	64493
28.20303	71059
28.21117	83086
28.21928	97724
28.22742	101773
28.23553	108542
28.24365	110326
28.25178	101145
28.25990	99787
28.26803	87145
28.27615	74810
28.28427	67046
28.29240	66495
28.30052	72605
28.30863	76795
28.31677	77248
28.32488	95371
28.33302	97782
28.34113	104150
28.34925	111203
28.35738	116408
28.36550	129037
28.37363	122252
28.38175	132126
28.38987	129746
28.39800	135632
28.40612	134502
28.41423	126772
28.42237	127854
28.43048	119499
28.43862	119437
28.44673	111926
28.45485	107301
28.46298	101725
28.47110	93474
28.47923	101325
28.48735	101343
28.49547	98222
28.50360	101877
28.51172	104560
28.51985	113326
28.52797	108298
28.53608	100374
28.54422	96400
28.55233	86939
28.56045	80896
28.56858	74407
28.57670	68259
28.58483	69155
28.59295	65265
28.60107	65254
28.60920	65401
28.61732	69592
28.62545	73090
28.63357	86735
28.64168	77957
28.64982	79561
28.65793	78358
28.66607	84258
28.67418	83917
28.68230	79958
28.69043	78813
28.69855	74612
28.70667	73385
28.71480	67580
28.72292	63715
28.73105	66570
28.73917	64901
28.74728	63399
28.75542	64503
28.76353	69658
28.77167	65836
28.77978	80129
28.78790	82220
28.79603	87747
28.80415	90665
28.81227	90929
28.82040	84360
28.82852	82538
28.83665	77046
28.84477	69927
28.85288	70166
28.86102	67400
28.86913	73745
28.87727	66995
28.88538	66782
28.89350	69015
28.90163	75443
28.90975	82187
28.91788	82280
28.92600	85539
28.93412	76206
28.94225	80674
28.95037	73481
28.95848	79410
28.96662	79695
28.97473	79424
28.98287	73449
28.99098	70962
28.99910	64667
29.00723	63281
29.01535	59873
29.02348	54162
29.03160	57694
29.03972	62144
29.04785	58272
29.05597	58273
29.06408	63611
29.07222	70512
29.08033	72804
29.08847	70622
29.09658	72099
29.10470	74944
29.11283	70707
29.12095	68405
29.12908	65539
29.13720	65099
29.14532	63373
29.15345	56409
29.16157	60806
29.16970	58684
29.17782	62684
29.18593	66182
29.19407	66579
29.20218	74924
29.21030	82125
29.21843	95791
29.22655	116403
29.23468	113110
29.24280	113185
29.25092	112776
29.25905	113221
29.26717	113699
29.27530	106406
29.28342	104311
29.29153	96002
29.29967	85212
29.30778	78745
29.31592	66806
29.32403	64920
29.33215	58846
29.34028	57790
29.34840	58300
29.35652	56284
29.36465	56795
29.37277	57956
29.38090	57514
29.38902	59392
29.39713	56046
29.40527	59886
29.41338	63978
29.42152	67141
29.42963	63162
29.43775	60918
29.44588	57228
29.45400	59648
29.46212	55492
29.47025	56773
29.47837	55007
29.48650	61179
29.49462	60144
29.50273	57173
29.51087	57177
29.51898	61366
29.52712	64043
29.53523	65036
29.54335	57960
29.55148	59177
29.55960	59173
29.56773	59785
29.57585	53400
29.58397	52510
29.59210	53108
29.60022	55961
29.60833	55527
29.61647	55527
29.62458	51862
29.63272	55786
29.64083	57681
29.64895	55176
29.65708	54144
29.66520	56089
29.67333	55079
29.68145	55901
29.68957	51715
29.69770	58592
29.70582	59559
29.71395	64367
29.72207	63380
29.73018	64004
29.73832	62553
29.74643	61687
29.75455	55185
29.76268	62098
29.77080	56950
29.77893	50493
29.78705	52621
29.79517	51053
29.80330	53257
29.81142	47503
29.81955	48797
29.82767	53536
29.83578	51175
29.84392	50429
29.85203	50621
29.86015	58503
29.86828	69978
29.87640	100298
29.88453	153031
29.89265	253835
29.90077	406964
29.90890	565136
29.91702	643719
29.92515	625569
29.93327	488826
29.94138	340804
29.94952	208959
29.95763	147238
29.96577	102530
29.97388	93732
29.98200	84525
29.99013	89645
29.99825	93217
30.00637	100984
30.01450	107774
30.02262	108264
30.03075	112741
30.03887	110024
30.04698	108382
30.05512	101058
30.06323	103719
30.07137	97021
30.07948	92745
30.08760	93464
30.09573	88224
30.10385	89465
30.11197	84535
30.12010	84717
30.12822	79742
30.13635	78515
30.14447	80120
30.15258	69674
30.16072	76128
30.16883	76425
30.17697	74193
30.18508	75756
30.19320	86755
30.20133	86947
30.20945	84915
30.21758	85942
30.22570	85063
30.23382	85258
30.24195	80305
30.25007	71826
30.25818	67383
30.26632	65905
30.27443	59186
30.28257	57402
30.29068	53832
30.29880	58452
30.30693	56325
30.31505	58862
30.32318	56233
30.33130	55969
30.33942	55904
30.34755	59848
30.35567	54994
30.36380	66014
30.37192	62600
30.38003	56810
30.38817	62058
30.39628	56022
30.40440	57671
30.41253	55125
30.42065	54807
30.42878	52133
30.43690	56343
30.44502	50640
30.45315	56903
30.46127	55090
30.46940	54465
30.47752	55116
30.48563	56644
30.49377	57440
30.50188	57482
30.51002	61126
30.51813	61283
30.52625	62757
30.53438	60886
30.54250	52403
30.55062	56129
30.55875	58401
30.56687	60096
30.57500	55154
30.58312	51294
30.59123	52817
30.59937	53226
30.60748	56541
30.61562	51724
30.62373	59323
30.63185	58144
30.63998	55566
30.64810	52526
30.65622	52362
30.66435	50626
30.67247	52603
30.68060	48950
30.68872	49907
30.69683	52275
30.70497	51937
30.71308	51361
30.72122	48968
30.72933	55422
30.73745	53645
30.74558	51357
30.75370	56145
30.76183	54602
30.76995	60363
30.77807	53724
30.78620	58849
30.79432	67698
30.80243	85969
30.81057	100333
30.81868	119039
30.82682	128295
30.83493	129334
30.84305	106081
30.85118	93455
30.85930	75961
30.86743	73715
30.87555	71930
30.88367	70129
30.89180	72003
30.89992	72595
30.90803	68891
30.91617	72404
30.92428	68334
30.93242	68396
30.94053	64539
30.94865	58300
30.95678	65318
30.96490	63313
30.97303	62383
30.98115	65550
30.98927	64918
30.99740	59218
31.00552	65066
31.01365	61802
31.02177	66746
31.02988	75680
31.03802	87323
31.04613	93577
31.05425	93993
31.06238	90757
31.07050	83909
31.07863	88337
31.08675	83911
31.09487	110928
31.10300	139140
31.11112	174757
31.11925	216178
31.12737	230490
31.13548	211543
31.14362	178768
31.15173	141903
31.15987	103078
31.16798	90376
31.17610	77559
31.18423	74937
31.19235	74247
31.20047	83265
31.20860	96880
31.21672	114057
31.22485	130090
31.23297	133398
31.24108	142837
31.24922	129542
31.25733	116779
31.26547	93496
31.27358	84083
31.28170	65586
31.28983	53122
31.29795	55711
31.30607	56519
31.31420	58272
31.32232	56197
31.33045	55490
31.33857	63795
31.34668	58445
31.35482	56255
31.36293	59095
31.37107	64263
31.37918	61445
31.38730	65615
31.39543	71731
31.40355	75442
31.41168	70097
31.41980	71266
31.42792	65310
31.43605	61303
31.44417	58286
31.45228	60179
31.46042	59736
31.46853	57845
31.47667	64694
31.48478	69249
31.49290	72501
31.50103	72473
31.50915	79327
31.51728	82561
31.52540	79723
31.53352	79171
31.54165	80471
31.54977	76954
31.55790	77608
31.56602	80231
31.57413	83514
31.58227	77993
31.59038	82039
31.59850	73528
31.60663	66483
31.61475	62108
31.62288	57827
31.63100	53604
31.63912	53347
31.64725	54368
31.65537	63728
31.66350	59262
31.67162	67114
31.67973	68828
31.68787	69339
31.69598	67366
31.70410	73984
31.71223	74944
31.72035	68936
31.72848	65706
31.73660	73443
31.74472	65699
31.75285	61064
31.76097	68993
31.76910	76482
31.77722	64816
31.78533	66627
31.79347	68317
31.80158	66829
31.80972	71157
31.81783	71307
31.82595	75073
31.83408	73467
31.84220	74555
31.85032	72210
31.85845	70576
31.86657	78174
31.87470	77494
31.88282	77841
31.89093	79796
31.89907	77378
31.90718	77298
31.91532	83870
31.92343	85037
31.93155	90431
31.93968	95585
31.94780	90112
31.95592	85089
31.96405	89262
31.97217	94702
31.98030	96926
31.98842	96087
31.99653	97372
32.00467	100886
32.01278	96365
32.02092	102378
32.02903	103866
32.03715	102345
32.04528	92823
32.05340	87425
32.06153	85681
32.06965	83474
32.07777	77859
32.08590	81769
32.09402	77450
32.10213	75357
32.11027	76850
32.11838	72420
32.12652	72770
32.13463	67536
32.14275	69942
32.15088	69311
32.15900	66351
32.16713	63341
32.17525	67778
32.18337	64635
32.19150	63127
32.19962	70023
32.20775	59929
32.21587	62732
32.22398	64398
32.23212	64846
32.24023	64079
32.24835	62200
32.25648	64634
32.26460	65129
32.27273	66723
32.28085	67345
32.28897	67086
32.29710	71132
32.30522	68155
32.31335	62874
32.32147	67156
32.32958	61639
32.33772	65750
32.34583	65247
32.35395	64663
32.36208	67055
32.37020	64851
32.37833	72094
32.38645	61037
32.39457	64011
32.40270	57155
32.41082	57187
32.41895	61331
32.42707	57088
32.43518	57211
32.44332	63406
32.45143	58012
32.45957	53011
32.46768	54650
32.47580	56183
32.48393	48422
32.49205	52278
32.50017	50768
32.50830	53470
32.51642	52943
32.52455	56016
32.53267	55799
32.54078	52918
32.54892	51801
32.55703	51723
32.56517	51533
32.57328	52157
32.58140	52117
32.58953	52303
32.59765	52120
32.60578	53538
32.61390	53224
32.62202	50857
32.63015	52205
32.63827	52242
32.64638	46959
32.65452	50033
32.66263	59152
32.67077	58725
32.67888	67159
32.68700	70789
32.69513	68533
32.70325	78187
32.71138	69668
32.71950	62749
32.72762	59669
32.73575	54009
32.74387	53844
32.75198	51613
32.76012	52796
32.76823	54409
32.77637	57593
32.78448	51448
32.79260	50976
32.80073	48468
32.80885	49724
32.81698	50800
32.82510	57908
32.83322	52024
32.84135	53311
32.84947	54316
32.85760	55256
32.86572	53537
32.87383	55385
32.88197	53771
32.89008	56857
32.89820	57567
32.90633	59075
32.91445	60948
32.92258	63253
32.93070	62138
32.93882	59162
32.94695	56244
32.95507	59203
32.96320	51172
32.97132	58812
32.97943	62710
32.98757	72445
32.99568	92774
33.00382	103591
33.01193	132767
33.02005	149477
33.02818	138676
33.03630	129918
33.04442	100250
33.05255	74557
33.06067	77187
33.06880	69662
33.07692	68378
33.08503	71667
33.09317	82179
33.10128	87944
33.10942	97133
33.11753	108746
33.12565	111606
33.13378	113092
33.14190	116535
33.15002	99588
33.15815	96055
33.16627	80449
33.17440	72598
33.18252	70534
33.19063	65407
33.19877	67495
33.20688	56609
33.21502	59475
33.22313	65660
33.23125	62680
33.23938	65674
33.24750	65439
33.25563	60451
33.26375	62987
33.27187	60902
33.28000	57666
33.28812	59079
33.29623	57104
33.30437	59667
33.31248	61445
33.32062	57387
33.32873	53940
33.33685	56046
33.34498	57604
33.35310	57244
33.36123	62650
33.36935	65155
33.37747	70734
33.38560	60333
33.39372	55382
33.40183	55795
33.40997	54561
33.41808	52378
33.42622	50276
33.43433	48266
33.44245	52241
33.45058	51301
33.45870	48398
33.46683	54718
33.47495	52870
33.48307	49343
33.49120	52624
33.49932	52374
33.50745	60243
33.51557	59513
33.52368	62016
33.53182	55096
33.53993	59569
33.54805	58765
33.55618	62895
33.56430	61475
33.57243	65991
33.58055	62483
33.58867	62735
33.59680	61737
33.60492	61063
33.61305	55848
33.62117	52750
33.62928	53218
33.63742	56893
33.64553	53486
33.65367	59832
33.66178	60653
33.66990	59981
33.67803	61162
33.68615	61817
33.69427	57047
33.70240	58838
33.71052	58385
33.71865	52307
33.72677	50606
33.73488	49316
33.74302	54048
33.75113	50974
33.75927	53923
33.76738	49628
33.77550	55174
33.78363	53111
33.79175	48258
33.79987	52634
33.80800	49857
33.81612	58929
33.82425	51923
33.83237	53511
33.84048	49286
33.84862	54894
33.85673	59240
33.86487	53275
33.87298	50512
33.88110	58721
33.88923	56525
33.89735	56079
33.90548	58506
33.91360	61006
33.92172	56815
33.92985	56058
33.93797	54737
33.94608	57245
33.95422	54586
33.96233	50517
33.97047	51133
33.97858	50276
33.98670	51003
33.99483	54122
34.00295	53878
34.01108	55326
34.01920	52613
34.02732	54003
34.03545	55074
34.04357	52738
34.05170	54267
34.05982	55082
34.06793	56339
34.07607	60848
34.08418	50422
34.09230	53324
34.10043	54239
34.10855	50907
34.11668	47759
34.12480	52899
34.13292	51351
34.14105	54249
34.14917	53390
34.15730	52185
34.16542	52697
34.17353	53686
34.18167	51272
34.18978	54293
34.19790	53146
34.20603	53146
34.21415	54916
34.22228	48990
34.23040	52525
34.23852	51959
34.24665	47604
34.25477	53675
34.26290	52127
34.27102	56370
34.27913	52480
34.28727	57063
34.29538	54840
34.30352	55068
34.31163	52839
34.31975	50792
34.32788	53957
34.33600	57115
34.34412	54611
34.35225	52993
34.36037	52976
34.36850	56462
34.37662	50867
34.38473	57920
34.39287	48771
34.40098	59402
34.40912	53654
34.41723	49893
34.42535	50393
34.43348	49666
34.44160	51327
34.44972	50384
34.45785	53737
34.46597	54609
34.47410	52203
34.48222	55288
34.49033	51390
34.49847	53773
34.50658	55344
34.51472	56593
34.52283	57067
34.53095	58440
34.53908	64272
34.54720	68768
34.55533	72846
34.56345	79980
34.57157	79706
34.57970	85180
34.58782	80104
34.59593	81122
34.60407	71829
34.61218	70766
34.62032	68490
34.62843	63283
34.63655	71183
34.64468	63370
34.65280	57050
34.66093	59701
34.66905	66770
34.67717	62202
34.68530	60051
34.69342	60534
34.70155	61393
34.70967	55666
34.71778	53402
34.72592	56301
34.73403	59096
34.74215	57294
34.75028	53944
34.75840	57995
34.76653	59702
34.77465	57482
34.78277	61489
34.79090	61603
34.79902	59457
34.80715	60421
34.81527	58147
34.82338	64987
34.83152	64071
34.83963	58558
34.84775	63112
34.85588	62573
34.86400	61928
34.87213	56942
34.88025	58093
34.88837	58437
34.89650	60437
34.90462	51835
34.91275	53384
34.92087	55401
34.92898	58960
34.93712	60619
34.94523	60840
34.95337	80952
34.96148	104650
34.96960	148924
34.97773	214500
34.98585	291021
34.99397	340974
35.00210	335762
35.01022	262634
35.01835	189835
35.02647	133507
35.03458	91359
35.04272	84058
35.05083	72988
35.05897	69984
35.06708	70690
35.07520	66135
35.08333	62955
35.09145	62229
35.09958	67181
35.10770	60611
35.11582	62984
35.12395	68044
35.13207	62996
35.14018	66631
35.14832	60798
35.15643	66756
35.16457	58271
35.17268	59370
35.18080	64066
35.18893	63895
35.19705	64817
35.20518	56056
35.21330	64354
35.22142	61070
35.22955	58961
35.23767	56210
35.24578	56859
35.25392	62791
35.26203	66758
35.27017	54978
35.27828	58638
35.28640	63079
35.29453	65316
35.30265	63233
35.31078	64251
35.31890	60514
35.32702	61544
35.33515	61191
35.34327	64001
35.35140	58583
35.35952	59701
35.36763	60808
35.37577	53003
35.38388	62072
35.39200	59876
35.40013	61754
35.40825	60462
35.41638	68369
35.42450	71493
35.43262	79552
35.44075	79732
35.44887	76472
35.45700	85385
35.46512	76677
35.47323	76259
35.48137	65506
35.48948	63685
35.49760	64212
35.50573	70967
35.51385	63955
35.52198	69718
35.53010	63074
35.53822	67960
35.54635	60935
35.55447	58335
35.56260	55497
35.57072	58304
35.57883	63646
35.58697	60601
35.59508	61589
35.60322	56689
35.61133	61995
35.61945	64458
35.62758	59733
35.63570	57002
35.64382	57379
35.65195	60524
35.66007	58380
35.66820	61937
35.67632	58630
35.68443	62625
35.69257	66013
35.70068	64130
35.70882	64784
35.71693	71224
35.72505	64857
35.73318	65901
35.74130	60907
35.74943	70460
35.75755	72268
35.76567	70304
35.77380	72409
35.78192	78959
35.79003	77945
35.79817	75456
35.80628	74882
35.81442	70037
35.82253	61363
35.83065	62424
35.83878	61670
35.84690	60489
35.85503	61430
35.86315	60146
35.87127	54083
35.87940	57326
35.88752	58153
35.89565	59235
35.90377	59784
35.91188	57684
35.92002	61182
35.92813	61829
35.93625	60384
35.94438	60143
35.95250	54713
35.96063	60789
35.96875	61733
35.97687	59172
35.98500	60041
35.99312	60590
36.00125	66117
36.00937	55738
36.01748	60894
36.02562	62852
36.03373	64461
36.04185	66733
36.04998	66602
36.05810	64202
36.06623	60623
36.07435	61489
36.08247	61389
36.09060	62642
36.09872	64967
36.10685	61535
36.11497	59552
36.12308	64425
36.13122	64158
36.13933	60214
36.14747	63625
36.15558	71508
36.16370	75214
36.17183	78582
36.17995	74524
36.18807	69651
36.19620	65480
36.20432	56079
36.21245	54306
36.22057	61723
36.22868	60710
36.23682	63077
36.24493	59135
36.25307	65942
36.26118	56729
36.26930	61255
36.27743	61874
36.28555	60213
36.29367	64146
36.30180	67452
36.30992	66735
36.31805	70332
36.32617	71501
36.33428	77831
36.34242	75906
36.35053	71105
36.35867	67366
36.36678	71173
36.37490	67728
36.38303	68276
36.39115	65332
36.39928	65098
36.40740	68683
36.41552	66015
36.42365	63911
36.43177	66262
36.43988	68878
36.44802	65454
36.45613	63580
36.46427	56452
36.47238	59552
36.48050	62692
36.48863	61178
36.49675	59740
36.50488	62236
36.51300	62896
36.52112	61195
36.52925	55970
36.53737	60616
36.54550	63219
36.55362	58838
36.56173	63408
36.56987	62992
36.57798	62874
36.58610	62060
36.59423	62153
36.60235	64652
36.61048	61967
36.61860	61689
36.62672	62028
36.63485	62349
36.64297	60110
36.65110	67792
36.65922	64467
36.66733	68332
36.67547	62065
36.68358	63621
36.69170	66029
36.69983	61533
36.70795	64145
36.71608	62340
36.72420	66775
36.73232	65166
36.74045	68603
36.74857	64405
36.75670	60731
36.76482	65170
36.77293	66161
36.78107	65845
36.78918	60865
36.79732	62211
36.80543	65348
36.81355	61570
36.82168	61074
36.82980	64838
36.83792	67117
36.84605	58319
36.85417	66743
36.86230	66200
36.87042	63858
36.87853	63656
36.88667	63984
36.89478	64416
36.90292	62127
36.91103	64500
36.91915	62013
36.92728	61297
36.93540	67444
36.94353	67421
36.95165	78991
36.95977	83625
36.96790	97832
36.97602	103951
36.98413	106547
36.99227	108447
37.00038	104648
37.00852	88465
37.01663	84515
37.02475	73355
37.03288	74665
37.04100	67734
37.04913	71156
37.05725	71410
37.06537	75944
37.07350	76557
37.08162	77513
37.08973	81775
37.09787	80518
37.10598	84093
37.11412	84620
37.12223	82954
37.13035	83569
37.13848	82292
37.14660	76517
37.15473	81410
37.16285	78258
37.17097	83144
37.17910	81136
37.18722	81260
37.19535	75908
37.20347	77859
37.21158	76534
37.21972	85221
37.22783	81311
37.23595	88020
37.24408	88364
37.25220	80484
37.26033	85882
37.26845	80211
37.27657	79863
37.28470	74460
37.29282	75453
37.30095	76844
37.30907	79384
37.31718	74755
37.32532	79283
37.33343	77597
37.34155	79007
37.34968	83053
37.35780	88950
37.36593	84889
37.37405	80161
37.38217	86174
37.39030	88286
37.39842	89273
37.40655	88159
37.41467	85233
37.42278	85679
37.43092	87865
37.43903	88215
37.44717	87813
37.45528	89430
37.46340	87269
37.47153	83489
37.47965	85787
37.48777	82501
