C:\MassHunter\GCMS\1\data\JTB-E02\BACandBLUE\JTB-E18-016-12.D Thu Jun 27 14:30:16 2019
Start of data points
2.09538	73132
2.10350	77603
2.11162	76321
2.11975	74243
2.12787	75533
2.13598	72364
2.14412	74836
2.15223	79330
2.16037	72822
2.16848	72192
2.17660	74288
2.18473	70268
2.19285	69516
2.20098	68209
2.20910	67590
2.21722	65232
2.22535	66826
2.23347	63383
2.24160	68960
2.24972	62655
2.25783	64148
2.26597	68635
2.27408	111087
2.28220	707053
2.29033	1405555
2.29845	666973
2.30658	320570
2.31470	246584
2.32282	207725
2.33095	190010
2.33907	240677
2.34720	396224
2.35532	247542
2.36343	186659
2.37157	163566
2.37968	154347
2.38780	143528
2.39593	134158
2.40405	134278
2.41218	127192
2.42030	128531
2.42842	131383
2.43655	129796
2.44467	126241
2.45280	117534
2.46092	128396
2.46903	117620
2.47717	110563
2.48528	110380
2.49342	111794
2.50153	139235
2.50965	134304
2.51778	116404
2.52590	110560
2.53402	112047
2.54215	109834
2.55027	107565
2.55840	112857
2.56652	141746
2.57463	160699
2.58277	135476
2.59088	126038
2.59902	122092
2.60713	134778
2.61525	440507
2.62338	872945
2.63150	599066
2.63962	332281
2.64775	245013
2.65587	197337
2.66400	164338
2.67212	151451
2.68023	140138
2.68837	138158
2.69648	126607
2.70462	119819
2.71273	120137
2.72085	110716
2.72898	107907
2.73710	106616
2.74523	110125
2.75335	106879
2.76147	107878
2.76960	102100
2.77772	100296
2.78583	136536
2.79397	254855
2.80208	263450
2.81022	176050
2.81833	149496
2.82645	163017
2.83458	152954
2.84270	132552
2.85083	119309
2.85895	112307
2.86707	114220
2.87520	107160
2.88332	105066
2.89145	101609
2.89957	99285
2.90768	104649
2.91582	102311
2.92393	95008
2.93205	92119
2.94018	90171
2.94830	88610
2.95643	91912
2.96455	102624
2.97267	112228
2.98080	112656
2.98892	103749
2.99705	99691
3.00517	97474
3.01328	99142
3.02142	98130
3.02953	93737
3.03765	92514
3.04578	91550
3.05390	88662
3.06203	94363
3.07015	91295
3.07827	101158
3.08640	203647
3.09452	926550
3.10265	2334886
3.11077	4103557
3.11888	6129305
3.12702	4971820
3.13513	2939831
3.14327	2024604
3.15138	1560411
3.15950	1246737
3.16763	1036041
3.17575	906492
3.18387	816225
3.19200	947922
3.20012	1580124
3.20825	1747451
3.21637	1272586
3.22448	949569
3.23262	793446
3.24073	685124
3.24887	593005
3.25698	535955
3.26510	480282
3.27323	434980
3.28135	400254
3.28948	427486
3.29760	803729
3.30572	2288290
3.31385	4784336
3.32197	6023271
3.33008	5065248
3.33822	3556872
3.34633	2500668
3.35447	1907351
3.36258	1572404
3.37070	1298994
3.37883	1120348
3.38695	965350
3.39508	875497
3.40320	772976
3.41132	699031
3.41945	643571
3.42757	609438
3.43568	567595
3.44382	557325
3.45193	517845
3.46007	484664
3.46818	481892
3.47630	484378
3.48443	488385
3.49255	458263
3.50068	438749
3.50880	421898
3.51692	408299
3.52505	384174
3.53317	378838
3.54130	386430
3.54942	394666
3.55753	377702
3.56567	344574
3.57378	357509
3.58190	360186
3.59003	377958
3.59815	352095
3.60628	336384
3.61440	335319
3.62252	331961
3.63065	337143
3.63877	331786
3.64690	322400
3.65502	307587
3.66313	341641
3.67127	799571
3.67938	2791576
3.68752	5529430
3.69563	5349367
3.70375	3277481
3.71188	2064396
3.72000	1575357
3.72812	1331668
3.73625	1156580
3.74437	1009665
3.75250	916121
3.76062	855330
3.76873	794100
3.77687	722153
3.78498	696158
3.79312	649350
3.80123	662477
3.80935	922529
3.81748	1801582
3.82560	2641010
3.83372	2332821
3.84185	1606677
3.84997	1174013
3.85810	1010122
3.86622	883807
3.87433	791031
3.88247	737449
3.89058	684076
3.89872	638325
3.90683	601153
3.91495	585981
3.92308	631191
3.93120	747925
3.93933	851205
3.94745	811872
3.95557	1086099
3.96370	2445912
3.97182	4465805
3.97993	4899995
3.98807	3440751
3.99618	2296061
4.00432	3815776
4.01243	1.064938E+07
4.02055	2.004504E+07
4.02868	2.14533E+07
4.03680	1.451247E+07
4.04493	7186227
4.05305	3787248
4.06117	2531506
4.06930	1876047
4.07742	1526570
4.08553	1264769
4.09367	1092261
4.10178	972718
4.10992	868426
4.11803	802424
4.12615	740488
4.13428	709469
4.14240	724346
4.15053	799124
4.15865	874891
4.16677	829067
4.17490	743429
4.18302	680534
4.19115	625404
4.19927	574015
4.20738	594667
4.21552	1217455
4.22363	4102281
4.23175	1.043455E+07
4.23988	1.631861E+07
4.24800	1.743066E+07
4.25613	1.306213E+07
4.26425	7684377
4.27237	5000662
4.28050	3575016
4.28862	2719887
4.29675	2158968
4.30487	1790363
4.31298	1533917
4.32112	1331791
4.32923	1186646
4.33737	1105503
4.34548	1009705
4.35360	965190
4.36173	918866
4.36985	914569
4.37797	861708
4.38610	807818
4.39422	754619
4.40235	694352
4.41047	670560
4.41858	645647
4.42672	610801
4.43483	588546
4.44297	572961
4.45108	562433
4.45920	527861
4.46733	516653
4.47545	498638
4.48357	494438
4.49170	471431
4.49982	465122
4.50795	453722
4.51607	445085
4.52418	439007
4.53232	419530
4.54043	422156
4.54857	410610
4.55668	412338
4.56480	392101
4.57293	392471
4.58105	383294
4.58918	374281
4.59730	364823
4.60542	368970
4.61355	357949
4.62167	365489
4.62978	420475
4.63792	550365
4.64603	722729
4.65417	789824
4.66228	689888
4.67040	538211
4.67853	434762
4.68665	400503
4.69478	388210
4.70290	356749
4.71102	340435
4.71915	328833
4.72727	319520
4.73540	314031
4.74352	304763
4.75163	304614
4.75977	296448
4.76788	295800
4.77600	288995
4.78413	295128
4.79225	276963
4.80038	310577
4.80850	344631
4.81662	372131
4.82475	356537
4.83287	329484
4.84100	333668
4.84912	355420
4.85723	352963
4.86537	341298
4.87348	320447
4.88160	304921
4.88973	286312
4.89785	285791
4.90598	278268
4.91410	271778
4.92222	278737
4.93035	298620
4.93847	461245
4.94660	1048618
4.95472	2243047
4.96283	3725748
4.97097	4603046
4.97908	4243525
4.98722	3276710
4.99533	2270600
5.00345	1606148
5.01158	1221359
5.01970	983430
5.02782	918840
5.03595	1063897
5.04407	1335328
5.05220	1468971
5.06032	1329701
5.06843	1040471
5.07657	880015
5.08468	778780
5.09282	692772
5.10093	639694
5.10905	603215
5.11718	573988
5.12530	527255
5.13342	516700
5.14155	502002
5.14967	475677
5.15780	490955
5.16592	516399
5.17403	528260
5.18217	537823
5.19028	499775
5.19842	457017
5.20653	479887
5.21465	494267
5.22278	491792
5.23090	472609
5.23903	454641
5.24715	445103
5.25527	430451
5.26340	391788
5.27152	362778
5.27963	344752
5.28777	333385
5.29588	316455
5.30402	324312
5.31213	314431
5.32025	313916
5.32838	329890
5.33650	347939
5.34463	367381
5.35275	373485
5.36087	356731
5.36900	329554
5.37712	316510
5.38525	297454
5.39337	295593
5.40148	304851
5.40962	300064
5.41773	292847
5.42585	278422
5.43398	271305
5.44210	279600
5.45023	284398
5.45835	280474
5.46647	270146
5.47460	274096
5.48272	260964
5.49085	259335
5.49897	252672
5.50708	253113
5.51522	257578
5.52333	260024
5.53147	268505
5.53958	255577
5.54770	261300
5.55583	256132
5.56395	254005
5.57207	265948
5.58020	277864
5.58832	274602
5.59645	272054
5.60457	248264
5.61268	241011
5.62082	246083
5.62893	245956
5.63707	263510
5.64518	252241
5.65330	265180
5.66143	257590
5.66955	259848
5.67767	258422
5.68580	291809
5.69392	331209
5.70205	340458
5.71017	322667
5.71828	281132
5.72642	253930
5.73453	248483
5.74267	233316
5.75078	231908
5.75890	220185
5.76703	214998
5.77515	216707
5.78328	210247
5.79140	209399
5.79952	211485
5.80765	204375
5.81577	204905
5.82388	209620
5.83202	207981
5.84013	204963
5.84827	205302
5.85638	202139
5.86450	206470
5.87263	199239
5.88075	198984
5.88888	195669
5.89700	200133
5.90512	188241
5.91325	168481
5.92137	150164
5.92948	150286
5.93762	145311
5.94573	158173
5.95387	176037
5.96198	198172
5.97010	220804
5.97823	247804
5.98635	300998
5.99448	324604
6.00260	304691
6.01072	272570
6.01885	237181
6.02697	191638
6.03510	171215
6.04322	155015
6.05133	168854
6.05947	151574
6.06758	147844
6.07570	145973
6.08383	140553
6.09195	150258
6.10008	136309
6.10820	140780
6.11632	140580
6.12445	153782
6.13257	206205
6.14070	322713
6.14882	450441
6.15693	489614
6.16507	432835
6.17318	329581
6.18132	264371
6.18943	221973
6.19755	209608
6.20568	192007
6.21380	195343
6.22192	187881
6.23005	187148
6.23817	184654
6.24630	187615
6.25442	184544
6.26253	185909
6.27067	184946
6.27878	188592
6.28692	184889
6.29503	181361
6.30315	182587
6.31128	179579
6.31940	183864
6.32752	187208
6.33565	188787
6.34377	190912
6.35190	186655
6.36002	192215
6.36813	188444
6.37627	179372
6.38438	185928
6.39252	193451
6.40063	190112
6.40875	185642
6.41688	186493
6.42500	188443
6.43313	191543
6.44125	185557
6.44937	181490
6.45750	184138
6.46562	188408
6.47373	187950
6.48187	189345
6.48998	195510
6.49812	190222
6.50623	189543
6.51435	192711
6.52248	192973
6.53060	198096
6.53873	201293
6.54685	193586
6.55497	201171
6.56310	208003
6.57122	206453
6.57935	206833
6.58747	214676
6.59558	223362
6.60372	221169
6.61183	208941
6.61995	204355
6.62808	212055
6.63620	205376
6.64433	215913
6.65245	223981
6.66057	286700
6.66870	400159
6.67682	512976
6.68495	505459
6.69307	427807
6.70118	341643
6.70932	275005
6.71743	261690
6.72555	247624
6.73368	240279
6.74180	205928
6.74993	188288
6.75805	182609
6.76617	167809
6.77430	166712
6.78242	163390
6.79055	157778
6.79867	158556
6.80678	152470
6.81492	143367
6.82303	141397
6.83117	145399
6.83928	138978
6.84740	151052
6.85553	158394
6.86365	164037
6.87177	162070
6.87990	156398
6.88802	136360
6.89615	115721
6.90427	110121
6.91238	97038
6.92052	92899
6.92863	89236
6.93677	88284
6.94488	89567
6.95300	89439
6.96113	95280
6.96925	101293
6.97737	129752
6.98550	145463
6.99362	144889
7.00175	132000
7.00987	114541
7.01798	98761
7.02612	98775
7.03423	94577
7.04237	89911
7.05048	85729
7.05860	88532
7.06673	87666
7.07485	87600
7.08298	83257
7.09110	76784
7.09922	82111
7.10735	79173
7.11547	74260
7.12358	77146
7.13172	79167
7.13983	89742
7.14797	112989
7.15608	141155
7.16420	187023
7.17233	205338
7.18045	196580
7.18858	163342
7.19670	137576
7.20482	148894
7.21295	260927
7.22107	602587
7.22920	1165399
7.23732	1614601
7.24543	1576061
7.25357	1121203
7.26168	675595
7.26980	414382
7.27793	287049
7.28605	213424
7.29418	158590
7.30230	128278
7.31042	111428
7.31855	110809
7.32667	113898
7.33480	114788
7.34292	118148
7.35103	106372
7.35917	99272
7.36728	91780
7.37540	95120
7.38353	94792
7.39165	108898
7.39978	106241
7.40790	106720
7.41602	103531
7.42415	96240
7.43227	92134
7.44040	87565
7.44852	91259
7.45663	87728
7.46477	83866
7.47288	79780
7.48102	83270
7.48913	81395
7.49725	79820
7.50538	73782
7.51350	75854
7.52162	88127
7.52975	100845
7.53787	121823
7.54600	163365
7.55412	215781
7.56223	249061
7.57037	263251
7.57848	235441
7.58662	198942
7.59473	156656
7.60285	123790
7.61098	105766
7.61910	92820
7.62723	87388
7.63535	83004
7.64347	78823
7.65160	74848
7.65972	71399
7.66783	76553
7.67597	73415
7.68408	75035
7.69222	72303
7.70033	70309
7.70845	75254
7.71658	76044
7.72470	69957
7.73283	77584
7.74095	71489
7.74907	76545
7.75720	70647
7.76532	75616
7.77343	78344
7.78157	75201
7.78968	79168
7.79782	78222
7.80593	87924
7.81405	86209
7.82218	85871
7.83030	82081
7.83843	76864
7.84655	69517
7.85467	68251
7.86280	75786
7.87092	75199
7.87905	80180
7.88717	78592
7.89528	83229
7.90342	82629
7.91153	79855
7.91965	78270
7.92778	91043
7.93590	107582
7.94403	124912
7.95215	138092
7.96027	132026
7.96840	125960
7.97652	104461
7.98465	93322
7.99277	76803
8.00088	70584
8.00902	69096
8.01713	67070
8.02525	64036
8.03338	70522
8.04150	70918
8.04963	63187
8.05775	63157
8.06587	64401
8.07400	64509
8.08212	64861
8.09025	61749
8.09837	61142
8.10648	61265
8.11462	61880
8.12273	65617
8.13087	68687
8.13898	73203
8.14710	87676
8.15523	95660
8.16335	107520
8.17147	94214
8.17960	82183
8.18772	74131
8.19585	69972
8.20397	66329
8.21208	71343
8.22022	66640
8.22833	64696
8.23647	63798
8.24458	63254
8.25270	64227
8.26083	60371
8.26895	57959
8.27708	61148
8.28520	64340
8.29332	61896
8.30145	62000
8.30957	66435
8.31768	71321
8.32582	69802
8.33393	71649
8.34207	71997
8.35018	66209
8.35830	62701
8.36643	60249
8.37455	58726
8.38268	59815
8.39080	63229
8.39892	60759
8.40705	58630
8.41517	56096
8.42328	56907
8.43142	56385
8.43953	58224
8.44767	52519
8.45578	53674
8.46390	55151
8.47203	55743
8.48015	55901
8.48828	57768
8.49640	52728
8.50452	56965
8.51265	56340
8.52077	74731
8.52890	111058
8.53702	191583
8.54513	308950
8.55327	384796
8.56138	375273
8.56950	288683
8.57763	184236
8.58575	118962
8.59388	92363
8.60200	85868
8.61012	85522
8.61825	85512
8.62637	81014
8.63450	84349
8.64262	72656
8.65073	67361
8.65887	68519
8.66698	64486
8.67512	64878
8.68323	59988
8.69135	70283
8.69948	70992
8.70760	71167
8.71572	70246
8.72385	66249
8.73197	64382
8.74010	66241
8.74822	90677
8.75633	181223
8.76447	410223
8.77258	787190
8.78072	1205368
8.78883	1412292
8.79695	1311450
8.80508	996629
8.81320	650407
8.82132	408747
8.82945	278191
8.83757	222950
8.84570	210060
8.85382	194946
8.86193	193917
8.87007	186262
8.87818	177736
8.88632	157428
8.89443	148400
8.90255	138419
8.91068	133944
8.91880	134515
8.92693	132601
8.93505	137717
8.94317	150525
8.95130	154969
8.95942	152849
8.96753	141814
8.97567	127155
8.98378	126519
8.99192	121944
9.00003	125026
9.00815	117481
9.01628	105405
9.02440	102985
9.03253	110567
9.04065	102734
9.04877	99743
9.05690	97388
9.06502	99712
9.07315	93444
9.08127	94007
9.08938	89216
9.09752	97458
9.10563	102639
9.11375	113969
9.12188	113334
9.13000	115565
9.13813	108820
9.14625	101940
9.15437	96619
9.16250	93676
9.17062	87524
9.17875	90979
9.18687	91002
9.19498	86692
9.20312	84144
9.21123	82153
9.21935	80515
9.22748	83103
9.23560	82617
9.24373	83240
9.25185	83779
9.25997	77852
9.26810	79281
9.27622	75984
9.28435	71001
9.29247	76626
9.30058	78525
9.30872	74573
9.31683	74889
9.32497	75853
9.33308	71885
9.34120	79191
9.34933	73866
9.35745	68958
9.36557	64759
9.37370	69258
9.38182	71382
9.38995	70092
9.39807	76790
9.40618	77565
9.41432	83346
9.42243	87446
9.43057	94337
9.43868	105397
9.44680	110280
9.45493	105637
9.46305	101251
9.47117	94556
9.47930	84586
9.48742	78618
9.49555	82441
9.50367	82538
9.51178	88086
9.51992	95674
9.52803	88232
9.53617	88488
9.54428	83140
9.55240	82855
9.56053	82887
9.56865	107260
9.57678	175849
9.58490	286137
9.59302	398367
9.60115	435183
9.60927	373161
9.61738	283513
9.62552	186776
9.63363	115533
9.64177	83601
9.64988	67001
9.65800	63745
9.66613	61527
9.67425	68908
9.68238	68858
9.69050	64740
9.69862	62057
9.70675	63266
9.71487	61451
9.72300	58957
9.73112	57422
9.73923	59997
9.74737	54460
9.75548	51894
9.76360	49380
9.77173	48046
9.77985	53009
9.78798	49790
9.79610	50371
9.80422	52397
9.81235	46817
9.82047	48790
9.82860	48999
9.83672	46858
9.84483	48747
9.85297	46890
9.86108	55224
9.86920	52310
9.87733	51241
9.88545	53298
9.89358	51042
9.90170	52735
9.90982	47103
9.91795	50298
9.92607	53029
9.93420	65552
9.94232	84938
9.95043	111636
9.95857	137908
9.96668	142606
9.97482	131879
9.98293	109457
9.99105	91833
9.99918	81432
10.00730	71302
10.01542	73714
10.02355	67777
10.03167	65119
10.03980	57065
10.04792	57522
10.05603	49284
10.06417	54152
10.07228	55504
10.08042	55611
10.08853	54917
10.09665	53152
10.10478	58105
10.11290	56143
10.12103	51573
10.12915	50848
10.13727	50161
10.14540	50392
10.15352	52382
10.16163	53083
10.16977	50634
10.17788	50492
10.18602	47244
10.19413	49379
10.20225	46738
10.21038	47556
10.21850	47998
10.22663	48026
10.23475	52486
10.24287	55247
10.25100	65908
10.25912	89545
10.26723	192084
10.27537	442612
10.28348	1001362
10.29162	1845326
10.29973	2779530
10.30785	3912129
10.31598	5667657
10.32410	8433021
10.33223	1.148021E+07
10.34035	1.313782E+07
10.34847	1.201797E+07
10.35660	8394065
10.36472	4706546
10.37285	2368311
10.38097	1319359
10.38908	889144
10.39722	660840
10.40533	496265
10.41345	416421
10.42158	351480
10.42970	305826
10.43783	270008
10.44595	249616
10.45407	235146
10.46220	224706
10.47032	209772
10.47845	201301
10.48657	188488
10.49468	180451
10.50282	168368
10.51093	156219
10.51905	145068
10.52718	144405
10.53530	141356
10.54343	141496
10.55155	148045
10.55967	140210
10.56780	133037
10.57592	136377
10.58405	129443
10.59217	126158
10.60028	119195
10.60842	111988
10.61653	103762
10.62467	101835
10.63278	101054
10.64090	98133
10.64903	100520
10.65715	93534
10.66527	88261
10.67340	88368
10.68152	91200
10.68965	85925
10.69777	87178
10.70588	86556
10.71402	84584
10.72213	81740
10.73027	86275
10.73838	85295
10.74650	83883
10.75463	81432
10.76275	80928
10.77088	78884
10.77900	79401
10.78712	75328
10.79525	69758
10.80337	72040
10.81148	69668
10.81962	69091
10.82773	67196
10.83587	66247
10.84398	66751
10.85210	64849
10.86023	63081
10.86835	56036
10.87648	63386
10.88460	59932
10.89272	56509
10.90085	56438
10.90897	57687
10.91710	58809
10.92522	56523
10.93333	58244
10.94147	52574
10.94958	60327
10.95770	57772
10.96583	53878
10.97395	54763
10.98208	55617
10.99020	54393
10.99832	55660
11.00645	50459
11.01457	54293
11.02270	52899
11.03082	51675
11.03893	51932
11.04707	49408
11.05518	49018
11.06330	46947
11.07143	53715
11.07955	55381
11.08768	55839
11.09580	54290
11.10392	57427
11.11205	49617
11.12017	49907
11.12830	47840
11.13642	46861
11.14453	42917
11.15267	41754
11.16078	43373
11.16892	48432
11.17703	45662
11.18515	49220
11.19328	53033
11.20140	54449
11.20952	54196
11.21765	49941
11.22577	45089
11.23390	41825
11.24202	40348
11.25013	40229
11.25827	42712
11.26638	41080
11.27452	42265
11.28263	37258
11.29075	43777
11.29888	47033
11.30700	55957
11.31512	84225
11.32325	124598
11.33137	191167
11.33950	243919
11.34762	292477
11.35573	287871
11.36387	246750
11.37198	195304
11.38012	144754
11.38823	110312
11.39635	93757
11.40448	77381
11.41260	74024
11.42073	70917
11.42885	68429
11.43697	62373
11.44510	58217
11.45322	55871
11.46133	53974
11.46947	67390
11.47758	85102
11.48572	123621
11.49383	177366
11.50195	206923
11.51008	204312
11.51820	185163
11.52633	148791
11.53445	118207
11.54257	103385
11.55070	90039
11.55882	81455
11.56695	80250
11.57507	69412
11.58318	78606
11.59132	74960
11.59943	86008
11.60755	109159
11.61568	128833
11.62380	138934
11.63193	132364
11.64005	110370
11.64817	93315
11.65630	73262
11.66442	65636
11.67255	59568
11.68067	57411
11.68878	55037
11.69692	55774
11.70503	56911
11.71315	55172
11.72128	55560
11.72940	53705
11.73753	50223
11.74565	50009
11.75377	46783
11.76190	51341
11.77002	49855
11.77815	43204
11.78627	43545
11.79438	48276
11.80252	46523
11.81063	49782
11.81877	50752
11.82688	49206
11.83500	51121
11.84313	49932
11.85125	48846
11.85937	45805
11.86750	44914
11.87562	44153
11.88375	43327
11.89187	42499
11.89998	42957
11.90812	43965
11.91623	46991
11.92437	52145
11.93248	52647
11.94060	49134
11.94873	50652
11.95685	40702
11.96498	42574
11.97310	43186
11.98122	53400
11.98935	75185
11.99747	118035
12.00558	161841
12.01372	194105
12.02183	193502
12.02997	174815
12.03808	125840
12.04620	91533
12.05433	76495
12.06245	62520
12.07058	62415
12.07870	56395
12.08682	58292
12.09495	54801
12.10307	55948
12.11118	57313
12.11932	54120
12.12743	56795
12.13557	59758
12.14368	60490
12.15180	60794
12.15993	50703
12.16805	51367
12.17618	46699
12.18430	50806
12.19242	47870
12.20055	48130
12.20867	46846
12.21680	48956
12.22492	46660
12.23303	45450
12.24117	42996
12.24928	44085
12.25740	40980
12.26553	41753
12.27365	44175
12.28178	45135
12.28990	45709
12.29802	39273
12.30615	48082
12.31427	41484
12.32240	41477
12.33052	40147
12.33863	42242
12.34677	38129
12.35488	38969
12.36300	39429
12.37113	40047
12.37925	37944
12.38738	38208
12.39550	44584
12.40362	50200
12.41175	56224
12.41987	66739
12.42800	77165
12.43612	75436
12.44423	75892
12.45237	68377
12.46048	62571
12.46862	57432
12.47673	55502
12.48485	51050
12.49298	47977
12.50110	44803
12.50922	45822
12.51735	43014
12.52547	50446
12.53360	53714
12.54172	63903
12.54983	86394
12.55797	118160
12.56608	128973
12.57422	136516
12.58233	128374
12.59045	100194
12.59858	78809
12.60670	67952
12.61483	53781
12.62295	57265
12.63107	49177
12.63920	46566
12.64732	50283
12.65543	46956
12.66357	41193
12.67168	43689
12.67982	47865
12.68793	45000
12.69605	39828
12.70418	37204
12.71230	42850
12.72043	46058
12.72855	52397
12.73667	55661
12.74480	57991
12.75292	54306
12.76103	55100
12.76917	45279
12.77728	49270
12.78542	39422
12.79353	38062
12.80165	36469
12.80978	39758
12.81790	35922
12.82603	37298
12.83415	35438
12.84227	33028
12.85040	33924
12.85852	33022
12.86665	34154
12.87477	34046
12.88288	33160
12.89102	34117
12.89913	33378
12.90725	32391
12.91538	34359
12.92350	34445
12.93163	30606
12.93975	30605
12.94787	33833
12.95600	41302
12.96412	52843
12.97225	67027
12.98037	91674
12.98848	99388
12.99662	95054
13.00473	81276
13.01287	63970
13.02098	53355
13.02910	46257
13.03723	44981
13.04535	40881
13.05347	42840
13.06160	42564
13.06972	39760
13.07785	38954
13.08597	39637
13.09408	40167
13.10222	36613
13.11033	38592
13.11847	38367
13.12658	34418
13.13470	31903
13.14283	40428
13.15095	37554
13.15907	37614
13.16720	37873
13.17532	39666
13.18345	41690
13.19157	42157
13.19968	45819
13.20782	46958
13.21593	42419
13.22407	42560
13.23218	41908
13.24030	39821
13.24843	37041
13.25655	37389
13.26468	33897
13.27280	37842
13.28092	34683
13.28905	30053
13.29717	36723
13.30528	34587
13.31342	34673
13.32153	33024
13.32967	32228
13.33778	35001
13.34590	33857
13.35403	32047
13.36215	32884
13.37028	35002
13.37840	33655
13.38652	31755
13.39465	29740
13.40277	31774
13.41088	33017
13.41902	32024
13.42713	35272
13.43527	30844
13.44338	31973
13.45150	32687
13.45963	32934
13.46775	35465
13.47588	33118
13.48400	33101
13.49212	32207
13.50025	33942
13.50837	32989
13.51650	31989
13.52462	33443
13.53273	32495
13.54087	30685
13.54898	31933
13.55710	32383
13.56523	33212
13.57335	33066
13.58148	36153
13.58960	39505
13.59772	51825
13.60585	74404
13.61397	109093
13.62210	129010
13.63022	148267
13.63833	141786
13.64647	106720
13.65458	83562
13.66272	59468
13.67083	52124
13.67895	43726
13.68708	40819
13.69520	42422
13.70332	37798
13.71145	40367
13.71957	36661
13.72770	45256
13.73582	71800
13.74393	137733
13.75207	302422
13.76018	636923
13.76832	1149729
13.77643	1512101
13.78455	1706994
13.79268	1549413
13.80080	1229031
13.80892	853061
13.81705	622418
13.82517	497609
13.83330	463894
13.84142	426371
13.84953	394123
13.85767	342370
13.86578	289537
13.87392	237642
13.88203	200877
13.89015	184564
13.89828	162241
13.90640	153111
13.91453	137285
13.92265	139230
13.93077	125228
13.93890	121798
13.94702	116138
13.95513	117140
13.96327	120442
13.97138	128405
13.97952	142558
13.98763	140080
13.99575	134501
14.00388	126471
14.01200	115577
14.02013	117971
14.02825	106602
14.03637	104351
14.04450	100364
14.05262	97420
14.06075	107946
14.06887	99558
14.07698	94481
14.08512	94214
14.09323	94298
14.10135	92239
14.10948	86606
14.11760	88865
14.12573	88909
14.13385	93189
14.14197	91086
14.15010	94785
14.15822	97243
14.16635	104548
14.17447	129948
14.18258	178208
14.19072	264530
14.19883	362926
14.20695	397285
14.21508	390863
14.22320	327970
14.23133	265340
14.23945	201102
14.24757	176139
14.25570	168994
14.26382	148121
14.27195	135366
14.28007	126086
14.28818	120451
14.29632	107707
14.30443	97268
14.31257	90030
14.32068	85404
14.32880	88469
14.33693	83377
14.34505	79890
14.35317	74973
14.36130	64286
14.36942	63453
14.37755	62611
14.38567	64047
14.39378	88051
14.40192	140176
14.41003	234785
14.41817	350960
14.42628	425628
14.43440	430437
14.44253	351211
14.45065	249625
14.45878	161525
14.46690	122276
14.47502	95862
14.48315	84780
14.49127	76953
14.49938	82037
14.50752	74652
14.51563	67207
14.52377	71029
14.53188	72495
14.54000	69215
14.54813	60775
14.55625	59711
14.56438	59853
14.57250	52303
14.58062	53676
14.58875	55399
14.59687	51040
14.60498	47876
14.61312	47409
14.62123	45649
14.62937	48343
14.63748	47693
14.64560	46276
14.65373	45422
14.66185	42285
14.66998	45069
14.67810	45091
14.68622	43109
14.69435	42818
14.70247	44389
14.71060	43668
14.71872	46696
14.72683	48741
14.73497	48641
14.74308	46055
14.75120	53520
14.75933	46276
14.76745	49796
14.77558	53422
14.78370	61928
14.79182	87820
14.79995	195389
14.80807	447043
14.81620	945979
14.82432	1617858
14.83243	2154208
14.84057	2308325
14.84868	1981590
14.85680	1427184
14.86493	954807
14.87305	593289
14.88118	388199
14.88930	284921
14.89742	233384
14.90555	188141
14.91367	162604
14.92180	158140
14.92992	142507
14.93803	126038
14.94617	119611
14.95428	112735
14.96242	105633
14.97053	101044
14.97865	105738
14.98678	93215
14.99490	95591
15.00302	90048
15.01115	84016
15.01927	84084
15.02740	85637
15.03552	76483
15.04363	72327
15.05177	68031
15.05988	66884
15.06802	71906
15.07613	69035
15.08425	65475
15.09238	65116
15.10050	61330
15.10863	67179
15.11675	60325
15.12487	66535
15.13300	66923
15.14112	73931
15.14923	71710
15.15737	78450
15.16548	71896
15.17362	60814
15.18173	54493
15.18985	52779
15.19798	50228
15.20610	52843
15.21423	46704
15.22235	47351
15.23047	48182
15.23860	44463
15.24672	44666
15.25483	41665
15.26297	40156
15.27108	40884
15.27922	40841
15.28733	45588
15.29545	40388
15.30358	40689
15.31170	44356
15.31983	37601
15.32795	39784
15.33607	40368
15.34420	40223
15.35232	37284
15.36045	37594
15.36857	41866
15.37668	39634
15.38482	39324
15.39293	40672
15.40105	40776
15.40918	39215
15.41730	41203
15.42543	38630
15.43355	38174
15.44167	38207
15.44980	38999
15.45792	40880
15.46605	44120
15.47417	47761
15.48228	55206
15.49042	70513
15.49853	77462
15.50667	93648
15.51478	91883
15.52290	85700
15.53103	91315
15.53915	89406
15.54727	99261
15.55540	94333
15.56352	89208
15.57165	78104
15.57977	62205
15.58788	52518
15.59602	52999
15.60413	41300
15.61227	38282
15.62038	38830
15.62850	36180
15.63663	37890
15.64475	37525
15.65287	39651
15.66100	35031
15.66912	33698
15.67725	38583
15.68537	35987
15.69348	37537
15.70162	37678
15.70973	37986
15.71787	42166
15.72598	46197
15.73410	51565
15.74223	50715
15.75035	55832
15.75848	74734
15.76660	101683
15.77472	156932
15.78285	224497
15.79097	272837
15.79908	275349
15.80722	243509
15.81533	187360
15.82347	140265
15.83158	97766
15.83970	83842
15.84783	66923
15.85595	65199
15.86408	61506
15.87220	56215
15.88032	56308
15.88845	52217
15.89657	53727
15.90468	52620
15.91282	51944
15.92093	50733
15.92907	50085
15.93718	51519
15.94530	46413
15.95343	61078
15.96155	66862
15.96968	85830
15.97780	95971
15.98592	101611
15.99405	93663
16.00217	89627
16.01030	88514
16.01842	74415
16.02653	76744
16.03467	74061
16.04278	74077
16.05090	68919
16.05903	65039
16.06715	55416
16.07528	53129
16.08340	48372
16.09152	49183
16.09965	44800
16.10777	46645
16.11590	45901
16.12402	44574
16.13213	48219
16.14027	50245
16.14838	52109
16.15652	52443
16.16463	50495
16.17275	44858
16.18088	45046
16.18900	41428
16.19712	44261
16.20525	44152
16.21337	46367
16.22150	45885
16.22962	44839
16.23773	48035
16.24587	40878
16.25398	40082
16.26212	39964
16.27023	41761
16.27835	39137
16.28648	41888
16.29460	47135
16.30273	47107
16.31085	44715
16.31897	44396
16.32710	43399
16.33522	45469
16.34333	45994
16.35147	55401
16.35958	72007
16.36772	85777
16.37583	100586
16.38395	102067
16.39208	97213
16.40020	92001
16.40833	70877
16.41645	62368
16.42457	58366
16.43270	51954
16.44082	55740
16.44893	54287
16.45707	57761
16.46518	64653
16.47332	77126
16.48143	81638
16.48955	82248
16.49768	83290
16.50580	66801
16.51393	61556
16.52205	53615
16.53017	50958
16.53830	48708
16.54642	46018
16.55455	46893
16.56267	43831
16.57078	43406
16.57892	46313
16.58703	49244
16.59515	57780
16.60328	62279
16.61140	74679
16.61953	71626
16.62765	74182
16.63577	72210
16.64390	64815
16.65202	54848
16.66015	52019
16.66827	47045
16.67638	43944
16.68452	46717
16.69263	50470
16.70075	43477
16.70888	50187
16.71700	43248
16.72513	46303
16.73325	44478
16.74137	38201
16.74950	47908
16.75762	42236
16.76575	43625
16.77387	43963
16.78198	42794
16.79012	41134
16.79823	41002
16.80637	37702
16.81448	36643
16.82260	41908
16.83073	38864
16.83885	37203
16.84697	37769
16.85510	40152
16.86322	33754
16.87135	35827
16.87947	33653
16.88758	35406
16.89572	33009
16.90383	35588
16.91197	37803
16.92008	31946
16.92820	35052
16.93633	34625
16.94445	34309
16.95257	35070
16.96070	36734
16.96882	35532
16.97695	33734
16.98507	38936
16.99318	38661
17.00132	36123
17.00943	36541
17.01757	38169
17.02568	38305
17.03380	41869
17.04193	44271
17.05005	43822
17.05818	49944
17.06630	47309
17.07442	45740
17.08255	42047
17.09067	42367
17.09878	44426
17.10692	42017
17.11503	41328
17.12317	44333
17.13128	42370
17.13940	42586
17.14753	42707
17.15565	42483
17.16378	39844
17.17190	40392
17.18002	38614
17.18815	39747
17.19627	37035
17.20440	40297
17.21252	36817
17.22063	38306
17.22877	37513
17.23688	37707
17.24500	36614
17.25313	34598
17.26125	37639
17.26938	38156
17.27750	36871
17.28562	34826
17.29375	34945
17.30187	36764
17.31000	35889
17.31812	37179
17.32623	47296
17.33437	50753
17.34248	54985
17.35062	56104
17.35873	54302
17.36685	55714
17.37498	56461
17.38310	53496
17.39122	48623
17.39935	44679
17.40747	48196
17.41560	48992
17.42372	44666
17.43183	47317
17.43997	47199
17.44808	50133
17.45622	45969
17.46433	44442
17.47245	41211
17.48058	40122
17.48870	36743
17.49682	40535
17.50495	38918
17.51307	39762
17.52120	37027
17.52932	46155
17.53743	40379
17.54557	42808
17.55368	49778
17.56182	67328
17.56993	109236
17.57805	186213
17.58618	320431
17.59430	537469
17.60243	794116
17.61055	970458
17.61867	965433
17.62680	825670
17.63492	597506
17.64303	418079
17.65117	286632
17.65928	218107
17.66742	176109
17.67553	149586
17.68365	131632
17.69178	118687
17.69990	112007
17.70803	97486
17.71615	81761
17.72427	85647
17.73240	82168
17.74052	79890
17.74863	66339
17.75677	65057
17.76488	64267
17.77302	66032
17.78113	63218
17.78925	68124
17.79738	78453
17.80550	103945
17.81363	154488
17.82175	203111
17.82987	251103
17.83800	255986
17.84612	233005
17.85425	198152
17.86237	160485
17.87048	127540
17.87862	111225
17.88673	94372
17.89485	85508
17.90298	71422
17.91110	67769
17.91923	70723
17.92735	64624
17.93547	61135
17.94360	61513
17.95172	57895
17.95985	57252
17.96797	53236
17.97608	54523
17.98422	56293
17.99233	50038
18.00047	51299
18.00858	56656
18.01670	60723
18.02483	64161
18.03295	75552
18.04107	76572
18.04920	76983
18.05732	100891
18.06545	143283
18.07357	245765
18.08168	390838
18.08982	542756
18.09793	659264
18.10607	656898
18.11418	558397
18.12230	430101
18.13043	329244
18.13855	265433
18.14667	217579
18.15480	195461
18.16292	177144
18.17105	162289
18.17917	151823
18.18728	138008
18.19542	127573
18.20353	119439
18.21167	119994
18.21978	105574
18.22790	106907
18.23603	104849
18.24415	95631
18.25228	91434
18.26040	83247
18.26852	82232
18.27665	74500
18.28477	66297
18.29288	62321
18.30102	56626
18.30913	57538
18.31727	68071
18.32538	105368
18.33350	163919
18.34163	217343
18.34975	250099
18.35788	284446
18.36600	287313
18.37412	299547
18.38225	313176
18.39037	310173
18.39850	329961
18.40662	320440
18.41473	319325
18.42287	329574
18.43098	329163
18.43910	335022
18.44723	365823
18.45535	397565
18.46348	457064
18.47160	540148
18.47972	604824
18.48785	627699
18.49597	601379
18.50410	556804
18.51222	480565
18.52033	422076
18.52847	381460
18.53658	342801
18.54470	320068
18.55283	298336
18.56095	316410
18.56908	305126
18.57720	299394
18.58532	291157
18.59345	291874
18.60157	279882
18.60970	286697
18.61782	280208
18.62593	266508
18.63407	268532
18.64218	267495
18.65032	270343
18.65843	260414
18.66655	260984
18.67468	238558
18.68280	243799
18.69092	233693
18.69905	243503
18.70717	236957
18.71530	231043
18.72342	233086
18.73153	226317
18.73967	221300
18.74778	214635
18.75592	221081
18.76403	216887
18.77215	209871
18.78028	214149
18.78840	211952
18.79652	204615
18.80465	205627
18.81277	207727
18.82090	198648
18.82902	197713
18.83713	203342
18.84527	190982
18.85338	188884
18.86152	196440
18.86963	184289
18.87775	180119
18.88588	180432
18.89400	187567
18.90213	181337
18.91025	183943
18.91837	182177
18.92650	176772
18.93462	179060
18.94273	188749
18.95087	188245
18.95898	187088
18.96712	181016
18.97523	177115
18.98335	174899
18.99148	175157
18.99960	173686
19.00773	166079
19.01585	162530
19.02397	156091
19.03210	161426
19.04022	160904
19.04835	159471
19.05647	167321
19.06458	187648
19.07272	227441
19.08083	338673
19.08895	486352
19.09708	714205
19.10520	871630
19.11333	914263
19.12145	812148
19.12957	653398
19.13770	498499
19.14582	362368
19.15395	281054
19.16207	230271
19.17018	198664
19.17832	186661
19.18643	167794
19.19455	169892
19.20268	166029
19.21080	159871
19.21893	154020
19.22705	146976
19.23517	149074
19.24330	144125
19.25142	136526
19.25955	135414
19.26767	137137
19.27578	144131
19.28392	149999
19.29203	149488
19.30017	151171
19.30828	145738
19.31640	142675
19.32453	135934
19.33265	141725
19.34077	139084
19.34890	146973
19.35702	162997
19.36515	190930
19.37327	204696
19.38138	212862
19.38952	209803
19.39763	185208
19.40577	165819
19.41388	147449
19.42200	136130
19.43013	134374
19.43825	125988
19.44638	133738
19.45450	138724
19.46262	143305
19.47075	153122
19.47887	172023
19.48698	197835
19.49512	250865
19.50323	291149
19.51137	323202
19.51948	302842
19.52760	255632
19.53573	205266
19.54385	163366
19.55198	141517
19.56010	132093
19.56822	127685
19.57635	118134
19.58447	115820
19.59258	120169
19.60072	116023
19.60883	110266
19.61697	109908
19.62508	113954
19.63320	115247
19.64133	125659
19.64945	150809
19.65758	182438
19.66570	221987
19.67382	256660
19.68195	273518
19.69007	268270
19.69820	256204
19.70632	221584
19.71443	202563
19.72257	186726
19.73068	160915
19.73880	157703
19.74693	146110
19.75505	125575
19.76318	118571
19.77130	116377
19.77942	121740
19.78755	123973
19.79567	126797
19.80380	130647
19.81192	127006
19.82003	127781
19.82817	118181
19.83628	116544
19.84442	111349
19.85253	120019
19.86065	187894
19.86878	323494
19.87690	653930
19.88502	1154568
19.89315	1778453
19.90127	2239590
19.90940	2371935
19.91752	2133431
19.92563	1748732
19.93377	1336720
19.94188	1018104
19.95002	779190
19.95813	651351
19.96625	581893
19.97438	536576
19.98250	495107
19.99062	461391
19.99875	435614
20.00687	426324
20.01500	399531
20.02312	393574
20.03123	357534
20.03937	333343
20.04748	297174
20.05562	254685
20.06373	216912
20.07185	191727
20.07998	171580
20.08810	163069
20.09623	155736
20.10435	151175
20.11247	136270
20.12060	127466
20.12872	120352
20.13683	117900
20.14497	115881
20.15308	116718
20.16122	125062
20.16933	122530
20.17745	142989
20.18558	151496
20.19370	155516
20.20183	164554
20.20995	152166
20.21807	146409
20.22620	140411
20.23432	136813
20.24243	132645
20.25057	150186
20.25868	175726
20.26682	204920
20.27493	244110
20.28305	268284
20.29118	278830
20.29930	257298
20.30743	223432
20.31555	195927
20.32367	166293
20.33180	142714
20.33992	121416
20.34805	107972
20.35617	102758
20.36428	91909
20.37242	90920
20.38053	80450
20.38865	83005
20.39678	85235
20.40490	81506
20.41303	84702
20.42115	84322
20.42927	88806
20.43740	91739
20.44552	93662
20.45365	95661
20.46177	96087
20.46988	93248
20.47802	84800
20.48613	82269
20.49427	79795
20.50238	76179
20.51050	76055
20.51863	72320
20.52675	69383
20.53487	70111
20.54300	71496
20.55112	74747
20.55925	71106
20.56737	73477
20.57548	69925
20.58362	71332
20.59173	76914
20.59987	61689
20.60798	65385
20.61610	73578
20.62423	69399
20.63235	65799
20.64047	73271
20.64860	70127
20.65672	69503
20.66485	74561
20.67297	71569
20.68108	73734
20.68922	70372
20.69733	71495
20.70547	66200
20.71358	64865
20.72170	65204
20.72983	64437
20.73795	67199
20.74608	68843
20.75420	69489
20.76232	73543
20.77045	73674
20.77857	79201
20.78668	98407
20.79482	132048
20.80293	174156
20.81107	238584
20.81918	273205
20.82730	284880
20.83543	270735
20.84355	207873
20.85168	154693
20.85980	119605
20.86792	95437
20.87605	81800
20.88417	77195
20.89230	71025
20.90042	77088
20.90853	73695
20.91667	74382
20.92478	73815
20.93290	75703
20.94103	69626
20.94915	71746
20.95728	77792
20.96540	68158
20.97352	66103
20.98165	60106
20.98977	61378
20.99790	63514
21.00602	61272
21.01413	61258
21.02227	61607
21.03038	64823
21.03850	63848
21.04663	64727
21.05475	66113
21.06288	63626
21.07100	61223
21.07912	65837
21.08725	65637
21.09537	61461
21.10350	60673
21.11162	58590
21.11973	60209
21.12787	60522
21.13598	66402
21.14412	61976
21.15223	76848
21.16035	76255
21.16848	78620
21.17660	74685
21.18472	78877
21.19285	68767
21.20097	64679
21.20910	61303
21.21722	58187
21.22533	59005
21.23347	55109
21.24158	53680
21.24972	53209
21.25783	53992
21.26595	54427
21.27408	52848
21.28220	56407
21.29032	52414
21.29845	50460
21.30657	51053
21.31470	49101
21.32282	51319
21.33093	49012
21.33907	46934
21.34718	48362
21.35532	46961
21.36343	48411
21.37155	53792
21.37968	51498
21.38780	53760
21.39593	50976
21.40405	51020
21.41217	59681
21.42030	55234
21.42842	55706
21.43653	55755
21.44467	53584
21.45278	54225
21.46092	55509
21.46903	50155
21.47715	55301
21.48528	48699
21.49340	48229
21.50153	47273
21.50965	48470
21.51777	45738
21.52590	45850
21.53402	51856
21.54215	48436
21.55027	49838
21.55838	48328
21.56652	50764
21.57463	53304
21.58275	59080
21.59088	66317
21.59900	69133
21.60713	75360
21.61525	77583
21.62337	75429
21.63150	83124
21.63962	83697
21.64775	89318
21.65587	82104
21.66398	92204
21.67212	90436
21.68023	85778
21.68837	89090
21.69648	85893
21.70460	79558
21.71273	71922
21.72085	66732
21.72897	62418
21.73710	60405
21.74522	55342
21.75335	60718
21.76147	58477
21.76958	55020
21.77772	59784
21.78583	59411
21.79397	57245
21.80208	60336
21.81020	61532
21.81833	64296
21.82645	72524
21.83457	80502
21.84270	74624
21.85082	76430
21.85895	71533
21.86707	68277
21.87518	61397
21.88332	58284
21.89143	55262
21.89957	55589
21.90768	58548
21.91580	57364
21.92393	56636
21.93205	64170
21.94018	73960
21.94830	80372
21.95642	83666
21.96455	84086
21.97267	82662
21.98078	88381
21.98892	93305
21.99703	87014
22.00517	91367
22.01328	92979
22.02140	96754
22.02953	96467
22.03765	97627
22.04578	96736
22.05390	99018
22.06202	96584
22.07015	98336
22.07827	94509
22.08638	101089
22.09452	95418
22.10263	99833
22.11077	93116
22.11888	97766
22.12700	95321
22.13513	97841
22.14325	89262
22.15138	87903
22.15950	82417
22.16762	69322
22.17575	64119
22.18387	58676
22.19200	58465
22.20012	61319
22.20823	57429
22.21637	58174
22.22448	52410
22.23260	57746
22.24073	58527
22.24885	55729
22.25698	52590
22.26510	55841
22.27322	55205
22.28135	58260
22.28947	57493
22.29760	57606
22.30572	57053
22.31383	58959
22.32197	62315
22.33008	62315
22.33822	65124
22.34633	56049
22.35445	55237
22.36258	55139
22.37070	53383
22.37882	55235
22.38695	61034
22.39507	69624
22.40320	85292
22.41132	105502
22.41943	129514
22.42757	129094
22.43568	118326
22.44382	110412
22.45193	96425
22.46005	99211
22.46818	111051
22.47630	138887
22.48442	160589
22.49255	172838
22.50067	205141
22.50880	202672
22.51692	202840
22.52503	207783
22.53317	193138
22.54128	194887
22.54942	197175
22.55753	200962
22.56565	188380
22.57378	187761
22.58190	180938
22.59003	175639
22.59815	174059
22.60627	171152
22.61440	166884
22.62252	167305
22.63063	172085
22.63877	176314
22.64688	175278
22.65502	173544
22.66313	166256
22.67125	177075
22.67938	167997
22.68750	169913
22.69563	173656
22.70375	178518
22.71187	179903
22.72000	194559
22.72812	185722
22.73625	176824
22.74437	178494
22.75248	176822
22.76062	170323
22.76873	161666
22.77685	167448
22.78498	170685
22.79310	185049
22.80123	210303
22.80935	216747
22.81747	234576
22.82560	215971
22.83372	191973
22.84185	190709
22.84997	167027
22.85808	165806
22.86622	162715
22.87433	169441
22.88245	164299
22.89058	173453
22.89870	188632
22.90683	209878
22.91495	244319
22.92307	265704
22.93120	285397
22.93932	287081
22.94745	259597
22.95557	223088
22.96368	196673
22.97182	171534
22.97993	157425
22.98807	147314
22.99618	143718
23.00430	137720
23.01243	139499
23.02055	133401
23.02867	125010
23.03680	126417
23.04492	123462
23.05305	123138
23.06117	123100
23.06928	122635
23.07742	116531
23.08553	110438
23.09367	112639
23.10178	106908
23.10990	109933
23.11803	102976
23.12615	111059
23.13427	101611
23.14240	102189
23.15052	103574
23.15865	99651
23.16677	100546
23.17488	100026
23.18302	100451
23.19113	99634
23.19927	94687
23.20738	95118
23.21550	91670
23.22363	96589
23.23175	92550
23.23988	94738
23.24800	95652
23.25612	106485
23.26425	109524
23.27237	113675
23.28048	106497
23.28862	98112
23.29673	101185
23.30487	98202
23.31298	101075
23.32110	92187
23.32923	103996
23.33735	119459
23.34548	133092
23.35360	173987
23.36172	229928
23.36985	307931
23.37797	411133
23.38610	508624
23.39422	614409
23.40233	718260
23.41047	777378
23.41858	799358
23.42670	811549
23.43483	798359
23.44295	777958
23.45108	745625
23.45920	687260
23.46732	638252
23.47545	610032
23.48357	552488
23.49170	507405
23.49982	474181
23.50793	432351
23.51607	401442
23.52418	369581
23.53230	352834
23.54043	320711
23.54855	309110
23.55668	288717
23.56480	290121
23.57292	290604
23.58105	308166
23.58917	351643
23.59730	378760
23.60542	406099
23.61353	409154
23.62167	368532
23.62978	336611
23.63792	278727
23.64603	256910
23.65415	261152
23.66228	252012
23.67040	250716
23.67852	232401
23.68665	211775
23.69477	189633
23.70290	157946
23.71102	150554
23.71913	136400
23.72727	130463
23.73538	127697
23.74352	141340
23.75163	185786
23.75975	282428
23.76788	520027
23.77600	903429
23.78413	1419685
23.79225	1823283
23.80037	1999563
23.80850	1986133
23.81662	1710360
23.82473	1377483
23.83287	1110652
23.84098	852491
23.84912	690099
23.85723	566357
23.86535	478350
23.87348	399975
23.88160	360701
23.88973	333377
23.89785	305185
23.90597	288447
23.91410	272687
23.92222	253489
23.93033	241223
23.93847	218993
23.94658	211429
23.95472	195208
23.96283	190180
23.97095	174873
23.97908	161704
23.98720	163296
23.99533	161274
24.00345	177093
24.01157	213820
24.01970	285909
24.02782	372557
24.03595	439597
24.04407	447622
24.05218	377788
24.06032	292621
24.06843	221552
24.07655	173066
24.08468	138812
24.09280	123581
24.10093	121839
24.10905	114744
24.11717	112868
24.12530	117691
24.13342	117806
24.14155	118802
24.14967	110681
24.15778	112310
24.16592	111395
24.17403	113160
24.18215	110996
24.19028	112266
24.19840	111250
24.20653	108957
24.21465	119361
24.22277	139713
24.23090	160878
24.23902	193103
24.24715	216385
24.25527	225065
24.26338	225065
24.27152	234842
24.27963	237169
24.28777	239363
24.29588	235991
24.30400	241501
24.31213	245488
24.32025	249604
24.32837	246361
24.33650	240363
24.34462	249078
24.35275	246471
24.36087	251217
24.36898	255357
24.37712	279642
24.38523	294657
24.39337	324870
24.40148	340844
24.40960	327196
24.41773	305306
24.42585	276041
24.43398	260403
24.44210	256501
24.45022	252163
24.45835	258704
24.46647	262328
24.47458	256455
24.48272	276675
24.49083	277121
24.49897	279559
24.50708	290966
24.51520	294222
24.52333	288199
24.53145	299874
24.53958	313946
24.54770	312398
24.55582	321560
24.56395	319445
24.57207	315326
24.58018	306314
24.58832	300490
24.59643	288961
24.60457	283711
24.61268	271249
24.62080	262597
24.62893	256308
24.63705	263790
24.64518	255369
24.65330	256216
24.66142	246309
24.66955	244501
24.67767	251159
24.68580	246668
24.69392	242615
24.70203	237324
24.71017	234657
24.71828	236915
24.72640	224365
24.73453	235202
24.74265	224639
24.75078	213142
24.75890	216529
24.76702	215861
24.77515	224266
24.78327	219962
24.79140	223970
24.79952	215151
24.80763	204662
24.81577	215896
24.82388	206694
24.83202	218503
24.84013	251761
24.84825	276553
24.85638	326810
24.86450	393962
24.87262	489319
24.88075	605127
24.88887	717825
24.89700	746130
24.90512	718346
24.91323	612392
24.92137	472201
24.92948	350580
24.93762	269800
24.94573	202544
24.95385	166744
24.96198	134776
24.97010	114126
24.97822	109101
24.98635	105573
24.99447	94279
25.00260	95532
25.01072	89730
25.01883	85322
25.02697	84109
25.03508	87579
25.04322	79196
25.05133	80372
25.05945	80632
25.06758	80496
25.07570	84571
25.08383	87209
25.09195	102847
25.10007	144034
25.10820	257014
25.11632	523768
25.12443	1025786
25.13257	1771587
25.14068	2441902
25.14882	2846687
25.15693	2744260
25.16505	2276356
25.17318	1619037
25.18130	983615
25.18943	564475
25.19755	326629
25.20567	208922
25.21380	154982
25.22192	127896
25.23005	122486
25.23817	123771
25.24628	147963
25.25442	187792
25.26253	223680
25.27065	258990
25.27878	257044
25.28690	249969
25.29503	221178
25.30315	181748
25.31127	146138
25.31940	117229
25.32752	108121
25.33565	95618
25.34377	86444
25.35188	89115
25.36002	99908
25.36813	127546
25.37625	165214
25.38438	203468
25.39250	245577
25.40063	279846
25.40875	288844
25.41687	301142
25.42500	298026
25.43312	315161
25.44125	309641
25.44937	320397
25.45748	312898
25.46562	326195
25.47373	321603
25.48187	318994
25.48998	316569
25.49810	319199
25.50623	317236
25.51435	311809
25.52247	306222
25.53060	309345
25.53872	307149
25.54685	307755
25.55497	300824
25.56308	306304
25.57122	292574
25.57933	290669
25.58747	298524
25.59558	292121
25.60370	280558
25.61183	286193
25.61995	284915
25.62807	283091
25.63620	282718
25.64432	280997
25.65245	284613
25.66057	270821
25.66868	271239
25.67682	261518
25.68493	262518
25.69307	256302
25.70118	252941
25.70930	248917
25.71743	241363
25.72555	242566
25.73368	235507
25.74180	235502
25.74992	237420
25.75805	232098
25.76617	227760
25.77428	232777
25.78242	225273
25.79053	227340
25.79867	225168
25.80678	224818
25.81490	216234
25.82303	216531
25.83115	216192
25.83928	214361
25.84740	210601
25.85552	216232
25.86365	201266
25.87177	204547
25.87990	205435
25.88802	188329
25.89613	185930
25.90427	192464
25.91238	185087
25.92050	181203
25.92863	180100
25.93675	180663
25.94488	175570
25.95300	174337
25.96112	174770
25.96925	161455
25.97737	174430
25.98550	166898
25.99362	160206
26.00173	154802
26.00987	158649
26.01798	153341
26.02610	152288
26.03423	156458
26.04235	151366
26.05048	150498
26.05860	145573
26.06672	146304
26.07485	146476
26.08297	144552
26.09110	141626
26.09922	150291
26.10733	138531
26.11547	143234
26.12358	140507
26.13172	144129
26.13983	139832
26.14795	141179
26.15608	138791
26.16420	140351
26.17232	136682
26.18045	136480
26.18857	129714
26.19670	127901
26.20482	127238
26.21293	123766
26.22107	120932
26.22918	118297
26.23732	119358
26.24543	115575
26.25355	113042
26.26168	115100
26.26980	115806
26.27793	110949
26.28605	106357
26.29417	109839
26.30230	106475
26.31042	104750
26.31853	101392
26.32667	97008
26.33478	104079
26.34292	102928
26.35103	97335
26.35915	94683
26.36728	97445
26.37540	100916
26.38353	100904
26.39165	106119
26.39977	106926
26.40790	105412
26.41602	101147
26.42413	99087
26.43227	97905
26.44038	93825
26.44852	98372
26.45663	97461
26.46475	89861
26.47288	95103
26.48100	92093
26.48913	90690
26.49725	88953
26.50537	84575
26.51350	84396
26.52162	82119
26.52975	82691
26.53787	82246
26.54598	76442
26.55412	77974
26.56223	76309
26.57035	77371
26.57848	77414
26.58660	70279
26.59473	74851
26.60285	70824
26.61097	73305
26.61910	75034
26.62722	72658
26.63535	67334
26.64347	70803
26.65158	73766
26.65972	78733
26.66783	85315
26.67595	85309
26.68408	83262
26.69220	78297
26.70033	74878
26.70845	72825
26.71657	69674
26.72470	72919
26.73282	70505
26.74095	67021
26.74907	66279
26.75718	69371
26.76532	66550
26.77343	65047
26.78157	64928
26.78968	71229
26.79780	66844
26.80593	68638
26.81405	72446
26.82217	73202
26.83030	69423
26.83842	73390
26.84655	62915
26.85467	59215
26.86278	64294
26.87092	63371
26.87903	61941
26.88717	55964
26.89528	56372
26.90340	58298
26.91153	57530
26.91965	58219
26.92778	58630
26.93590	56348
26.94402	56791
26.95215	60401
26.96027	59985
26.96838	72783
26.97652	82542
26.98463	112199
26.99277	149942
27.00088	206982
27.00900	274978
27.01713	336591
27.02525	401896
27.03338	422447
27.04150	434595
27.04962	376830
27.05775	347158
27.06587	291606
27.07400	238399
27.08212	208935
27.09023	176420
27.09837	164308
27.10648	150773
27.11460	140473
27.12273	140422
27.13085	130048
27.13898	125725
27.14710	117261
27.15522	107598
27.16335	107265
27.17147	106738
27.17960	98015
27.18772	103023
27.19583	101276
27.20397	98148
27.21208	95931
27.22020	91239
27.22833	88316
27.23645	83103
27.24458	81523
27.25270	80472
27.26082	77241
27.26895	74576
27.27707	73573
27.28520	72780
27.29332	70481
27.30143	70873
27.30957	68105
27.31768	69902
27.32582	69854
27.33393	67153
27.34205	63035
27.35018	60948
27.35830	69512
27.36642	67376
27.37455	69696
27.38267	73486
27.39080	68755
27.39892	69167
27.40703	65248
27.41517	64363
27.42328	60704
27.43142	60779
27.43953	57425
27.44765	60686
27.45578	55064
27.46390	61326
27.47202	59952
27.48015	58692
27.48827	59516
27.49640	52786
27.50452	56152
27.51263	61225
27.52077	60135
27.52888	61535
27.53702	64936
27.54513	60336
27.55325	64991
27.56138	63003
27.56950	62971
27.57763	66961
27.58575	74213
27.59387	74630
27.60200	84956
27.61012	81979
27.61823	73735
27.62637	67148
27.63448	65309
27.64262	57955
27.65073	55551
27.65885	57593
27.66698	57091
27.67510	56527
27.68323	54740
27.69135	55316
27.69947	57422
27.70760	58141
27.71572	55491
27.72385	53785
27.73197	51754
27.74008	50413
27.74822	51379
27.75633	50040
27.76445	51843
27.77258	51868
27.78070	51232
27.78883	47215
27.79695	52693
27.80507	52703
27.81320	54106
27.82132	53462
27.82945	50698
27.83757	52445
27.84568	50134
27.85382	51693
27.86193	49655
27.87005	48723
27.87818	47386
27.88630	49540
27.89443	46573
27.90255	50560
27.91067	47894
27.91880	48147
27.92692	44401
27.93505	47330
27.94317	50249
27.95128	43651
27.95942	46609
27.96753	43828
27.97567	45448
27.98378	47955
27.99190	47805
28.00003	46981
28.00815	46174
28.01627	46568
28.02440	52851
28.03252	53396
28.04065	61699
28.04877	60607
28.05688	62162
28.06502	62255
28.07313	63224
28.08127	56130
28.08938	49020
28.09750	50155
28.10563	48560
28.11375	47682
28.12188	45161
28.13000	42432
28.13812	43314
28.14625	43926
28.15437	39861
28.16248	42242
28.17062	41972
28.17873	51551
28.18687	52860
28.19498	58642
28.20310	68607
28.21123	80465
28.21935	81500
28.22748	81810
28.23560	75308
28.24372	71926
28.25185	68278
28.25997	62892
28.26808	56794
28.27622	47466
28.28433	48149
28.29247	51101
28.30058	53790
28.30870	57715
28.31683	70449
28.32495	70689
28.33308	92875
28.34120	101460
28.34932	113400
28.35745	129760
28.36557	145921
28.37370	159137
28.38182	174481
28.38993	180917
28.39807	177794
28.40618	186631
28.41430	171483
28.42243	173824
28.43055	156580
28.43868	150651
28.44680	144309
28.45492	130812
28.46305	116410
28.47117	116589
28.47930	111953
28.48742	107223
28.49553	94794
28.50367	93756
28.51178	91259
28.51990	85870
28.52803	88221
28.53615	81524
28.54428	74779
28.55240	76502
28.56052	77504
28.56865	72937
28.57677	66899
28.58490	72223
28.59302	68088
28.60113	67034
28.60927	71584
28.61738	65008
28.62552	67854
28.63363	65990
28.64175	69439
28.64988	72216
28.65800	74206
28.66612	70601
28.67425	67217
28.68237	71834
28.69050	62787
28.69862	64417
28.70673	66373
28.71487	60045
28.72298	58228
28.73112	61912
28.73923	64134
28.74735	63772
28.75548	77999
28.76360	81578
28.77173	84361
28.77985	89278
28.78797	82756
28.79610	79117
28.80422	73763
28.81233	70424
28.82047	66629
28.82858	67571
28.83672	63322
28.84483	64278
28.85295	53428
28.86108	60674
28.86920	63196
28.87733	68773
28.88545	74527
28.89357	77228
28.90170	80129
28.90982	71912
28.91793	70679
28.92607	65858
28.93418	64746
28.94232	63758
28.95043	65624
28.95855	61190
28.96668	65017
28.97480	63631
28.98293	62969
28.99105	55429
28.99917	58340
29.00730	53349
29.01542	49862
29.02355	48201
29.03167	53240
29.03978	52426
29.04792	54001
29.05603	50095
29.06415	51793
29.07228	57365
29.08040	53716
29.08853	52801
29.09665	57335
29.10477	55335
29.11290	55020
29.12102	51500
29.12915	51805
29.13727	52861
29.14538	49649
29.15352	52138
29.16163	50811
29.16977	54382
29.17788	55108
29.18600	60107
29.19413	78094
29.20225	89010
29.21037	97230
29.21850	112748
29.22662	110785
29.23475	100419
29.24287	87712
29.25098	78734
29.25912	79799
29.26723	74308
29.27537	75249
29.28348	71740
29.29160	65253
29.29973	62647
29.30785	54687
29.31597	56717
29.32410	49869
29.33222	50753
29.34035	47769
29.34847	45858
29.35658	46638
29.36472	46317
29.37283	42920
29.38097	45052
29.38908	43852
29.39720	47748
29.40533	46466
29.41345	47310
29.42158	45933
29.42970	44704
29.43782	55573
29.44595	48528
29.45407	50502
29.46218	46507
29.47032	48375
29.47843	50840
29.48657	47765
29.49468	51490
29.50280	49583
29.51093	54494
29.51905	50098
29.52718	49590
29.53530	48836
29.54342	44482
29.55155	42498
29.55967	41845
29.56778	47453
29.57592	46453
29.58403	43353
29.59217	45421
29.60028	44278
29.60840	41778
29.61653	45566
29.62465	39450
29.63278	41196
29.64090	43752
29.64902	45462
29.65715	42225
29.66527	43805
29.67340	45533
29.68152	45975
29.68963	48862
29.69777	52661
29.70588	52241
29.71400	49908
29.72213	48644
29.73025	46223
29.73838	44021
29.74650	44964
29.75462	44817
29.76275	43137
29.77087	39425
29.77900	42755
29.78712	41213
29.79523	42196
29.80337	39919
29.81148	39816
29.81962	39331
29.82773	38980
29.83585	42892
29.84398	42323
29.85210	43286
29.86022	49815
29.86835	61659
29.87647	87381
29.88460	119911
29.89272	150737
29.90083	170977
29.90897	183859
29.91708	160090
29.92522	129526
29.93333	100483
29.94145	78547
29.94958	71471
29.95770	63822
29.96582	67534
29.97395	67819
29.98207	70795
29.99020	79860
29.99832	84241
30.00643	95596
30.01457	98453
30.02268	97320
30.03082	104704
30.03893	107555
30.04705	108208
30.05518	107289
30.06330	108546
30.07143	107906
30.07955	99656
30.08767	102669
30.09580	97834
30.10392	95308
30.11203	94739
30.12017	98811
30.12828	90670
30.13642	91655
30.14453	87557
30.15265	81981
30.16078	78285
30.16890	77099
30.17703	75062
30.18515	72697
30.19327	72725
30.20140	64799
30.20952	67366
30.21765	64941
30.22577	67730
30.23388	62202
30.24202	64304
30.25013	61384
30.25825	60161
30.26638	54010
30.27450	54445
30.28263	56532
30.29075	54064
30.29887	54506
30.30700	52211
30.31512	50688
30.32325	51765
30.33137	51586
30.33948	54596
30.34762	54789
30.35573	52612
30.36385	53202
30.37198	50844
30.38010	53134
30.38823	50745
30.39635	52456
30.40447	46785
30.41260	47422
30.42072	51319
30.42885	47816
30.43697	45843
30.44508	49006
30.45322	44941
30.46133	47113
30.46947	45162
30.47758	44528
30.48570	46602
30.49383	46939
30.50195	44244
30.51007	44300
30.51820	43232
30.52632	45210
30.53445	48622
30.54257	43524
30.55068	46962
30.55882	45641
30.56693	44651
30.57507	42466
30.58318	43872
30.59130	44717
30.59943	42826
30.60755	41823
30.61568	42127
30.62380	43720
30.63192	41270
30.64005	41074
30.64817	38028
30.65628	42487
30.66442	42482
30.67253	45688
30.68067	44018
30.68878	41910
30.69690	40550
30.70503	41874
30.71315	45957
30.72128	46010
30.72940	44507
30.73752	39044
30.74565	44692
30.75377	41635
30.76188	43545
30.77002	47701
30.77813	54017
30.78627	73938
30.79438	83039
30.80250	100762
30.81063	119071
30.81875	117620
30.82688	105867
30.83500	87758
30.84312	70358
30.85125	63567
30.85937	56137
30.86750	53388
30.87562	51567
30.88373	58008
30.89187	55433
30.89998	57455
30.90810	58944
30.91623	57817
30.92435	61605
30.93248	59586
30.94060	60671
30.94872	62776
30.95685	61199
30.96497	62003
30.97310	65563
30.98122	67927
30.98933	63668
30.99747	64413
31.00558	65092
31.01370	62190
31.02183	65316
31.02995	67116
31.03808	69620
31.04620	66918
31.05432	69420
31.06245	64529
31.07057	69023
31.07870	73787
31.08682	76050
31.09493	90227
31.10307	87036
31.11118	94119
31.11932	86036
31.12743	83373
31.13555	81129
31.14368	76954
31.15180	70843
31.15992	75575
31.16805	75265
31.17617	76921
31.18430	77932
31.19242	92681
31.20053	109867
31.20867	126687
31.21678	141777
31.22492	151328
31.23303	150302
31.24115	144907
31.24928	125381
31.25740	100716
31.26553	85136
31.27365	79693
31.28177	72525
31.28990	70145
31.29802	68036
31.30613	68148
31.31427	66832
31.32238	67448
31.33052	65937
31.33863	65557
31.34675	67924
31.35488	67324
31.36300	64992
31.37113	64553
31.37925	66738
31.38737	74648
31.39550	70362
31.40362	66739
31.41173	60629
31.41987	63045
31.42798	64775
31.43612	60349
31.44423	58584
31.45235	55761
31.46048	57016
31.46860	58493
31.47673	54524
31.48485	58152
31.49297	58949
31.50110	56869
31.50922	56740
31.51735	55384
31.52547	50320
31.53358	53666
31.54172	52943
31.54983	55575
31.55795	56649
31.56608	59296
31.57420	58336
31.58233	53520
31.59045	54834
31.59857	53354
31.60670	56757
31.61482	54461
31.62295	53498
31.63107	51985
31.63918	52502
31.64732	56473
31.65543	58621
31.66357	57395
31.67168	57652
31.67980	58534
31.68793	56613
31.69605	58863
31.70417	55709
31.71230	53371
31.72042	52971
31.72855	51080
31.73667	47382
31.74478	53643
31.75292	50186
31.76103	50675
31.76917	49899
31.77728	50087
31.78540	51717
31.79353	50624
31.80165	51042
31.80977	52057
31.81790	52039
31.82602	50263
31.83415	52152
31.84227	47778
31.85038	56438
31.85852	52231
31.86663	51599
31.87477	50421
31.88288	53181
31.89100	62411
31.89913	67920
31.90725	71499
31.91538	74408
31.92350	80724
31.93162	88260
31.93975	91747
31.94787	88257
31.95598	96543
31.96412	103360
31.97223	98172
31.98037	100179
31.98848	106631
31.99660	98977
32.00473	103196
32.01285	98493
32.02098	97202
32.02910	93088
32.03722	91891
32.04535	90576
32.05347	92054
32.06158	83074
32.06972	82957
32.07783	79638
32.08597	74335
32.09408	76082
32.10220	71731
32.11033	73197
32.11845	69257
32.12658	62775
32.13470	66985
32.14282	65303
32.15095	58294
32.15907	58507
32.16720	56602
32.17532	55664
32.18343	55668
32.19157	56260
32.19968	58948
32.20780	56682
32.21593	51713
32.22405	54948
32.23218	56744
32.24030	52226
32.24842	52441
32.25655	53505
32.26467	56140
32.27280	57237
32.28092	56149
32.28903	57387
32.29717	54388
32.30528	51966
32.31342	50600
32.32153	47153
32.32965	50614
32.33778	49793
32.34590	47961
32.35402	51479
32.36215	58379
32.37027	50718
32.37840	54340
32.38652	45756
32.39463	48070
32.40277	48928
32.41088	46884
32.41902	48437
32.42713	46911
32.43525	48230
32.44338	46756
32.45150	44634
32.45963	48671
32.46775	44608
32.47587	46502
32.48400	47923
32.49212	49035
32.50023	46093
32.50837	46442
32.51648	43343
32.52462	42336
32.53273	46804
32.54085	47123
32.54898	49155
32.55710	46577
32.56523	47126
32.57335	47921
32.58147	47710
32.58960	49308
32.59772	45814
32.60583	44127
32.61397	47625
32.62208	46801
32.63022	44928
32.63833	43712
32.64645	51922
32.65458	57731
32.66270	63840
32.67083	62491
32.67895	56803
32.68707	57573
32.69520	53479
32.70332	47745
32.71145	49544
32.71957	51797
32.72768	52028
32.73582	46816
32.74393	44201
32.75205	46305
32.76018	48491
32.76830	45572
32.77643	45582
32.78455	43445
32.79267	41228
32.80080	42964
32.80892	40824
32.81705	42810
32.82517	44792
32.83328	41813
32.84142	42108
32.84953	41033
32.85765	45973
32.86578	49835
32.87390	41809
32.88203	41407
32.89015	46113
32.89827	44602
32.90640	43796
32.91452	44892
32.92265	50832
32.93077	43526
32.93888	44755
32.94702	43066
32.95513	44663
32.96327	46815
32.97138	46980
32.97950	51407
32.98763	55853
32.99575	59397
33.00387	63280
33.01200	65555
33.02012	61441
33.02825	57589
33.03637	52238
33.04448	52149
33.05262	50497
33.06073	52914
33.06887	53074
33.07698	53601
33.08510	56988
33.09323	55506
33.10135	58914
33.10947	63561
33.11760	70056
33.12572	69733
33.13385	67404
33.14197	61703
33.15008	54399
33.15822	52413
33.16633	50143
33.17447	50821
33.18258	49135
33.19070	49215
33.19883	49135
33.20695	46144
33.21508	48827
33.22320	44864
33.23132	47079
33.23945	44430
33.24757	42464
33.25568	42627
33.26382	44987
33.27193	45643
33.28007	42393
33.28818	43751
33.29630	39476
33.30443	42760
33.31255	46582
33.32068	42909
33.32880	44976
33.33692	44365
33.34505	41540
33.35317	46206
33.36130	47873
33.36942	50116
33.37753	50202
33.38567	46738
33.39378	43309
33.40190	44832
33.41003	43370
33.41815	43914
33.42628	41188
33.43440	40265
33.44252	39151
33.45065	44323
33.45877	40808
33.46690	38786
33.47502	42694
33.48313	41660
33.49127	47192
33.49938	42269
33.50752	46226
33.51563	45514
33.52375	46720
33.53188	45671
33.54000	44506
33.54812	51926
33.55625	52238
33.56437	52132
33.57250	50657
33.58062	50553
33.58873	43243
33.59687	44252
33.60498	44275
33.61312	46662
33.62123	44769
33.62935	44815
33.63748	44810
33.64560	43618
33.65372	47005
33.66185	50083
33.66997	46771
33.67810	46645
33.68622	47526
33.69433	43895
33.70247	44493
33.71058	42844
33.71872	41823
33.72683	43263
33.73495	45883
33.74308	41908
33.75120	44287
33.75933	41025
33.76745	41600
33.77557	42310
33.78370	38847
33.79182	47192
33.79993	43998
33.80807	44908
33.81618	44409
33.82432	43018
33.83243	42047
33.84055	44066
33.84868	43341
33.85680	46845
33.86493	45055
33.87305	42483
33.88117	44802
33.88930	45808
33.89742	44993
33.90553	47267
33.91367	45188
33.92178	48277
33.92992	47468
33.93803	44908
33.94615	42551
33.95428	43307
33.96240	41577
33.97053	42102
33.97865	45183
33.98677	43906
33.99490	40648
34.00302	42841
34.01115	44728
34.01927	46243
34.02738	44382
34.03552	42626
34.04363	42575
34.05175	39946
34.05988	43598
34.06800	41355
34.07613	43064
34.08425	43337
34.09237	42845
34.10050	42111
34.10862	44486
34.11675	45841
34.12487	44909
34.13298	46502
34.14112	44171
34.14923	49290
34.15737	49744
34.16548	47462
34.17360	46711
34.18173	43790
34.18985	43995
34.19797	43934
34.20610	43042
34.21422	44705
34.22235	43208
34.23047	38971
34.23858	45399
34.24672	44316
34.25483	48705
34.26297	44636
34.27108	41803
34.27920	43907
34.28733	41942
34.29545	43263
34.30357	43750
34.31170	42103
34.31982	42917
34.32795	42538
34.33607	43089
34.34418	45859
34.35232	46308
34.36043	44055
34.36857	42390
34.37668	41507
34.38480	42878
34.39293	42758
34.40105	38995
34.40918	43621
34.41730	43234
34.42542	47410
34.43355	43347
34.44167	43121
34.44978	47054
34.45792	41368
34.46603	41193
34.47417	45223
34.48228	43127
34.49040	48011
34.49853	47098
34.50665	49853
34.51478	57126
34.52290	62033
34.53102	69688
34.53915	81835
34.54727	83359
34.55540	86223
34.56352	88412
34.57163	87873
34.57977	85572
34.58788	82305
34.59600	78682
34.60413	72112
34.61225	68506
34.62038	65923
34.62850	65931
34.63662	65849
34.64475	58226
34.65287	55600
34.66100	54988
34.66912	54788
34.67723	55715
34.68537	54627
34.69348	56633
34.70160	49251
34.70973	52725
34.71785	49279
34.72598	51115
34.73410	52244
34.74222	48567
34.75035	49751
34.75847	51440
34.76660	50191
34.77472	51961
34.78283	52903
34.79097	54133
34.79908	52382
34.80722	47799
34.81533	47809
34.82345	50815
34.83158	50914
34.83970	51580
34.84782	50205
34.85595	51394
34.86407	49057
34.87220	48770
34.88032	50028
34.88843	47492
34.89657	48841
34.90468	51521
34.91282	51373
34.92093	50992
34.92905	47360
34.93718	52844
34.94530	51688
34.95342	53421
34.96155	52844
34.96967	56713
34.97780	58677
34.98592	55519
34.99403	58238
35.00217	51957
35.01028	51179
35.01842	46914
35.02653	47849
35.03465	51546
35.04278	45918
35.05090	46355
35.05903	48652
35.06715	51386
35.07527	43922
35.08340	47993
35.09152	48695
35.09963	47969
35.10777	50529
35.11588	44586
35.12402	46865
35.13213	46761
35.14025	49208
35.14838	48533
35.15650	51121
35.16463	48468
35.17275	47327
35.18087	47064
35.18900	49239
35.19712	45241
35.20525	44124
35.21337	46255
35.22148	49864
35.22962	45654
35.23773	46134
35.24585	44907
35.25398	52896
35.26210	48959
35.27023	50392
35.27835	50216
35.28647	48462
35.29460	44582
35.30272	48172
35.31085	46460
35.31897	41591
35.32708	45949
35.33522	42564
35.34333	43899
35.35145	42033
35.35958	47155
35.36770	49441
35.37583	45564
35.38395	44417
35.39207	46416
35.40020	46318
35.40832	51248
35.41645	48457
35.42457	49567
35.43268	47406
35.44082	49999
35.44893	52674
35.45707	50112
35.46518	52394
35.47330	52015
35.48143	50324
35.48955	51304
35.49767	47632
35.50580	49215
35.51392	52467
35.52205	48054
35.53017	50778
35.53828	50303
35.54642	44658
35.55453	47608
35.56267	47545
35.57078	47195
35.57890	44076
35.58703	44100
35.59515	49476
35.60328	48937
35.61140	48953
35.61952	46801
35.62765	52876
35.63577	48446
35.64388	45995
35.65202	49221
35.66013	51181
35.66827	50960
35.67638	48300
35.68450	50437
35.69263	50038
35.70075	50073
35.70888	46576
35.71700	48637
35.72512	46706
35.73325	49158
35.74137	51302
35.74948	54433
35.75762	53038
35.76573	56070
35.77387	54143
35.78198	50242
35.79010	52166
35.79823	49726
35.80635	48044
35.81448	48734
35.82260	43610
35.83072	46214
35.83885	48796
35.84697	53072
35.85510	46663
35.86322	43924
35.87133	46751
35.87947	45159
35.88758	48116
35.89570	47539
35.90383	44308
35.91195	43007
35.92008	44669
35.92820	49734
35.93632	46795
35.94445	45405
35.95257	46312
35.96070	50273
35.96882	49007
35.97693	47088
35.98507	50933
35.99318	47820
36.00132	49268
36.00943	52025
36.01755	45902
36.02568	54179
36.03380	53371
36.04192	47914
36.05005	51948
36.05817	47062
36.06630	51199
36.07442	49379
36.08253	53204
36.09067	47305
36.09878	49123
36.10692	47259
36.11503	42812
36.12315	43976
36.13128	50269
36.13940	49996
36.14752	54539
36.15565	50331
36.16377	50362
36.17190	52624
36.18002	49144
36.18813	49493
36.19627	51085
36.20438	51511
36.21252	49494
36.22063	48081
36.22875	47622
36.23688	45752
36.24500	48492
36.25313	50240
36.26125	47120
36.26937	48337
36.27750	51211
36.28562	53486
36.29373	58375
36.30187	60532
36.30998	62769
36.31812	64002
36.32623	62647
36.33435	53342
36.34248	52289
36.35060	52230
36.35873	52616
36.36685	48579
36.37497	51531
36.38310	49802
36.39122	45703
36.39933	47764
36.40747	50110
36.41558	49235
36.42372	52503
36.43183	52431
36.43995	50023
36.44808	49931
36.45620	52438
36.46433	54084
36.47245	51827
36.48057	48857
36.48870	47381
36.49682	50762
36.50495	52278
36.51307	51795
36.52118	54444
36.52932	53602
36.53743	55756
36.54555	52435
36.55368	56773
36.56180	49830
36.56993	53422
36.57805	53100
36.58617	55858
36.59430	55380
36.60242	53147
36.61055	54156
36.61867	56718
36.62678	53779
36.63492	54711
36.64303	59340
36.65117	58189
36.65928	55455
36.66740	58007
36.67553	55430
36.68365	57916
36.69177	54136
36.69990	53798
36.70802	51960
36.71615	57357
36.72427	56436
36.73238	55118
36.74052	55132
36.74863	57388
36.75677	56184
36.76488	58427
36.77300	58026
36.78113	58465
36.78925	54520
36.79737	50190
36.80550	53936
36.81362	55669
36.82175	53905
36.82987	50214
36.83798	50403
36.84612	53616
36.85423	50782
36.86237	52426
36.87048	54496
36.87860	57239
36.88673	54633
36.89485	56740
36.90298	55741
36.91110	55256
36.91922	52967
36.92735	55919
36.93547	53680
36.94358	57275
36.95172	63394
36.95983	66598
36.96797	72792
36.97608	72186
36.98420	68286
36.99233	66078
37.00045	61687
37.00858	56292
37.01670	55278
37.02482	52402
37.03295	55428
37.04107	58835
37.04920	57039
37.05732	55786
37.06543	51400
37.07357	53486
37.08168	57348
37.08980	52656
37.09793	58172
37.10605	57263
37.11418	54472
37.12230	55993
37.13042	60012
37.13855	56544
37.14667	52984
37.15480	53362
37.16292	57970
37.17103	55080
37.17917	55528
37.18728	57760
37.19540	55289
37.20353	58631
37.21165	59790
37.21978	56015
37.22790	53406
37.23602	53270
37.24415	52807
37.25227	54717
37.26040	53819
37.26852	53826
37.27663	52322
37.28477	54773
37.29288	50141
37.30102	57845
37.30913	62087
37.31725	62253
37.32538	75713
37.33350	77666
37.34162	85858
37.34975	86017
37.35787	92206
37.36600	93723
37.37412	90104
37.38223	85013
37.39037	76895
37.39848	75890
37.40662	76026
37.41473	75083
37.42285	73030
37.43098	69109
37.43910	69188
37.44722	69630
37.45535	69008
37.46347	62730
37.47160	65943
37.47972	67561
37.48783	65933
