C:\MassHunter\GCMS\1\data\JTB-E18\JTB-E18-037-06.D Tue Nov 12 18:24:46 2019
Start of data points
2.09540	372136
2.10352	365885
2.11163	325483
2.11977	321682
2.12788	309720
2.13600	313813
2.14413	283896
2.15225	286645
2.16038	273162
2.16850	260228
2.17662	244062
2.18475	249026
2.19287	243851
2.20100	229141
2.20912	223081
2.21723	216453
2.22537	212383
2.23348	214396
2.24162	220312
2.24973	858877
2.25785	3312739
2.26598	2778860
2.27410	1237204
2.28222	900042
2.29035	756952
2.29847	669462
2.30660	590972
2.31472	580309
2.32283	544866
2.33097	484690
2.33908	447820
2.34722	410207
2.35533	410592
2.36345	478589
2.37158	460145
2.37970	385667
2.38783	368788
2.39595	357356
2.40407	398766
2.41220	443062
2.42032	369222
2.42843	333704
2.43657	313483
2.44468	296827
2.45282	287571
2.46093	280903
2.46905	279148
2.47718	314095
2.48530	285690
2.49343	282809
2.50155	271220
2.50967	271165
2.51780	264850
2.52592	262340
2.53403	314677
2.54217	413881
2.55028	344447
2.55842	283716
2.56653	277595
2.57465	261109
2.58278	264914
2.59090	358250
2.59903	424175
2.60715	407875
2.61527	327324
2.62340	282300
2.63152	254429
2.63965	249610
2.64777	234067
2.65588	239649
2.66402	246020
2.67213	237633
2.68025	221166
2.68838	220897
2.69650	234071
2.70463	254380
2.71275	238612
2.72087	231457
2.72900	227671
2.73712	217775
2.74525	220078
2.75337	215892
2.76148	243360
2.76962	304266
2.77773	276974
2.78587	239964
2.79398	261519
2.80210	330361
2.81023	477251
2.81835	624738
2.82647	496938
2.83460	352664
2.84272	326318
2.85085	300432
2.85897	277839
2.86708	250268
2.87522	238097
2.88333	230288
2.89147	223258
2.89958	213935
2.90770	210918
2.91583	203603
2.92395	194318
2.93207	196768
2.94020	193575
2.94832	186617
2.95645	189239
2.96457	193521
2.97268	240461
2.98082	280661
2.98893	271249
2.99707	243008
3.00518	242676
3.01330	305268
3.02143	360064
3.02955	507145
3.03768	1283331
3.04580	2340731
3.05392	2097706
3.06205	1462219
3.07017	2060180
3.07828	3262540
3.08642	3854180
3.09453	4040495
3.10267	2894761
3.11078	1761141
3.11890	1256916
3.12703	1001526
3.13515	796920
3.14328	701272
3.15140	712841
3.15952	764906
3.16765	957487
3.17577	1583081
3.18388	1687504
3.19202	1207539
3.20013	907495
3.20827	741318
3.21638	637404
3.22450	540723
3.23263	478053
3.24075	424966
3.24888	398176
3.25700	376746
3.26512	447290
3.27325	910844
3.28137	2125354
3.28950	3454461
3.29762	3518412
3.30573	2643374
3.31387	1856357
3.32198	1429419
3.33010	1160003
3.33823	1013970
3.34635	881769
3.35448	860850
3.36260	861571
3.37072	837442
3.37885	775046
3.38697	851820
3.39510	1253471
3.40322	1595723
3.41133	1384421
3.41947	1004165
3.42758	801200
3.43572	725592
3.44383	662475
3.45195	639820
3.46008	605866
3.46820	571181
3.47632	554505
3.48445	545447
3.49257	520859
3.50070	526774
3.50882	558749
3.51693	577839
3.52507	557592
3.53318	524034
3.54132	495154
3.54943	473357
3.55755	454244
3.56568	447902
3.57380	437474
3.58193	427338
3.59005	422934
3.59817	447474
3.60630	562247
3.61442	847825
3.62253	1077533
3.63067	1011417
3.63878	788628
3.64692	885023
3.65503	2003548
3.66315	3913114
3.67128	4305911
3.67940	3129842
3.68753	2211590
3.69565	1720833
3.70377	1447045
3.71190	1254158
3.72002	1106999
3.72813	1005498
3.73627	914833
3.74438	877176
3.75252	857712
3.76063	827650
3.76875	781691
3.77688	747701
3.78500	818587
3.79313	1137744
3.80125	1558069
3.80937	1526832
3.81750	1222376
3.82562	1008133
3.83375	873749
3.84187	770983
3.84998	690619
3.85812	649202
3.86623	610046
3.87435	596897
3.88248	549078
3.89060	538322
3.89873	571103
3.90685	647788
3.91497	751178
3.92310	730120
3.93122	769510
3.93935	1211857
3.94747	2058370
3.95558	2466583
3.96372	2001638
3.97183	1368729
3.97995	1120196
3.98808	1341712
3.99620	1874734
4.00433	2088549
4.01245	1665984
4.02057	1148116
4.02870	853412
4.03682	691646
4.04495	616545
4.05307	552829
4.06118	503820
4.06932	482402
4.07743	455413
4.08557	434239
4.09368	419478
4.10180	414890
4.10993	428944
4.11805	654737
4.12617	1524525
4.13430	2916634
4.14242	3335147
4.15055	2503543
4.15867	1576924
4.16678	1085434
4.17492	816930
4.18303	712127
4.19117	996701
4.19928	3134861
4.20740	8470524
4.21553	1.445107E+07
4.22365	1.679626E+07
4.23178	1.366417E+07
4.23990	8076484
4.24802	5009797
4.25615	3469513
4.26427	2606777
4.27238	2014865
4.28052	1641702
4.28863	1383607
4.29677	1190567
4.30488	1059921
4.31300	949663
4.32113	872404
4.32925	825267
4.33738	790765
4.34550	778124
4.35362	742000
4.36175	673245
4.36987	629315
4.37798	601498
4.38612	580913
4.39423	552750
4.40237	540433
4.41048	512586
4.41860	510340
4.42673	493527
4.43485	483973
4.44298	475057
4.45110	457068
4.45922	450300
4.46735	445716
4.47547	447692
4.48360	439399
4.49172	427501
4.49983	410844
4.50797	409615
4.51608	395034
4.52420	390712
4.53233	386693
4.54045	380933
4.54858	376606
4.55670	367622
4.56482	363233
4.57295	357355
4.58107	346833
4.58920	341974
4.59732	338375
4.60543	375215
4.61357	444101
4.62168	569440
4.62982	666397
4.63793	643295
4.64605	558233
4.65418	475435
4.66230	422538
4.67042	403931
4.67855	382065
4.68667	376633
4.69480	351303
4.70292	340360
4.71103	342149
4.71917	334879
4.72728	330300
4.73542	320891
4.74353	318260
4.75165	309149
4.75978	295360
4.76790	314024
4.77602	374088
4.78415	562776
4.79227	841585
4.80040	971721
4.80852	868811
4.81663	678673
4.82477	561701
4.83288	494097
4.84102	441171
4.84913	412316
4.85725	384933
4.86538	361379
4.87350	338348
4.88163	336697
4.88975	316975
4.89787	328699
4.90600	360746
4.91412	487075
4.92223	755940
4.93037	1110294
4.93848	1336892
4.94662	1302415
4.95473	1143294
4.96285	960853
4.97098	843008
4.97910	754507
4.98723	698824
4.99535	653275
5.00347	663252
5.01160	710061
5.01972	903562
5.02783	1148028
5.03597	1241237
5.04408	1131142
5.05222	981371
5.06033	865478
5.06845	808327
5.07658	750394
5.08470	711278
5.09283	696602
5.10095	695137
5.10907	684161
5.11720	659616
5.12532	631462
5.13345	607855
5.14157	602241
5.14968	613338
5.15782	630287
5.16593	644927
5.17405	642094
5.18218	653040
5.19030	635601
5.19843	638416
5.20655	592506
5.21467	572407
5.22280	544775
5.23092	547735
5.23905	526443
5.24717	500309
5.25528	459083
5.26342	446201
5.27153	429877
5.27967	406285
5.28778	405617
5.29590	403548
5.30403	395146
5.31215	377135
5.32027	392352
5.32840	397583
5.33652	393646
5.34465	392015
5.35277	377057
5.36088	368053
5.36902	382467
5.37713	382594
5.38527	384896
5.39338	382936
5.40150	373483
5.40963	356040
5.41775	345288
5.42587	353237
5.43400	348770
5.44212	351235
5.45025	343915
5.45837	337682
5.46648	334539
5.47462	320659
5.48273	307995
5.49087	323114
5.49898	312998
5.50710	311196
5.51523	308001
5.52335	304661
5.53148	291059
5.53960	303311
5.54772	313280
5.55585	327584
5.56397	361488
5.57208	406764
5.58022	427689
5.58833	418745
5.59647	389807
5.60458	345949
5.61270	331691
5.62083	324925
5.62895	316388
5.63708	316935
5.64520	307778
5.65332	303186
5.66145	300575
5.66957	318732
5.67770	334699
5.68582	334604
5.69393	329241
5.70207	322092
5.71018	317309
5.71830	314233
5.72643	318670
5.73455	303485
5.74268	300440
5.75080	301552
5.75892	305960
5.76705	318614
5.77517	305950
5.78330	295069
5.79142	308707
5.79953	357609
5.80767	460937
5.81578	607476
5.82390	762007
5.83203	774399
5.84015	704318
5.84828	577993
5.85640	469147
5.86452	409004
5.87265	365627
5.88077	344758
5.88890	338473
5.89702	337888
5.90513	365342
5.91327	386595
5.92138	441050
5.92952	446130
5.93763	450059
5.94575	438621
5.95388	489563
5.96200	615492
5.97012	832192
5.97825	919259
5.98637	857997
5.99450	718654
6.00262	567717
6.01073	476791
6.01887	422345
6.02698	396297
6.03512	357205
6.04323	337620
6.05135	324320
6.05948	307466
6.06760	298805
6.07573	296934
6.08385	317087
6.09197	367579
6.10010	454712
6.10822	495989
6.11633	500559
6.12447	511999
6.13258	527581
6.14072	524390
6.14883	493698
6.15695	429463
6.16508	388263
6.17320	362244
6.18133	360417
6.18945	362963
6.19757	378236
6.20570	359265
6.21382	341914
6.22193	322018
6.23007	307682
6.23818	311060
6.24632	291373
6.25443	305748
6.26255	296349
6.27068	298725
6.27880	303684
6.28693	292501
6.29505	296900
6.30317	300559
6.31130	302781
6.31942	313712
6.32755	322894
6.33567	331542
6.34378	331337
6.35192	315974
6.36003	312450
6.36815	321561
6.37628	306028
6.38440	311874
6.39253	311770
6.40065	306357
6.40877	303666
6.41690	317584
6.42502	314051
6.43315	312142
6.44127	319436
6.44938	325592
6.45752	319966
6.46563	323539
6.47375	316540
6.48188	324836
6.49000	331828
6.49813	332707
6.50625	322232
6.51437	329545
6.52250	328328
6.53062	336707
6.53875	341231
6.54687	328921
6.55498	344219
6.56312	346026
6.57123	364428
6.57937	363706
6.58748	367468
6.59560	360669
6.60373	350388
6.61185	354501
6.61997	366285
6.62810	378862
6.63622	457385
6.64435	809274
6.65247	1532631
6.66058	2310474
6.66872	2581043
6.67683	2203074
6.68497	1624723
6.69308	1182073
6.70120	933067
6.70933	774900
6.71745	661757
6.72558	598835
6.73370	564190
6.74182	535771
6.74995	507935
6.75807	437045
6.76618	421132
6.77432	451421
6.78243	556647
6.79057	693091
6.79868	812818
6.80680	824598
6.81493	703013
6.82305	559233
6.83118	442773
6.83930	374008
6.84742	310014
6.85555	269390
6.86367	245610
6.87178	217776
6.87992	210267
6.88803	196548
6.89617	183703
6.90428	188011
6.91240	193355
6.92053	217523
6.92865	260102
6.93678	309076
6.94490	330158
6.95302	334029
6.96115	303231
6.96927	273222
6.97740	233124
6.98552	209749
6.99363	183774
7.00177	164907
7.00988	151379
7.01800	149698
7.02613	163061
7.03425	157737
7.04238	156244
7.05050	154446
7.05862	155541
7.06675	159993
7.07487	148764
7.08300	153891
7.09112	147459
7.09923	137178
7.10737	136696
7.11548	134259
7.12362	139592
7.13173	140591
7.13985	147300
7.14798	160876
7.15610	176435
7.16422	190378
7.17235	201551
7.18047	194032
7.18860	189711
7.19672	204625
7.20483	266855
7.21297	481241
7.22108	897743
7.22922	1325359
7.23733	1434994
7.24545	1170582
7.25358	762158
7.26170	480185
7.26982	338527
7.27795	275792
7.28607	253089
7.29420	248019
7.30232	240639
7.31043	259469
7.31857	253746
7.32668	239261
7.33482	218476
7.34293	189989
7.35105	174445
7.35918	158930
7.36730	148875
7.37543	151702
7.38355	143643
7.39167	147735
7.39980	162188
7.40792	171301
7.41603	182601
7.42417	190391
7.43228	188258
7.44042	169447
7.44853	157205
7.45665	149727
7.46478	135850
7.47290	130057
7.48103	128178
7.48915	125905
7.49727	127157
7.50540	130082
7.51352	144398
7.52163	170397
7.52977	201869
7.53788	232165
7.54602	246111
7.55413	243711
7.56225	217016
7.57038	186457
7.57850	163469
7.58663	139343
7.59475	129636
7.60287	126436
7.61100	121057
7.61912	116948
7.62725	117345
7.63537	117722
7.64348	116945
7.65162	114857
7.65973	115368
7.66785	112496
7.67598	107357
7.68410	109841
7.69223	108324
7.70035	110198
7.70847	105291
7.71660	105619
7.72472	109186
7.73285	108762
7.74097	101857
7.74908	103023
7.75722	103499
7.76533	100260
7.77347	102366
7.78158	115588
7.78970	107392
7.79783	109655
7.80595	105974
7.81407	103849
7.82220	103388
7.83032	95012
7.83845	100788
7.84657	94633
7.85468	97168
7.86282	99757
7.87093	106430
7.87907	105151
7.88718	104499
7.89530	104291
7.90343	99519
7.91155	97438
7.91968	108370
7.92780	116274
7.93592	130076
7.94405	133072
7.95217	121536
7.96028	110835
7.96842	101436
7.97653	99052
7.98467	91850
7.99278	85078
8.00090	86870
8.00903	85347
8.01715	87869
8.02528	83373
8.03340	86498
8.04152	79659
8.04965	80019
8.05777	81307
8.06588	78200
8.07402	75968
8.08213	80213
8.09027	76444
8.09838	75911
8.10650	76003
8.11463	77792
8.12275	88334
8.13088	92515
8.13900	99193
8.14712	98504
8.15525	91883
8.16337	88339
8.17150	85699
8.17962	82731
8.18773	81817
8.19587	82297
8.20398	86096
8.21210	81301
8.22023	76838
8.22835	74458
8.23648	71714
8.24460	69092
8.25272	71937
8.26085	74417
8.26897	66976
8.27710	67103
8.28522	68147
8.29333	72951
8.30147	73835
8.30958	76053
8.31770	72988
8.32583	74824
8.33395	72550
8.34208	70535
8.35020	69599
8.35832	69365
8.36645	69358
8.37457	66646
8.38270	70112
8.39082	69206
8.39893	64829
8.40707	66207
8.41518	67864
8.42332	65126
8.43143	61057
8.43955	63096
8.44768	61828
8.45580	62002
8.46392	61443
8.47205	65812
8.48017	68274
8.48830	62828
8.49642	63778
8.50453	66579
8.51267	64927
8.52078	92590
8.52892	140597
8.53703	200116
8.54515	270650
8.55328	269825
8.56140	224849
8.56953	166989
8.57765	128588
8.58577	102432
8.59390	87908
8.60202	86185
8.61013	83573
8.61827	79998
8.62638	73780
8.63452	73613
8.64263	73268
8.65075	77650
8.65888	71697
8.66700	74276
8.67513	73593
8.68325	71926
8.69137	70426
8.69950	72231
8.70762	81848
8.71573	119750
8.72387	175342
8.73198	252471
8.74012	313179
8.74823	335381
8.75635	310477
8.76448	269239
8.77260	236680
8.78073	222396
8.78885	189738
8.79697	167855
8.80510	168100
8.81322	168421
8.82135	169450
8.82947	181344
8.83758	179618
8.84572	178394
8.85383	171947
8.86195	165836
8.87008	156778
8.87820	156632
8.88633	154360
8.89445	150051
8.90257	146466
8.91070	141718
8.91882	146466
8.92695	137503
8.93507	147636
8.94318	149343
8.95132	144772
8.95943	141491
8.96757	134802
8.97568	132169
8.98380	132286
8.99193	134352
9.00005	126674
9.00817	122806
9.01630	119740
9.02442	117037
9.03255	119470
9.04067	114491
9.04878	115882
9.05692	108743
9.06503	109470
9.07317	108832
9.08128	107870
9.08940	109788
9.09753	111476
9.10565	118376
9.11377	122764
9.12190	116206
9.13002	113469
9.13815	108020
9.14627	103070
9.15438	101069
9.16252	101130
9.17063	99204
9.17877	98955
9.18688	98405
9.19500	97213
9.20313	98824
9.21125	96109
9.21938	94524
9.22750	91385
9.23562	95779
9.24375	87634
9.25187	93061
9.25998	91029
9.26812	87290
9.27623	92264
9.28437	91224
9.29248	84806
9.30060	82034
9.30873	83686
9.31685	83721
9.32498	88085
9.33310	81923
9.34122	79847
9.34935	78943
9.35747	79667
9.36558	78574
9.37372	83347
9.38183	82360
9.38997	82107
9.39808	84822
9.40620	95112
9.41433	103198
9.42245	112173
9.43058	108277
9.43870	108021
9.44682	106495
9.45495	91211
9.46307	83107
9.47120	79998
9.47932	74263
9.48743	75482
9.49557	79618
9.50368	86806
9.51180	90222
9.51993	76618
9.52805	72636
9.53618	62532
9.54430	55425
9.55242	54186
9.56055	49522
9.56867	48916
9.57680	51040
9.58492	45910
9.59303	49004
9.60117	48601
9.60928	45079
9.61742	46433
9.62553	46512
9.63365	46821
9.64178	44600
9.64990	42485
9.65802	44827
9.66615	46657
9.67427	48243
9.68240	47376
9.69052	42503
9.69863	45226
9.70677	44577
9.71488	40102
9.72302	42442
9.73113	42440
9.73925	38094
9.74738	39422
9.75550	40700
9.76362	40399
9.77175	42047
9.77987	39002
9.78800	44305
9.79612	43040
9.80423	40828
9.81237	40182
9.82048	43821
9.82862	41835
9.83673	39974
9.84485	45430
9.85298	44986
9.86110	48620
9.86923	50941
9.87735	48527
9.88547	47848
9.89360	47383
9.90172	41453
9.90983	42439
9.91797	45053
9.92608	49213
9.93422	47799
9.94233	50875
9.95045	54951
9.95858	51442
9.96670	51261
9.97483	51969
9.98295	49358
9.99107	47573
9.99920	45070
10.00732	44986
10.01545	41641
10.02357	40603
10.03168	39492
10.03982	42559
10.04793	43443
10.05605	42011
10.06418	45649
10.07230	43507
10.08043	43357
10.08855	43980
10.09667	41186
10.10480	43058
10.11292	41720
10.12105	45457
10.12917	40620
10.13728	38379
10.14542	43164
10.15353	43380
10.16165	39477
10.16978	40178
10.17790	41021
10.18603	43300
10.19415	37284
10.20227	38647
10.21040	45498
10.21852	47098
10.22665	49254
10.23477	48040
10.24288	56260
10.25102	78274
10.25913	121097
10.26727	268134
10.27538	604820
10.28350	1175259
10.29163	2031606
10.29975	3361087
10.30787	5660330
10.31600	8719505
10.32412	1.222092E+07
10.33225	1.366106E+07
10.34037	1.222997E+07
10.34848	8701291
10.35662	5054367
10.36473	2719480
10.37287	1531857
10.38098	979533
10.38910	695121
10.39723	536162
10.40535	426348
10.41347	362184
10.42160	314386
10.42972	287956
10.43785	276569
10.44597	252238
10.45408	238500
10.46222	219182
10.47033	209696
10.47847	199776
10.48658	192271
10.49470	180113
10.50283	173978
10.51095	170401
10.51908	154938
10.52720	144833
10.53532	137736
10.54345	132996
10.55157	135369
10.55968	129469
10.56782	133226
10.57593	124804
10.58407	118531
10.59218	117087
10.60030	107560
10.60843	106733
10.61655	104093
10.62468	102409
10.63280	101463
10.64092	95396
10.64905	90088
10.65717	95690
10.66530	94287
10.67342	88728
10.68153	101185
10.68967	91519
10.69778	86377
10.70590	92695
10.71403	85576
10.72215	84049
10.73028	80125
10.73840	79681
10.74652	73976
10.75465	76845
10.76277	74551
10.77090	73370
10.77902	67555
10.78713	72289
10.79527	75229
10.80338	72414
10.81150	74505
10.81963	72788
10.82775	70592
10.83588	66967
10.84400	64313
10.85212	63911
10.86025	63410
10.86837	59985
10.87650	64300
10.88462	61869
10.89273	64833
10.90087	61008
10.90898	61032
10.91712	56162
10.92523	56483
10.93335	60611
10.94148	57307
10.94960	57509
10.95772	57488
10.96585	53177
10.97397	54027
10.98210	60091
10.99022	53483
10.99833	55427
11.00647	51585
11.01458	53183
11.02272	52350
11.03083	47825
11.03895	48069
11.04708	50126
11.05520	51594
11.06333	53229
11.07145	51090
11.07957	54933
11.08770	55958
11.09582	58366
11.10393	57155
11.11207	55330
11.12018	53985
11.12832	49952
11.13643	49600
11.14455	48863
11.15268	46400
11.16080	46192
11.16893	45794
11.17705	45195
11.18517	49837
11.19330	47600
11.20142	48334
11.20953	48261
11.21767	54070
11.22578	43653
11.23392	43394
11.24203	47374
11.25015	59398
11.25828	71761
11.26640	87655
11.27453	102750
11.28265	113703
11.29077	122844
11.29890	135955
11.30702	174456
11.31515	234840
11.32327	308795
11.33138	383589
11.33952	399302
11.34763	372980
11.35575	305442
11.36388	236877
11.37200	179006
11.38013	147551
11.38825	132259
11.39637	125314
11.40450	120407
11.41262	114417
11.42075	114431
11.42887	109586
11.43698	97623
11.44512	94551
11.45323	91254
11.46137	90083
11.46948	93081
11.47760	95500
11.48573	107629
11.49385	121291
11.50197	123960
11.51010	115187
11.51822	116242
11.52635	111057
11.53447	101809
11.54258	92129
11.55072	90157
11.55883	75389
11.56697	77864
11.57508	76648
11.58320	69984
11.59133	76659
11.59945	85646
11.60757	92292
11.61570	98122
11.62382	92455
11.63195	84670
11.64007	78893
11.64818	73787
11.65632	68208
11.66443	68980
11.67257	66416
11.68068	68942
11.68880	75327
11.69693	78645
11.70505	80409
11.71318	82479
11.72130	84556
11.72942	78109
11.73755	73917
11.74567	71731
11.75378	68024
11.76192	66561
11.77003	58870
11.77817	63577
11.78628	58491
11.79440	57537
11.80253	57782
11.81065	53905
11.81878	54240
11.82690	58749
11.83502	53115
11.84315	59879
11.85127	51827
11.85938	56508
11.86752	50720
11.87563	50211
11.88377	50566
11.89188	53118
11.90000	59106
11.90813	63683
11.91625	70461
11.92438	71712
11.93250	77847
11.94062	66259
11.94875	66107
11.95687	57965
11.96500	51472
11.97312	50231
11.98123	50524
11.98937	54076
11.99748	58101
12.00560	59598
12.01373	63424
12.02185	60361
12.02998	59163
12.03810	54331
12.04622	53640
12.05435	52205
12.06247	53232
12.07060	54858
12.07872	56588
12.08683	53231
12.09497	52858
12.10308	49818
12.11122	50014
12.11933	51026
12.12745	51523
12.13558	49957
12.14370	47679
12.15182	48072
12.15995	45273
12.16807	45332
12.17620	44362
12.18432	43029
12.19243	46304
12.20057	50284
12.20868	45466
12.21682	47334
12.22493	41104
12.23305	42005
12.24118	41562
12.24930	43853
12.25742	43743
12.26555	43254
12.27367	40748
12.28180	45701
12.28992	41631
12.29803	41244
12.30617	42835
12.31428	38183
12.32242	40018
12.33053	39684
12.33865	39106
12.34678	39042
12.35490	38479
12.36303	41898
12.37115	39222
12.37927	40796
12.38740	45830
12.39552	48011
12.40363	60756
12.41177	65856
12.41988	70459
12.42802	67323
12.43613	59238
12.44425	54651
12.45238	47118
12.46050	47188
12.46863	48272
12.47675	44546
12.48487	40761
12.49300	43868
12.50112	40338
12.50925	37898
12.51737	42282
12.52548	48392
12.53362	55839
12.54173	85314
12.54985	111154
12.55798	147655
12.56610	164098
12.57423	144226
12.58235	117169
12.59047	87962
12.59860	72599
12.60672	60867
12.61485	56183
12.62297	53955
12.63108	49376
12.63922	48487
12.64733	47991
12.65545	50043
12.66358	43761
12.67170	46630
12.67983	40440
12.68795	43155
12.69607	40381
12.70420	40778
12.71232	39746
12.72045	36648
12.72857	39769
12.73668	40592
12.74482	38629
12.75293	40464
12.76107	39885
12.76918	45542
12.77730	43352
12.78543	45766
12.79355	45863
12.80167	45047
12.80980	42715
12.81792	38464
12.82605	38313
12.83417	41696
12.84228	40883
12.85042	44512
12.85853	37115
12.86667	34632
12.87478	41457
12.88290	34601
12.89103	37909
12.89915	34005
12.90727	37549
12.91540	39677
12.92352	48483
12.93165	53987
12.93977	67769
12.94788	82692
12.95602	104043
12.96413	116149
12.97227	116877
12.98038	115234
12.98850	103017
12.99663	87316
13.00475	73116
13.01288	60696
13.02100	58703
13.02912	62671
13.03725	60054
13.04537	52254
13.05348	52130
13.06162	53883
13.06973	46244
13.07787	48184
13.08598	45510
13.09410	41738
13.10223	41505
13.11035	44790
13.11848	43051
13.12660	47400
13.13472	43413
13.14285	40068
13.15097	41156
13.15910	46300
13.16722	43420
13.17533	43226
13.18347	41209
13.19158	43295
13.19970	41457
13.20783	46198
13.21595	43054
13.22408	45739
13.23220	46805
13.24032	49713
13.24845	49124
13.25657	51329
13.26470	54429
13.27282	51458
13.28093	51205
13.28907	46219
13.29718	49114
13.30532	50974
13.31343	49616
13.32155	50517
13.32968	43805
13.33780	48205
13.34592	48265
13.35405	44430
13.36217	42868
13.37030	44500
13.37842	43617
13.38653	40783
13.39467	48285
13.40278	40816
13.41092	39678
13.41903	39953
13.42715	39821
13.43528	37342
13.44340	37994
13.45152	32225
13.45965	40580
13.46777	39703
13.47590	37535
13.48402	37139
13.49213	35328
13.50027	34333
13.50838	36655
13.51652	43094
13.52463	41902
13.53275	45250
13.54088	45077
13.54900	46739
13.55713	50818
13.56525	44981
13.57337	46960
13.58150	47482
13.58962	54538
13.59773	68505
13.60587	81043
13.61398	92681
13.62212	99637
13.63023	91917
13.63835	84284
13.64648	67718
13.65460	60106
13.66273	51529
13.67085	54001
13.67897	48401
13.68710	47379
13.69522	49026
13.70333	45554
13.71147	45735
13.71958	40600
13.72772	43265
13.73583	44524
13.74395	50529
13.75208	59722
13.76020	75331
13.76833	86506
13.77645	97841
13.78457	111807
13.79270	128939
13.80082	137871
13.80895	151116
13.81707	162795
13.82518	172819
13.83332	175662
13.84143	148035
13.84955	130565
13.85768	109024
13.86580	99657
13.87393	86629
13.88205	85498
13.89017	77537
13.89830	73734
13.90642	71250
13.91455	70843
13.92267	61441
13.93078	59359
13.93892	57082
13.94703	55908
13.95517	55889
13.96328	54778
13.97140	64091
13.97953	56250
13.98765	54502
13.99577	60958
14.00390	55137
14.01202	52772
14.02015	49897
14.02827	51864
14.03638	52146
14.04452	50887
14.05263	45166
14.06077	49134
14.06888	42339
14.07700	45239
14.08513	40065
14.09325	41267
14.10137	41834
14.10950	47665
14.11762	58551
14.12575	80711
14.13387	109114
14.14198	144864
14.15012	184613
14.15823	194152
14.16637	194029
14.17448	183322
14.18260	157628
14.19073	146529
14.19885	135910
14.20698	131690
14.21510	122044
14.22322	113227
14.23135	106591
14.23947	102698
14.24758	102550
14.25572	94650
14.26383	91470
14.27197	93338
14.28008	84243
14.28820	77304
14.29633	70091
14.30445	62698
14.31258	56684
14.32070	49521
14.32882	49476
14.33695	45095
14.34507	42267
14.35320	39872
14.36132	43514
14.36943	45277
14.37757	42220
14.38568	49421
14.39380	62903
14.40193	79523
14.41005	99708
14.41818	114647
14.42630	116369
14.43442	96110
14.44255	80795
14.45067	70581
14.45880	55628
14.46692	51680
14.47503	50770
14.48317	46252
14.49128	46791
14.49940	44538
14.50753	48254
14.51565	47447
14.52378	44881
14.53190	47829
14.54002	43533
14.54815	42415
14.55627	40487
14.56440	39845
14.57252	39649
14.58063	38336
14.58877	38742
14.59688	37715
14.60502	36418
14.61313	36182
14.62125	35158
14.62938	32957
14.63750	35714
14.64562	37479
14.65375	35760
14.66187	35917
14.67000	34980
14.67812	39945
14.68623	32543
14.69437	33003
14.70248	33157
14.71062	29672
14.71873	33884
14.72685	32319
14.73498	34249
14.74310	34151
14.75122	37146
14.75935	34438
14.76747	33347
14.77560	34653
14.78372	44391
14.79183	83207
14.79997	154593
14.80808	279696
14.81622	450679
14.82433	602665
14.83245	645650
14.84058	597128
14.84870	464906
14.85683	335099
14.86495	245791
14.87307	193559
14.88120	160484
14.88932	144247
14.89743	122992
14.90557	117894
14.91368	105904
14.92182	99937
14.92993	95640
14.93805	89223
14.94618	85888
14.95430	78895
14.96243	78115
14.97055	72448
14.97867	72842
14.98680	70949
14.99492	70945
15.00305	72727
15.01117	66877
15.01928	61815
15.02742	60358
15.03553	59357
15.04365	58261
15.05178	55799
15.05990	55673
15.06803	54616
15.07615	53224
15.08427	53382
15.09240	52926
15.10052	53862
15.10865	49428
15.11677	50242
15.12488	48746
15.13302	55250
15.14113	49000
15.14925	53267
15.15738	50870
15.16550	47260
15.17363	45566
15.18175	43445
15.18987	43008
15.19800	41163
15.20612	45017
15.21425	41515
15.22237	40723
15.23048	38945
15.23862	43194
15.24673	39691
15.25487	41879
15.26298	40095
15.27110	39033
15.27923	38675
15.28735	34792
15.29547	35677
15.30360	36534
15.31172	40665
15.31985	36699
15.32797	34469
15.33608	35889
15.34422	34076
15.35233	36585
15.36047	33926
15.36858	37572
15.37670	37094
15.38483	34718
15.39295	37313
15.40108	33096
15.40920	34950
15.41732	34939
15.42545	32161
15.43357	34018
15.44168	35590
15.44982	44136
15.45793	48674
15.46607	60371
15.47418	74919
15.48230	90859
15.49043	115291
15.49855	120660
15.50668	117327
15.51480	118187
15.52292	119428
15.53105	126456
15.53917	130556
15.54728	127444
15.55542	119224
15.56353	97929
15.57167	81443
15.57978	70798
15.58790	64248
15.59603	61271
15.60415	56146
15.61228	53212
15.62040	46908
15.62852	48258
15.63665	47169
15.64477	48213
15.65290	45828
15.66102	45280
15.66913	44205
15.67727	44239
15.68538	47672
15.69350	40636
15.70163	43724
15.70975	39854
15.71788	35818
15.72600	39761
15.73412	39394
15.74225	44018
15.75037	41481
15.75850	51476
15.76662	61965
15.77473	74475
15.78287	79205
15.79098	81895
15.79910	72624
15.80723	64341
15.81535	58092
15.82348	52205
15.83160	47205
15.83972	48260
15.84785	45647
15.85597	44425
15.86410	44861
15.87222	42250
15.88033	38588
15.88847	40009
15.89658	38957
15.90472	39214
15.91283	41483
15.92095	37358
15.92908	38467
15.93720	42064
15.94532	39200
15.95345	36507
15.96157	41032
15.96970	37383
15.97782	37353
15.98593	37264
15.99407	40031
16.00218	39361
16.01032	41119
16.01843	39221
16.02655	40467
16.03468	35468
16.04280	38411
16.05093	38943
16.05905	37637
16.06717	37300
16.07530	36443
16.08342	32140
16.09153	33668
16.09967	36887
16.10778	37047
16.11592	39368
16.12403	38081
16.13215	36993
16.14028	38930
16.14840	35473
16.15653	36962
16.16465	36532
16.17277	36194
16.18090	37578
16.18902	33605
16.19713	36005
16.20527	37061
16.21338	34044
16.22152	36473
16.22963	32705
16.23775	33330
16.24588	35387
16.25400	34170
16.26213	36293
16.27025	41533
16.27837	39159
16.28650	37849
16.29462	38239
16.30275	37117
16.31087	37857
16.31898	35626
16.32712	38199
16.33523	38110
16.34335	41392
16.35148	34854
16.35960	39736
16.36773	38070
16.37585	40878
16.38397	41543
16.39210	37738
16.40022	39002
16.40835	35314
16.41647	34634
16.42458	37435
16.43272	39330
16.44083	41559
16.44897	52146
16.45708	61606
16.46520	80668
16.47333	89241
16.48145	92435
16.48957	86860
16.49770	73253
16.50582	60932
16.51395	62463
16.52207	48316
16.53018	47530
16.53832	44950
16.54643	43860
16.55457	39833
16.56268	38480
16.57080	44141
16.57893	41487
16.58705	41224
16.59517	42172
16.60330	40725
16.61142	39644
16.61955	38195
16.62767	40329
16.63578	37479
16.64392	40318
16.65203	34952
16.66017	34825
16.66828	37580
16.67640	35713
16.68453	37079
16.69265	37048
16.70078	35780
16.70890	39830
16.71702	39404
16.72515	32420
16.73327	33202
16.74138	34666
16.74952	33580
16.75763	33372
16.76577	31506
16.77388	32449
16.78200	31518
16.79013	32217
16.79825	32867
16.80638	34107
16.81450	31644
16.82262	35044
16.83075	31671
16.83887	35033
16.84700	30439
16.85512	31388
16.86323	30126
16.87137	31684
16.87948	29725
16.88760	29949
16.89573	32122
16.90385	33084
16.91198	31156
16.92010	29878
16.92822	28873
16.93635	31325
16.94447	30671
16.95260	31212
16.96072	32125
16.96883	31641
16.97697	29901
16.98508	30428
16.99320	30700
17.00133	26459
17.00945	31133
17.01758	29266
17.02570	29035
17.03382	32437
17.04195	37948
17.05007	31048
17.05820	32676
17.06632	33984
17.07443	33278
17.08257	31404
17.09068	36440
17.09882	40604
17.10693	36827
17.11505	35437
17.12318	37213
17.13130	37280
17.13942	38743
17.14755	37067
17.15567	37743
17.16380	35905
17.17192	35649
17.18003	33708
17.18817	35055
17.19628	31639
17.20442	36000
17.21253	32021
17.22065	28994
17.22878	32213
17.23690	31061
17.24502	28979
17.25315	31341
17.26127	31602
17.26940	34125
17.27752	28725
17.28563	32254
17.29377	27943
17.30188	34026
17.31002	34707
17.31813	34142
17.32625	36096
17.33438	41496
17.34250	41824
17.35063	42674
17.35875	40725
17.36687	40111
17.37500	41529
17.38312	42771
17.39123	47220
17.39937	45625
17.40748	44212
17.41562	47384
17.42373	43947
17.43185	42166
17.43998	43760
17.44810	41744
17.45623	40078
17.46435	38748
17.47247	34583
17.48060	38008
17.48872	38503
17.49685	43042
17.50497	40314
17.51308	44191
17.52122	42913
17.52933	52916
17.53745	53399
17.54558	52937
17.55370	54460
17.56183	59752
17.56995	78198
17.57807	89165
17.58620	99029
17.59432	110156
17.60245	112489
17.61057	102585
17.61868	94010
17.62682	78562
17.63493	68381
17.64305	57609
17.65118	61433
17.65930	57097
17.66743	51064
17.67555	52689
17.68367	49440
17.69180	49968
17.69992	47453
17.70805	49654
17.71617	48966
17.72428	55513
17.73242	46644
17.74053	47247
17.74867	43874
17.75678	42116
17.76490	42162
17.77303	42453
17.78115	42658
17.78927	41992
17.79740	38661
17.80552	36914
17.81365	43941
17.82177	41806
17.82988	44135
17.83802	44440
17.84613	46686
17.85427	47291
17.86238	46553
17.87050	46030
17.87863	45605
17.88675	45124
17.89488	41009
17.90300	38997
17.91112	34561
17.91925	34337
17.92737	33930
17.93548	36043
17.94362	35928
17.95173	32680
17.95987	32016
17.96798	32308
17.97610	30239
17.98423	34680
17.99235	37149
18.00048	39538
18.00860	38824
18.01672	43341
18.02485	45007
18.03297	47390
18.04108	46518
18.04922	47264
18.05733	42718
18.06547	45702
18.07358	44911
18.08170	45907
18.08983	53139
18.09795	60723
18.10608	55822
18.11420	52521
18.12232	55618
18.13045	56431
18.13857	52856
18.14670	50095
18.15482	53558
18.16293	47371
18.17107	47729
18.17918	45783
18.18730	39963
18.19543	46000
18.20355	44920
18.21168	50682
18.21980	69036
18.22792	94282
18.23605	113424
18.24417	128034
18.25230	148438
18.26042	149711
18.26853	162383
18.27667	166953
18.28478	167021
18.29290	171853
18.30103	168881
18.30915	172764
18.31728	176114
18.32540	177072
18.33352	173281
18.34165	177326
18.34977	178689
18.35790	169276
18.36602	174969
18.37413	176134
18.38227	170872
18.39038	174997
18.39852	173894
18.40663	167251
18.41475	168395
18.42288	181217
18.43100	173218
18.43912	177583
18.44725	176422
18.45537	194865
18.46350	189212
18.47162	197464
18.47973	193614
18.48787	181735
18.49598	174712
18.50412	171170
18.51223	156858
18.52035	154315
18.52848	153279
18.53660	144266
18.54473	141006
18.55285	142037
18.56097	136233
18.56910	141519
18.57722	140862
18.58533	145057
18.59347	139282
18.60158	145439
18.60972	140858
18.61783	140553
18.62595	137776
18.63408	136931
18.64220	129861
18.65033	128030
18.65845	118540
18.66657	114543
18.67470	111076
18.68282	108770
18.69095	111371
18.69907	111317
18.70718	107146
18.71532	110212
18.72343	104748
18.73155	105663
18.73968	102473
18.74780	98876
18.75593	104164
18.76405	98499
18.77217	92134
18.78030	90866
18.78842	89453
18.79655	91504
18.80467	90890
18.81278	86783
18.82092	88125
18.82903	87158
18.83715	84728
18.84528	86036
18.85340	86647
18.86153	87368
18.86965	84975
18.87777	84599
18.88590	87877
18.89402	81430
18.90215	79148
18.91027	81417
18.91838	79506
18.92652	83097
18.93463	83113
18.94277	80896
18.95088	80677
18.95900	80037
18.96713	72872
18.97525	75443
18.98337	70832
18.99150	75352
18.99962	72008
19.00775	73345
19.01587	71688
19.02398	62661
19.03212	65753
19.04023	66096
19.04837	67929
19.05648	63871
19.06460	69130
19.07273	74297
19.08085	84256
19.08897	88086
19.09710	98574
19.10522	101947
19.11335	101109
19.12147	102489
19.12958	102625
19.13772	95609
19.14583	95115
19.15397	92674
19.16208	91051
19.17020	88799
19.17833	83494
19.18645	76309
19.19458	79749
19.20270	71824
19.21082	68826
19.21895	65015
19.22707	70055
19.23518	62323
19.24332	60345
19.25143	61727
19.25957	58753
19.26768	64335
19.27580	58120
19.28393	59684
19.29205	58886
19.30018	62222
19.30830	61709
19.31642	64364
19.32455	60059
19.33267	62379
19.34080	62769
19.34892	59344
19.35703	66976
19.36517	66916
19.37328	63977
19.38140	65173
19.38953	65011
19.39765	62826
19.40578	66552
19.41390	78028
19.42202	99743
19.43015	136198
19.43827	163697
19.44640	188428
19.45452	174092
19.46263	153409
19.47077	119597
19.47888	93901
19.48700	82579
19.49513	65150
19.50325	65850
19.51138	63805
19.51950	65862
19.52762	58576
19.53575	54191
19.54387	60949
19.55200	56453
19.56012	53674
19.56823	53040
19.57637	48636
19.58448	48069
19.59262	48062
19.60073	44759
19.60885	53937
19.61698	62455
19.62510	79267
19.63322	109730
19.64135	142603
19.64947	169161
19.65760	191200
19.66572	194210
19.67383	183484
19.68197	160346
19.69008	140625
19.69822	126081
19.70633	108780
19.71445	98005
19.72258	91588
19.73070	83367
19.73883	75817
19.74695	68710
19.75507	69101
19.76320	65258
19.77132	67146
19.77943	67181
19.78757	66214
19.79568	68347
19.80382	66147
19.81193	62394
19.82005	62512
19.82818	58462
19.83630	58370
19.84443	54410
19.85255	55561
19.86067	61297
19.86880	59760
19.87692	71101
19.88503	81132
19.89317	99613
19.90128	110945
19.90942	125807
19.91753	129774
19.92565	132401
19.93378	130004
19.94190	121461
19.95003	113427
19.95815	110975
19.96627	99211
19.97440	99825
19.98252	105285
19.99065	93848
19.99877	97341
20.00688	89354
20.01502	82551
20.02313	85745
20.03125	82107
20.03938	82117
20.04750	79544
20.05563	80079
20.06375	83354
20.07187	80175
20.08000	78525
20.08812	74198
20.09625	73959
20.10437	69515
20.11248	65740
20.12062	66277
20.12873	67666
20.13685	75177
20.14498	82876
20.15310	105612
20.16123	127508
20.16935	152758
20.17747	168613
20.18560	176839
20.19372	172450
20.20185	167932
20.20997	145634
20.21808	138065
20.22622	146144
20.23433	168385
20.24247	195012
20.25058	222600
20.25870	233109
20.26683	224400
20.27495	207166
20.28307	185166
20.29120	158839
20.29932	127280
20.30745	107884
20.31557	87447
20.32368	77714
20.33182	71403
20.33993	69864
20.34807	68331
20.35618	59968
20.36430	54703
20.37243	54484
20.38055	57951
20.38868	63485
20.39680	69343
20.40492	76770
20.41305	78603
20.42117	82506
20.42928	79068
20.43742	72197
20.44553	65529
20.45367	62576
20.46178	56756
20.46990	55274
20.47803	53487
20.48615	48539
20.49428	51254
20.50240	52656
20.51052	44181
20.51865	47170
20.52677	45995
20.53488	49296
20.54302	43869
20.55113	42578
20.55927	43506
20.56738	44495
20.57550	41176
20.58363	46052
20.59175	43476
20.59988	44344
20.60800	40766
20.61612	41990
20.62425	40781
20.63237	45244
20.64050	48558
20.64862	41464
20.65673	41008
20.66487	45327
20.67298	44422
20.68110	39457
20.68923	40015
20.69735	40223
20.70548	37217
20.71360	37918
20.72172	36267
20.72985	39808
20.73797	40462
20.74610	39446
20.75422	41366
20.76233	42740
20.77047	47434
20.77858	53479
20.78672	69106
20.79483	83911
20.80295	98708
20.81108	106268
20.81920	104022
20.82732	92640
20.83545	84096
20.84357	68499
20.85170	60833
20.85982	53908
20.86793	49056
20.87607	46689
20.88418	48646
20.89232	46868
20.90043	48738
20.90855	55942
20.91668	49173
20.92480	50046
20.93292	46738
20.94105	46422
20.94917	44630
20.95730	41707
20.96542	39956
20.97353	39594
20.98167	41436
20.98978	41328
20.99792	37662
21.00603	37843
21.01415	39142
21.02228	39754
21.03040	40718
21.03853	41277
21.04665	41445
21.05477	39982
21.06290	43629
21.07102	41585
21.07913	41806
21.08727	37925
21.09538	38445
21.10352	41012
21.11163	35569
21.11975	38650
21.12788	45414
21.13600	43408
21.14413	50108
21.15225	51918
21.16037	54845
21.16850	57073
21.17662	48460
21.18475	49326
21.19287	46196
21.20098	40921
21.20912	42029
21.21723	44113
21.22535	38006
21.23348	40000
21.24160	39928
21.24973	39201
21.25785	40152
21.26597	39379
21.27410	40962
21.28222	36592
21.29035	40633
21.29847	43655
21.30658	43069
21.31472	44185
21.32283	45351
21.33095	42721
21.33908	42211
21.34720	46847
21.35533	46048
21.36345	45544
21.37157	47954
21.37970	50872
21.38782	49994
21.39595	54758
21.40407	52804
21.41218	52050
21.42032	51115
21.42843	51631
21.43657	48859
21.44468	47860
21.45280	53881
21.46093	49406
21.46905	45925
21.47717	49275
21.48530	47968
21.49342	46302
21.50155	42743
21.50967	46370
21.51778	47452
21.52592	42397
21.53403	44475
21.54217	44790
21.55028	45970
21.55840	48873
21.56653	56149
21.57465	62161
21.58277	73505
21.59090	79602
21.59902	73151
21.60715	75142
21.61527	73466
21.62338	65990
21.63152	57811
21.63963	52687
21.64777	56714
21.65588	53225
21.66400	50491
21.67213	52574
21.68025	48716
21.68838	49454
21.69650	45007
21.70462	40993
21.71275	44253
21.72087	42304
21.72898	44777
21.73712	42091
21.74523	39956
21.75337	47646
21.76148	55049
21.76960	60040
21.77773	67025
21.78585	71306
21.79398	72577
21.80210	74510
21.81022	64579
21.81835	56561
21.82647	49409
21.83460	44569
21.84272	47573
21.85083	44811
21.85897	42811
21.86708	42006
21.87520	44883
21.88333	39803
21.89145	38223
21.89958	38384
21.90770	37100
21.91582	35007
21.92395	36566
21.93207	36062
21.94020	36035
21.94832	37155
21.95643	37191
21.96457	33441
21.97268	37802
21.98080	37624
21.98893	41921
21.99705	52221
22.00518	68690
22.01330	76041
22.02142	81920
22.02955	80454
22.03767	79907
22.04580	83667
22.05392	89461
22.06203	85167
22.07017	93969
22.07828	88715
22.08642	97203
22.09453	90420
22.10265	91740
22.11078	84940
22.11890	93947
22.12702	85658
22.13515	86373
22.14327	82650
22.15140	81483
22.15952	89187
22.16763	92145
22.17577	93430
22.18388	91695
22.19202	90810
22.20013	83776
22.20825	80631
22.21638	75187
22.22450	76997
22.23263	73348
22.24075	73688
22.24887	70713
22.25700	69970
22.26512	74435
22.27323	68809
22.28137	72784
22.28948	71101
22.29762	70568
22.30573	72413
22.31385	70332
22.32198	70324
22.33010	63633
22.33823	65465
22.34635	66405
22.35447	64446
22.36260	59899
22.37072	59263
22.37883	66489
22.38697	67386
22.39508	72231
22.40322	72453
22.41133	75023
22.41945	72834
22.42758	71621
22.43570	68455
22.44383	62255
22.45195	61884
22.46007	58005
22.46820	60667
22.47632	61883
22.48445	63703
22.49257	64958
22.50068	65510
22.50882	61942
22.51693	59015
22.52505	53565
22.53318	56600
22.54130	58412
22.54943	52142
22.55755	48360
22.56567	52162
22.57380	50584
22.58192	45942
22.59005	46037
22.59817	45958
22.60628	47890
22.61442	43710
22.62253	44668
22.63065	43295
22.63878	47996
22.64690	44056
22.65503	42421
22.66315	42268
22.67127	43057
22.67940	45647
22.68752	45648
22.69565	47280
22.70377	47663
22.71188	46454
22.72002	45999
22.72813	48094
22.73627	49767
22.74438	49466
22.75250	46183
22.76063	44192
22.76875	44840
22.77687	42336
22.78500	39794
22.79312	44560
22.80125	44499
22.80937	43203
22.81748	42636
22.82562	43370
22.83373	44420
22.84187	47728
22.84998	52955
22.85810	54574
22.86623	58834
22.87435	62066
22.88248	75146
22.89060	86241
22.89872	106592
22.90685	142041
22.91497	194930
22.92308	247809
22.93122	267122
22.93933	277353
22.94747	275508
22.95558	254637
22.96370	231025
22.97183	196623
22.97995	184023
22.98808	162060
22.99620	149304
23.00432	119395
23.01245	107598
23.02057	82712
23.02868	74313
23.03682	68112
23.04493	62661
23.05307	61428
23.06118	57451
23.06930	57185
23.07743	54704
23.08555	53207
23.09368	55628
23.10180	56841
23.10992	52197
23.11805	45421
23.12617	49731
23.13430	47121
23.14242	46850
23.15053	43226
23.15867	43110
23.16678	43113
23.17490	40920
23.18303	39541
23.19115	41171
23.19928	39895
23.20740	38600
23.21552	38477
23.22365	36586
23.23177	36893
23.23990	39406
23.24802	45236
23.25613	43170
23.26427	43697
23.27238	36949
23.28052	40385
23.28863	40798
23.29675	40607
23.30488	41107
23.31300	41890
23.32112	41668
23.32925	52132
23.33737	47037
23.34550	46300
23.35362	49859
23.36173	51607
23.36987	49863
23.37798	48423
23.38612	47253
23.39423	43593
23.40235	43292
23.41048	39656
23.41860	39417
23.42672	36672
23.43485	40425
23.44297	36746
23.45110	37618
23.45922	37560
23.46733	36757
23.47547	34254
23.48358	36462
23.49172	36103
23.49983	35519
23.50795	33541
23.51608	32463
23.52420	34822
23.53233	38191
23.54045	38700
23.54857	42102
23.55670	41766
23.56482	53141
23.57293	62330
23.58107	68473
23.58918	74830
23.59732	80466
23.60543	80085
23.61355	70573
23.62168	76034
23.62980	60139
23.63793	60183
23.64605	60777
23.65417	58258
23.66230	60129
23.67042	64004
23.67853	61345
23.68667	60474
23.69478	53631
23.70292	53809
23.71103	52307
23.71915	59574
23.72728	80380
23.73540	154906
23.74353	323203
23.75165	758673
23.75977	1660944
23.76790	3038199
23.77602	4093914
23.78415	4342848
23.79227	4018770
23.80038	3366443
23.80852	2590568
23.81663	1872952
23.82475	1382861
23.83288	1055712
23.84100	846354
23.84913	697392
23.85725	595875
23.86537	517082
23.87350	461655
23.88162	424667
23.88975	386047
23.89787	347665
23.90598	334665
23.91412	315661
23.92223	283616
23.93037	281819
23.93848	260644
23.94660	252834
23.95473	233493
23.96285	236196
23.97097	219322
23.97910	212852
23.98722	204532
23.99535	205408
24.00347	208579
24.01158	216963
24.01972	238551
24.02783	241578
24.03597	246801
24.04408	226373
24.05220	216633
24.06033	192271
24.06845	186287
24.07658	170546
24.08470	163103
24.09282	154218
24.10095	144074
24.10907	146449
24.11718	144039
24.12532	143481
24.13343	149242
24.14157	152826
24.14968	156843
24.15780	151624
24.16593	145213
24.17405	135085
24.18218	126997
24.19030	131263
24.19842	117954
24.20655	118552
24.21467	110773
24.22278	105506
24.23092	102264
24.23903	98713
24.24717	94944
24.25528	96600
24.26340	89652
24.27153	93422
24.27965	89766
24.28778	99498
24.29590	106319
24.30402	137223
24.31215	162480
24.32027	189071
24.32840	195750
24.33652	170051
24.34463	144255
24.35277	112407
24.36088	100278
24.36900	88197
24.37713	81430
24.38525	79453
24.39338	79272
24.40150	79195
24.40962	85262
24.41775	85939
24.42587	87007
24.43400	99149
24.44212	100940
24.45023	96258
24.45837	94133
24.46648	84573
24.47460	84000
24.48273	81721
24.49085	77915
24.49898	72188
24.50710	77493
24.51522	80124
24.52335	77899
24.53147	85463
24.53960	89920
24.54772	88694
24.55583	88276
24.56397	86227
24.57208	85341
24.58022	73152
24.58833	70589
24.59645	68311
24.60458	67402
24.61270	62548
24.62082	63914
24.62895	67675
24.63707	63511
24.64520	66888
24.65332	62760
24.66143	65699
24.66957	70183
24.67768	64089
24.68582	60947
24.69393	57944
24.70205	54434
24.71018	56729
24.71830	55418
24.72643	54898
24.73455	54544
24.74267	52525
24.75080	60085
24.75892	57329
24.76703	52631
24.77517	53289
24.78328	52651
24.79142	56693
24.79953	55565
24.80765	54271
24.81578	55800
24.82390	57708
24.83203	61260
24.84015	66150
24.84827	73996
24.85640	82515
24.86452	96941
24.87263	111072
24.88077	118614
24.88888	115486
24.89702	105604
24.90513	92924
24.91325	79914
24.92138	70986
24.92950	60993
24.93763	60350
24.94575	51282
24.95387	53001
24.96200	57957
24.97012	63139
24.97825	77457
24.98637	92703
24.99448	103607
25.00262	116917
25.01073	115348
25.01885	112826
25.02698	116121
25.03510	113698
25.04323	114353
25.05135	110735
25.05947	125401
25.06760	117544
25.07572	112514
25.08385	118564
25.09197	139449
25.10008	174827
25.10822	224802
25.11633	338777
25.12447	448817
25.13258	564366
25.14070	610839
25.14883	613245
25.15695	538384
25.16507	418923
25.17320	307956
25.18132	243516
25.18945	204915
25.19757	181714
25.20568	147401
25.21382	141668
25.22193	129961
25.23007	135339
25.23818	142300
25.24630	146069
25.25443	154505
25.26255	155684
25.27067	150169
25.27880	148144
25.28692	141024
25.29505	142595
25.30317	141934
25.31128	137089
25.31942	135890
25.32753	125987
25.33567	117101
25.34378	108513
25.35190	102487
25.36003	97327
25.36815	90900
25.37628	93047
25.38440	93672
25.39252	93565
25.40065	92511
25.40877	95883
25.41688	85939
25.42502	84917
25.43313	77630
25.44127	79219
25.44938	70948
25.45750	69776
25.46563	72911
25.47375	68043
25.48188	65174
25.49000	68788
25.49812	65457
25.50625	65210
25.51437	67196
25.52248	63685
25.53062	62412
25.53873	59395
25.54687	65739
25.55498	58865
25.56310	61996
25.57123	66988
25.57935	58170
25.58748	57386
25.59560	57522
25.60372	58322
25.61185	56658
25.61997	52478
25.62810	55052
25.63622	57963
25.64433	53531
25.65247	54828
25.66058	52485
25.66870	49118
25.67683	56545
25.68495	50169
25.69308	54171
25.70120	52472
25.70932	52569
25.71745	49888
25.72557	50257
25.73370	49208
25.74182	51242
25.74993	50179
25.75807	50253
25.76618	51748
25.77432	50429
25.78243	52913
25.79055	49304
25.79868	51202
25.80680	46681
25.81492	43627
25.82305	46984
25.83117	47221
25.83930	47358
25.84742	48602
25.85553	46016
25.86367	42594
25.87178	53229
25.87992	43428
25.88803	43899
25.89615	46487
25.90428	45533
25.91240	46339
25.92052	45860
25.92865	49575
25.93677	46132
25.94490	48371
25.95302	47773
25.96113	49683
25.96927	47202
25.97738	44988
25.98552	44805
25.99363	44979
26.00175	43253
26.00988	43853
26.01800	43544
26.02613	41397
26.03425	40734
26.04237	42971
26.05050	47258
26.05862	41610
26.06673	44271
26.07487	45447
26.08298	44014
26.09112	47081
26.09923	49143
26.10735	48904
26.11548	50357
26.12360	57744
26.13173	55899
26.13985	61113
26.14797	61572
26.15610	62313
26.16422	61269
26.17235	55658
26.18047	54047
26.18858	53033
26.19672	48506
26.20483	47404
26.21295	47561
26.22108	47802
26.22920	43638
26.23733	42593
26.24545	41357
26.25357	44983
26.26170	41958
26.26982	42588
26.27795	39416
26.28607	55533
26.29418	43347
26.30232	42362
26.31043	43674
26.31855	43419
26.32668	42942
26.33480	42607
26.34293	46859
26.35105	45988
26.35917	51434
26.36730	55774
26.37542	59538
26.38355	65379
26.39167	67664
26.39978	63411
26.40792	59126
26.41603	55075
26.42417	55122
26.43228	48259
26.44040	48194
26.44853	43151
26.45665	45540
26.46477	43619
26.47290	45376
26.48102	42878
26.48915	38897
26.49727	43212
26.50538	40076
26.51352	42131
26.52163	42723
26.52977	39232
26.53788	40996
26.54600	40706
26.55413	40575
26.56225	43602
26.57037	40796
26.57850	39586
26.58662	38736
26.59475	40214
26.60287	38116
26.61098	40546
26.61912	39769
26.62723	36803
26.63537	39122
26.64348	43638
26.65160	38830
26.65973	44771
26.66785	42806
26.67598	43670
26.68410	43049
26.69222	47219
26.70035	42227
26.70847	41463
26.71658	39066
26.72472	40799
26.73283	43169
26.74097	41416
26.74908	39594
26.75720	47286
26.76533	45256
26.77345	49330
26.78158	42834
26.78970	46884
26.79782	45295
26.80595	48067
26.81407	41301
26.82220	43739
26.83032	42618
26.83843	40395
26.84657	40298
26.85468	37411
26.86280	41036
26.87093	38331
26.87905	39354
26.88718	37744
26.89530	38515
26.90342	41448
26.91155	36203
26.91967	43128
26.92780	44818
26.93592	55375
26.94403	68686
26.95217	105468
26.96028	169953
26.96840	277467
26.97653	398289
26.98465	537225
26.99278	641126
27.00090	702042
27.00902	677340
27.01715	616665
27.02527	520304
27.03340	426333
27.04152	324830
27.04963	266483
27.05777	215261
27.06588	175665
27.07402	154772
27.08213	129694
27.09025	116644
27.09838	116040
27.10650	110397
27.11462	99469
27.12275	95820
27.13087	90724
27.13900	93598
27.14712	90318
27.15523	85159
27.16337	85106
27.17148	81367
27.17962	81430
27.18773	80286
27.19585	73203
27.20398	70197
27.21210	64297
27.22023	68499
27.22835	63368
27.23647	62948
27.24460	62548
27.25272	59032
27.26083	60154
27.26897	55576
27.27708	59537
27.28522	56417
27.29333	57646
27.30145	53777
27.30958	52406
27.31770	53542
27.32583	51221
27.33395	61230
27.34207	55059
27.35020	50243
27.35832	53986
27.36643	53072
27.37457	54934
27.38268	56387
27.39082	52376
27.39893	50026
27.40705	50229
27.41518	53389
27.42330	54382
27.43143	53500
27.43955	56619
27.44767	55603
27.45580	53468
27.46392	52580
27.47205	45704
27.48017	48623
27.48828	44016
27.49642	44582
27.50453	47436
27.51265	49375
27.52078	46172
27.52890	52165
27.53703	56386
27.54515	51621
27.55327	51638
27.56140	49859
27.56952	47429
27.57765	49729
27.58577	45212
27.59388	46071
27.60202	50938
27.61013	45885
27.61827	45461
27.62638	44103
27.63450	43602
27.64263	46183
27.65075	46926
27.65887	43897
27.66700	49322
27.67512	47582
27.68325	48015
27.69137	45874
27.69948	44050
27.70762	45852
27.71573	51079
27.72387	47122
27.73198	44326
27.74010	45562
27.74823	48004
27.75635	49045
27.76447	42389
27.77260	41037
27.78072	45526
27.78885	40319
27.79697	46365
27.80508	45948
27.81322	42603
27.82133	44370
27.82947	42992
27.83758	42304
27.84570	42203
27.85383	41705
27.86195	43846
27.87008	42588
27.87820	38252
27.88632	39866
27.89445	35825
27.90257	40822
27.91068	42031
27.91882	39403
27.92693	38834
27.93507	38052
27.94318	40425
27.95130	37107
27.95943	37868
27.96755	37858
27.97568	39479
27.98380	42202
27.99192	41760
28.00005	44689
28.00817	46522
28.01628	51581
28.02442	53310
28.03253	55648
28.04067	55080
28.04878	53348
28.05690	54446
28.06503	48151
28.07315	47484
28.08128	46547
28.08940	47377
28.09752	49446
28.10565	57580
28.11377	60363
28.12190	56113
28.13002	61011
28.13813	50601
28.14627	46723
28.15438	44708
28.16250	40150
28.17063	41132
28.17875	40864
28.18688	40762
28.19500	38481
28.20312	44420
28.21125	43554
28.21937	42381
28.22750	42863
28.23562	44264
28.24373	44649
28.25187	52169
28.25998	62277
28.26812	76604
28.27623	94110
28.28435	112821
28.29248	133192
28.30060	149692
28.30872	157291
28.31685	168375
28.32497	164808
28.33310	174295
28.34122	156429
28.34933	141624
28.35747	130640
28.36558	122926
28.37372	114337
28.38183	104135
28.38995	94543
28.39808	86558
28.40620	79051
28.41432	76599
28.42245	71900
28.43057	66766
28.43870	61966
28.44682	58360
28.45493	56819
28.46307	54761
28.47118	53905
28.47932	53167
28.48743	49404
28.49555	51111
28.50368	48956
28.51180	49406
28.51993	52463
28.52805	50020
28.53617	47717
28.54430	47508
28.55242	42765
28.56053	42168
28.56867	46776
28.57678	45615
28.58492	43637
28.59303	45360
28.60115	44667
28.60928	43778
28.61740	45244
28.62553	52112
28.63365	58371
28.64177	64045
28.64990	71793
28.65802	79243
28.66615	88524
28.67427	97550
28.68238	110786
28.69052	110139
28.69863	104829
28.70675	90598
28.71488	68223
28.72300	58676
28.73113	49162
28.73925	44590
28.74737	41892
28.75550	40450
28.76362	40936
28.77175	43365
28.77987	40891
28.78798	46178
28.79612	43421
28.80423	44842
28.81235	42824
28.82048	44847
28.82860	40887
28.83673	38924
28.84485	40465
28.85297	40600
28.86110	39267
28.86922	39933
28.87735	42713
28.88547	43960
28.89358	41910
28.90172	42203
28.90983	42178
28.91797	43465
28.92608	43775
28.93420	44687
28.94233	50750
28.95045	48716
28.95857	52105
28.96670	46381
28.97482	46210
28.98295	38941
28.99107	40441
28.99918	36339
29.00732	35560
29.01543	43585
29.02357	36213
29.03168	43531
29.03980	40419
29.04793	39594
29.05605	37402
29.06417	38448
29.07230	36772
29.08042	34825
29.08855	37688
29.09667	35989
29.10478	39990
29.11292	35370
29.12103	33311
29.12917	37367
29.13728	42725
29.14540	37989
29.15353	34272
29.16165	38486
29.16978	38963
29.17790	37591
29.18602	35936
29.19415	43656
29.20227	43488
29.21038	47771
29.21852	46742
29.22663	46493
29.23477	48536
29.24288	50438
29.25100	54634
29.25913	55884
29.26725	59747
29.27538	48620
29.28350	40656
29.29162	43673
29.29975	42489
29.30787	38331
29.31600	40174
29.32412	39830
29.33223	35831
29.34037	36955
29.34848	37128
29.35660	35446
29.36473	34440
29.37285	40023
29.38098	42382
29.38910	40841
29.39722	43486
29.40535	45819
29.41347	46033
29.42160	44044
29.42972	39574
29.43783	37601
29.44597	37585
29.45408	35078
29.46222	38239
29.47033	38037
29.47845	43035
29.48658	43137
29.49470	48703
29.50282	46233
29.51095	46330
29.51907	47323
29.52720	42187
29.53532	41020
29.54343	37060
29.55157	35444
29.55968	36269
29.56782	35253
29.57593	34894
29.58405	37083
29.59218	38507
29.60030	37950
29.60842	36501
29.61655	39703
29.62467	36589
29.63280	34353
29.64092	34606
29.64903	35626
29.65717	34633
29.66528	35282
29.67342	33692
29.68153	34206
29.68965	34576
29.69778	35046
29.70590	34732
29.71403	33184
29.72215	33542
29.73027	34341
29.73840	36208
29.74652	32985
29.75463	34553
29.76277	36206
29.77088	31633
29.77902	32141
29.78713	32045
29.79525	33078
29.80338	33344
29.81150	34194
29.81963	31609
29.82775	34792
29.83587	32943
29.84400	36694
29.85212	33206
29.86023	41455
29.86837	48915
29.87648	56678
29.88462	67699
29.89273	76394
29.90085	82980
29.90898	91613
29.91710	96590
29.92523	98220
29.93335	97808
29.94147	99391
29.94960	107284
29.95772	104261
29.96585	105593
29.97397	103092
29.98208	97411
29.99022	102222
29.99833	86375
30.00645	90035
30.01458	82655
30.02270	73780
30.03083	73339
30.03895	68934
30.04707	68029
30.05520	69191
30.06332	68527
30.07145	63357
30.07957	62911
30.08768	62353
30.09582	61626
30.10393	60901
30.11207	58755
30.12018	60346
30.12830	55874
30.13643	60212
30.14455	59701
30.15267	59797
30.16080	56756
30.16892	54975
30.17705	58804
30.18517	55271
30.19328	52629
30.20142	50433
30.20953	48062
30.21767	49951
30.22578	49004
30.23390	48949
30.24203	47916
30.25015	46111
30.25827	48577
30.26640	48571
30.27452	46919
30.28265	48857
30.29077	48654
30.29888	43911
30.30702	45380
30.31513	46834
30.32327	46535
30.33138	44518
30.33950	44103
30.34763	45274
30.35575	42960
30.36388	42747
30.37200	39484
30.38012	41308
30.38825	43510
30.39637	43065
30.40448	37676
30.41262	47087
30.42073	40692
30.42887	40318
30.43698	40720
30.44510	38723
30.45323	38492
30.46135	40143
30.46948	39863
30.47760	39743
30.48572	37287
30.49385	40098
30.50197	42324
30.51010	37646
30.51822	39990
30.52633	36702
30.53447	37348
30.54258	37957
30.55070	38638
30.55883	41068
30.56695	41248
30.57508	40317
30.58320	40168
30.59132	40665
30.59945	43199
30.60757	40302
30.61570	41826
30.62382	38582
30.63193	40602
30.64007	38655
30.64818	39374
30.65630	38111
30.66443	41013
30.67255	37550
30.68068	38851
30.68880	40757
30.69692	40368
30.70505	38003
30.71317	43957
30.72130	38192
30.72942	39330
30.73753	41166
30.74567	40325
30.75378	44584
30.76192	43680
30.77003	45975
30.77815	52350
30.78628	54196
30.79440	61608
30.80252	61831
30.81065	59884
30.81877	55126
30.82690	51165
30.83502	52669
30.84313	47913
30.85127	44212
30.85938	44198
30.86752	44809
30.87563	43211
30.88375	47598
30.89188	47495
30.90000	44953
30.90812	45822
30.91625	44518
30.92437	41593
30.93250	42487
30.94062	43089
30.94873	44567
30.95687	44234
30.96498	41937
30.97312	40115
30.98123	42353
30.98935	44799
30.99748	44970
31.00560	42343
31.01373	45559
31.02185	43233
31.02997	43432
31.03810	38619
31.04622	45369
31.05433	42872
31.06247	44051
31.07058	51546
31.07872	58735
31.08683	66014
31.09495	61710
31.10308	67269
31.11120	56667
31.11933	49309
31.12745	48675
31.13557	46270
31.14370	46807
31.15182	45584
31.15995	43919
31.16807	51806
31.17618	53812
31.18432	55910
31.19243	60296
31.20055	63455
31.20868	60405
31.21680	63008
31.22493	59637
31.23305	51449
31.24117	48278
31.24930	45802
31.25742	39598
31.26555	38193
31.27367	39632
31.28178	44548
31.28992	40032
31.29803	42551
31.30615	43380
31.31428	44851
31.32240	44025
31.33053	46824
31.33865	44234
31.34677	40917
31.35490	40144
31.36302	39617
31.37115	39401
31.37927	39072
31.38738	41104
31.39552	41642
31.40363	41395
31.41177	40351
31.41988	39952
31.42800	36930
31.43613	38430
31.44425	35476
31.45237	37022
31.46050	34784
31.46862	33912
31.47675	40346
31.48487	37323
31.49298	39930
31.50112	37709
31.50923	39209
31.51737	40405
31.52548	40042
31.53360	36989
31.54173	39530
31.54985	40553
31.55798	35975
31.56610	34513
31.57422	36227
31.58235	35642
31.59047	39115
31.59858	35996
31.60672	37758
31.61483	36705
31.62297	39840
31.63108	39531
31.63920	44835
31.64733	42340
31.65545	40979
31.66358	39357
31.67170	42083
31.67982	38302
31.68795	37977
31.69607	37887
31.70418	39890
31.71232	38437
31.72043	37635
31.72857	34938
31.73668	38190
31.74480	37219
31.75293	40145
31.76105	41468
31.76918	38412
31.77730	41144
31.78542	47353
31.79355	46609
31.80167	49788
31.80980	50825
31.81792	58535
31.82603	59306
31.83417	68194
31.84228	81023
31.85040	99234
31.85853	100785
31.86665	110789
31.87478	121737
31.88290	118010
31.89102	112490
31.89915	108880
31.90727	97022
31.91540	98393
31.92352	92093
31.93163	86264
31.93977	83386
31.94788	82083
31.95600	83089
31.96413	86557
31.97225	82468
31.98038	81773
31.98850	79377
31.99662	76047
32.00475	64133
32.01287	60940
32.02100	58355
32.02912	56264
32.03723	51811
32.04537	54805
32.05348	53498
32.06162	50499
32.06973	47305
32.07785	43550
32.08598	44568
32.09410	46311
32.10222	40572
32.11035	47868
32.11847	44572
32.12660	40779
32.13472	40873
32.14283	38010
32.15097	42024
32.15908	38410
32.16722	41573
32.17533	39093
32.18345	40145
32.19158	39059
32.19970	42662
32.20783	43323
32.21595	43175
32.22407	40204
32.23220	44354
32.24032	42022
32.24843	42583
32.25657	41847
32.26468	42568
32.27282	46757
32.28093	42754
32.28905	43172
32.29718	39974
32.30530	39057
32.31343	40180
32.32155	41382
32.32967	42908
32.33780	43749
32.34592	43289
32.35403	44538
32.36217	43806
32.37028	44425
32.37842	42507
32.38653	41656
32.39465	43930
32.40278	42018
32.41090	37149
32.41903	42618
32.42715	39483
32.43527	38035
32.44340	40198
32.45152	41001
32.45965	41442
32.46777	40393
32.47588	37966
32.48402	41741
32.49213	37260
32.50025	40054
32.50838	38629
32.51650	38418
32.52463	38673
32.53275	40671
32.54087	42447
32.54900	51305
32.55712	66364
32.56525	79427
32.57337	94952
32.58148	102496
32.58962	87529
32.59773	74719
32.60587	58537
32.61398	49088
32.62210	44917
32.63023	44869
32.63835	39688
32.64647	40750
32.65460	41393
32.66272	39931
32.67085	41028
32.67897	45912
32.68708	44579
32.69522	46947
32.70333	49010
32.71147	49067
32.71958	47426
32.72770	46702
32.73583	44243
32.74395	43758
32.75207	41848
32.76020	39620
32.76832	40793
32.77645	40805
32.78457	44160
32.79268	38248
32.80082	43900
32.80893	38024
32.81707	38561
32.82518	41755
32.83330	39272
32.84143	44261
32.84955	37979
32.85768	40556
32.86580	42552
32.87392	41031
32.88205	43966
32.89017	43265
32.89828	47592
32.90642	45119
32.91453	45907
32.92267	45703
32.93078	42446
32.93890	42997
32.94703	41403
32.95515	41383
32.96328	43065
32.97140	46851
32.97952	45309
32.98765	44196
32.99577	49912
33.00390	44604
33.01202	44903
33.02013	44607
33.02827	41245
33.03638	42352
33.04450	38383
33.05263	42177
33.06075	45250
33.06888	46235
33.07700	48495
33.08512	54628
33.09325	61987
33.10137	63887
33.10950	66437
33.11762	64845
33.12573	57708
33.13387	56076
33.14198	50069
33.15010	45443
33.15823	46261
33.16635	46599
33.17448	42359
33.18260	43689
33.19072	41214
33.19885	43893
33.20697	39970
33.21510	42998
33.22322	38031
33.23133	37687
33.23947	39947
33.24758	41942
33.25572	40901
33.26383	44708
33.27195	41846
33.28008	42334
33.28820	41412
33.29632	43447
33.30445	45160
33.31257	43242
33.32070	42303
33.32882	44228
33.33693	43023
33.34507	39029
33.35318	43920
33.36132	43130
33.36943	45042
33.37755	43949
33.38568	45204
33.39380	42625
33.40192	41035
33.41005	46575
33.41817	44843
33.42630	45784
33.43442	49835
33.44253	49202
33.45067	50484
33.45878	53076
33.46692	57029
33.47503	57850
33.48315	55726
33.49128	62913
33.49940	67594
33.50753	67929
33.51565	74555
33.52377	71287
33.53190	80725
33.54002	83368
33.54813	86036
33.55627	87880
33.56438	93581
33.57252	92751
33.58063	88966
33.58875	90198
33.59688	87336
33.60500	91498
33.61313	86056
33.62125	88162
33.62937	92533
33.63750	91210
33.64562	91940
33.65375	86971
33.66187	84442
33.66998	87450
33.67812	85913
33.68623	90634
33.69435	92154
33.70248	90060
33.71060	81610
33.71873	84245
33.72685	83735
33.73497	85521
33.74310	86139
33.75122	88123
33.75935	83089
33.76747	79717
33.77558	82598
33.78372	77452
33.79183	73755
33.79995	70244
33.80808	70418
33.81620	73153
33.82433	69380
33.83245	72165
33.84057	69177
33.84870	67813
33.85682	66010
33.86495	63321
33.87307	66513
33.88118	62245
33.88932	64489
33.89743	64952
33.90557	67469
33.91368	59780
33.92180	62586
33.92993	59163
33.93805	60554
33.94617	56395
33.95430	56585
33.96242	54040
33.97055	58851
33.97867	59149
33.98678	56520
33.99492	52974
34.00303	51187
34.01117	55436
34.01928	55402
34.02740	53652
34.03553	56599
34.04365	52712
34.05178	51835
34.05990	51339
34.06802	55139
34.07615	48837
34.08427	52291
34.09238	51973
34.10052	50675
34.10863	50222
34.11677	49668
34.12488	47244
34.13300	51821
34.14113	50744
34.14925	53201
34.15738	51440
34.16550	48300
34.17362	50799
34.18175	47938
34.18987	49455
34.19798	49151
34.20612	53103
34.21423	57635
34.22237	45869
34.23048	47261
34.23860	51333
34.24673	52782
34.25485	52776
34.26298	51611
34.27110	58130
34.27922	57296
34.28735	57867
34.29547	66232
34.30360	68821
34.31172	67831
34.31983	68411
34.32797	74108
34.33608	75736
34.34420	81873
34.35233	90332
34.36045	90870
34.36858	98859
34.37670	97559
34.38482	109807
34.39295	117725
34.40107	119934
34.40920	129000
34.41732	140286
34.42543	146294
34.43357	165942
34.44168	181713
34.44980	205370
34.45793	228239
34.46605	241558
34.47418	226427
34.48230	231384
34.49042	214938
34.49855	200762
34.50667	186528
34.51480	170945
34.52292	156190
34.53103	138611
34.53917	131235
34.54728	122543
34.55542	121928
34.56353	108447
34.57165	107690
34.57978	102290
34.58790	93948
34.59602	91899
34.60415	93348
34.61227	86311
34.62040	89770
34.62852	80023
34.63663	81174
34.64477	75031
34.65288	72699
34.66102	65113
34.66913	67498
34.67725	63665
34.68538	64912
34.69350	66055
34.70163	60068
34.70975	61502
34.71787	59444
34.72600	56971
34.73412	64547
34.74223	56435
34.75037	60213
34.75848	54081
34.76662	55940
34.77473	53242
34.78285	59391
34.79098	55477
34.79910	54110
34.80723	54486
34.81535	52010
34.82347	55297
34.83160	57886
34.83972	60013
34.84785	55099
34.85597	56676
34.86408	60914
34.87222	53753
34.88033	57161
34.88845	57375
34.89658	51966
34.90470	57159
34.91283	52627
34.92095	49554
34.92907	56375
34.93720	53642
34.94532	54213
34.95345	56256
34.96157	55470
34.96968	56067
34.97782	59975
34.98593	51855
34.99405	54080
35.00218	55531
35.01030	54893
35.01843	47242
35.02655	55378
35.03467	55292
35.04280	61089
35.05092	58550
35.05905	58319
35.06717	57960
35.07528	55162
35.08342	56281
35.09153	54452
35.09967	57468
35.10778	48061
35.11590	52233
35.12403	58416
35.13215	51683
35.14027	50346
35.14840	51313
35.15652	48380
35.16465	48069
35.17277	51158
35.18088	51868
35.18902	49942
35.19713	53374
35.20527	53544
35.21338	57498
35.22150	53228
35.22963	50643
35.23775	55853
35.24587	53806
35.25400	54958
35.26212	54432
35.27025	63552
35.27837	55471
35.28648	53166
35.29462	53058
35.30273	54550
35.31087	52249
35.31898	53576
35.32710	53420
35.33523	56414
35.34335	51402
35.35148	57694
35.35960	53024
35.36772	57269
35.37585	55639
35.38397	53081
35.39208	54922
35.40022	63497
35.40833	62587
35.41647	62181
35.42458	63007
35.43270	65250
35.44083	64221
35.44895	69103
35.45708	74615
35.46520	67616
35.47332	67997
35.48145	65086
35.48957	63380
35.49770	60096
35.50582	57457
35.51393	57209
35.52207	56384
35.53018	57597
35.53830	54298
35.54643	61566
35.55455	62564
35.56268	70138
35.57080	78525
35.57892	77190
35.58705	78657
35.59517	70006
35.60330	62380
35.61142	60891
35.61953	63061
35.62767	57046
35.63578	55604
35.64390	57287
35.65203	55481
35.66015	52690
35.66828	55904
35.67640	57465
35.68452	53570
35.69265	62999
35.70077	56546
35.70890	57336
35.71702	56814
35.72513	54932
35.73327	59974
35.74138	59040
35.74952	62053
35.75763	61778
35.76575	58574
35.77388	57882
35.78200	58394
35.79012	59477
35.79825	59095
35.80637	57908
35.81450	58944
35.82262	59011
35.83073	57512
35.83887	56460
35.84698	55041
35.85512	56513
35.86323	50045
35.87135	55565
35.87948	55159
35.88760	55926
35.89573	55904
35.90385	52672
35.91197	56460
35.92010	53626
35.92822	56650
35.93633	58239
35.94447	53445
35.95258	52632
35.96072	54174
35.96883	54433
35.97695	61106
35.98508	63344
35.99320	69266
36.00133	74488
36.00945	75236
36.01757	73215
36.02570	73233
36.03382	73441
36.04193	66200
36.05007	66032
36.05818	65152
36.06632	56834
36.07443	58743
36.08255	58705
36.09068	53753
36.09880	56953
36.10693	56717
36.11505	56705
36.12317	60504
36.13130	57724
36.13942	54428
36.14755	59465
36.15567	53630
36.16378	55058
36.17192	55543
36.18003	60724
36.18815	74771
36.19628	87715
36.20440	110451
36.21253	126926
36.22065	133293
36.22877	128999
36.23690	107994
36.24502	92425
36.25315	73804
36.26127	63719
36.26938	60289
36.27752	60433
36.28563	59307
36.29375	61685
36.30188	54653
36.31000	57331
36.31813	56422
36.32625	57578
36.33437	57573
36.34250	61547
36.35062	65171
36.35875	53063
36.36687	54680
36.37498	56271
36.38312	55966
36.39123	59447
36.39937	57070
36.40748	58208
36.41560	56855
36.42373	55964
36.43185	55745
36.43997	53925
36.44810	54006
36.45622	53963
36.46435	58201
36.47247	53349
36.48058	56130
36.48872	55499
36.49683	55248
36.50497	52550
36.51308	57453
36.52120	57970
36.52933	59517
36.53745	63962
36.54558	70650
36.55370	69755
36.56182	73501
36.56995	69593
36.57807	64666
36.58618	59095
36.59432	58841
36.60243	57969
36.61057	57805
36.61868	59559
36.62680	56786
36.63493	58566
36.64305	59197
36.65118	55037
36.65930	56917
36.66742	56912
36.67555	55281
36.68367	57099
36.69178	60508
36.69992	57422
36.70803	55046
36.71617	55676
36.72428	55415
36.73240	57301
36.74053	54227
36.74865	56713
36.75678	55311
36.76490	54467
36.77302	55766
36.78115	56473
36.78927	53691
36.79740	58606
36.80552	60614
36.81363	58517
36.82177	55355
36.82988	57255
36.83800	57326
36.84613	56996
36.85425	57967
36.86238	57040
36.87050	63813
36.87862	57747
36.88675	56380
36.89487	58471
36.90300	58216
36.91112	56685
36.91923	59338
36.92737	59732
36.93548	61446
36.94362	60297
36.95173	57247
36.95985	58373
36.96798	58186
36.97610	55571
36.98422	62275
36.99235	58095
37.00047	61705
37.00860	65294
37.01672	72598
37.02483	71251
37.03297	68198
37.04108	66984
37.04922	64447
37.05733	63132
37.06545	61083
37.07358	60555
37.08170	63954
37.08982	63206
37.09795	64956
37.10607	67500
37.11420	66551
37.12232	62895
37.13043	67252
37.13857	62459
37.14668	65755
37.15482	62568
37.16293	63777
37.17105	63065
37.17918	59089
37.18730	64047
37.19543	63624
37.20355	64540
37.21167	70516
37.21980	75161
37.22792	95523
37.23603	116198
37.24417	148779
37.25228	171384
37.26042	183554
37.26853	186583
37.27665	176159
37.28478	163584
37.29290	149072
37.30103	138008
37.30915	110147
37.31727	108155
37.32540	103436
37.33352	97758
37.34165	93608
37.34977	85785
37.35788	87048
37.36602	81386
37.37413	83679
37.38225	81317
37.39038	78244
37.39850	76840
37.40663	77778
37.41475	80152
37.42287	74604
37.43100	78037
37.43912	75825
37.44725	77965
37.45537	72398
37.46348	75132
37.47162	73230
37.47973	72007
37.48785	74132
