C:\MassHunter\GCMS\1\data\JTB-E02\BACandBLUE\JTB-E18-021-11.D Wed Jul 10 13:22:35 2019
Start of data points
2.09528	70769
2.10340	71774
2.11153	76915
2.11965	71692
2.12777	75325
2.13590	73141
2.14402	78325
2.15213	74271
2.16027	74469
2.16838	71957
2.17652	71550
2.18463	68788
2.19275	68085
2.20088	68920
2.20900	69316
2.21713	70984
2.22525	68088
2.23337	66103
2.24150	66583
2.24962	67681
2.25775	66922
2.26587	69861
2.27398	145108
2.28212	785041
2.29023	1174334
2.29835	540550
2.30648	294425
2.31460	231650
2.32273	201261
2.33085	191490
2.33897	297760
2.34710	411203
2.35522	232372
2.36335	181181
2.37147	168021
2.37958	149710
2.38772	141617
2.39583	135043
2.40395	131731
2.41208	130125
2.42020	124912
2.42833	133356
2.43645	133076
2.44457	118134
2.45270	124429
2.46082	122908
2.46895	116045
2.47707	118314
2.48518	109194
2.49332	125411
2.50143	168739
2.50957	143891
2.51768	121793
2.52580	119455
2.53393	114612
2.54205	110834
2.55017	108773
2.55830	121820
2.56642	155745
2.57455	157372
2.58267	131495
2.59078	120153
2.59892	114358
2.60703	140540
2.61517	368780
2.62328	606321
2.63140	411491
2.63953	268738
2.64765	201994
2.65578	166334
2.66390	152766
2.67202	139366
2.68015	132941
2.68827	131543
2.69638	119081
2.70452	120741
2.71263	119229
2.72077	106592
2.72888	118860
2.73700	113841
2.74513	110728
2.75325	108704
2.76138	106952
2.76950	104291
2.77762	110454
2.78575	142198
2.79387	247697
2.80198	232413
2.81012	170051
2.81823	152222
2.82637	165339
2.83448	169397
2.84260	177858
2.85073	154238
2.85885	134972
2.86698	126017
2.87510	122327
2.88322	117940
2.89135	114330
2.89947	108923
2.90760	110447
2.91572	110544
2.92383	105446
2.93197	103196
2.94008	99279
2.94820	102778
2.95633	104940
2.96445	105480
2.97258	108899
2.98070	110214
2.98882	105596
2.99695	106191
3.00507	104541
3.01320	103868
3.02132	106521
3.02943	102824
3.03757	103237
3.04568	99467
3.05382	98243
3.06193	106698
3.07005	107923
3.07818	112643
3.08630	169374
3.09442	574341
3.10255	1324722
3.11067	2400594
3.11880	3425261
3.12692	2659677
3.13503	1555265
3.14317	1085178
3.15128	878308
3.15942	710068
3.16753	606185
3.17565	570398
3.18378	560843
3.19190	814762
3.20002	1523793
3.20815	1642390
3.21627	1139447
3.22440	813021
3.23252	661442
3.24063	574051
3.24877	489493
3.25688	438630
3.26502	395071
3.27313	366826
3.28125	343316
3.28938	412348
3.29750	1002951
3.30563	3052632
3.31375	5912383
3.32187	6694672
3.33000	5111247
3.33812	3320734
3.34623	2284167
3.35437	1760482
3.36248	1430944
3.37062	1218202
3.37873	1053843
3.38685	911237
3.39498	813715
3.40310	739372
3.41123	683603
3.41935	628230
3.42747	583830
3.43560	563986
3.44372	536345
3.45185	520302
3.45997	485626
3.46808	465296
3.47622	458863
3.48433	470852
3.49245	439136
3.50058	432200
3.50870	428708
3.51683	396795
3.52495	384420
3.53307	379621
3.54120	393648
3.54932	402481
3.55745	384576
3.56557	361797
3.57368	363498
3.58182	396829
3.58993	391261
3.59805	358129
3.60618	335053
3.61430	330804
3.62243	334788
3.63055	339912
3.63867	372299
3.64680	380932
3.65492	363229
3.66305	403976
3.67117	996468
3.67928	3582014
3.68742	6634385
3.69553	6226326
3.70367	3703924
3.71178	2216471
3.71990	1648407
3.72803	1390320
3.73615	1185502
3.74427	1037846
3.75240	944270
3.76052	861357
3.76865	800732
3.77677	755946
3.78488	726868
3.79302	676495
3.80113	677766
3.80927	854845
3.81738	1432034
3.82550	1883076
3.83363	1653105
3.84175	1181031
3.84988	933060
3.85800	779292
3.86612	727171
3.87425	670644
3.88237	611661
3.89048	589143
3.89862	547748
3.90673	543620
3.91487	518471
3.92298	584342
3.93110	726030
3.93923	827898
3.94735	782394
3.95548	850535
3.96360	1435704
3.97172	2316618
3.97985	2441899
3.98797	1752422
3.99608	1268255
4.00422	2127785
4.01233	5482264
4.02047	9521384
4.02858	9811033
4.03670	6519563
4.04483	3526538
4.05295	2172503
4.06108	1558451
4.06920	1255199
4.07732	1046037
4.08545	918295
4.09357	818614
4.10170	738603
4.10982	658533
4.11793	639940
4.12607	581917
4.13418	570204
4.14230	626044
4.15043	781611
4.15855	927132
4.16668	874145
4.17480	739186
4.18292	625063
4.19105	575230
4.19917	514658
4.20730	560159
4.21542	1305342
4.22353	4483233
4.23167	1.086779E+07
4.23978	1.633995E+07
4.24790	1.706969E+07
4.25603	1.267261E+07
4.26415	7619030
4.27228	5075836
4.28040	3689587
4.28852	2895040
4.29665	2306931
4.30477	1935685
4.31290	1653696
4.32102	1461136
4.32913	1310756
4.33727	1191267
4.34538	1101704
4.35352	1060151
4.36163	1031954
4.36975	999950
4.37788	959928
4.38600	872329
4.39412	816245
4.40225	768137
4.41037	719812
4.41850	698569
4.42662	665395
4.43473	649574
4.44287	618984
4.45098	590514
4.45912	584456
4.46723	568215
4.47535	548909
4.48348	518541
4.49160	508516
4.49973	506847
4.50785	493041
4.51597	493647
4.52410	470919
4.53222	460970
4.54033	442797
4.54847	439229
4.55658	447416
4.56472	420088
4.57283	407985
4.58095	407367
4.58908	390919
4.59720	381244
4.60533	383508
4.61345	373770
4.62157	386520
4.62970	439369
4.63782	612466
4.64593	833021
4.65407	903764
4.66218	771757
4.67032	582534
4.67843	488901
4.68655	429780
4.69468	413427
4.70280	378429
4.71093	358644
4.71905	350137
4.72717	335304
4.73530	336542
4.74342	319644
4.75155	318749
4.75967	315312
4.76778	297044
4.77592	300208
4.78403	300666
4.79215	318358
4.80028	351288
4.80840	440705
4.81653	501292
4.82465	460890
4.83277	416755
4.84090	391536
4.84902	410630
4.85715	401020
4.86527	374932
4.87338	354875
4.88152	328993
4.88963	316419
4.89777	305139
4.90588	304838
4.91400	283117
4.92213	282955
4.93025	328054
4.93837	526151
4.94650	1139237
4.95462	2304868
4.96275	3489698
4.97087	3928880
4.97898	3440568
4.98712	2543497
4.99523	1786974
5.00337	1291862
5.01148	1015781
5.01960	878924
5.02773	841892
5.03585	1043903
5.04397	1367021
5.05210	1510123
5.06022	1323425
5.06835	1038068
5.07647	862911
5.08458	744389
5.09272	682197
5.10083	618751
5.10897	584364
5.11708	552019
5.12520	534569
5.13333	514937
5.14145	476175
5.14958	472612
5.15770	485437
5.16582	525464
5.17395	555313
5.18207	551801
5.19018	521766
5.19832	499186
5.20643	505621
5.21457	520073
5.22268	530168
5.23080	499530
5.23893	481709
5.24705	460258
5.25518	442829
5.26330	407012
5.27142	387607
5.27955	357983
5.28767	333645
5.29578	333582
5.30392	322143
5.31203	322315
5.32017	310465
5.32828	325486
5.33640	336813
5.34453	360607
5.35265	358079
5.36078	350822
5.36890	328071
5.37702	301351
5.38515	299217
5.39327	304569
5.40140	308484
5.40952	318445
5.41763	314789
5.42577	302426
5.43388	288834
5.44200	295405
5.45013	303502
5.45825	315448
5.46638	306249
5.47450	291154
5.48262	279285
5.49075	267999
5.49887	267231
5.50700	263615
5.51512	260695
5.52323	265376
5.53137	270459
5.53948	261300
5.54762	255279
5.55573	258651
5.56385	268906
5.57198	290321
5.58010	306612
5.58822	320695
5.59635	298661
5.60447	272732
5.61260	248986
5.62072	256158
5.62883	247519
5.63697	250134
5.64508	254372
5.65322	258516
5.66133	253795
5.66945	242308
5.67758	255016
5.68570	296105
5.69382	339174
5.70195	351724
5.71007	328252
5.71820	296943
5.72632	262282
5.73443	253225
5.74257	242123
5.75068	233862
5.75882	232201
5.76693	222266
5.77505	218977
5.78318	223521
5.79130	216496
5.79943	215300
5.80755	209855
5.81567	213568
5.82380	215047
5.83192	209243
5.84003	214936
5.84817	213428
5.85628	213270
5.86442	214687
5.87253	211252
5.88065	212541
5.88878	199579
5.89690	200542
5.90503	189322
5.91315	175038
5.92127	155396
5.92940	155319
5.93752	150433
5.94565	162024
5.95377	175066
5.96188	195092
5.97002	218818
5.97813	252408
5.98625	302944
5.99438	331779
6.00250	310574
6.01063	281095
6.01875	233905
6.02687	195857
6.03500	186185
6.04312	170840
6.05125	160525
6.05937	159539
6.06748	148419
6.07562	148469
6.08373	145700
6.09185	138852
6.09998	138764
6.10810	139184
6.11623	142403
6.12435	158871
6.13247	225810
6.14060	358076
6.14872	508256
6.15685	577478
6.16497	488388
6.17308	377057
6.18122	286244
6.18933	232681
6.19747	213208
6.20558	206913
6.21370	201697
6.22183	188472
6.22995	182412
6.23807	186981
6.24620	185942
6.25432	184413
6.26245	190018
6.27057	190714
6.27868	181267
6.28682	186588
6.29493	183280
6.30307	184660
6.31118	186123
6.31930	186503
6.32743	200778
6.33555	198132
6.34368	206403
6.35180	208034
6.35992	203917
6.36805	200244
6.37617	196960
6.38428	185317
6.39242	197792
6.40053	186592
6.40867	185254
6.41678	189978
6.42490	181531
6.43303	192076
6.44115	182451
6.44928	184907
6.45740	184181
6.46552	192427
6.47365	185336
6.48177	188232
6.48988	185939
6.49802	184953
6.50613	192106
6.51427	192034
6.52238	192370
6.53050	193661
6.53863	192952
6.54675	194230
6.55488	196086
6.56300	193738
6.57112	213917
6.57925	224079
6.58737	251646
6.59550	257422
6.60362	237248
6.61173	224052
6.61987	222112
6.62798	210863
6.63610	205857
6.64423	201127
6.65235	216641
6.66048	228821
6.66860	266719
6.67672	313326
6.68485	309558
6.69297	285933
6.70110	244166
6.70922	236477
6.71733	233683
6.72547	218883
6.73358	229158
6.74170	230799
6.74983	215170
6.75795	224431
6.76608	225747
6.77420	233617
6.78232	234207
6.79045	208310
6.79857	194976
6.80670	176515
6.81482	171303
6.82293	163938
6.83107	156140
6.83918	154813
6.84732	160589
6.85543	175876
6.86355	178291
6.87168	171465
6.87980	156586
6.88792	128871
6.89605	112180
6.90417	111994
6.91230	104662
6.92042	96650
6.92853	92299
6.93667	97855
6.94478	90562
6.95292	95188
6.96103	102487
6.96915	105995
6.97728	118371
6.98540	132789
6.99353	131308
7.00165	115672
7.00977	103320
7.01790	98307
7.02602	97027
7.03413	96094
7.04227	97453
7.05038	97800
7.05852	96153
7.06663	88390
7.07475	96092
7.08288	84616
7.09100	83009
7.09913	81568
7.10725	85856
7.11537	80734
7.12350	84178
7.13162	83764
7.13973	80829
7.14787	93996
7.15598	107096
7.16412	131872
7.17223	142039
7.18035	131645
7.18848	116927
7.19660	100080
7.20473	97593
7.21285	94384
7.22097	121823
7.22910	250420
7.23722	608881
7.24535	1152188
7.25347	1642940
7.26158	1608674
7.26972	1221604
7.27783	728526
7.28595	463745
7.29408	347265
7.30220	304005
7.31033	245523
7.31845	194777
7.32657	152519
7.33470	122327
7.34282	118438
7.35095	102964
7.35907	102968
7.36718	95038
7.37532	99362
7.38343	102371
7.39157	98327
7.39968	102686
7.40780	98296
7.41593	92421
7.42405	92234
7.43217	87915
7.44030	88102
7.44842	90041
7.45655	93655
7.46467	90372
7.47278	90226
7.48092	89798
7.48903	85063
7.49717	82576
7.50528	81544
7.51340	99513
7.52153	126186
7.52965	175647
7.53777	243564
7.54590	333383
7.55402	375616
7.56215	378929
7.57027	332300
7.57838	272070
7.58652	194424
7.59463	152326
7.60277	119480
7.61088	110196
7.61900	98479
7.62713	95292
7.63525	93685
7.64338	83728
7.65150	85277
7.65962	81514
7.66775	80724
7.67587	84050
7.68398	88865
7.69212	79984
7.70023	78674
7.70837	79742
7.71648	80052
7.72460	77618
7.73273	82850
7.74085	77249
7.74898	83921
7.75710	75438
7.76522	76652
7.77335	76630
7.78147	79646
7.78958	81964
7.79772	91450
7.80583	96168
7.81397	102795
7.82208	97372
7.83020	90209
7.83833	82692
7.84645	84231
7.85458	81028
7.86270	84790
7.87082	93982
7.87895	101736
7.88707	104851
7.89520	102328
7.90332	94878
7.91143	87977
7.91957	83746
7.92768	88295
7.93580	109492
7.94393	127582
7.95205	145334
7.96018	140119
7.96830	121771
7.97642	109307
7.98455	101811
7.99267	83902
8.00080	78547
8.00892	78625
8.01703	73317
8.02517	67898
8.03328	74176
8.04142	70994
8.04953	69867
8.05765	68140
8.06578	70844
8.07390	70328
8.08202	65298
8.09015	65479
8.09827	64638
8.10640	65217
8.11452	64939
8.12263	66522
8.13077	70338
8.13888	83731
8.14702	90173
8.15513	108287
8.16325	103700
8.17138	102575
8.17950	89702
8.18763	77639
8.19575	72519
8.20387	74699
8.21200	70139
8.22012	73066
8.22823	72925
8.23637	72387
8.24448	69959
8.25262	65596
8.26073	64882
8.26885	61729
8.27698	61669
8.28510	64228
8.29323	66499
8.30135	64776
8.30947	64437
8.31760	72544
8.32572	70212
8.33383	70884
8.34197	69714
8.35008	63545
8.35822	64148
8.36633	65277
8.37445	62389
8.38258	64304
8.39070	62587
8.39883	61407
8.40695	59812
8.41507	61031
8.42320	56510
8.43132	61022
8.43945	54442
8.44757	60621
8.45568	58336
8.46382	60497
8.47193	55503
8.48005	60008
8.48818	57348
8.49630	59100
8.50443	56830
8.51255	58328
8.52067	64955
8.52880	72695
8.53692	100470
8.54505	170659
8.55317	275324
8.56128	340043
8.56942	341455
8.57753	274653
8.58565	189801
8.59378	133320
8.60190	104451
8.61003	97652
8.61815	90854
8.62627	83588
8.63440	76048
8.64252	74002
8.65065	70646
8.65877	68138
8.66688	68772
8.67502	65089
8.68313	69019
8.69127	70167
8.69938	67195
8.70750	72159
8.71563	67466
8.72375	67470
8.73187	69910
8.74000	95920
8.74812	182988
8.75625	402992
8.76437	786320
8.77248	1241821
8.78062	1508909
8.78873	1412073
8.79687	1051363
8.80498	692531
8.81310	421302
8.82123	278639
8.82935	204787
8.83748	182765
8.84560	184220
8.85372	177522
8.86185	180446
8.86997	182815
8.87808	170239
8.88622	157746
8.89433	152236
8.90247	148472
8.91058	135615
8.91870	132952
8.92683	128958
8.93495	133899
8.94308	142831
8.95120	158443
8.95932	161083
8.96745	168263
8.97557	150031
8.98368	143815
8.99182	138405
8.99993	124948
9.00807	127239
9.01618	112587
9.02430	111978
9.03243	113241
9.04055	103236
9.04868	100178
9.05680	107040
9.06492	102361
9.07305	98760
9.08117	97387
9.08930	101445
9.09742	110922
9.10553	119643
9.11367	134267
9.12178	144290
9.12990	139494
9.13803	137383
9.14615	116676
9.15428	108758
9.16240	99140
9.17052	94188
9.17865	96664
9.18677	93364
9.19490	86837
9.20302	84038
9.21113	89051
9.21927	84892
9.22738	87537
9.23552	84858
9.24363	83372
9.25175	90363
9.25988	84643
9.26800	84318
9.27612	80040
9.28425	81277
9.29237	84661
9.30050	77086
9.30862	75688
9.31673	78389
9.32487	77768
9.33298	75930
9.34112	78676
9.34923	76504
9.35735	78896
9.36548	73434
9.37360	73617
9.38172	75219
9.38985	77290
9.39797	80951
9.40610	85538
9.41422	97806
9.42233	111370
9.43047	117327
9.43858	130066
9.44672	126971
9.45483	118902
9.46295	98848
9.47108	89989
9.47920	89907
9.48733	82433
9.49545	82948
9.50357	82370
9.51170	86199
9.51982	99175
9.52793	97785
9.53607	96064
9.54418	91490
9.55232	74766
9.56043	72718
9.56855	76812
9.57668	88294
9.58480	113357
9.59293	134349
9.60105	129770
9.60917	108704
9.61730	91556
9.62542	69976
9.63353	61490
9.64167	56839
9.64978	53539
9.65792	51287
9.66603	48240
9.67415	48527
9.68228	50372
9.69040	47078
9.69853	45968
9.70665	51036
9.71477	43481
9.72290	47468
9.73102	45817
9.73915	44536
9.74727	44622
9.75538	45475
9.76352	45327
9.77163	45084
9.77975	42804
9.78788	45516
9.79600	47451
9.80413	41554
9.81225	44482
9.82037	44936
9.82850	42521
9.83662	39681
9.84475	42850
9.85287	43190
9.86098	45437
9.86912	42098
9.87723	46371
9.88537	50566
9.89348	50333
9.90160	51002
9.90973	52427
9.91785	45511
9.92597	51940
9.93410	60694
9.94222	76758
9.95035	94249
9.95847	102670
9.96658	101417
9.97472	92899
9.98283	82420
9.99097	69289
9.99908	72635
10.00720	63543
10.01533	59162
10.02345	53706
10.03157	53822
10.03970	50072
10.04782	49916
10.05595	54420
10.06407	46632
10.07218	50254
10.08032	50845
10.08843	52512
10.09657	50815
10.10468	51580
10.11280	48883
10.12093	48264
10.12905	47559
10.13718	49061
10.14530	47869
10.15342	45746
10.16155	50113
10.16967	47248
10.17778	46414
10.18592	51973
10.19403	46879
10.20217	44019
10.21028	44884
10.21840	47582
10.22653	50979
10.23465	52301
10.24278	57855
10.25090	56499
10.25902	73451
10.26715	120399
10.27527	268753
10.28340	638504
10.29152	1280472
10.29963	2052233
10.30777	2911277
10.31588	4180531
10.32400	6203990
10.33213	8851698
10.34025	1.111588E+07
10.34838	1.138047E+07
10.35650	9036482
10.36462	5679762
10.37275	3145911
10.38087	1742189
10.38900	1087389
10.39712	763925
10.40523	571861
10.41337	451045
10.42148	370327
10.42960	313997
10.43773	286748
10.44585	267429
10.45398	249722
10.46210	251920
10.47022	235198
10.47835	216754
10.48647	205200
10.49460	195697
10.50272	188637
10.51083	181338
10.51897	171488
10.52708	170780
10.53522	179010
10.54333	177419
10.55145	184954
10.55958	162897
10.56770	165900
10.57582	144369
10.58395	147576
10.59207	141234
10.60020	130652
10.60832	118565
10.61643	121936
10.62457	112199
10.63268	113086
10.64082	110168
10.64893	100657
10.65705	100510
10.66518	103451
10.67330	98397
10.68143	96643
10.68955	94074
10.69767	92521
10.70580	91010
10.71392	87960
10.72203	89062
10.73017	91143
10.73828	92923
10.74642	88720
10.75453	89283
10.76265	85371
10.77078	84781
10.77890	78720
10.78703	77102
10.79515	75804
10.80327	78559
10.81140	76230
10.81952	79778
10.82763	78764
10.83577	75620
10.84388	74158
10.85202	66211
10.86013	68578
10.86825	66992
10.87638	64850
10.88450	64400
10.89263	67887
10.90075	67245
10.90887	64203
10.91700	63936
10.92512	59562
10.93325	61319
10.94137	60554
10.94948	60247
10.95762	58459
10.96573	59727
10.97385	57605
10.98198	60616
10.99010	64458
10.99823	63152
11.00635	64419
11.01447	58225
11.02260	57354
11.03072	56692
11.03885	55566
11.04697	56145
11.05508	53541
11.06322	58469
11.07133	60361
11.07945	63174
11.08758	63306
11.09570	63588
11.10383	61291
11.11195	56059
11.12007	52821
11.12820	51471
11.13632	49073
11.14445	50299
11.15257	48691
11.16068	47808
11.16882	50105
11.17693	49675
11.18507	49426
11.19318	55054
11.20130	51409
11.20943	55239
11.21755	46233
11.22567	45448
11.23380	46481
11.24192	43102
11.25005	39851
11.25817	40083
11.26628	37673
11.27442	43286
11.28253	43588
11.29067	49277
11.29878	60929
11.30690	91228
11.31503	135671
11.32315	230714
11.33128	347173
11.33940	460339
11.34752	498012
11.35565	480545
11.36377	377016
11.37188	269898
11.38002	182939
11.38813	133805
11.39627	110805
11.40438	96468
11.41250	94423
11.42063	89619
11.42875	94122
11.43688	82899
11.44500	79748
11.45312	78550
11.46125	69304
11.46937	74700
11.47748	83420
11.48562	100736
11.49373	124123
11.50187	140520
11.50998	147464
11.51810	130598
11.52623	112109
11.53435	95170
11.54248	92864
11.55060	84891
11.55872	86733
11.56685	81788
11.57497	79098
11.58310	76511
11.59122	74554
11.59933	85762
11.60747	103024
11.61558	125675
11.62370	147364
11.63183	140803
11.63995	125354
11.64808	100931
11.65620	77347
11.66432	68556
11.67245	62909
11.68057	57859
11.68870	61229
11.69682	62621
11.70493	65505
11.71307	62902
11.72118	60903
11.72932	57988
11.73743	49444
11.74555	52667
11.75368	54429
11.76180	49538
11.76992	49407
11.77805	47322
11.78617	47832
11.79430	48423
11.80242	47374
11.81053	48306
11.81867	45500
11.82678	44930
11.83492	49127
11.84303	49690
11.85115	48365
11.85928	44307
11.86740	47224
11.87552	45214
11.88365	42662
11.89177	45096
11.89990	39497
11.90802	43663
11.91613	43218
11.92427	47572
11.93238	52660
11.94052	50503
11.94863	51229
11.95675	47508
11.96488	41173
11.97300	48631
11.98113	46522
11.98925	60678
11.99737	84298
12.00550	110716
12.01362	131147
12.02173	137649
12.02987	131032
12.03798	102693
12.04612	81834
12.05423	69985
12.06235	56719
12.07048	53958
12.07860	55242
12.08673	53735
12.09485	52261
12.10297	52571
12.11110	57620
12.11922	54716
12.12733	56674
12.13547	65354
12.14358	58957
12.15172	56162
12.15983	53829
12.16795	51078
12.17608	48386
12.18420	43389
12.19233	46016
12.20045	43965
12.20857	43931
12.21670	44905
12.22482	42816
12.23295	45365
12.24107	48152
12.24918	48641
12.25732	45241
12.26543	45116
12.27355	42079
12.28168	44621
12.28980	45220
12.29793	40902
12.30605	38155
12.31417	38578
12.32230	42344
12.33042	40178
12.33855	39356
12.34667	41657
12.35478	38072
12.36292	40347
12.37103	43161
12.37917	42187
12.38728	40246
12.39540	42058
12.40353	48725
12.41165	57994
12.41977	63812
12.42790	78723
12.43602	78532
12.44415	77789
12.45227	71109
12.46038	63523
12.46852	56390
12.47663	53817
12.48477	49886
12.49288	51591
12.50100	48308
12.50913	47580
12.51725	47501
12.52537	54850
12.53350	78988
12.54162	133870
12.54975	259550
12.55787	488673
12.56598	745064
12.57412	878574
12.58223	808239
12.59037	593028
12.59848	391625
12.60660	237596
12.61473	148528
12.62285	115950
12.63098	94418
12.63910	86693
12.64722	77121
12.65535	73052
12.66347	72040
12.67158	65747
12.67972	65146
12.68783	64802
12.69597	58174
12.70408	59267
12.71220	61881
12.72033	61983
12.72845	58502
12.73658	66575
12.74470	65291
12.75282	61401
12.76095	59670
12.76907	53156
12.77720	55204
12.78532	49683
12.79343	48822
12.80157	47572
12.80968	44518
12.81780	43609
12.82593	41733
12.83405	42873
12.84218	43247
12.85030	44216
12.85842	42961
12.86655	42879
12.87467	40459
12.88280	40013
12.89092	42228
12.89903	42057
12.90717	40724
12.91528	37835
12.92340	37464
12.93153	37623
12.93965	39719
12.94778	39605
12.95590	41315
12.96402	49238
12.97215	61494
12.98027	74339
12.98840	88376
12.99652	83862
13.00463	72876
13.01277	65884
13.02088	56131
13.02902	53299
13.03713	43023
13.04525	46421
13.05338	43467
13.06150	44554
13.06962	41196
13.07775	43087
13.08587	42903
13.09400	40837
13.10212	41713
13.11023	42316
13.11837	42382
13.12648	42681
13.13462	38510
13.14273	37338
13.15085	43190
13.15898	36475
13.16710	42628
13.17522	41080
13.18335	39094
13.19147	46077
13.19960	44053
13.20772	45413
13.21583	46476
13.22397	48979
13.23208	53175
13.24022	43718
13.24833	40637
13.25645	47569
13.26458	42605
13.27270	38975
13.28083	37552
13.28895	37824
13.29707	39524
13.30520	37293
13.31332	36412
13.32143	40765
13.32957	37498
13.33768	36474
13.34582	36264
13.35393	37772
13.36205	36617
13.37018	31917
13.37830	32441
13.38643	38987
13.39455	31005
13.40267	32188
13.41080	33650
13.41892	33586
13.42705	32027
13.43517	32836
13.44328	33458
13.45142	33091
13.45953	34902
13.46765	34121
13.47578	36989
13.48390	34347
13.49203	36402
13.50015	34556
13.50827	34523
13.51640	33986
13.52452	33112
13.53265	33495
13.54077	36407
13.54888	32244
13.55702	31529
13.56513	33807
13.57327	34416
13.58138	38944
13.58950	42940
13.59763	51419
13.60575	71238
13.61387	106399
13.62200	139015
13.63012	161469
13.63825	153196
13.64637	122142
13.65448	91441
13.66262	69500
13.67073	52819
13.67887	53624
13.68698	46091
13.69510	44216
13.70323	42148
13.71135	41116
13.71947	40788
13.72760	44768
13.73572	62186
13.74385	116136
13.75197	230354
13.76008	482582
13.76822	864035
13.77633	1268788
13.78447	1449158
13.79258	1416602
13.80070	1164536
13.80883	832822
13.81695	614554
13.82508	498774
13.83320	448940
13.84132	437865
13.84945	389529
13.85757	338985
13.86568	276880
13.87382	227797
13.88193	192456
13.89007	176523
13.89818	159062
13.90630	155486
13.91443	138070
13.92255	137354
13.93068	127968
13.93880	122505
13.94692	115933
13.95505	112153
13.96317	124560
13.97128	120452
13.97942	119971
13.98753	122755
13.99567	118568
14.00378	116909
14.01190	107609
14.02003	102689
14.02815	102984
14.03628	103398
14.04440	90561
14.05252	91090
14.06065	90680
14.06877	92795
14.07690	87426
14.08502	86508
14.09313	90302
14.10127	79974
14.10938	81988
14.11750	84626
14.12563	85025
14.13375	81155
14.14188	84788
14.15000	85998
14.15812	99489
14.16625	118510
14.17437	171926
14.18250	250440
14.19062	341094
14.19873	398239
14.20687	386066
14.21498	320768
14.22312	253334
14.23123	200870
14.23935	171848
14.24748	159610
14.25560	149696
14.26372	143492
14.27185	131150
14.27997	114837
14.28810	104202
14.29622	98423
14.30433	89945
14.31247	82944
14.32058	86940
14.32872	83787
14.33683	79212
14.34495	74641
14.35308	68424
14.36120	62805
14.36932	55725
14.37745	54693
14.38557	62969
14.39370	86042
14.40182	137370
14.40993	225459
14.41807	339298
14.42618	433897
14.43432	446979
14.44243	354388
14.45055	267043
14.45868	182265
14.46680	127919
14.47493	109714
14.48305	89447
14.49117	78628
14.49930	74418
14.50742	71199
14.51553	73167
14.52367	67802
14.53178	65494
14.53992	63038
14.54803	60824
14.55615	58570
14.56428	58223
14.57240	58460
14.58053	55703
14.58865	51568
14.59677	54104
14.60490	54168
14.61302	45689
14.62115	48963
14.62927	47625
14.63738	45271
14.64552	46672
14.65363	48931
14.66175	46348
14.66988	48080
14.67800	51869
14.68613	41301
14.69425	46372
14.70237	47362
14.71050	45486
14.71862	49673
14.72675	47709
14.73487	46099
14.74298	48290
14.75112	47222
14.75923	47989
14.76735	52425
14.77548	51107
14.78360	60568
14.79173	89219
14.79985	190969
14.80797	452530
14.81610	951633
14.82422	1650350
14.83235	2242515
14.84047	2443050
14.84858	2195667
14.85672	1613975
14.86483	1049421
14.87297	636273
14.88108	421896
14.88920	305944
14.89733	245324
14.90545	204105
14.91357	182808
14.92170	161197
14.92982	152040
14.93795	129447
14.94607	129888
14.95418	122715
14.96232	121888
14.97043	106881
14.97857	112869
14.98668	109886
14.99480	105157
15.00293	94859
15.01105	97965
15.01917	89085
15.02730	88013
15.03542	85362
15.04355	80659
15.05167	82833
15.05978	76177
15.06792	72608
15.07603	79312
15.08417	69754
15.09228	72608
15.10040	67031
15.10853	68879
15.11665	69067
15.12478	70287
15.13290	73977
15.14102	78366
15.14915	88599
15.15727	79218
15.16538	75411
15.17352	72113
15.18163	67351
15.18977	60997
15.19788	55493
15.20600	53954
15.21413	48994
15.22225	49077
15.23038	48502
15.23850	48761
15.24662	44694
15.25475	45697
15.26287	41306
15.27100	44462
15.27912	44520
15.28723	43950
15.29537	42901
15.30348	46341
15.31160	43953
15.31973	40283
15.32785	39555
15.33598	40389
15.34410	39509
15.35222	44595
15.36035	35402
15.36847	43189
15.37660	44518
15.38472	47682
15.39283	44759
15.40097	46952
15.40908	50229
15.41720	53908
15.42533	53025
15.43345	50908
15.44158	50040
15.44970	46164
15.45782	48477
15.46595	49987
15.47407	61013
15.48220	75412
15.49032	95284
15.49843	107552
15.50657	113404
15.51468	110209
15.52282	102885
15.53093	92968
15.53905	87132
15.54718	83120
15.55530	79346
15.56342	72840
15.57155	61805
15.57967	54476
15.58780	52539
15.59592	47701
15.60403	50204
15.61217	46685
15.62028	43608
15.62842	43613
15.63653	42684
15.64465	41361
15.65278	41760
15.66090	39407
15.66903	43993
15.67715	43223
15.68527	39598
15.69340	42083
15.70152	38989
15.70963	41762
15.71777	44330
15.72588	42923
15.73402	46997
15.74213	47796
15.75025	53339
15.75838	64953
15.76650	97866
15.77463	147399
15.78275	212528
15.79087	259932
15.79900	264817
15.80712	232719
15.81523	184119
15.82337	132311
15.83148	98437
15.83962	81505
15.84773	74831
15.85585	65359
15.86398	57756
15.87210	57315
15.88023	56206
15.88835	55519
15.89647	53622
15.90460	52281
15.91272	51886
15.92085	50993
15.92897	50071
15.93708	51045
15.94522	51060
15.95333	57303
15.96145	73137
15.96958	79560
15.97770	90125
15.98583	94264
15.99395	95227
16.00207	83000
16.01020	74146
16.01832	74539
16.02645	72416
16.03457	76907
16.04268	67812
16.05082	59106
16.05893	54330
16.06707	53103
16.07518	48039
16.08330	50961
16.09143	47010
16.09955	46686
16.10767	51080
16.11580	46237
16.12392	49897
16.13205	50787
16.14017	51194
16.14828	55391
16.15642	61025
16.16453	56794
16.17267	51996
16.18078	48353
16.18890	45769
16.19703	42645
16.20515	43554
16.21327	48974
16.22140	46443
16.22952	47851
16.23765	46244
16.24577	47283
16.25388	44993
16.26202	40293
16.27013	41660
16.27827	43617
16.28638	42343
16.29450	47759
16.30263	46427
16.31075	49622
16.31888	46873
16.32700	47375
16.33512	43091
16.34325	47861
16.35137	50769
16.35948	57416
16.36762	66907
16.37573	76213
16.38387	83603
16.39198	81395
16.40010	71016
16.40823	61819
16.41635	56360
16.42448	53602
16.43260	52206
16.44072	49224
16.44885	54990
16.45697	70721
16.46508	97171
16.47322	126872
16.48133	157850
16.48947	173695
16.49758	157514
16.50570	133985
16.51383	98104
16.52195	77066
16.53008	63937
16.53820	55757
16.54632	56790
16.55445	53522
16.56257	55429
16.57070	51455
16.57882	56097
16.58693	59953
16.59507	63094
16.60318	65372
16.61130	72374
16.61943	77442
16.62755	74055
16.63568	69299
16.64380	64737
16.65192	53784
16.66005	55578
16.66817	51353
16.67630	49545
16.68442	45878
16.69253	46756
16.70067	47606
16.70878	43709
16.71692	42065
16.72503	45516
16.73315	44033
16.74128	43649
16.74940	41406
16.75752	45179
16.76565	48240
16.77377	48845
16.78190	43556
16.79002	45178
16.79813	40470
16.80627	43391
16.81438	42496
16.82252	38229
16.83063	38419
16.83875	38090
16.84688	36947
16.85500	37844
16.86312	35893
16.87125	37154
16.87937	38933
16.88750	36290
16.89562	37692
16.90373	34523
16.91187	34975
16.91998	37625
16.92812	36452
16.93623	35846
16.94435	38021
16.95248	35536
16.96060	40388
16.96873	38640
16.97685	35031
16.98497	38272
16.99310	40097
17.00122	34602
17.00933	36776
17.01747	41008
17.02558	42529
17.03372	47823
17.04183	46022
17.04995	59564
17.05808	57789
17.06620	57787
17.07433	66556
17.08245	65737
17.09057	78072
17.09870	88503
17.10682	106791
17.11495	121816
17.12307	127939
17.13118	120546
17.13932	115049
17.14743	109930
17.15555	95651
17.16368	88016
17.17180	76151
17.17993	65969
17.18805	59478
17.19617	62555
17.20430	51980
17.21242	48480
17.22055	49575
17.22867	45849
17.23678	44954
17.24492	46743
17.25303	43331
17.26115	44063
17.26928	44891
17.27740	41855
17.28553	42295
17.29365	40701
17.30177	41505
17.30990	43479
17.31802	46908
17.32615	50565
17.33427	54127
17.34238	58189
17.35052	61310
17.35863	61012
17.36677	63984
17.37488	58024
17.38300	54805
17.39113	53612
17.39925	55765
17.40737	50785
17.41550	50284
17.42362	47951
17.43175	51017
17.43987	46515
17.44798	49955
17.45612	44495
17.46423	45854
17.47237	43544
17.48048	41658
17.48860	41360
17.49673	42285
17.50485	40900
17.51297	39924
17.52110	39716
17.52922	39709
17.53735	42460
17.54547	43933
17.55358	50671
17.56172	65211
17.56983	100123
17.57797	170199
17.58608	288720
17.59420	460525
17.60233	676567
17.61045	834222
17.61858	850383
17.62670	741143
17.63482	564717
17.64295	424072
17.65107	298804
17.65918	233289
17.66732	195884
17.67543	163475
17.68357	151829
17.69168	124856
17.69980	114018
17.70793	106570
17.71605	96098
17.72418	88866
17.73230	84394
17.74042	81314
17.74855	77984
17.75667	73361
17.76480	67347
17.77292	67848
17.78103	68957
17.78917	60769
17.79728	70021
17.80540	87138
17.81353	101739
17.82165	125527
17.82978	145078
17.83790	153489
17.84602	136865
17.85415	122659
17.86227	108307
17.87040	99422
17.87852	93946
17.88663	83752
17.89477	72334
17.90288	67511
17.91102	64952
17.91913	57378
17.92725	58102
17.93538	55249
17.94350	54469
17.95162	55704
17.95975	51414
17.96787	49027
17.97600	50188
17.98412	49895
17.99223	48528
18.00037	45378
18.00848	53541
18.01662	55972
18.02473	63735
18.03285	72636
18.04098	81373
18.04910	85517
18.05722	90076
18.06535	112853
18.07347	155595
18.08160	231043
18.08972	306847
18.09783	361369
18.10597	372111
18.11408	318277
18.12222	268830
18.13033	215696
18.13845	183059
18.14658	154873
18.15470	148793
18.16283	135290
18.17095	122403
18.17907	115256
18.18720	111917
18.19532	106256
18.20343	105663
18.21157	95743
18.21968	92599
18.22782	87985
18.23593	82594
18.24405	78806
18.25218	79368
18.26030	80113
18.26843	84272
18.27655	75387
18.28467	66045
18.29280	61916
18.30092	54726
18.30903	51812
18.31717	52578
18.32528	51362
18.33342	49191
18.34153	51926
18.34965	45947
18.35778	47509
18.36590	47027
18.37403	55472
18.38215	86793
18.39027	134025
18.39840	185961
18.40652	236388
18.41465	268836
18.42277	290925
18.43088	319902
18.43902	324630
18.44713	331650
18.45525	354444
18.46338	418156
18.47150	487107
18.47963	530017
18.48775	567191
18.49587	554808
18.50400	507537
18.51212	445285
18.52025	391315
18.52837	359694
18.53648	348570
18.54462	315337
18.55273	301452
18.56087	296830
18.56898	286815
18.57710	284468
18.58523	273950
18.59335	277223
18.60147	282992
18.60960	279173
18.61772	275418
18.62585	278287
18.63397	280816
18.64208	272086
18.65022	263970
18.65833	260510
18.66647	255406
18.67458	251425
18.68270	236565
18.69083	236359
18.69895	231763
18.70707	234001
18.71520	236746
18.72332	230658
18.73145	231602
18.73957	230097
18.74768	227734
18.75582	221924
18.76393	219437
18.77207	208332
18.78018	215582
18.78830	213459
18.79643	215214
18.80455	206280
18.81268	204262
18.82080	202523
18.82892	200176
18.83705	199543
18.84517	201980
18.85328	199720
18.86142	191640
18.86953	191676
18.87767	190765
18.88578	190905
18.89390	191382
18.90203	188356
18.91015	183503
18.91828	184698
18.92640	189321
18.93452	182399
18.94265	184272
18.95077	188193
18.95890	189221
18.96702	182557
18.97513	189024
18.98327	175290
18.99138	177411
18.99950	173087
19.00763	168328
19.01575	168769
19.02388	158722
19.03200	162873
19.04012	162079
19.04825	159934
19.05637	161974
19.06450	163240
19.07262	171910
19.08073	200558
19.08887	240619
19.09698	289179
19.10510	316181
19.11323	331455
19.12135	314898
19.12948	278285
19.13760	240446
19.14572	209192
19.15385	193129
19.16197	169925
19.17010	163293
19.17822	156923
19.18633	156556
19.19447	150599
19.20258	155609
19.21072	142457
19.21883	143255
19.22695	146518
19.23508	146310
19.24320	138618
19.25132	136846
19.25945	131385
19.26757	135887
19.27570	138535
19.28382	141183
19.29193	146974
19.30007	139043
19.30818	140875
19.31632	144130
19.32443	139007
19.33255	134831
19.34068	136884
19.34880	150495
19.35692	159922
19.36505	185712
19.37317	197242
19.38130	216789
19.38942	203211
19.39753	186452
19.40567	167269
19.41378	149979
19.42192	138494
19.43003	130333
19.43815	127462
19.44628	129056
19.45440	131262
19.46253	144496
19.47065	165416
19.47877	198508
19.48690	248538
19.49502	289316
19.50313	304595
19.51127	299073
19.51938	248298
19.52752	201076
19.53563	167724
19.54375	143796
19.55188	138028
19.56000	123243
19.56813	126033
19.57625	118682
19.58437	110913
19.59250	111612
19.60062	108332
19.60875	110964
19.61687	105593
19.62498	109444
19.63312	116419
19.64123	126479
19.64935	145675
19.65748	179331
19.66560	212812
19.67373	243209
19.68185	254426
19.68997	250021
19.69810	239479
19.70622	215618
19.71435	201033
19.72247	176561
19.73058	159515
19.73872	147420
19.74683	139184
19.75495	128294
19.76308	119892
19.77120	123601
19.77933	125577
19.78745	123447
19.79557	138602
19.80370	135054
19.81182	128392
19.81995	121264
19.82807	115922
19.83618	115878
19.84432	113457
19.85243	122134
19.86057	168536
19.86868	274015
19.87680	478953
19.88493	816543
19.89305	1215662
19.90117	1569699
19.90930	1673088
19.91742	1575486
19.92555	1322093
19.93367	1010848
19.94178	787156
19.94992	642286
19.95803	568158
19.96617	521626
19.97428	475570
19.98240	435473
19.99053	415603
19.99865	414374
20.00678	383549
20.01490	378408
20.02302	352914
20.03115	341214
20.03927	303446
20.04738	272046
20.05552	243619
20.06363	206485
20.07177	190201
20.07988	165414
20.08800	152283
20.09613	144493
20.10425	141644
20.11238	138006
20.12050	132178
20.12862	123758
20.13675	113059
20.14487	116284
20.15298	116893
20.16112	119834
20.16923	128130
20.17737	142016
20.18548	153320
20.19360	159483
20.20173	165420
20.20985	154647
20.21798	152984
20.22610	148654
20.23422	139064
20.24235	141763
20.25047	149650
20.25860	176135
20.26672	190050
20.27483	220713
20.28297	230478
20.29108	228111
20.29920	217156
20.30733	196702
20.31545	169344
20.32358	156885
20.33170	131820
20.33982	120484
20.34795	114980
20.35607	104348
20.36420	99059
20.37232	97738
20.38043	93846
20.38857	100616
20.39668	89490
20.40480	90278
20.41293	90363
20.42105	94247
20.42918	85457
20.43730	92265
20.44542	90425
20.45355	87262
20.46167	91878
20.46980	86404
20.47792	81368
20.48603	81509
20.49417	78648
20.50228	78016
20.51042	73928
20.51853	72122
20.52665	70872
20.53478	70718
20.54290	74435
20.55102	72923
20.55915	74048
20.56727	72693
20.57540	70781
20.58352	69196
20.59163	66764
20.59977	71979
20.60788	70165
20.61602	68280
20.62413	63623
20.63225	67938
20.64038	68571
20.64850	71464
20.65663	67827
20.66475	69687
20.67287	75344
20.68100	73860
20.68912	66028
20.69723	66514
20.70537	61179
20.71348	66056
20.72162	63084
20.72973	64622
20.73785	61037
20.74598	61714
20.75410	68771
20.76223	73486
20.77035	71573
20.77847	79237
20.78660	103018
20.79472	128325
20.80283	182257
20.81097	237019
20.81908	285893
20.82722	302578
20.83533	275490
20.84345	221464
20.85158	161251
20.85970	127887
20.86783	101246
20.87595	90297
20.88407	83919
20.89220	82011
20.90032	81872
20.90845	80242
20.91657	82678
20.92468	80064
20.93282	77445
20.94093	78452
20.94905	78547
20.95718	72719
20.96530	72885
20.97343	68971
20.98155	66611
20.98967	68022
20.99780	65076
21.00592	64800
21.01405	65590
21.02217	70632
21.03028	71210
21.03842	64211
21.04653	63986
21.05467	65615
21.06278	66862
21.07090	66406
21.07903	66849
21.08715	64663
21.09527	64629
21.10340	64213
21.11152	57846
21.11965	57863
21.12777	65725
21.13588	71794
21.14402	78752
21.15213	83785
21.16027	95591
21.16838	93681
21.17650	93777
21.18463	85474
21.19275	77849
21.20087	75765
21.20900	65722
21.21712	65404
21.22525	69057
21.23337	66632
21.24148	57675
21.24962	67430
21.25773	66545
21.26587	61566
21.27398	58759
21.28210	62943
21.29023	62514
21.29835	59136
21.30648	54645
21.31460	60695
21.32272	60137
21.33085	56853
21.33897	56622
21.34708	55222
21.35522	54577
21.36333	52660
21.37147	51402
21.37958	52844
21.38770	53098
21.39583	58892
21.40395	57393
21.41208	58357
21.42020	57379
21.42832	62375
21.43645	55636
21.44457	54761
21.45270	55437
21.46082	50970
21.46893	51873
21.47707	53725
21.48518	51887
21.49330	48216
21.50143	51496
21.50955	49303
21.51768	46658
21.52580	48893
21.53392	52767
21.54205	46974
21.55017	48252
21.55830	46807
21.56642	49046
21.57453	59239
21.58267	59366
21.59078	70136
21.59890	68884
21.60703	70920
21.61515	77440
21.62328	75315
21.63140	81796
21.63952	80762
21.64765	79827
21.65577	81092
21.66390	77564
21.67202	79530
21.68013	82978
21.68827	82540
21.69638	76527
21.70452	72853
21.71263	67431
21.72075	64475
21.72888	57228
21.73700	57339
21.74512	56968
21.75325	52366
21.76137	53059
21.76950	54573
21.77762	55454
21.78573	52874
21.79387	54930
21.80198	56555
21.81012	59139
21.81823	61139
21.82635	64200
21.83448	66515
21.84260	69182
21.85072	62982
21.85885	64041
21.86697	59426
21.87510	56627
21.88322	54831
21.89133	52340
21.89947	52712
21.90758	50794
21.91572	50802
21.92383	53692
21.93195	51846
21.94008	46515
21.94820	48788
21.95633	47127
21.96445	42794
21.97257	45668
21.98070	41696
21.98882	42415
21.99693	43703
22.00507	42571
22.01318	43352
22.02132	43286
22.02943	46274
22.03755	45504
22.04568	49071
22.05380	47622
22.06193	45193
22.07005	46476
22.07817	43595
22.08630	45538
22.09442	50466
22.10255	58440
22.11067	60426
22.11878	68716
22.12692	71984
22.13503	74395
22.14315	78709
22.15128	83177
22.15940	75833
22.16753	74179
22.17565	78127
22.18377	78349
22.19190	81227
22.20002	81839
22.20815	80418
22.21627	81351
22.22438	82750
22.23252	84554
22.24063	80812
22.24875	81132
22.25688	80658
22.26500	84400
22.27313	86393
22.28125	82417
22.28937	85119
22.29750	88705
22.30562	87617
22.31375	85974
22.32187	80106
22.32998	73333
22.33812	77794
22.34623	66860
22.35437	65028
22.36248	62644
22.37060	64233
22.37873	60981
22.38685	70497
22.39497	76925
22.40310	88668
22.41122	109087
22.41935	130705
22.42747	131778
22.43558	122786
22.44372	111688
22.45183	92099
22.45997	84933
22.46808	75506
22.47620	77774
22.48433	87869
22.49245	90714
22.50058	97879
22.50870	109539
22.51682	94855
22.52495	89944
22.53307	78917
22.54118	76911
22.54932	68764
22.55743	64191
22.56557	61881
22.57368	51703
22.58180	55312
22.58993	52631
22.59805	51396
22.60618	46816
22.61430	52889
22.62242	61850
22.63055	76835
22.63867	92286
22.64678	106590
22.65492	109669
22.66303	121648
22.67117	118978
22.67928	116783
22.68740	133720
22.69553	131123
22.70365	139307
22.71178	152147
22.71990	156415
22.72802	155968
22.73615	147972
22.74427	149715
22.75240	151417
22.76052	144081
22.76863	147762
22.77677	151878
22.78488	163231
22.79300	168642
22.80113	182209
22.80925	195157
22.81738	200304
22.82550	198845
22.83362	185972
22.84175	169286
22.84987	164255
22.85800	155507
22.86612	155567
22.87423	158113
22.88237	163886
22.89048	173234
22.89860	183356
22.90673	223054
22.91485	240250
22.92298	269822
22.93110	279026
22.93922	275620
22.94735	232039
22.95547	203724
22.96360	182016
22.97172	156847
22.97983	147411
22.98797	141081
22.99608	135185
23.00422	134237
23.01233	127426
23.02045	125329
23.02858	121287
23.03670	122214
23.04482	119890
23.05295	122234
23.06107	118336
23.06920	123632
23.07732	113021
23.08543	108108
23.09357	113513
23.10168	115466
23.10982	107488
23.11793	112325
23.12605	103253
23.13418	103074
23.14230	101478
23.15043	102890
23.15855	100479
23.16667	99702
23.17480	96319
23.18292	98552
23.19103	101214
23.19917	97455
23.20728	94373
23.21542	97136
23.22353	102028
23.23165	94157
23.23978	98289
23.24790	101652
23.25603	100913
23.26415	105221
23.27227	107602
23.28040	116481
23.28852	101103
23.29665	96667
23.30477	96807
23.31288	90354
23.32102	92611
23.32913	100714
23.33725	110815
23.34538	127726
23.35350	152328
23.36163	177423
23.36975	218989
23.37787	269526
23.38600	303326
23.39412	343517
23.40225	366160
23.41037	396775
23.41848	391345
23.42662	401038
23.43473	403275
23.44285	382220
23.45098	372433
23.45910	357966
23.46723	327700
23.47535	304865
23.48347	282923
23.49160	263851
23.49972	247126
23.50785	239135
23.51597	221071
23.52408	210388
23.53222	195481
23.54033	192414
23.54847	191199
23.55658	185621
23.56470	181456
23.57283	195878
23.58095	209253
23.58907	242309
23.59720	266202
23.60532	288584
23.61345	286769
23.62157	263547
23.62968	232308
23.63782	205497
23.64593	194459
23.65407	186464
23.66218	182852
23.67030	183728
23.67843	176640
23.68655	162212
23.69467	151673
23.70280	134936
23.71092	127667
23.71905	118355
23.72717	115664
23.73528	118370
23.74342	137714
23.75153	190119
23.75967	337172
23.76778	606669
23.77590	1026751
23.78403	1557175
23.79215	2000731
23.80028	2235500
23.80840	2072393
23.81652	1768567
23.82465	1403919
23.83277	1135347
23.84088	868728
23.84902	701737
23.85713	570014
23.86527	489220
23.87338	409752
23.88150	361779
23.88963	326151
23.89775	293778
23.90588	279399
23.91400	260549
23.92212	261625
23.93025	234040
23.93837	220051
23.94650	204374
23.95462	185358
23.96273	172598
23.97087	165008
23.97898	159504
23.98710	161829
23.99523	160870
24.00335	168145
24.01148	191487
24.01960	239357
24.02772	301695
24.03585	349450
24.04397	339959
24.05210	314377
24.06022	241476
24.06833	190156
24.07647	142995
24.08458	130410
24.09270	119379
24.10083	110034
24.10895	108809
24.11708	108951
24.12520	110020
24.13332	111847
24.14145	111821
24.14957	111545
24.15770	107280
24.16582	107692
24.17393	105695
24.18207	108344
24.19018	102325
24.19832	110380
24.20643	103465
24.21455	100517
24.22268	97900
24.23080	92886
24.23892	92362
24.24705	84220
24.25517	78075
24.26330	80334
24.27142	81039
24.27953	75133
24.28767	77563
24.29578	79552
24.30392	77638
24.31203	75304
24.32015	72952
24.32828	75588
24.33640	73968
24.34453	75641
24.35265	75255
24.36077	86843
24.36890	105908
24.37702	135619
24.38513	167855
24.39327	187824
24.40138	197063
24.40952	195626
24.41763	184592
24.42575	176488
24.43388	181125
24.44200	178520
24.45013	188952
24.45825	205845
24.46637	215385
24.47450	222242
24.48262	235775
24.49073	254881
24.49887	269441
24.50698	279582
24.51512	282836
24.52323	291707
24.53135	315962
24.53948	307793
24.54760	326911
24.55573	343301
24.56385	340890
24.57197	333073
24.58010	321668
24.58822	308225
24.59635	300442
24.60447	285059
24.61258	284497
24.62072	270877
24.62883	266655
24.63695	263654
24.64508	256025
24.65320	267191
24.66133	262247
24.66945	260726
24.67757	248903
24.68570	254368
24.69382	244522
24.70195	240744
24.71007	241262
24.71818	232091
24.72632	233846
24.73443	231303
24.74255	229065
24.75068	231615
24.75880	222772
24.76693	228711
24.77505	230761
24.78317	226547
24.79130	223459
24.79942	216770
24.80755	218826
24.81567	220832
24.82378	222352
24.83192	227458
24.84003	245745
24.84817	272795
24.85628	322029
24.86440	377089
24.87253	462531
24.88065	578394
24.88877	666418
24.89690	699898
24.90502	670344
24.91315	571589
24.92127	424280
24.92938	312980
24.93752	219573
24.94563	165488
24.95377	133424
24.96188	111075
24.97000	101800
24.97813	98607
24.98625	97263
24.99438	88429
25.00250	90726
25.01062	83456
25.01875	82656
25.02687	80231
25.03498	76659
25.04312	74344
25.05123	81345
25.05937	78022
25.06748	79952
25.07560	78796
25.08373	79411
25.09185	92441
25.09998	134991
25.10810	252423
25.11622	511144
25.12435	987179
25.13247	1636910
25.14058	2281029
25.14872	2714279
25.15683	2588881
25.16497	2145898
25.17308	1538047
25.18120	996053
25.18933	596956
25.19745	353299
25.20558	226595
25.21370	170305
25.22182	137692
25.22995	127333
25.23807	136359
25.24620	159908
25.25432	191867
25.26243	235553
25.27057	267158
25.27868	272381
25.28680	253297
25.29493	217738
25.30305	179179
25.31118	144570
25.31930	123683
25.32742	112005
25.33555	115406
25.34367	148757
25.35180	190747
25.35992	240990
25.36803	276475
25.37617	301716
25.38428	316423
25.39242	329465
25.40053	338312
25.40865	344784
25.41678	347488
25.42490	346521
25.43302	353310
25.44115	356640
25.44927	346488
25.45740	351316
25.46552	361585
25.47363	356048
25.48177	350462
25.48988	357104
25.49802	336764
25.50613	335918
25.51425	334545
25.52238	335622
25.53050	329626
25.53862	328375
25.54675	323184
25.55487	328006
25.56300	314702
25.57112	322123
25.57923	311711
25.58737	326899
25.59548	306636
25.60362	313978
25.61173	308008
25.61985	303981
25.62798	296633
25.63610	307876
25.64423	307309
25.65235	303581
25.66047	293945
25.66860	295268
25.67672	274280
25.68483	283218
25.69297	270875
25.70108	271064
25.70922	258613
25.71733	268675
25.72545	266486
25.73358	258539
25.74170	259691
25.74983	241352
25.75795	250018
25.76607	244085
25.77420	243470
25.78232	248746
25.79045	243722
25.79857	234166
25.80668	246556
25.81482	247763
25.82293	228512
25.83105	226602
25.83918	222090
25.84730	225311
25.85543	229503
25.86355	226423
25.87167	220304
25.87980	216967
25.88792	205704
25.89605	204825
25.90417	204425
25.91228	203073
25.92042	202786
25.92853	203033
25.93665	187755
25.94478	194778
25.95290	195070
25.96103	185492
25.96915	189552
25.97727	181787
25.98540	184908
25.99352	179063
26.00165	182805
26.00977	172782
26.01788	173829
26.02602	165482
26.03413	171752
26.04227	160801
26.05038	160912
26.05850	159064
26.06663	167079
26.07475	164964
26.08287	154951
26.09100	164190
26.09912	164316
26.10725	154888
26.11537	154271
26.12348	159584
26.13162	157619
26.13973	158479
26.14787	158027
26.15598	159258
26.16410	156707
26.17223	150452
26.18035	150989
26.18847	137439
26.19660	143686
26.20472	136082
26.21285	145384
26.22097	132078
26.22908	135987
26.23722	127569
26.24533	128529
26.25347	130844
26.26158	126576
26.26970	126411
26.27783	122233
26.28595	120449
26.29408	121848
26.30220	121933
26.31032	114758
26.31845	112426
26.32657	116919
26.33468	114120
26.34282	109616
26.35093	115877
26.35907	114853
26.36718	131179
26.37530	127947
26.38343	135313
26.39155	146670
26.39968	151369
26.40780	156993
26.41592	146756
26.42405	134433
26.43217	126762
26.44030	116084
26.44842	115002
26.45653	106834
26.46467	104592
26.47278	105241
26.48090	108085
26.48903	96203
26.49715	99798
26.50528	95311
26.51340	93784
26.52152	87323
26.52965	89768
26.53777	91500
26.54590	89148
26.55402	88580
26.56213	85756
26.57027	88114
26.57838	83056
26.58650	85792
26.59463	85232
26.60275	81661
26.61088	83238
26.61900	85045
26.62712	84788
26.63525	79975
26.64337	79228
26.65150	80383
26.65962	83905
26.66773	85887
26.67587	85219
26.68398	83481
26.69212	75273
26.70023	77333
26.70835	79639
26.71648	76033
26.72460	78786
26.73272	73189
26.74085	76833
26.74897	71919
26.75710	69220
26.76522	72828
26.77333	73427
26.78147	74211
26.78958	78257
26.79772	80200
26.80583	78461
26.81395	77201
26.82208	80178
26.83020	76998
26.83833	73411
26.84645	72123
26.85457	69570
26.86270	65258
26.87082	67038
26.87893	67812
26.88707	64385
26.89518	66642
26.90332	60845
26.91143	64288
26.91955	66182
26.92768	58539
26.93580	66587
26.94393	60779
26.95205	64842
26.96017	67153
26.96830	78574
26.97642	92127
26.98453	111511
26.99267	161924
27.00078	217239
27.00892	284534
27.01703	353660
27.02515	403938
27.03328	426949
27.04140	406836
27.04953	388071
27.05765	352663
27.06577	300011
27.07390	251639
27.08202	210604
27.09015	186439
27.09827	170431
27.10638	155034
27.11452	143584
27.12263	142418
27.13075	137984
27.13888	118067
27.14700	123677
27.15513	114249
27.16325	108745
27.17137	105458
27.17950	104449
27.18762	111313
27.19575	106117
27.20387	103311
27.21198	95914
27.22012	93623
27.22823	96323
27.23635	90853
27.24448	82917
27.25260	78878
27.26073	80928
27.26885	75593
27.27697	74493
27.28510	71950
27.29322	70930
27.30135	74784
27.30947	73738
27.31758	72921
27.32572	66853
27.33383	69983
27.34197	68567
27.35008	69033
27.35820	70536
27.36633	68550
27.37445	70170
27.38257	70266
27.39070	67336
27.39882	64616
27.40695	64484
27.41507	59986
27.42318	67767
27.43132	61109
27.43943	59550
27.44757	60281
27.45568	57441
27.46380	62759
27.47193	60396
27.48005	64364
27.48818	63037
27.49630	61052
27.50442	59311
27.51255	64380
27.52067	62379
27.52878	62970
27.53692	64473
27.54503	59509
27.55317	62491
27.56128	65377
27.56940	64021
27.57753	70276
27.58565	74414
27.59378	79166
27.60190	83305
27.61002	82736
27.61815	75987
27.62627	69287
27.63438	66131
27.64252	59901
27.65063	58668
27.65877	56369
27.66688	57185
27.67500	58688
27.68313	64314
27.69125	63854
27.69938	57853
27.70750	57019
27.71562	61642
27.72375	53973
27.73187	52989
27.74000	52182
27.74812	50037
27.75623	50703
27.76437	50126
27.77248	50653
27.78060	52013
27.78873	54622
27.79685	54554
27.80498	53177
27.81310	52506
27.82122	52787
27.82935	51253
27.83747	53731
27.84560	53157
27.85372	51289
27.86183	52866
27.86997	50774
27.87808	51166
27.88622	47656
27.89433	47656
27.90245	49261
27.91058	49665
27.91870	47779
27.92682	46466
27.93495	47179
27.94307	48935
27.95120	44434
27.95932	50001
27.96743	46416
27.97557	47558
27.98368	45651
27.99182	48115
27.99993	50882
28.00805	55903
28.01618	55741
28.02430	63022
28.03242	61192
28.04055	70857
28.04867	78333
28.05680	72157
28.06492	71208
28.07303	67372
28.08117	63755
28.08928	55652
28.09742	56719
28.10553	51483
28.11365	52353
28.12178	47485
28.12990	49087
28.13803	50382
28.14615	42266
28.15427	47676
28.16240	44640
28.17052	47333
28.17863	52622
28.18677	59036
28.19488	62295
28.20302	70607
28.21113	73318
28.21925	77050
28.22738	74605
28.23550	81687
28.24363	68573
28.25175	70793
28.25987	62590
28.26800	55532
28.27612	50203
28.28423	54118
28.29237	51055
28.30048	56228
28.30862	61672
28.31673	69133
28.32485	79169
28.33298	90124
28.34110	98230
28.34923	113134
28.35735	124396
28.36547	136536
28.37360	138564
28.38172	156953
28.38985	158725
28.39797	163808
28.40608	160897
28.41422	170745
28.42233	167591
28.43045	148206
28.43858	136775
28.44670	136267
28.45483	130412
28.46295	117723
28.47107	109482
28.47920	105755
28.48732	101539
28.49545	98937
28.50357	93844
28.51168	88264
28.51982	85282
28.52793	81158
28.53607	80196
28.54418	78186
28.55230	71362
28.56043	71469
28.56855	64339
28.57667	66938
28.58480	68966
28.59292	68002
28.60105	68961
28.60917	65738
28.61728	66065
28.62542	65558
28.63353	65235
28.64167	68166
28.64978	66854
28.65790	68856
28.66603	66050
28.67415	62288
28.68228	62809
28.69040	67250
28.69852	62835
28.70665	62925
28.71477	58933
28.72288	60097
28.73102	64453
28.73913	69749
28.74727	78324
28.75538	84192
28.76350	90767
28.77163	83509
28.77975	81773
28.78788	71954
28.79600	69619
28.80412	67488
28.81225	64011
28.82037	68309
28.82848	63367
28.83662	56035
28.84473	58609
28.85287	62091
28.86098	59938
28.86910	59489
28.87723	63089
28.88535	67923
28.89348	69916
28.90160	69404
28.90972	74080
28.91785	71036
28.92597	62244
28.93410	63369
28.94222	61843
28.95033	60569
28.95847	55365
28.96658	59759
28.97470	55325
28.98283	53909
28.99095	50920
28.99908	48891
29.00720	49727
29.01532	49405
29.02345	50412
29.03157	51753
29.03970	50818
29.04782	51499
29.05593	48564
29.06407	53601
29.07218	53322
29.08030	54328
29.08843	56960
29.09655	53593
29.10468	57171
29.11280	52295
29.12092	54026
29.12905	52428
29.13717	49698
29.14530	52395
29.15342	53164
29.16153	50594
29.16967	49155
29.17778	54246
29.18592	58840
29.19403	75011
29.20215	89092
29.21028	100019
29.21840	106676
29.22652	97428
29.23465	92304
29.24277	84189
29.25090	78751
29.25902	80392
29.26713	81401
29.27527	70632
29.28338	71069
29.29152	65046
29.29963	60394
29.30775	54259
29.31588	54534
29.32400	55085
29.33213	49918
29.34025	49144
29.34837	48111
29.35650	47751
29.36462	48070
29.37273	44050
29.38087	44800
29.38898	47827
29.39712	44491
29.40523	46566
29.41335	48096
29.42148	50637
29.42960	48304
29.43773	49677
29.44585	49043
29.45397	43529
29.46210	45466
29.47022	46751
29.47833	46640
29.48647	49172
29.49458	47336
29.50272	48608
29.51083	49722
29.51895	46079
29.52708	46648
29.53520	49137
29.54333	48318
29.55145	43973
29.55957	46694
29.56770	47978
29.57582	43102
29.58395	45136
29.59207	43437
29.60018	45500
29.60832	43051
29.61643	44205
29.62455	44008
29.63268	43601
29.64080	44629
29.64893	40968
29.65705	40493
29.66517	44521
29.67330	43602
29.68142	45918
29.68955	49424
29.69767	50276
29.70578	53571
29.71392	50303
29.72203	48540
29.73017	48518
29.73828	48847
29.74640	44803
29.75453	42801
29.76265	42660
29.77077	44928
29.77890	41540
29.78702	40890
29.79515	37783
29.80327	38168
29.81138	37818
29.81952	40643
29.82763	40175
29.83577	40260
29.84388	43884
29.85200	43500
29.86013	50275
29.86825	57671
29.87637	81972
29.88450	111572
29.89262	139281
29.90075	155121
29.90887	163036
29.91698	142521
29.92512	116897
29.93323	82497
29.94137	67330
29.94948	61385
29.95760	63277
29.96573	65085
29.97385	69511
29.98198	72510
29.99010	69015
29.99822	81270
30.00635	83590
30.01447	91038
30.02258	102504
30.03072	97400
30.03883	96620
30.04697	101782
30.05508	95358
30.06320	97963
30.07133	90878
30.07945	95908
30.08758	100449
30.09570	92186
30.10382	98388
30.11195	92654
30.12007	87652
30.12818	82974
30.13632	78745
30.14443	77475
30.15257	77330
30.16068	78015
30.16880	73936
30.17693	74025
30.18505	69011
30.19318	67312
30.20130	70042
30.20942	65239
30.21755	65080
30.22567	64565
30.23380	57503
30.24192	58970
30.25003	55137
30.25817	53421
30.26628	51296
30.27440	53185
30.28253	55960
30.29065	50190
30.29878	52556
30.30690	52226
30.31502	51711
30.32315	50826
30.33127	46761
30.33940	47502
30.34752	54231
30.35563	49840
30.36377	50900
30.37188	49766
30.38002	47941
30.38813	46864
30.39625	49480
30.40438	47405
30.41250	47491
30.42062	43707
30.42875	45044
30.43687	47904
30.44500	45597
30.45312	42470
30.46123	44521
30.46937	47043
30.47748	39536
30.48562	43548
30.49373	44114
30.50185	43459
30.50998	45739
30.51810	48396
30.52622	42010
30.53435	42822
30.54247	45195
30.55060	45113
30.55872	43560
30.56683	46378
30.57497	46129
30.58308	40611
30.59122	43955
30.59933	46167
30.60745	44813
30.61558	39654
30.62370	46981
30.63183	43364
30.63995	42778
30.64807	45667
30.65620	43742
30.66432	42160
30.67243	44547
30.68057	40335
30.68868	40453
30.69682	37617
30.70493	38617
30.71305	42233
30.72118	43472
30.72930	45236
30.73743	44601
30.74555	38342
30.75367	41820
30.76180	41831
30.76992	47917
30.77805	57939
30.78617	67296
30.79428	88105
30.80242	102111
30.81053	121179
30.81865	117166
30.82678	99725
30.83490	92305
30.84303	72126
30.85115	58726
30.85927	54516
30.86740	51208
30.87552	49299
30.88365	45365
30.89177	42715
30.89988	42485
30.90802	46490
30.91613	43329
30.92425	39101
30.93238	41281
30.94050	44601
30.94863	44125
30.95675	42797
30.96487	41350
30.97300	40423
30.98112	41327
30.98925	43999
30.99737	41312
31.00548	37706
31.01362	40128
31.02173	48097
31.02987	47250
31.03798	52317
31.04610	52973
31.05423	55537
31.06235	53300
31.07047	62651
31.07860	59409
31.08672	68096
31.09485	71978
31.10297	71944
31.11108	73260
31.11922	68623
31.12733	66729
31.13547	64493
31.14358	65891
31.15170	70660
31.15983	65459
31.16795	67086
31.17608	70354
31.18420	77329
31.19232	86767
31.20045	102453
31.20857	120362
31.21668	134704
31.22482	145311
31.23293	152257
31.24107	133471
31.24918	118633
31.25730	101693
31.26543	86023
31.27355	69650
31.28168	64634
31.28980	68617
31.29792	64417
31.30605	66652
31.31417	63340
31.32228	62937
31.33042	60470
31.33853	64491
31.34667	62967
31.35478	63875
31.36290	64508
31.37103	62206
31.37915	58832
31.38728	63232
31.39540	63635
31.40352	62025
31.41165	61812
31.41977	58021
31.42790	56326
31.43602	54561
31.44413	53435
31.45227	56596
31.46038	55064
31.46850	58555
31.47663	60428
31.48475	53599
31.49288	58147
31.50100	59263
31.50912	55009
31.51725	58021
31.52537	57635
31.53350	55426
31.54162	59693
31.54973	55600
31.55787	58578
31.56598	60255
31.57410	59015
31.58223	53590
31.59035	50982
31.59848	54996
31.60660	53445
31.61472	52646
31.62285	53972
31.63097	52663
31.63910	55350
31.64722	52139
31.65533	50809
31.66347	60702
31.67158	52991
31.67972	57466
31.68783	54702
31.69595	53276
31.70408	53928
31.71220	53703
31.72032	51102
31.72845	54039
31.73657	46902
31.74470	48012
31.75282	47770
31.76093	44660
31.76907	45486
31.77718	47583
31.78532	49781
31.79343	47347
31.80155	52082
31.80968	50234
31.81780	51066
31.82593	47912
31.83405	46818
31.84217	48189
31.85030	51823
31.85842	52549
31.86653	56900
31.87467	52403
31.88278	51760
31.89092	52214
31.89903	62049
31.90715	62668
31.91528	65291
31.92340	74707
31.93153	76692
31.93965	83028
31.94777	82286
31.95590	85028
31.96402	89467
31.97213	87360
31.98027	93363
31.98838	90570
31.99652	88800
32.00463	88730
32.01275	83981
32.02088	82037
32.02900	87657
32.03713	82205
32.04525	82365
32.05337	80929
32.06150	79476
32.06962	72800
32.07775	73825
32.08587	69566
32.09398	66267
32.10212	63719
32.11023	57040
32.11835	59582
32.12648	56977
32.13460	58214
32.14273	55756
32.15085	57207
32.15897	53800
32.16710	54895
32.17522	61551
32.18335	51634
32.19147	52826
32.19958	48655
32.20772	51719
32.21583	54916
32.22397	51820
32.23208	52262
32.24020	49037
32.24833	52934
32.25645	53802
32.26457	55702
32.27270	55545
32.28082	52250
32.28895	49270
32.29707	49709
32.30518	47383
32.31332	48829
32.32143	51803
32.32957	52682
32.33768	45758
32.34580	46867
32.35393	51069
32.36205	49192
32.37017	45355
32.37830	48657
32.38642	43931
32.39455	44154
32.40267	43201
32.41078	47887
32.41892	48246
32.42703	43761
32.43517	49205
32.44328	42173
32.45140	47591
32.45953	46776
32.46765	44034
32.47578	44013
32.48390	45781
32.49202	45691
32.50015	44271
32.50827	41436
32.51638	45527
32.52452	45109
32.53263	44701
32.54077	43458
32.54888	45410
32.55700	43318
32.56513	41733
32.57325	47371
32.58138	44478
32.58950	40803
32.59762	40110
32.60575	42426
32.61387	45441
32.62198	48722
32.63012	47951
32.63823	54255
32.64637	59891
32.65448	57695
32.66260	59758
32.67073	55448
32.67885	49747
32.68698	49748
32.69510	46383
32.70322	48766
32.71135	46985
32.71947	48269
32.72760	49193
32.73572	45556
32.74383	41833
32.75197	42104
32.76008	42209
32.76820	45733
32.77633	45585
32.78445	39546
32.79258	38719
32.80070	43475
32.80882	39084
32.81695	40775
32.82507	42147
32.83320	43512
32.84132	41256
32.84943	39698
32.85757	39422
32.86568	42574
32.87382	42468
32.88193	44269
32.89005	44637
32.89818	49178
32.90630	48112
32.91442	54609
32.92255	49351
32.93067	48059
32.93880	43371
32.94692	44206
32.95503	45249
32.96317	44647
32.97128	51266
32.97942	48120
32.98753	56697
32.99565	61999
33.00378	61852
33.01190	61929
33.02002	56395
33.02815	54860
33.03627	50718
33.04440	47907
33.05252	52615
33.06063	49047
33.06877	50972
33.07688	54848
33.08502	57248
33.09313	58233
33.10125	64937
33.10938	67020
33.11750	70260
33.12563	63821
33.13375	56075
33.14187	54700
33.15000	54848
33.15812	47395
33.16623	47379
33.17437	45441
33.18248	46640
33.19062	45762
33.19873	44445
33.20685	45061
33.21498	46744
33.22310	48416
33.23123	47537
33.23935	46756
33.24747	44809
33.25560	42885
33.26372	44096
33.27185	40352
33.27997	40483
33.28808	42174
33.29622	44192
33.30433	39698
33.31245	43988
33.32058	42239
33.32870	47240
33.33683	40565
33.34495	44952
33.35307	47265
33.36120	48726
33.36932	48095
33.37745	50010
33.38557	47401
33.39368	43037
33.40182	44794
33.40993	40739
33.41805	43022
33.42618	39660
33.43430	38897
33.44243	42782
33.45055	36937
33.45867	41019
33.46680	37368
33.47492	40795
33.48305	41298
33.49117	40770
33.49928	41908
33.50742	45963
33.51553	42767
33.52367	40825
33.53178	47492
33.53990	49804
33.54803	49959
33.55615	51775
33.56427	48927
33.57240	47596
33.58052	49319
33.58865	43624
33.59677	43750
33.60488	42659
33.61302	41819
33.62113	42019
33.62927	40066
33.63738	44026
33.64550	48907
33.65363	38943
33.66175	42026
33.66987	46302
33.67800	43572
33.68612	43486
33.69425	44121
33.70237	41239
33.71048	42367
33.71862	41453
33.72673	45599
33.73487	41599
33.74298	37976
33.75110	40227
33.75923	41091
33.76735	41568
33.77548	43204
33.78360	43996
33.79172	41465
33.79985	37233
33.80797	40958
33.81608	40906
33.82422	41114
33.83233	44776
33.84047	43228
33.84858	43866
33.85670	45298
33.86483	44931
33.87295	43307
33.88108	46394
33.88920	48625
33.89732	45987
33.90545	46693
33.91357	44485
33.92170	47841
33.92982	40765
33.93793	39948
33.94607	42362
33.95418	47444
33.96230	43464
33.97043	37433
33.97855	39763
33.98668	41928
33.99480	42601
34.00292	42470
34.01105	42425
34.01917	44559
34.02730	41205
34.03542	41318
34.04353	43067
34.05167	45180
34.05978	41765
34.06792	39299
34.07603	42566
34.08415	44238
34.09228	44378
34.10040	40273
34.10852	44905
34.11665	45115
34.12477	41509
34.13290	45194
34.14102	44425
34.14913	43654
34.15727	44746
34.16538	45876
34.17352	39613
34.18163	44181
34.18975	45442
34.19788	44099
34.20600	40989
34.21412	43690
34.22225	42464
34.23037	40219
34.23850	41266
34.24662	40334
34.25473	44927
34.26287	41573
34.27098	45311
34.27912	43593
34.28723	43808
34.29535	41600
34.30348	41795
34.31160	42576
34.31973	37322
34.32785	44189
34.33597	43395
34.34410	43085
34.35222	42499
34.36033	41220
34.36847	38342
34.37658	42067
34.38472	41814
34.39283	43738
34.40095	40354
34.40908	42775
34.41720	43092
34.42533	46128
34.43345	38949
34.44157	41907
34.44970	41307
34.45782	42920
34.46593	43637
34.47407	39698
34.48218	43247
34.49032	44018
34.49843	47752
34.50655	50647
34.51468	57001
34.52280	65265
34.53093	77096
34.53905	73627
34.54717	81815
34.55530	77433
34.56342	85388
34.57155	71976
34.57967	69665
34.58778	64020
34.59592	64362
34.60403	58892
34.61215	60977
34.62028	61858
34.62840	58187
34.63653	55770
34.64465	52766
34.65277	51139
34.66090	52196
34.66902	51616
34.67715	48213
34.68527	51312
34.69338	48312
34.70152	49846
34.70963	46153
34.71777	43130
34.72588	46482
34.73400	49327
34.74213	49107
34.75025	48505
34.75837	46852
34.76650	50028
34.77462	47647
34.78275	47621
34.79087	48815
34.79898	48473
34.80712	47117
34.81523	47591
34.82337	50612
34.83148	49437
34.83960	47475
34.84773	47372
34.85585	50785
34.86397	50337
34.87210	46540
34.88022	48879
34.88835	45394
34.89647	51323
34.90458	46355
34.91272	46601
34.92083	47980
34.92897	49046
34.93708	52269
34.94520	52035
34.95333	50420
34.96145	51609
34.96958	55130
34.97770	53142
34.98582	49401
34.99395	51787
35.00207	50309
35.01018	44473
35.01832	46360
35.02643	46767
35.03457	45726
35.04268	45140
35.05080	43698
35.05893	43131
35.06705	47337
35.07518	44544
35.08330	41285
35.09142	42172
35.09955	43758
35.10767	41723
35.11580	47251
35.12392	42546
35.13203	45222
35.14017	45847
35.14828	45155
35.15640	44581
35.16453	47620
35.17265	42776
35.18078	46058
35.18890	43335
35.19702	43574
35.20515	47530
35.21327	43714
35.22140	42380
35.22952	41179
35.23763	43523
35.24577	40530
35.25388	42105
35.26200	44864
35.27013	44699
35.27825	43893
35.28638	45881
35.29450	45373
35.30262	39019
35.31075	44259
35.31887	41843
35.32700	42211
35.33512	43491
35.34323	43785
35.35137	42887
35.35948	43975
35.36762	44004
35.37573	42512
35.38385	41751
35.39198	45406
35.40010	46889
35.40822	49861
35.41635	50973
35.42447	61624
35.43260	57554
35.44072	53797
35.44883	54821
35.45697	55257
35.46508	48554
35.47322	49037
35.48133	46790
35.48945	46511
35.49758	46091
35.50570	46614
35.51382	46230
35.52195	48450
35.53007	46246
35.53820	46014
35.54632	51538
35.55443	47414
35.56257	44651
35.57068	43960
35.57882	44971
35.58693	47851
35.59505	49464
35.60318	46321
35.61130	46484
35.61943	44702
35.62755	46213
35.63567	44644
35.64380	46666
35.65192	46456
35.66003	49474
35.66817	50577
35.67628	49865
35.68442	50300
35.69253	45718
35.70065	48240
35.70878	44221
35.71690	47020
35.72503	43429
35.73315	47891
35.74127	47691
35.74940	52954
35.75752	48822
35.76565	50082
35.77377	48136
35.78188	51239
35.79002	45451
35.79813	46265
35.80625	48461
35.81438	43688
35.82250	45505
35.83063	45444
35.83875	44469
35.84687	46419
35.85500	46129
35.86312	44246
35.87125	44085
35.87937	44268
35.88748	46137
35.89562	44785
35.90373	45623
35.91185	43279
35.91998	42790
35.92810	43819
35.93623	43394
35.94435	49390
35.95247	46393
35.96060	44263
35.96872	43363
35.97685	42902
35.98497	46030
35.99308	49072
36.00122	47176
36.00933	46863
36.01747	44407
36.02558	49466
36.03370	53127
36.04183	45793
36.04995	50515
36.05807	48981
36.06620	45859
36.07432	47138
36.08245	44372
36.09057	49129
36.09868	47317
36.10682	43879
36.11493	44788
36.12307	46824
36.13118	46334
36.13930	48941
36.14743	50820
36.15555	49231
36.16368	45078
36.17180	44331
36.17992	47903
36.18805	49213
36.19617	47653
36.20428	42960
36.21242	45723
36.22053	43747
36.22867	43450
36.23678	42362
36.24490	40654
36.25303	41960
36.26115	46943
36.26928	49125
36.27740	51585
36.28552	58115
36.29365	62633
36.30177	62504
36.30988	62806
36.31802	60367
36.32613	49685
36.33427	50618
36.34238	50103
36.35050	44642
36.35863	47656
36.36675	46544
36.37488	48916
36.38300	49401
36.39112	47182
36.39925	46509
36.40737	49340
36.41550	49254
36.42362	46133
36.43173	48294
36.43987	49460
36.44798	48915
36.45610	46530
36.46423	45871
36.47235	48445
36.48048	47001
36.48860	47230
36.49672	43974
36.50485	49198
36.51297	48618
36.52110	50410
36.52922	47915
36.53733	44175
36.54547	46228
36.55358	46298
36.56172	50772
36.56983	46796
36.57795	45463
36.58608	45227
36.59420	46114
36.60232	46314
36.61045	51377
36.61857	50578
36.62670	49528
36.63482	56846
36.64293	54704
36.65107	54897
36.65918	57009
36.66732	52289
36.67543	52690
36.68355	50734
36.69168	49949
36.69980	53889
36.70792	54615
36.71605	53420
36.72417	49859
36.73230	50511
36.74042	53446
36.74853	51158
36.75667	54780
36.76478	51145
36.77292	52559
36.78103	51865
36.78915	53182
36.79728	57905
36.80540	48144
36.81353	53675
36.82165	51480
36.82977	51104
36.83790	54602
36.84602	53154
36.85413	54839
36.86227	48798
36.87038	53492
36.87852	51054
36.88663	52383
36.89475	49972
36.90288	50868
36.91100	47746
36.91913	53121
36.92725	56137
36.93537	58246
36.94350	57967
36.95162	57635
36.95973	62255
36.96787	64524
36.97598	68246
36.98412	64527
36.99223	60747
37.00035	56804
37.00848	57192
37.01660	56218
37.02473	54286
37.03285	55765
37.04097	51719
37.04910	51800
37.05722	54148
37.06535	54840
37.07347	50967
37.08158	57217
37.08972	52474
37.09783	51494
37.10595	53537
37.11408	55515
37.12220	54527
37.13033	51916
37.13845	55770
37.14657	53226
37.15470	55140
37.16282	51584
37.17095	53259
37.17907	52437
37.18718	53519
37.19532	52048
37.20343	52616
37.21157	51541
37.21968	53128
37.22780	51905
37.23593	53324
37.24405	50338
37.25217	51226
37.26030	50691
37.26842	53448
37.27655	52395
37.28467	49943
37.29278	57255
37.30092	56207
37.30903	60913
37.31717	65910
37.32528	72718
37.33340	83881
37.34153	80643
37.34965	80315
37.35777	80455
37.36590	77273
37.37402	74920
37.38215	69354
37.39027	66198
37.39838	68069
37.40652	66698
37.41463	63024
37.42277	61151
37.43088	66554
37.43900	70652
37.44713	66175
37.45525	61110
37.46338	60655
37.47150	60147
37.47962	59208
37.48775	59485
