C:\MassHunter\GCMS\1\data\JTB-E18\JTB-E18-029-10.D Tue Oct 01 17:01:45 2019
Start of data points
2.09537,125269
2.10348,134322
2.11162,128609
2.11973,118817
2.12787,115871
2.13598,119279
2.14410,121822
2.15223,113700
2.16035,113104
2.16848,112662
2.17660,105924
2.18472,103922
2.19285,99478
2.20097,102302
2.20908,97586
2.21722,99976
2.22533,95074
2.23347,92774
2.24158,92122
2.24970,97720
2.25783,93729
2.26595,119668
2.27408,475329
2.28220,1084324
2.29032,933142
2.29845,502196
2.30657,353181
2.31468,285178
2.32282,261706
2.33093,229855
2.33907,236989
2.34718,229420
2.35530,200151
2.36343,176129
2.37155,170850
2.37968,183572
2.38780,247557
2.39592,228188
2.40405,181095
2.41217,174006
2.42030,173592
2.42842,169345
2.43653,164804
2.44467,152662
2.45278,164287
2.46090,152745
2.46903,146756
2.47715,145114
2.48528,134138
2.49340,156277
2.50152,178157
2.50965,158015
2.51777,145879
2.52590,148048
2.53402,133125
2.54213,139129
2.55027,145293
2.55838,179832
2.56650,219250
2.57463,188607
2.58275,171486
2.59088,158276
2.59900,148028
2.60712,173004
2.61525,335612
2.62337,444035
2.63150,399499
2.63962,267170
2.64773,195513
2.65587,177080
2.66398,161178
2.67212,158534
2.68023,184462
2.68835,182744
2.69648,158613
2.70460,142820
2.71272,136598
2.72085,129838
2.72897,138250
2.73710,142193
2.74522,134229
2.75333,128940
2.76147,126925
2.76958,127107
2.77772,126910
2.78583,179525
2.79395,241654
2.80208,213178
2.81020,195095
2.81833,207780
2.82645,310379
2.83457,631233
2.84270,829805
2.85082,552163
2.85893,331716
2.86707,284936
2.87518,268530
2.88332,225381
2.89143,187994
2.89955,169637
2.90768,165149
2.91580,152892
2.92393,145419
2.93205,132214
2.94017,132502
2.94830,127822
2.95642,128514
2.96453,120578
2.97267,129813
2.98078,123888
2.98892,127947
2.99703,139422
3.00515,148715
3.01328,154893
3.02140,157112
3.02953,216685
3.03765,444624
3.04577,652713
3.05390,1122274
3.06202,3275542
3.07015,5720498
3.07827,4817115
3.08638,2646948
3.09452,1823259
3.10263,1890448
3.11075,2046463
3.11888,2280768
3.12700,1907486
3.13513,1336175
3.14325,1002924
3.15137,800243
3.15950,683129
3.16762,618554
3.17575,631254
3.18387,664826
3.19198,831728
3.20012,1390230
3.20823,1637337
3.21637,1289321
3.22448,963530
3.23260,802911
3.24073,713382
3.24885,610570
3.25697,543077
3.26510,477146
3.27322,439130
3.28135,404694
3.28947,485970
3.29758,1008123
3.30572,2480515
3.31383,4375596
3.32197,4848527
3.33008,3898397
3.33820,2764210
3.34633,2066681
3.35445,1636018
3.36257,1388205
3.37070,1208491
3.37882,1168062
3.38695,1247760
3.39507,1213715
3.40318,1099647
3.41132,1236054
3.41943,2014509
3.42757,2695570
3.43568,2264180
3.44380,1508133
3.45193,1036943
3.46005,837929
3.46818,739451
3.47630,687278
3.48442,637464
3.49255,592989
3.50067,547477
3.50878,513646
3.51692,485274
3.52503,461718
3.53317,470491
3.54128,481216
3.54940,464449
3.55753,443763
3.56565,407259
3.57378,401538
3.58190,413312
3.59002,410723
3.59815,387952
3.60627,347360
3.61440,326211
3.62252,385826
3.63063,658534
3.63877,1293052
3.64688,1801392
3.65500,1585752
3.66313,1077386
3.67125,1060485
3.67938,2545514
3.68750,5360890
3.69562,6247110
3.70375,4546367
3.71187,2933303
3.72000,2114808
3.72812,1702717
3.73623,1448355
3.74437,1284629
3.75248,1139556
3.76060,1055353
3.76873,970898
3.77685,909626
3.78498,873049
3.79310,825471
3.80122,786451
3.80935,765829
3.81747,895889
3.82560,1103227
3.83372,1122491
3.84183,941910
3.84997,798760
3.85808,707387
3.86622,649417
3.87433,619697
3.88245,583431
3.89058,553987
3.89870,522582
3.90682,513193
3.91495,499874
3.92307,533049
3.93120,668723
3.93932,790483
3.94743,788907
3.95557,765725
3.96368,1110476
3.97182,1840944
3.97993,2220862
3.98805,1773985
3.99618,1201359
4.00430,1106073
4.01242,1901597
4.02055,3367745
4.02867,3998193
4.03680,3129690
4.04492,1933103
4.05303,1264851
4.06117,948057
4.06928,784373
4.07742,676581
4.08553,614678
4.09365,561965
4.10178,518025
4.10990,476081
4.11803,450804
4.12615,410651
4.13427,410524
4.14240,504326
4.15052,1021998
4.15863,2171420
4.16677,2909909
4.17488,2533182
4.18302,1795672
4.19113,1301814
4.19925,1022322
4.20738,825990
4.21550,791158
4.22363,1436893
4.23175,4141390
4.23987,9116739
4.24800,1.351147E+07
4.25612,1.404419E+07
4.26425,1.050098E+07
4.27237,6629358
4.28048,4458157
4.28862,3220127
4.29673,2481619
4.30485,1988768
4.31298,1666646
4.32110,1459756
4.32923,1293092
4.33735,1164837
4.34547,1049002
4.35360,993846
4.36172,996582
4.36985,967820
4.37797,916829
4.38608,848882
4.39422,765133
4.40233,707365
4.41045,648780
4.41858,608077
4.42670,590639
4.43483,570788
4.44295,539449
4.45107,515651
4.45920,503514
4.46732,496279
4.47545,477901
4.48357,467535
4.49168,432793
4.49982,423275
4.50793,383313
4.51607,372943
4.52418,355307
4.53230,339912
4.54043,319469
4.54855,318564
4.55667,329763
4.56480,325151
4.57292,324659
4.58105,320611
4.58917,313038
4.59728,311228
4.60542,304346
4.61353,305830
4.62167,303304
4.62978,351747
4.63790,481557
4.64603,704910
4.65415,904065
4.66228,825349
4.67040,632804
4.67852,482625
4.68665,424205
4.69477,382230
4.70288,345673
4.71102,328286
4.71913,304246
4.72727,288090
4.73538,283508
4.74350,277759
4.75163,270933
4.75975,262425
4.76788,254158
4.77600,247678
4.78412,255986
4.79225,242624
4.80037,250632
4.80848,295430
4.81662,356455
4.82473,365274
4.83287,330968
4.84098,312361
4.84910,303478
4.85723,295602
4.86535,297744
4.87348,285294
4.88160,260322
4.88972,251051
4.89785,250207
4.90597,237848
4.91410,231519
4.92222,241203
4.93033,286840
4.93847,431819
4.94658,808767
4.95470,1438185
4.96283,2016621
4.97095,2155807
4.97908,1901976
4.98720,1493985
4.99532,1138803
5.00345,917457
5.01157,779343
5.01970,684776
5.02782,619987
5.03593,661890
5.04407,856818
5.05218,1130801
5.06030,1237648
5.06843,1137282
5.07655,938595
5.08468,798443
5.09280,685453
5.10092,629364
5.10905,577516
5.11717,573844
5.12530,569044
5.13342,560500
5.14153,523052
5.14967,470524
5.15778,453016
5.16592,459896
5.17403,514536
5.18215,570474
5.19028,566559
5.19840,570237
5.20652,596686
5.21465,590597
5.22277,579992
5.23090,524963
5.23902,484753
5.24713,438996
5.25527,409973
5.26338,372011
5.27152,346429
5.27963,318100
5.28775,313707
5.29588,303294
5.30400,291780
5.31213,287975
5.32025,285961
5.32837,283692
5.33650,271838
5.34462,279989
5.35273,287505
5.36087,290186
5.36898,274541
5.37712,256626
5.38523,265723
5.39335,268885
5.40148,278875
5.40960,287998
5.41773,279861
5.42585,268091
5.43397,253369
5.44210,241501
5.45022,246160
5.45835,242841
5.46647,251079
5.47458,244807
5.48272,241270
5.49083,233002
5.49895,225756
5.50708,217437
5.51520,217974
5.52333,217126
5.53145,215901
5.53957,215930
5.54770,208149
5.55582,211730
5.56395,222453
5.57207,255431
5.58018,297027
5.58832,322862
5.59643,307447
5.60455,273117
5.61268,249559
5.62080,234018
5.62893,227041
5.63705,221371
5.64517,221477
5.65330,226722
5.66142,227098
5.66955,210878
5.67767,198675
5.68578,207169
5.69392,214455
5.70203,235108
5.71017,246401
5.71828,247261
5.72640,249603
5.73453,253319
5.74265,261207
5.75077,247745
5.75890,233715
5.76702,229290
5.77515,237063
5.78327,243258
5.79138,245837
5.79952,229854
5.80763,233132
5.81577,263006
5.82388,354804
5.83200,535610
5.84013,751394
5.84825,901315
5.85637,839680
5.86450,660474
5.87262,507700
5.88075,381129
5.88887,309872
5.89698,258745
5.90512,244373
5.91323,235407
5.92137,252523
5.92948,312830
5.93760,394066
5.94573,454239
5.95385,460763
5.96198,400255
5.97010,362554
5.97822,409797
5.98635,551583
5.99447,725003
6.00258,776156
6.01072,690498
6.01883,526408
6.02697,387053
6.03508,320951
6.04320,265037
6.05133,240588
6.05945,221379
6.06758,211870
6.07570,198920
6.08382,194041
6.09195,182239
6.10007,180443
6.10820,179126
6.11632,173890
6.12443,181749
6.13257,195314
6.14068,243555
6.14880,353689
6.15693,491512
6.16505,532313
6.17318,487163
6.18130,391300
6.18942,308555
6.19755,259918
6.20567,253848
6.21380,259315
6.22192,246524
6.23003,244769
6.23817,227802
6.24628,217106
6.25440,212633
6.26253,213759
6.27065,215563
6.27878,225578
6.28690,220498
6.29502,208517
6.30315,207005
6.31127,202967
6.31940,200771
6.32752,211163
6.33563,211544
6.34377,214381
6.35188,236816
6.36002,247030
6.36813,236065
6.37625,233847
6.38438,233803
6.39250,232682
6.40062,224364
6.40875,230612
6.41687,221572
6.42500,230183
6.43312,218545
6.44123,224054
6.44937,226359
6.45748,234193
6.46562,230687
6.47373,231303
6.48185,232922
6.48998,232063
6.49810,238447
6.50623,241488
6.51435,238777
6.52247,251573
6.53060,253487
6.53872,254123
6.54683,252417
6.55497,260433
6.56308,255694
6.57122,268123
6.57933,287926
6.58745,312718
6.59558,328551
6.60370,338964
6.61183,323162
6.61995,294680
6.62807,283304
6.63620,291568
6.64432,291245
6.65243,282599
6.66057,336825
6.66868,527155
6.67682,882191
6.68493,1256597
6.69305,1389133
6.70118,1173982
6.70930,854553
6.71743,607735
6.72555,486859
6.73367,403756
6.74180,338753
6.74992,288465
6.75805,252652
6.76617,236597
6.77428,209945
6.78242,202348
6.79053,190081
6.79865,182884
6.80678,182881
6.81490,192335
6.82303,229803
6.83115,303426
6.83927,438430
6.84740,595101
6.85552,663648
6.86365,641246
6.87177,513912
6.87988,379493
6.88802,282114
6.89613,208373
6.90425,168339
6.91238,143692
6.92050,128499
6.92863,122479
6.93675,114102
6.94487,111477
6.95300,108472
6.96112,110768
6.96925,128610
6.97737,152920
6.98548,202396
6.99362,259977
7.00173,311143
7.00987,329470
7.01798,307175
7.02610,256167
7.03423,205229
7.04235,168046
7.05047,144223
7.05860,125962
7.06672,121428
7.07485,114957
7.08297,119574
7.09108,116241
7.09922,118802
7.10733,115192
7.11547,112326
7.12358,108150
7.13170,104779
7.13983,103757
7.14795,103591
7.15608,113746
7.16420,123858
7.17232,137934
7.18045,150590
7.18857,161797
7.19668,214088
7.20482,396654
7.21293,778793
7.22107,1265940
7.22918,1440842
7.23730,1292320
7.24543,904754
7.25355,575761
7.26168,356927
7.26980,225690
7.27792,171745
7.28605,147588
7.29417,145950
7.30228,148949
7.31042,150023
7.31853,143646
7.32667,130728
7.33478,133393
7.34290,139081
7.35103,147067
7.35915,172704
7.36728,207160
7.37540,240504
7.38352,233966
7.39165,218905
7.39977,181939
7.40790,156292
7.41602,125833
7.42413,119106
7.43227,116353
7.44038,106199
7.44850,115291
7.45663,119886
7.46475,130748
7.47288,152433
7.48100,171638
7.48912,175410
7.49725,164544
7.50537,147828
7.51350,121969
7.52162,109239
7.52973,106647
7.53787,107161
7.54598,117992
7.55412,156354
7.56223,215756
7.57035,301757
7.57848,419649
7.58660,495200
7.59472,517851
7.60285,449947
7.61097,365309
7.61910,269792
7.62722,196883
7.63533,148968
7.64347,137670
7.65158,116925
7.65972,108093
7.66783,101377
7.67595,102065
7.68408,92877
7.69220,86236
7.70032,91987
7.70845,87997
7.71657,83491
7.72470,88785
7.73282,92945
7.74093,92780
7.74907,94482
7.75718,97363
7.76532,93411
7.77343,94982
7.78155,95333
7.78968,89736
7.79780,90163
7.80593,91473
7.81405,91298
7.82217,98228
7.83030,98859
7.83842,97740
7.84653,95624
7.85467,88961
7.86278,85996
7.87092,86381
7.87903,89975
7.88715,93479
7.89528,101924
7.90340,107462
7.91153,118335
7.91965,111615
7.92777,108515
7.93590,98951
7.94402,103126
7.95213,113509
7.96027,124051
7.96838,120827
7.97652,115031
7.98463,101094
7.99275,98232
8.00088,92745
8.00900,81700
8.01713,78309
8.02525,73746
8.03337,76318
8.04150,75069
8.04962,74504
8.05775,73035
8.06587,72239
8.07398,70479
8.08212,71342
8.09023,72280
8.09835,68062
8.10648,68385
8.11460,71102
8.12273,69276
8.13085,67395
8.13897,72194
8.14710,80564
8.15522,83907
8.16335,93520
8.17147,94464
8.17958,97500
8.18772,85372
8.19583,78092
8.20397,74865
8.21208,70198
8.22020,69968
8.22833,72583
8.23645,72197
8.24457,67133
8.25270,66413
8.26082,65215
8.26895,67385
8.27707,66443
8.28518,65136
8.29332,68624
8.30143,59892
8.30957,64807
8.31768,67842
8.32580,72759
8.33393,71662
8.34205,74942
8.35017,74713
8.35830,76400
8.36642,68781
8.37455,63281
8.38267,65260
8.39078,62563
8.39892,60866
8.40703,61222
8.41517,62428
8.42328,61351
8.43140,59978
8.43953,61001
8.44765,59787
8.45578,59388
8.46390,59382
8.47202,59238
8.48015,63470
8.48827,59752
8.49638,57009
8.50452,55026
8.51263,60531
8.52077,66744
8.52888,80482
8.53700,115497
8.54513,161136
8.55325,187065
8.56138,178600
8.56950,142056
8.57762,110372
8.58575,86738
8.59387,71046
8.60200,71028
8.61012,67750
8.61823,69197
8.62637,67286
8.63448,64866
8.64260,68519
8.65073,63429
8.65885,62779
8.66698,60227
8.67510,65137
8.68322,63550
8.69135,69248
8.69947,64938
8.70760,66443
8.71572,66707
8.72383,65724
8.73197,73730
8.74008,102816
8.74820,169655
8.75633,310570
8.76445,498700
8.77258,615053
8.78070,649261
8.78882,538736
8.79695,401951
8.80507,293182
8.81320,220033
8.82132,196323
8.82943,179571
8.83757,164066
8.84568,152733
8.85382,141410
8.86193,135014
8.87005,130061
8.87818,126105
8.88630,120636
8.89442,116204
8.90255,107665
8.91067,103998
8.91880,101753
8.92692,96748
8.93503,103940
8.94317,113063
8.95128,123135
8.95942,115426
8.96753,115232
8.97565,104196
8.98378,105255
8.99190,103613
9.00003,111084
9.00815,104864
9.01627,95966
9.02440,97877
9.03252,89159
9.04063,90250
9.04877,88527
9.05688,86542
9.06502,85394
9.07313,78783
9.08125,80432
9.08938,78454
9.09750,83472
9.10563,86581
9.11375,90738
9.12187,111793
9.13000,126255
9.13812,129129
9.14623,121367
9.15437,112930
9.16248,98045
9.17062,94987
9.17873,88719
9.18685,85750
9.19498,80688
9.20310,83739
9.21123,77939
9.21935,77547
9.22747,73540
9.23560,76718
9.24372,75766
9.25185,77580
9.25997,73163
9.26808,74935
9.27622,79917
9.28433,73192
9.29245,75767
9.30058,68775
9.30870,71933
9.31683,72489
9.32495,71033
9.33307,71320
9.34120,67851
9.34932,76948
9.35745,71527
9.36557,76318
9.37368,72642
9.38182,71285
9.38993,73007
9.39805,63481
9.40618,63395
9.41430,69425
9.42243,74847
9.43055,87467
9.43867,103547
9.44680,128988
9.45492,138490
9.46305,147530
9.47117,134449
9.47928,115237
9.48742,101579
9.49553,87206
9.50367,80555
9.51178,77166
9.51990,78149
9.52803,86899
9.53615,85416
9.54427,86208
9.55240,77067
9.56052,73244
9.56865,64602
9.57677,62503
9.58488,56610
9.59302,54811
9.60113,55634
9.60927,54796
9.61738,54280
9.62550,52127
9.63363,52511
9.64175,48366
9.64988,50164
9.65800,49322
9.66612,45406
9.67425,47630
9.68237,46050
9.69048,47197
9.69862,49350
9.70673,46245
9.71487,44816
9.72298,48696
9.73110,47611
9.73923,44398
9.74735,44780
9.75548,43673
9.76360,45030
9.77172,43018
9.77985,43592
9.78797,45159
9.79608,43063
9.80422,45302
9.81233,41611
9.82047,45562
9.82858,47552
9.83670,45833
9.84483,43309
9.85295,47842
9.86108,45801
9.86920,44221
9.87732,49635
9.88545,46855
9.89357,50127
9.90170,45365
9.90982,44291
9.91793,46193
9.92607,45508
9.93418,50116
9.94230,53822
9.95043,63563
9.95855,75894
9.96668,88795
9.97480,100804
9.98292,95494
9.99105,87353
9.99917,79654
10.00730,72694
10.01542,63205
10.02353,55757
10.03167,54104
10.03978,52220
10.04792,50263
10.05603,49172
10.06415,45310
10.07228,57746
10.08040,52805
10.08852,49014
10.09665,49190
10.10477,47659
10.11290,51162
10.12102,48381
10.12913,47563
10.13727,49656
10.14538,45728
10.15352,46699
10.16163,46099
10.16975,46544
10.17788,46506
10.18600,46273
10.19412,44288
10.20225,44150
10.21037,43083
10.21850,41634
10.22662,44395
10.23473,50964
10.24287,52526
10.25098,53925
10.25912,57691
10.26723,89453
10.27535,172643
10.28348,362275
10.29160,720207
10.29973,1200424
10.30785,1773997
10.31597,2600637
10.32410,3840483
10.33222,5330886
10.34033,6287141
10.34847,6029924
10.35658,4649719
10.36472,3139139
10.37283,2092383
10.38095,1674140
10.38908,1487144
10.39720,1213762
10.40533,919024
10.41345,640531
10.42157,447287
10.42970,345702
10.43782,299166
10.44593,284088
10.45407,252378
10.46218,230702
10.47032,216233
10.47843,193393
10.48655,176159
10.49468,158330
10.50280,151707
10.51093,139095
10.51905,134853
10.52717,129431
10.53530,127822
10.54342,121686
10.55155,119967
10.55967,119170
10.56778,111634
10.57592,109853
10.58403,106387
10.59215,109850
10.60028,104019
10.60840,95752
10.61653,94538
10.62465,89359
10.63277,85249
10.64090,80767
10.64902,84467
10.65715,91967
10.66527,79206
10.67338,82452
10.68152,74811
10.68963,74608
10.69777,76958
10.70588,78000
10.71400,81863
10.72213,86107
10.73025,79693
10.73837,79410
10.74650,81156
10.75462,76004
10.76275,69303
10.77087,71893
10.77898,70454
10.78712,68047
10.79523,69528
10.80337,65238
10.81148,66676
10.81960,68871
10.82773,77178
10.83585,72085
10.84398,67532
10.85210,66632
10.86022,62161
10.86835,57479
10.87647,59926
10.88458,52387
10.89272,55531
10.90083,58778
10.90897,55639
10.91708,57027
10.92520,55571
10.93333,56023
10.94145,50951
10.94958,49562
10.95770,51878
10.96582,52785
10.97395,53307
10.98207,54149
10.99018,57198
10.99832,55373
11.00643,58976
11.01457,59363
11.02268,57271
11.03080,57641
11.03893,54837
11.04705,54064
11.05518,52210
11.06330,51009
11.07142,52512
11.07955,56444
11.08767,58207
11.09580,60470
11.10392,62325
11.11203,65122
11.12017,64103
11.12828,60031
11.13640,62481
11.14453,60293
11.15265,60226
11.16078,55751
11.16890,53058
11.17702,51941
11.18515,50408
11.19327,52078
11.20140,49204
11.20952,53482
11.21763,53799
11.22577,52996
11.23388,50681
11.24200,48457
11.25013,47381
11.25825,49348
11.26638,51714
11.27450,56875
11.28262,65420
11.29075,90358
11.29887,109935
11.30700,143171
11.31512,191723
11.32323,255913
11.33137,396809
11.33948,635566
11.34762,946844
11.35573,1202962
11.36385,1258705
11.37198,1089509
11.38010,821261
11.38822,603467
11.39635,450849
11.40447,336905
11.41260,281645
11.42072,236258
11.42883,197746
11.43697,175068
11.44508,146919
11.45322,136651
11.46133,121303
11.46945,114223
11.47758,106839
11.48570,101012
11.49383,107385
11.50195,112041
11.51007,117652
11.51820,121054
11.52632,106617
11.53443,102318
11.54257,112541
11.55068,113111
11.55882,114736
11.56693,110056
11.57505,104679
11.58318,97276
11.59130,89325
11.59943,94662
11.60755,101889
11.61567,111662
11.62380,121055
11.63192,119023
11.64003,112920
11.64817,97480
11.65628,88543
11.66442,73165
11.67253,73151
11.68065,68174
11.68878,64577
11.69690,71235
11.70503,71258
11.71315,78582
11.72127,86208
11.72940,88876
11.73752,94697
11.74565,89134
11.75377,89365
11.76188,86737
11.77002,73167
11.77813,71929
11.78625,66976
11.79438,63626
11.80250,65489
11.81063,61951
11.81875,58796
11.82687,62374
11.83500,57157
11.84312,53714
11.85125,51776
11.85937,54017
11.86748,56239
11.87562,50833
11.88373,48797
11.89187,52107
11.89998,48495
11.90810,47284
11.91623,51042
11.92435,54643
11.93247,65309
11.94060,61898
11.94872,76101
11.95685,75688
11.96497,75976
11.97308,67110
11.98122,63308
11.98933,57578
11.99747,64233
12.00558,66481
12.01370,69580
12.02183,70465
12.02995,68075
12.03807,60386
12.04620,58668
12.05432,52551
12.06245,53661
12.07057,50372
12.07868,56146
12.08682,55638
12.09493,58966
12.10307,62020
12.11118,66429
12.11930,64377
12.12743,62450
12.13555,59622
12.14368,61992
12.15180,64315
12.15992,62820
12.16805,55437
12.17617,55452
12.18428,50242
12.19242,51578
12.20053,47885
12.20867,48494
12.21678,49969
12.22490,44499
12.23303,43996
12.24115,45134
12.24928,45749
12.25740,49036
12.26552,46117
12.27365,44875
12.28177,47635
12.28988,41760
12.29802,43886
12.30613,46652
12.31427,45792
12.32238,39386
12.33050,41485
12.33863,43951
12.34675,42607
12.35488,38662
12.36300,46227
12.37112,44593
12.37925,39759
12.38737,44825
12.39550,47596
12.40362,56012
12.41173,68678
12.41987,99139
12.42798,114739
12.43610,120233
12.44423,113532
12.45235,96623
12.46048,79480
12.46860,69611
12.47672,62438
12.48485,60086
12.49297,53001
12.50110,55496
12.50922,49527
12.51733,45961
12.52547,49135
12.53358,44966
12.54172,49472
12.54983,61495
12.55795,77635
12.56608,86474
12.57420,102616
12.58232,95386
12.59045,85739
12.59857,80518
12.60670,67525
12.61482,58466
12.62293,56592
12.63107,54807
12.63918,52845
12.64732,46365
12.65543,48315
12.66355,42116
12.67168,45947
12.67980,44895
12.68792,39841
12.69605,41869
12.70417,44156
12.71230,41944
12.72042,47489
12.72853,42709
12.73667,42436
12.74478,44134
12.75292,40787
12.76103,43654
12.76915,44812
12.77728,39475
12.78540,41822
12.79353,41901
12.80165,46806
12.80977,48087
12.81790,46547
12.82602,47160
12.83413,43190
12.84227,46522
12.85038,43822
12.85852,44455
12.86663,43716
12.87475,41421
12.88288,42453
12.89100,41213
12.89913,39328
12.90725,43540
12.91537,38066
12.92350,43933
12.93162,40691
12.93975,42116
12.94787,44871
12.95598,63535
12.96412,77589
12.97223,97995
12.98035,119045
12.98848,121936
12.99660,127713
13.00473,123460
13.01285,102463
13.02097,88851
13.02910,80915
13.03722,82901
13.04535,76859
13.05347,73288
13.06158,63091
13.06972,60367
13.07783,56029
13.08595,53851
13.09408,52180
13.10220,50403
13.11033,49915
13.11845,49265
13.12657,46697
13.13470,44075
13.14282,45063
13.15095,43474
13.15907,44424
13.16718,48603
13.17532,47049
13.18343,43728
13.19157,44187
13.19968,44769
13.20780,44441
13.21593,46956
13.22405,45208
13.23217,43622
13.24030,44663
13.24842,45969
13.25655,50254
13.26467,54166
13.27278,58364
13.28092,58697
13.28903,62128
13.29717,58912
13.30528,60391
13.31340,60415
13.32153,61773
13.32965,57394
13.33777,59301
13.34590,61112
13.35402,58108
13.36215,56530
13.37027,51043
13.37838,52443
13.38652,51413
13.39463,47763
13.40277,47428
13.41088,46017
13.41900,42577
13.42713,44119
13.43525,45085
13.44338,44843
13.45150,42722
13.45962,41811
13.46775,43345
13.47587,41098
13.48398,44874
13.49212,47305
13.50023,41505
13.50837,40611
13.51648,43786
13.52460,44516
13.53273,41002
13.54085,41145
13.54898,43685
13.55710,46451
13.56522,53135
13.57335,51180
13.58147,57375
13.58960,57715
13.59772,63420
13.60583,76064
13.61397,97016
13.62208,108309
13.63020,133556
13.63833,132672
13.64645,122703
13.65458,111140
13.66270,89950
13.67082,77031
13.67895,72877
13.68707,65329
13.69520,63259
13.70332,57774
13.71143,60307
13.71957,53317
13.72768,53937
13.73580,51831
13.74393,51571
13.75205,54233
13.76018,60112
13.76830,70648
13.77642,85646
13.78455,107386
13.79267,121682
13.80080,140142
13.80892,145421
13.81703,163068
13.82517,196346
13.83328,242122
13.84142,267733
13.84953,279516
13.85765,271475
13.86578,228611
13.87390,183356
13.88202,150674
13.89015,118023
13.89827,97469
13.90640,92146
13.91452,87648
13.92263,80693
13.93077,77964
13.93888,76131
13.94702,72436
13.95513,68884
13.96325,63921
13.97138,64678
13.97950,65111
13.98763,64817
13.99575,63794
14.00387,62258
14.01200,60722
14.02012,60620
14.02823,57059
14.03637,56885
14.04448,59226
14.05262,51540
14.06073,51872
14.06885,55994
14.07698,52207
14.08510,48234
14.09323,47246
14.10135,47458
14.10947,51050
14.11760,42058
14.12572,47819
14.13383,54072
14.14197,69193
14.15008,111665
14.15822,166108
14.16633,234985
14.17445,270251
14.18258,275309
14.19070,232027
14.19883,177994
14.20695,145526
14.21507,125615
14.22320,110025
14.23132,103641
14.23945,98666
14.24757,89629
14.25568,87486
14.26382,86236
14.27193,80680
14.28005,85787
14.28818,74563
14.29630,65730
14.30443,63402
14.31255,64487
14.32067,56365
14.32880,53399
14.33692,46882
14.34505,44138
14.35317,45991
14.36128,41618
14.36942,42590
14.37753,41310
14.38567,45660
14.39378,46202
14.40190,62013
14.41003,91143
14.41815,135858
14.42627,169246
14.43440,180969
14.44252,177214
14.45065,144640
14.45877,111799
14.46688,84410
14.47502,69359
14.48313,64120
14.49127,62402
14.49938,60107
14.50750,54587
14.51563,56375
14.52375,52471
14.53187,51228
14.54000,52587
14.54812,48752
14.55625,44185
14.56437,46517
14.57248,47452
14.58062,44482
14.58873,43208
14.59687,42339
14.60498,43445
14.61310,41410
14.62123,41778
14.62935,40935
14.63748,39185
14.64560,39906
14.65372,40517
14.66185,42305
14.66997,36316
14.67808,40597
14.68622,38756
14.69433,36129
14.70247,37981
14.71058,41705
14.71870,39779
14.72683,39068
14.73495,38939
14.74308,36234
14.75120,39564
14.75932,42040
14.76745,40078
14.77557,43028
14.78368,48845
14.79182,58335
14.79993,96404
14.80807,210173
14.81618,437526
14.82430,805721
14.83243,1216299
14.84055,1417270
14.84868,1307928
14.85680,990945
14.86492,649769
14.87305,416963
14.88117,267468
14.88930,189178
14.89742,158332
14.90553,131808
14.91367,118701
14.92178,108180
14.92990,104079
14.93803,94687
14.94615,93842
14.95428,91243
14.96240,81971
14.97052,78158
14.97865,74270
14.98677,75935
14.99490,68373
15.00302,70404
15.01113,67288
15.01927,66462
15.02738,66821
15.03552,67712
15.04363,62158
15.05175,62765
15.05988,61931
15.06800,56990
15.07612,59229
15.08425,55912
15.09237,52426
15.10050,50035
15.10862,51651
15.11673,51748
15.12487,50397
15.13298,54308
15.14112,52869
15.14923,56482
15.15735,54492
15.16548,53465
15.17360,55358
15.18172,48327
15.18985,46018
15.19797,43460
15.20610,43303
15.21422,41784
15.22233,45070
15.23047,45160
15.23858,40638
15.24672,40120
15.25483,40621
15.26295,38401
15.27108,37967
15.27920,39531
15.28733,38236
15.29545,39819
15.30357,35574
15.31170,36511
15.31982,36192
15.32793,36489
15.33607,39893
15.34418,35172
15.35232,35467
15.36043,32897
15.36855,34393
15.37668,37494
15.38480,37039
15.39293,38995
15.40105,34646
15.40917,35814
15.41730,37205
15.42542,40653
15.43355,39238
15.44167,37169
15.44978,36139
15.45792,39203
15.46603,47427
15.47415,60503
15.48228,85870
15.49040,130778
15.49853,176295
15.50665,219550
15.51477,244733
15.52290,240926
15.53102,221893
15.53915,182407
15.54727,155018
15.55538,124703
15.56352,98362
15.57163,87410
15.57975,79342
15.58788,66999
15.59600,62017
15.60413,56165
15.61225,56417
15.62037,53475
15.62850,47105
15.63662,48789
15.64475,44748
15.65287,49289
15.66098,46618
15.66912,46107
15.67723,45430
15.68537,40630
15.69348,40894
15.70160,42885
15.70973,46521
15.71785,45192
15.72597,40941
15.73410,44918
15.74222,38608
15.75035,42173
15.75847,48606
15.76658,59937
15.77472,80071
15.78283,105977
15.79097,131511
15.79908,139718
15.80720,123639
15.81533,105689
15.82345,83885
15.83157,70933
15.83970,60555
15.84782,56838
15.85595,52628
15.86407,50432
15.87218,49304
15.88032,49320
15.88843,48326
15.89657,50245
15.90468,45999
15.91280,43125
15.92093,47469
15.92905,45190
15.93718,48709
15.94530,45323
15.95342,47623
15.96155,44113
15.96967,40053
15.97778,41878
15.98592,46607
15.99403,46317
16.00217,49668
16.01028,46681
16.01840,48519
16.02653,55449
16.03465,51770
16.04278,51649
16.05090,52038
16.05902,46732
16.06715,42301
16.07527,42907
16.08340,43042
16.09152,41494
16.09963,38167
16.10777,43910
16.11588,41246
16.12400,42865
16.13213,46050
16.14025,41826
16.14838,45162
16.15650,49250
16.16462,48921
16.17275,46318
16.18087,42774
16.18900,40885
16.19712,47562
16.20523,43733
16.21337,42991
16.22148,42463
16.22962,42302
16.23773,40416
16.24585,40852
16.25398,40267
16.26210,40902
16.27022,42350
16.27835,36952
16.28647,38786
16.29460,46101
16.30272,46037
16.31083,51419
16.31897,49537
16.32708,45433
16.33522,47599
16.34333,41606
16.35145,43111
16.35958,42484
16.36770,43218
16.37582,42854
16.38395,43382
16.39207,42725
16.40020,41058
16.40832,40707
16.41643,39411
16.42457,41151
16.43268,40778
16.44082,40703
16.44893,46126
16.45705,58913
16.46518,81488
16.47330,122211
16.48143,161041
16.48955,190074
16.49767,177809
16.50580,147295
16.51392,113886
16.52203,85637
16.53017,68160
16.53828,63127
16.54642,56744
16.55453,51777
16.56265,51766
16.57078,48657
16.57890,45198
16.58703,43759
16.59515,49235
16.60327,46786
16.61140,44996
16.61952,46625
16.62763,47108
16.63577,48181
16.64388,45340
16.65202,41516
16.66013,42459
16.66825,38494
16.67638,42304
16.68450,42360
16.69263,40089
16.70075,40030
16.70887,39890
16.71700,40891
16.72512,42319
16.73325,39187
16.74137,39713
16.74948,39256
16.75762,34991
16.76573,39821
16.77385,36614
16.78198,38658
16.79010,42955
16.79823,36893
16.80635,38165
16.81447,39065
16.82260,39757
16.83072,37746
16.83885,36866
16.84697,39122
16.85508,37175
16.86322,36505
16.87133,35015
16.87945,39542
16.88758,40114
16.89570,38191
16.90383,33800
16.91195,36794
16.92007,33440
16.92820,33100
16.93632,37910
16.94445,40764
16.95257,37911
16.96068,40786
16.96882,39031
16.97693,35244
16.98507,40036
16.99318,39587
17.00130,42035
17.00943,37402
17.01755,37086
17.02567,37099
17.03380,35931
17.04192,39263
17.05005,41741
17.05817,46082
17.06628,41821
17.07442,41246
17.08253,39340
17.09067,41617
17.09878,44671
17.10690,47634
17.11503,56061
17.12315,61041
17.13128,57926
17.13940,56607
17.14752,56076
17.15565,55836
17.16377,50232
17.17188,49468
17.18002,45362
17.18813,42176
17.19627,41616
17.20438,40441
17.21250,41147
17.22063,37339
17.22875,37806
17.23688,38166
17.24500,33921
17.25312,34958
17.26125,36513
17.26937,35919
17.27750,35911
17.28562,38775
17.29373,36152
17.30187,39317
17.30998,38723
17.31810,37679
17.32623,40341
17.33435,46095
17.34248,48277
17.35060,46160
17.35872,49952
17.36685,54508
17.37497,48947
17.38310,48837
17.39122,49403
17.39933,47611
17.40747,49091
17.41558,49983
17.42370,52843
17.43183,53334
17.43995,55243
17.44808,49773
17.45620,50405
17.46432,52188
17.47245,48084
17.48057,42621
17.48870,41079
17.49682,41582
17.50493,37476
17.51307,42201
17.52118,46554
17.52932,48987
17.53743,50354
17.54555,56392
17.55368,64000
17.56180,69835
17.56992,76560
17.57805,95497
17.58617,125474
17.59430,154360
17.60242,187033
17.61053,205925
17.61867,212888
17.62678,181789
17.63492,150566
17.64303,125862
17.65115,106169
17.65928,84184
17.66740,77646
17.67552,71894
17.68365,67105
17.69177,67340
17.69990,62589
17.70802,62495
17.71613,67264
17.72427,58396
17.73238,57997
17.74052,61262
17.74863,60257
17.75675,58896
17.76488,53881
17.77300,51909
17.78113,50785
17.78925,48717
17.79737,52478
17.80550,52248
17.81362,52074
17.82173,52224
17.82987,59753
17.83798,58843
17.84612,63246
17.85423,68321
17.86235,68147
17.87048,70918
17.87860,65538
17.88673,63938
17.89485,53494
17.90297,54035
17.91110,52677
17.91922,49057
17.92735,45088
17.93547,44172
17.94358,44743
17.95172,42939
17.95983,43183
17.96795,43197
17.97608,46933
17.98420,42617
17.99233,42424
18.00045,42988
18.00857,46156
18.01670,48794
18.02482,57026
18.03295,69522
18.04107,69666
18.04918,77295
18.05732,88265
18.06543,115483
18.07355,189535
18.08168,336450
18.08980,529809
18.09793,774511
18.10605,867979
18.11417,788290
18.12230,612355
18.13042,465786
18.13855,324989
18.14667,243894
18.15478,199050
18.16292,171205
18.17103,151845
18.17917,133248
18.18728,123668
18.19540,117417
18.20353,108770
18.21165,102532
18.21977,95492
18.22790,101570
18.23602,111936
18.24415,136181
18.25227,151892
18.26038,163277
18.26852,170351
18.27663,167210
18.28477,171135
18.29288,168760
18.30100,166474
18.30913,159525
18.31725,162309
18.32538,157663
18.33350,153613
18.34162,157510
18.34975,154410
18.35787,151001
18.36598,155400
18.37412,149135
18.38223,149032
18.39037,150885
18.39848,148834
18.40660,148292
18.41473,149726
18.42285,155226
18.43098,160335
18.43910,173939
18.44722,170988
18.45535,179226
18.46347,188611
18.47158,195623
18.47972,200155
18.48783,197073
18.49597,187336
18.50408,173284
18.51220,158189
18.52033,142298
18.52845,136824
18.53658,133516
18.54470,120396
18.55282,119180
18.56095,115240
18.56907,113904
18.57720,111731
18.58532,115348
18.59343,114705
18.60157,111286
18.60968,122693
18.61780,117391
18.62593,126120
18.63405,118623
18.64218,119443
18.65030,116764
18.65842,116283
18.66655,100233
18.67467,97215
18.68280,96134
18.69092,94866
18.69903,96374
18.70717,88956
18.71528,96016
18.72340,82726
18.73153,85924
18.73965,89037
18.74778,81360
18.75590,80184
18.76402,81978
18.77215,79608
18.78027,79824
18.78840,75125
18.79652,75041
18.80463,71325
18.81277,75703
18.82088,74893
18.82902,69767
18.83713,69122
18.84525,70743
18.85338,69726
18.86150,67283
18.86962,71694
18.87775,72172
18.88587,69263
18.89400,70017
18.90212,76893
18.91023,71837
18.91837,74432
18.92648,72443
18.93462,72256
18.94273,66933
18.95085,68833
18.95898,68662
18.96710,66214
18.97523,69708
18.98335,64123
18.99147,65262
18.99960,60706
19.00772,60607
19.01583,58379
19.02397,61523
19.03208,57585
19.04022,59672
19.04833,61242
19.05645,59709
19.06458,57930
19.07270,60296
19.08083,64689
19.08895,69010
19.09707,76893
19.10520,80637
19.11332,86701
19.12143,81847
19.12957,80265
19.13768,75295
19.14582,72836
19.15393,76307
19.16205,73512
19.17018,73699
19.17830,75667
19.18643,72352
19.19455,64488
19.20267,61709
19.21080,59546
19.21892,55398
19.22705,53149
19.23517,55818
19.24328,50322
19.25142,54777
19.25953,53678
19.26765,53398
19.27578,57124
19.28390,58078
19.29203,61121
19.30015,63380
19.30827,64367
19.31640,58439
19.32452,54891
19.33265,59614
19.34077,61450
19.34888,57182
19.35702,60786
19.36513,67165
19.37327,71127
19.38138,72217
19.38950,70898
19.39763,70530
19.40575,66146
19.41387,67489
19.42200,55727
19.43012,65869
19.43825,79885
19.44637,105713
19.45448,144636
19.46262,181240
19.47073,192963
19.47887,176051
19.48698,142182
19.49510,104186
19.50323,84815
19.51135,71573
19.51947,63810
19.52760,69887
19.53572,65329
19.54385,66886
19.55197,67391
19.56008,63409
19.56822,60428
19.57633,54969
19.58447,54129
19.59258,52944
19.60070,47254
19.60883,46964
19.61695,49816
19.62508,49389
19.63320,56937
19.64132,61834
19.64945,81293
19.65757,97296
19.66568,113904
19.67382,116562
19.68193,118394
19.69007,115429
19.69818,105298
19.70630,90373
19.71443,87252
19.72255,83487
19.73068,71731
19.73880,69251
19.74692,69654
19.75505,72283
19.76317,65762
19.77130,68825
19.77942,75987
19.78753,75914
19.79567,91163
19.80378,94327
19.81190,88679
19.82003,89206
19.82815,80006
19.83628,70572
19.84440,67983
19.85252,64740
19.86065,80120
19.86877,108498
19.87690,175145
19.88502,299874
19.89313,448769
19.90127,590683
19.90938,658458
19.91750,630705
19.92563,521925
19.93375,390703
19.94188,288894
19.95000,224180
19.95812,181197
19.96625,165035
19.97437,138944
19.98250,132618
19.99062,131222
19.99873,127186
20.00687,124962
20.01498,119245
20.02312,118111
20.03123,115049
20.03935,107535
20.04748,107013
20.05560,99123
20.06372,103390
20.07185,110368
20.07997,123687
20.08810,127507
20.09622,127049
20.10433,117441
20.11247,107375
20.12058,90711
20.12872,86336
20.13683,79501
20.14495,85451
20.15308,110016
20.16120,152600
20.16932,218009
20.17745,308398
20.18557,381007
20.19370,452941
20.20182,470116
20.20993,445874
20.21807,377222
20.22618,313793
20.23432,260180
20.24243,244886
20.25055,264481
20.25868,300912
20.26680,330007
20.27493,350384
20.28305,343552
20.29117,315839
20.29930,264496
20.30742,222884
20.31553,170577
20.32367,128860
20.33178,105939
20.33992,93342
20.34803,80438
20.35615,71177
20.36428,71080
20.37240,65543
20.38053,63863
20.38865,62212
20.39677,60762
20.40490,62305
20.41302,60446
20.42115,66448
20.42927,70399
20.43738,63731
20.44552,66434
20.45363,60771
20.46175,63238
20.46988,58421
20.47800,56485
20.48613,54176
20.49425,56966
20.50237,53666
20.51050,56087
20.51862,52814
20.52675,52877
20.53487,50300
20.54298,51776
20.55112,50994
20.55923,57093
20.56735,50427
20.57548,47621
20.58360,49554
20.59173,50263
20.59985,47221
20.60797,50300
20.61610,47559
20.62422,47013
20.63235,47667
20.64047,52437
20.64858,53869
20.65672,56136
20.66483,54842
20.67297,48562
20.68108,50394
20.68920,49647
20.69733,50428
20.70545,50611
20.71357,46753
20.72170,45710
20.72982,49311
20.73795,45788
20.74607,50374
20.75418,48632
20.76232,49428
20.77043,53423
20.77857,57355
20.78668,75089
20.79480,100280
20.80293,139406
20.81105,172594
20.81918,205174
20.82730,216487
20.83542,185426
20.84355,153566
20.85167,114668
20.85978,90996
20.86792,76035
20.87603,64746
20.88417,66131
20.89228,63556
20.90040,60706
20.90853,67922
20.91665,61860
20.92478,65067
20.93290,68475
20.94102,71708
20.94915,68012
20.95727,63473
20.96538,60444
20.97352,58856
20.98163,53237
20.98977,52056
20.99788,50328
21.00600,48529
21.01413,50806
21.02225,52102
21.03038,52060
21.03850,48764
21.04662,49929
21.05475,51315
21.06287,50971
21.07100,48377
21.07912,47209
21.08723,45906
21.09537,51359
21.10348,44387
21.11160,46248
21.11973,47812
21.12785,50950
21.13598,57983
21.14410,68664
21.15222,80064
21.16035,88711
21.16847,91720
21.17660,88228
21.18472,76549
21.19283,71274
21.20097,64287
21.20908,59128
21.21720,58880
21.22533,54102
21.23345,58753
21.24158,53386
21.24970,57559
21.25782,55529
21.26595,58837
21.27407,60249
21.28220,57568
21.29032,54821
21.29843,50765
21.30657,48297
21.31468,53105
21.32282,53852
21.33093,54211
21.33905,49738
21.34718,48036
21.35530,50606
21.36342,54616
21.37155,55814
21.37967,53549
21.38780,52534
21.39592,61177
21.40403,60854
21.41217,64329
21.42028,66606
21.42842,65357
21.43653,62065
21.44465,56619
21.45278,55859
21.46090,57436
21.46903,54608
21.47715,56755
21.48527,52617
21.49340,52648
21.50152,51518
21.50963,46493
21.51777,47336
21.52588,48381
21.53402,52607
21.54213,50696
21.55025,47864
21.55838,54837
21.56650,51089
21.57463,54157
21.58275,59910
21.59087,59349
21.59900,64493
21.60712,66049
21.61525,68394
21.62337,65527
21.63148,62889
21.63962,61888
21.64773,58625
21.65585,57485
21.66398,54183
21.67210,59192
21.68023,61489
21.68835,57794
21.69647,56812
21.70460,53775
21.71272,48516
21.72085,49458
21.72897,51315
21.73708,51002
21.74522,47174
21.75333,44395
21.76145,47900
21.76958,49986
21.77770,52364
21.78583,52421
21.79395,57949
21.80207,59822
21.81020,56509
21.81832,50637
21.82645,51762
21.83457,49188
21.84268,50937
21.85082,51142
21.85893,47860
21.86707,45345
21.87518,44914
21.88330,44959
21.89143,46031
21.89955,42015
21.90767,42812
21.91580,44131
21.92392,43175
21.93205,40231
21.94017,42531
21.94828,43849
21.95642,53667
21.96453,58187
21.97267,66127
21.98078,74101
21.98890,78396
21.99703,77876
22.00515,82942
22.01327,86154
22.02140,87332
22.02952,82327
22.03765,82983
22.04577,79292
22.05388,92554
22.06202,81112
22.07013,86014
22.07827,78419
22.08638,78320
22.09450,82476
22.10263,81429
22.11075,80292
22.11888,73995
22.12700,72441
22.13512,71548
22.14325,71749
22.15137,67956
22.15948,67445
22.16762,66102
22.17573,68607
22.18387,66156
22.19198,65857
22.20010,65669
22.20823,61971
22.21635,59862
22.22448,68346
22.23260,63010
22.24072,57677
22.24885,58481
22.25697,56410
22.26508,58627
22.27322,62722
22.28133,62612
22.28947,60778
22.29758,64652
22.30570,64815
22.31383,59849
22.32195,59884
22.33008,57303
22.33820,62610
22.34632,58043
22.35445,53174
22.36257,62613
22.37070,52465
22.37882,53649
22.38693,56632
22.39507,64239
22.40318,70063
22.41130,85898
22.41943,87052
22.42755,92579
22.43568,78677
22.44380,74689
22.45192,67072
22.46005,63056
22.46817,58841
22.47630,56882
22.48442,65628
22.49253,71165
22.50067,72743
22.50878,79244
22.51692,77690
22.52503,74277
22.53315,67628
22.54128,64847
22.54940,62070
22.55752,56549
22.56565,56120
22.57377,51484
22.58190,50983
22.59002,48207
22.59813,49934
22.60627,46574
22.61438,45130
22.62252,45923
22.63063,45245
22.63875,43707
22.64688,45168
22.65500,42199
22.66313,45300
22.67125,45481
22.67937,44920
22.68750,49240
22.69562,55675
22.70373,56671
22.71187,66870
22.71998,65675
22.72812,68085
22.73623,61243
22.74435,56786
22.75248,56509
22.76060,49649
22.76873,48428
22.77685,50248
22.78497,53257
22.79310,59888
22.80122,62573
22.80933,63957
22.81747,65994
22.82558,66812
22.83372,57601
22.84183,54803
22.84995,54803
22.85808,59107
22.86620,65807
22.87433,71068
22.88245,76438
22.89057,84993
22.89870,90894
22.90682,100982
22.91495,109571
22.92307,121157
22.93118,125923
22.93932,129370
22.94743,122391
22.95555,100337
22.96368,84405
22.97180,71920
22.97993,71098
22.98805,63745
22.99617,59772
23.00430,51591
23.01242,59143
23.02055,50779
23.02867,47595
23.03678,48004
23.04492,49763
23.05303,47398
23.06115,47853
23.06928,46812
23.07740,46202
23.08553,46016
23.09365,50356
23.10177,47098
23.10990,44933
23.11802,41067
23.12615,44428
23.13427,43702
23.14238,41219
23.15052,39133
23.15863,39672
23.16677,38498
23.17488,42773
23.18300,40354
23.19113,37400
23.19925,40465
23.20737,42776
23.21550,42895
23.22362,42335
23.23175,41658
23.23987,41677
23.24798,40682
23.25612,43106
23.26423,44062
23.27237,42217
23.28048,45906
23.28860,42875
23.29673,42023
23.30485,43580
23.31298,46418
23.32110,43766
23.32922,44846
23.33735,53187
23.34547,55032
23.35358,60945
23.36172,67642
23.36983,69154
23.37797,69285
23.38608,70695
23.39420,70201
23.40233,62536
23.41045,59950
23.41858,53310
23.42670,53914
23.43482,52067
23.44295,46815
23.45107,49529
23.45918,45646
23.46732,49207
23.47543,48067
23.48357,45952
23.49168,43872
23.49980,45595
23.50793,45275
23.51605,43444
23.52418,41251
23.53230,46381
23.54042,46964
23.54855,45030
23.55667,47286
23.56480,51580
23.57292,60384
23.58103,78158
23.58917,84865
23.59728,109263
23.60540,118591
23.61353,107680
23.62165,99117
23.62978,92807
23.63790,77813
23.64602,67010
23.65415,69646
23.66227,65692
23.67040,64873
23.67852,62710
23.68663,62042
23.69477,56654
23.70288,57859
23.71102,51377
23.71913,55971
23.72725,60890
23.73538,79004
23.74350,132109
23.75162,238290
23.75975,486775
23.76787,975260
23.77600,1683632
23.78412,2380508
23.79223,2734924
23.80037,2578456
23.80848,2130406
23.81662,1646357
23.82473,1287356
23.83285,964678
23.84098,754725
23.84910,601636
23.85722,499592
23.86535,418336
23.87347,374843
23.88160,330374
23.88972,297716
23.89783,273710
23.90597,256825
23.91408,244901
23.92222,230248
23.93033,224406
23.93845,197389
23.94658,187930
23.95470,179328
23.96283,169870
23.97095,162892
23.97907,160012
23.98720,158626
23.99532,141032
24.00343,137497
24.01157,139345
24.01968,133955
24.02782,134412
24.03593,137291
24.04405,125946
24.05218,123058
24.06030,117670
24.06843,117074
24.07655,114455
24.08467,113126
24.09280,107138
24.10092,104598
24.10903,101253
24.11717,103419
24.12528,103465
24.13342,104816
24.14153,106856
24.14965,111947
24.15778,112544
24.16590,101621
24.17403,114074
24.18215,106809
24.19027,114391
24.19840,106368
24.20652,105748
24.21465,102343
24.22277,90435
24.23088,91843
24.23902,81152
24.24713,83778
24.25525,84560
24.26338,74585
24.27150,70795
24.27963,75553
24.28775,72241
24.29587,74932
24.30400,77339
24.31212,70731
24.32025,82156
24.32837,101028
24.33648,122120
24.34462,141925
24.35273,151318
24.36087,140950
24.36898,125286
24.37710,96399
24.38523,78858
24.39335,67556
24.40147,66004
24.40960,61614
24.41772,65019
24.42585,63768
24.43397,65064
24.44208,62026
24.45022,66721
24.45833,74137
24.46647,74696
24.47458,80554
24.48270,78357
24.49083,76470
24.49895,76704
24.50707,74855
24.51520,71744
24.52332,74038
24.53145,82392
24.53957,94544
24.54768,102147
24.55582,116626
24.56393,117516
24.57207,111158
24.58018,97605
24.58830,87854
24.59643,75150
24.60455,66692
24.61268,65218
24.62080,65505
24.62892,65359
24.63705,58490
24.64517,57914
24.65328,59343
24.66142,58761
24.66953,58370
24.67767,57595
24.68578,53994
24.69390,57972
24.70203,55229
24.71015,56853
24.71828,50976
24.72640,50919
24.73452,51254
24.74265,55519
24.75077,50709
24.75890,48271
24.76702,55226
24.77513,54465
24.78327,57886
24.79138,58144
24.79950,55511
24.80763,58816
24.81575,60435
24.82388,61365
24.83200,67328
24.84012,74450
24.84825,82883
24.85637,97887
24.86450,125272
24.87262,146385
24.88073,169996
24.88887,193336
24.89698,184176
24.90510,173885
24.91323,147425
24.92135,118294
24.92948,99018
24.93760,91066
24.94572,83968
24.95385,92308
24.96197,97742
24.97010,101450
24.97822,102088
24.98633,106157
24.99447,104004
25.00258,104775
25.01072,105720
25.01883,108410
25.02695,105100
25.03508,105643
25.04320,103773
25.05132,101116
25.05945,103220
25.06757,99891
25.07570,102598
25.08382,100786
25.09193,104748
25.10007,127406
25.10818,176575
25.11632,281610
25.12443,465688
25.13255,691252
25.14068,968145
25.14880,1102412
25.15693,1009468
25.16505,820431
25.17317,563896
25.18130,376877
25.18942,247787
25.19753,180865
25.20567,144247
25.21378,129447
25.22192,118644
25.23003,109662
25.23815,116160
25.24628,125565
25.25440,146294
25.26253,166088
25.27065,179307
25.27877,183617
25.28690,169040
25.29502,146023
25.30313,123114
25.31127,105713
25.31938,98811
25.32752,85851
25.33563,83939
25.34375,76849
25.35188,75559
25.36000,75008
25.36813,70221
25.37625,70767
25.38437,70181
25.39250,64479
25.40062,66209
25.40875,66082
25.41687,61776
25.42498,62726
25.43312,64900
25.44123,62859
25.44935,59788
25.45748,59967
25.46560,56795
25.47373,56570
25.48185,56267
25.48997,54220
25.49810,58211
25.50622,53815
25.51435,54035
25.52247,56036
25.53058,54450
25.53872,55900
25.54683,55090
25.55495,53534
25.56308,50262
25.57120,52728
25.57933,54266
25.58745,53241
25.59557,52925
25.60370,58311
25.61182,47278
25.61995,47919
25.62807,46858
25.63618,52900
25.64432,51706
25.65243,53353
25.66057,52053
25.66868,53352
25.67680,56957
25.68493,56953
25.69305,53382
25.70117,56199
25.70930,53537
25.71742,57016
25.72555,46955
25.73367,49185
25.74178,48253
25.74992,48242
25.75803,48953
25.76617,43182
25.77428,49253
25.78240,46811
25.79053,49094
25.79865,48520
25.80678,52765
25.81490,47887
25.82302,50306
25.83115,49075
25.83927,49317
25.84738,44261
25.85552,46330
25.86363,48097
25.87177,49611
25.87988,44960
25.88800,46018
25.89613,40664
25.90425,45599
25.91238,42854
25.92050,45466
25.92862,44056
25.93675,42994
25.94487,41897
25.95298,46579
25.96112,46560
25.96923,42292
25.97737,43567
25.98548,43449
25.99360,41699
26.00173,45268
26.00985,42699
26.01798,41943
26.02610,41186
26.03422,44209
26.04235,43324
26.05047,41699
26.05860,43319
26.06672,47261
26.07483,41646
26.08297,46792
26.09108,46769
26.09920,43657
26.10733,46452
26.11545,44855
26.12358,49056
26.13170,52909
26.13982,51104
26.14795,54361
26.15607,53742
26.16420,49954
26.17232,50271
26.18043,47499
26.18857,52615
26.19668,45895
26.20482,45264
26.21293,44552
26.22105,42748
26.22918,40642
26.23730,40672
26.24542,42550
26.25355,41668
26.26167,41718
26.26980,39009
26.27792,40968
26.28603,40569
26.29417,42614
26.30228,37808
26.31042,42204
26.31853,38124
26.32665,40669
26.33478,38238
26.34290,45089
26.35102,52562
26.35915,58449
26.36727,78160
26.37540,98222
26.38352,123318
26.39163,137273
26.39977,135664
26.40788,140389
26.41602,120825
26.42413,98873
26.43225,81437
26.44038,67354
26.44850,56018
26.45663,50023
26.46475,47387
26.47287,43906
26.48100,45617
26.48912,48330
26.49723,47994
26.50537,40425
26.51348,40756
26.52162,39516
26.52973,39007
26.53785,37959
26.54598,41343
26.55410,38979
26.56223,40473
26.57035,40061
26.57847,43397
26.58660,38059
26.59472,38685
26.60283,41231
26.61097,38781
26.61908,40830
26.62722,38530
26.63533,40119
26.64345,40989
26.65158,42126
26.65970,39221
26.66783,42106
26.67595,41938
26.68407,40994
26.69220,42422
26.70032,43014
26.70845,40313
26.71657,38008
26.72468,44290
26.73282,40360
26.74093,43571
26.74905,43547
26.75718,41993
26.76530,41763
26.77343,43602
26.78155,41133
26.78967,43162
26.79780,41598
26.80592,44357
26.81405,41577
26.82217,46042
26.83028,41240
26.83842,39320
26.84653,39205
26.85467,34809
26.86278,39553
26.87090,40200
26.87903,38742
26.88715,40217
26.89527,35092
26.90340,37750
26.91152,39300
26.91965,35643
26.92777,39313
26.93588,44778
26.94402,46603
26.95213,62841
26.96027,85796
26.96838,132390
26.97650,212643
26.98463,304003
26.99275,410511
27.00088,490871
27.00900,539535
27.01712,522195
27.02525,462623
27.03337,390204
27.04148,317951
27.04962,244745
27.05773,194203
27.06587,174447
27.07398,141506
27.08210,125328
27.09023,115052
27.09835,104740
27.10648,97699
27.11460,90263
27.12272,86716
27.13085,84591
27.13897,81186
27.14708,80141
27.15522,82283
27.16333,87374
27.17147,83431
27.17958,88954
27.18770,87469
27.19583,79274
27.20395,73871
27.21208,71404
27.22020,62616
27.22832,65695
27.23645,60382
27.24457,59357
27.25270,57038
27.26082,55141
27.26893,53618
27.27707,52135
27.28518,52771
27.29330,51459
27.30143,51182
27.30955,53569
27.31768,55050
27.32580,48766
27.33392,52910
27.34205,52542
27.35017,53323
27.35830,51779
27.36642,49295
27.37453,48789
27.38267,48954
27.39078,51480
27.39890,49348
27.40703,44983
27.41515,44997
27.42328,46521
27.43140,47859
27.43952,47583
27.44765,46751
27.45577,44726
27.46390,44686
27.47202,45244
27.48013,42203
27.48827,45695
27.49638,46807
27.50452,47569
27.51263,45429
27.52075,49439
27.52888,46934
27.53700,47845
27.54512,47033
27.55325,48124
27.56137,44777
27.56950,44649
27.57762,47905
27.58573,49356
27.59387,51852
27.60198,50884
27.61012,55696
27.61823,51279
27.62635,46564
27.63448,47961
27.64260,41009
27.65072,42443
27.65885,47623
27.66697,48972
27.67510,51218
27.68322,56811
27.69133,53877
27.69947,62616
27.70758,54117
27.71572,53651
27.72383,49236
27.73195,49716
27.74008,49980
27.74820,53090
27.75633,53613
27.76445,49460
27.77257,46898
27.78070,47761
27.78882,44885
27.79693,45614
27.80507,44703
27.81318,43145
27.82132,40324
27.82943,42985
27.83755,42386
27.84568,39672
27.85380,41405
27.86193,41845
27.87005,40615
27.87817,41260
27.88630,40461
27.89442,40011
27.90255,38903
27.91067,37870
27.91878,40675
27.92692,37732
27.93503,40283
27.94315,38292
27.95128,44095
27.95940,38874
27.96753,38695
27.97565,41258
27.98377,43476
27.99190,46216
28.00002,45016
28.00815,53021
28.01627,60546
28.02438,71807
28.03252,83624
28.04063,88909
28.04877,97412
28.05688,91776
28.06500,85959
28.07313,72263
28.08125,63901
28.08937,61373
28.09750,61624
28.10562,57921
28.11375,58621
28.12187,58632
28.12998,57811
28.13812,53703
28.14623,51802
28.15437,48814
28.16248,44979
28.17060,44574
28.17873,50092
28.18685,43305
28.19497,46886
28.20310,47986
28.21122,50673
28.21935,56300
28.22747,52442
28.23558,51792
28.24372,48628
28.25183,52046
28.25997,57070
28.26808,72000
28.27620,93867
28.28433,112671
28.29245,149648
28.30058,177510
28.30870,190571
28.31682,211141
28.32495,230302
28.33307,229871
28.34118,209553
28.34932,209607
28.35743,185589
28.36557,166346
28.37368,152606
28.38180,142966
28.38993,127169
28.39805,112438
28.40618,107275
28.41430,96466
28.42242,85125
28.43055,83891
28.43867,76845
28.44678,74082
28.45492,73653
28.46303,66953
28.47117,71520
28.47928,67206
28.48740,69323
28.49553,66463
28.50365,66918
28.51178,63510
28.51990,61269
28.52802,61825
28.53615,57884
28.54427,54578
28.55240,55931
28.56052,48729
28.56863,49338
28.57677,49969
28.58488,53843
28.59300,51383
28.60113,47975
28.60925,53342
28.61738,53564
28.62550,50894
28.63362,51892
28.64175,49837
28.64987,57122
28.65800,55193
28.66612,54014
28.67423,56837
28.68237,54113
28.69048,57743
28.69862,69072
28.70673,74460
28.71485,81251
28.72298,82972
28.73110,76850
28.73922,64690
28.74735,53427
28.75547,49776
28.76360,44325
28.77172,44050
28.77983,46753
28.78797,46043
28.79608,47910
28.80422,44989
28.81233,50842
28.82045,45571
28.82858,45290
28.83670,44995
28.84482,45927
28.85295,44033
28.86107,42341
28.86920,46505
28.87732,46360
28.88543,45899
28.89357,50262
28.90168,55272
28.90982,51124
28.91793,50201
28.92605,51147
28.93418,44825
28.94230,45669
28.95043,45357
28.95855,43970
28.96667,46836
28.97480,46293
28.98292,44044
28.99103,45225
28.99917,41076
29.00728,44015
29.01542,41832
29.02353,40462
29.03165,40891
29.03978,38883
29.04790,39392
29.05603,38002
29.06415,37455
29.07227,43925
29.08040,43678
29.08852,43824
29.09665,45356
29.10477,41386
29.11288,39835
29.12102,38790
29.12913,41459
29.13725,37287
29.14538,43006
29.15350,38754
29.16163,36210
29.16975,41331
29.17787,39449
29.18600,42330
29.19412,51067
29.20225,56183
29.21037,54923
29.21848,55244
29.22662,57226
29.23473,59125
29.24285,62080
29.25098,69987
29.25910,69842
29.26723,65191
29.27535,65518
29.28347,60021
29.29160,52577
29.29972,47503
29.30785,44847
29.31597,42445
29.32408,39462
29.33222,43559
29.34033,41921
29.34847,36921
29.35658,38513
29.36470,42546
29.37283,38798
29.38095,38635
29.38907,39120
29.39720,37154
29.40532,38277
29.41345,42212
29.42157,42724
29.42968,41137
29.43782,39154
29.44593,40592
29.45407,39711
29.46218,42011
29.47030,41579
29.47843,40774
29.48655,40926
29.49467,41826
29.50280,43824
29.51092,40028
29.51905,42062
29.52717,45104
29.53528,43781
29.54342,37057
29.55153,39300
29.55967,39542
29.56778,44845
29.57590,42808
29.58403,39698
29.59215,45390
29.60028,46335
29.60840,43484
29.61652,43074
29.62465,43968
29.63277,38986
29.64088,38771
29.64902,38206
29.65713,37191
29.66527,35165
29.67338,36034
29.68150,39661
29.68963,40866
29.69775,40060
29.70588,44029
29.71400,37992
29.72212,39389
29.73025,45249
29.73837,37348
29.74650,41680
29.75462,37480
29.76273,35982
29.77087,35900
29.77898,36479
29.78710,37109
29.79523,35989
29.80335,35538
29.81148,37718
29.81960,37729
29.82772,34601
29.83585,36589
29.84397,34539
29.85210,36835
29.86022,38268
29.86833,40870
29.87647,51428
29.88458,58824
29.89270,63657
29.90083,78601
29.90895,87058
29.91708,95360
29.92520,99203
29.93332,104118
29.94145,108832
29.94957,112716
29.95770,117998
29.96582,118153
29.97393,119721
29.98207,123557
29.99018,110981
29.99832,110886
30.00643,113348
30.01455,104067
30.02268,95656
30.03080,87864
30.03892,84083
30.04705,80964
30.05517,73700
30.06330,75353
30.07142,77254
30.07953,68812
30.08767,70235
30.09578,65318
30.10392,60538
30.11203,55475
30.12015,56841
30.12828,58288
30.13640,59716
30.14453,57354
30.15265,53204
30.16077,55222
30.16890,54270
30.17702,59953
30.18513,60013
30.19327,60724
30.20138,54277
30.20952,52117
30.21763,50938
30.22575,47812
30.23388,51804
30.24200,47148
30.25013,42241
30.25825,44295
30.26637,43907
30.27450,44229
30.28262,48570
30.29073,42369
30.29887,40966
30.30698,41243
30.31512,41607
30.32323,41720
30.33135,45118
30.33948,44465
30.34760,42615
30.35573,45983
30.36385,42572
30.37197,40977
30.38010,43002
30.38822,38421
30.39635,38460
30.40447,42724
30.41258,41168
30.42072,41116
30.42883,40104
30.43695,41066
30.44508,42522
30.45320,42568
30.46133,41947
30.46945,39904
30.47757,40981
30.48570,38602
30.49382,41307
30.50195,40863
30.51007,40229
30.51818,39071
30.52632,39633
30.53443,41427
30.54257,41928
30.55068,41671
30.55880,43993
30.56693,40308
30.57505,39025
30.58317,38492
30.59130,42875
30.59942,41977
30.60755,41722
30.61567,38316
30.62378,38834
30.63192,42098
30.64003,37562
30.64817,40180
30.65628,40846
30.66440,39875
30.67253,38169
30.68065,38989
30.68877,38195
30.69690,39262
30.70502,39545
30.71315,37700
30.72127,40479
30.72938,38202
30.73752,40074
30.74563,41299
30.75377,37520
30.76188,39335
30.77000,45870
30.77813,47761
30.78625,56407
30.79438,65162
30.80250,68464
30.81062,69277
30.81875,70265
30.82687,56955
30.83498,49337
30.84312,49788
30.85123,39935
30.85937,43837
30.86748,39686
30.87560,44017
30.88373,47555
30.89185,43141
30.89998,40044
30.90810,40324
30.91622,42867
30.92435,44775
30.93247,42060
30.94058,37765
30.94872,34240
30.95683,37621
30.96497,38108
30.97308,37832
30.98120,37827
30.98933,35351
30.99745,37656
31.00558,35474
31.01370,40275
31.02182,41976
31.02995,35827
31.03807,37892
31.04620,37985
31.05432,38248
31.06243,36753
31.07057,38752
31.07868,42846
31.08680,44797
31.09493,48080
31.10305,48926
31.11118,51158
31.11930,45657
31.12742,45239
31.13555,43488
31.14367,45220
31.15180,44522
31.15992,46333
31.16803,53436
31.17617,67495
31.18428,93140
31.19242,123547
31.20053,148097
31.20865,173322
31.21678,187284
31.22490,172882
31.23302,152952
31.24115,120737
31.24927,87601
31.25740,70199
31.26552,57727
31.27363,49468
31.28177,46092
31.28988,42163
31.29802,42548
31.30613,40776
31.31425,43434
31.32238,42867
31.33050,43455
31.33862,39993
31.34675,40534
31.35487,43456
31.36300,42204
31.37112,41328
31.37923,42489
31.38737,40183
31.39548,37543
31.40362,40350
31.41173,38147
31.41985,40310
31.42798,42515
31.43610,35748
31.44423,38819
31.45235,39814
31.46047,38863
31.46860,38811
31.47672,39862
31.48483,41826
31.49297,40363
31.50108,41802
31.50922,43411
31.51733,42160
31.52545,42602
31.53358,41413
31.54170,40597
31.54983,41993
31.55795,40665
31.56607,43054
31.57420,40104
31.58232,39258
31.59045,44230
31.59857,42327
31.60668,43082
31.61482,42088
31.62293,44154
31.63105,38578
31.63918,40762
31.64730,41539
31.65543,36419
31.66355,46110
31.67167,40867
31.67980,43215
31.68792,47234
31.69605,44310
31.70417,47457
31.71228,45458
31.72042,43530
31.72853,41338
31.73665,46433
31.74478,38726
31.75290,39993
31.76103,41948
31.76915,38826
31.77727,37616
31.78540,42736
31.79352,40390
31.80165,40959
31.80977,42476
31.81788,42182
31.82602,44451
31.83413,48238
31.84227,53342
31.85038,59620
31.85850,62947
31.86663,72715
31.87475,79257
31.88287,78160
31.89100,85445
31.89912,88473
31.90725,83481
31.91537,80756
31.92348,80875
31.93162,85239
31.93973,72437
31.94787,73032
31.95598,73347
31.96410,71540
31.97223,68216
31.98035,62033
31.98847,63501
31.99660,55957
32.00472,60839
32.01285,61322
32.02097,54473
32.02908,53449
32.03722,51283
32.04533,50193
32.05347,48056
32.06158,45394
32.06970,46315
32.07783,44772
32.08595,47682
32.09408,42195
32.10220,42060
32.11032,43361
32.11845,49725
32.12657,44917
32.13468,44819
32.14282,44266
32.15093,41029
32.15907,42196
32.16718,44080
32.17530,41400
32.18343,43334
32.19155,40878
32.19968,40684
32.20780,44530
32.21592,45692
32.22405,42438
32.23217,40586
32.24030,42623
32.24842,41065
32.25653,42722
32.26467,42223
32.27278,41509
32.28090,43476
32.28903,44076
32.29715,42965
32.30528,42796
32.31340,40940
32.32152,40980
32.32965,46215
32.33777,42319
32.34590,45016
32.35402,43982
32.36213,44646
32.37027,38465
32.37838,42592
32.38650,42608
32.39463,42390
32.40275,36803
32.41088,39256
32.41900,42448
32.42712,43212
32.43525,42516
32.44337,36250
32.45150,40389
32.45962,39128
32.46773,40993
32.47587,38972
32.48398,41463
32.49212,41422
32.50023,40479
32.50835,42692
32.51648,39580
32.52460,39631
32.53272,42348
32.54085,40364
32.54897,38383
32.55710,39350
32.56522,40239
32.57333,43395
32.58147,48773
32.58958,56641
32.59772,61404
32.60583,67489
32.61395,65974
32.62208,59081
32.63020,53650
32.63833,43734
32.64645,42060
32.65457,43352
32.66270,44601
32.67082,41000
32.67893,43431
32.68707,39934
32.69518,41868
32.70332,38484
32.71143,42380
32.71955,39737
32.72768,41510
32.73580,41783
32.74393,40664
32.75205,40407
32.76017,40833
32.76830,39134
32.77642,38277
32.78453,41229
32.79267,39915
32.80078,37012
32.80892,41410
32.81703,38594
32.82515,36461
32.83328,37990
32.84140,37848
32.84953,39229
32.85765,42179
32.86577,44644
32.87390,44491
32.88202,49820
32.89015,55151
32.89827,62715
32.90638,57456
32.91452,55698
32.92263,56419
32.93075,48760
32.93888,44015
32.94700,42022
32.95513,44119
32.96325,45553
32.97137,45035
32.97950,44725
32.98762,52749
32.99575,54933
33.00387,55227
33.01198,52929
33.02012,54815
33.02823,45478
33.03635,49024
33.04448,45499
33.05260,46952
33.06073,43726
33.06885,44702
33.07697,48498
33.08510,50040
33.09322,51572
33.10135,57047
33.10947,54087
33.11758,55564
33.12572,55189
33.13383,55262
33.14197,49709
33.15008,46176
33.15820,46106
33.16633,43657
33.17445,43891
33.18257,43694
33.19070,45303
33.19882,42466
33.20695,39640
33.21507,39654
33.22318,44302
33.23132,43240
33.23943,40540
33.24757,48311
33.25568,44505
33.26380,39591
33.27193,40080
33.28005,42150
33.28818,41538
33.29630,39914
33.30442,42163
33.31255,43783
33.32067,45619
33.32878,43639
33.33692,46053
33.34503,40705
33.35317,41130
33.36128,43216
33.36940,42593
33.37753,42491
33.38565,41636
33.39378,41901
33.40190,39519
33.41002,41654
33.41815,39273
33.42627,39216
33.43440,42415
33.44252,39019
33.45063,42173
33.45877,40043
33.46688,42796
33.47500,40724
33.48313,41352
33.49125,42480
33.49938,44272
33.50750,44681
33.51562,43478
33.52375,42860
33.53187,40965
33.54000,43453
33.54812,42348
33.55623,43282
33.56437,42190
33.57248,44038
33.58060,44056
33.58873,44108
33.59685,40041
33.60498,39266
33.61310,45644
33.62122,38795
33.62935,43363
33.63747,45176
33.64560,42118
33.65372,42176
33.66183,44015
33.66997,41089
33.67808,42958
33.68622,42955
33.69433,41689
33.70245,43227
33.71058,41775
33.71870,48233
33.72682,44647
33.73495,46070
33.74307,45499
33.75120,51397
33.75932,44590
33.76743,48961
33.77557,49212
33.78368,47853
33.79182,46277
33.79993,47296
33.80805,47588
33.81618,44709
33.82430,48054
33.83242,46423
33.84055,46887
33.84867,48784
33.85680,47397
33.86492,50146
33.87303,47320
33.88117,49386
33.88928,51205
33.89742,52771
33.90553,55149
33.91365,54740
33.92178,50716
33.92990,48805
33.93803,50993
33.94615,46138
33.95427,47452
33.96240,51879
33.97052,48085
33.97863,46790
33.98677,45949
33.99488,44342
34.00302,43979
34.01113,43313
34.01925,45702
34.02738,48503
34.03550,44051
34.04363,46823
34.05175,44353
34.05987,39756
34.06800,42159
34.07612,43358
34.08425,45641
34.09237,45246
34.10048,46525
34.10862,44343
34.11673,43815
34.12485,45473
34.13298,44792
34.14110,45561
34.14923,43095
34.15735,45176
34.16547,47196
34.17360,43000
34.18172,43098
34.18985,40154
34.19797,44773
34.20608,44407
34.21422,44328
34.22233,40505
34.23045,44716
34.23858,43268
34.24670,43877
34.25483,44087
34.26295,50830
34.27107,43891
34.27920,42150
34.28732,41477
34.29545,39685
34.30357,41332
34.31168,41162
34.31982,40244
34.32793,41451
34.33607,42291
34.34418,44367
34.35230,45090
34.36043,44938
34.36855,42983
34.37667,44417
34.38480,42658
34.39292,42842
34.40105,45038
34.40917,47641
34.41728,47609
34.42542,43835
34.43353,47484
34.44167,49814
34.44978,48747
34.45790,63004
34.46603,69075
34.47415,81110
34.48228,86344
34.49040,90471
34.49852,90143
34.50665,89093
34.51477,81072
34.52288,80909
34.53102,76377
34.53913,72554
34.54727,70593
34.55538,64643
34.56350,67307
34.57163,64936
34.57975,61974
34.58788,59496
34.59600,57858
34.60412,53681
34.61225,57904
34.62037,57161
34.62848,58862
34.63662,57519
34.64473,58375
34.65287,55036
34.66098,59545
34.66910,55000
34.67723,52309
34.68535,55654
34.69348,53317
34.70160,54466
34.70972,52586
34.71785,50846
34.72597,50836
34.73410,51902
34.74222,50383
34.75033,47353
34.75847,49775
34.76658,50197
34.77470,51930
34.78283,51182
34.79095,48467
34.79908,50558
34.80720,48999
34.81532,53567
34.82345,45899
34.83157,50664
34.83970,45781
34.84782,49203
34.85593,49985
34.86407,48838
34.87218,49725
34.88030,47005
34.88843,47743
34.89655,50639
34.90468,48457
34.91280,48623
34.92092,44174
34.92905,48932
34.93717,50484
34.94530,50100
34.95342,49617
34.96153,48602
34.96967,53368
34.97778,53085
34.98592,50134
34.99403,46603
35.00215,48758
35.01028,49639
35.01840,46907
35.02652,50899
35.03465,50680
35.04277,47328
35.05090,44511
35.05902,45416
35.06713,47538
35.07527,48292
35.08338,48743
35.09152,48077
35.09963,52573
35.10775,48941
35.11588,49595
35.12400,46729
35.13213,46740
35.14025,43172
35.14837,48262
35.15650,48192
35.16462,51243
35.17273,48428
35.18087,49858
35.18898,42354
35.19712,47867
35.20523,48562
35.21335,50862
35.22148,45356
35.22960,46206
35.23773,50127
35.24585,47061
35.25397,49094
35.26210,45276
35.27022,49509
35.27833,46481
35.28647,49586
35.29458,48425
35.30272,48231
35.31083,45993
35.31895,47365
35.32708,48098
35.33520,47874
35.34333,51822
35.35145,49544
35.35957,50262
35.36770,48386
35.37582,52666
35.38395,54334
35.39207,62283
35.40018,64628
35.40832,67809
35.41643,75026
35.42455,72950
35.43268,70782
35.44080,70504
35.44893,66505
35.45705,60314
35.46517,60480
35.47330,56227
35.48142,56299
35.48955,57284
35.49767,53554
35.50578,54533
35.51392,52407
35.52203,55136
35.53017,54686
35.53828,54741
35.54640,47764
35.55453,47223
35.56265,53268
35.57077,52590
35.57890,53307
35.58702,57543
35.59515,56025
35.60327,55222
35.61138,57644
35.61952,51951
35.62763,51694
35.63577,52363
35.64388,48967
35.65200,51189
35.66013,50293
35.66825,49178
35.67637,50297
35.68450,54975
35.69262,50868
35.70075,51306
35.70887,53002
35.71698,50711
35.72512,52533
35.73323,50688
35.74137,57399
35.74948,53589
35.75760,53052
35.76573,53363
35.77385,54882
35.78198,50723
35.79010,53965
35.79822,49942
35.80635,51944
35.81447,55096
35.82258,50440
35.83072,47611
35.83883,53178
35.84697,50649
35.85508,56534
35.86320,52202
35.87133,49551
35.87945,49130
35.88758,53650
35.89570,52137
35.90382,52929
35.91195,47532
35.92007,52634
35.92820,51604
35.93632,51860
35.94443,48643
35.95257,50195
35.96068,47862
35.96880,52730
35.97693,52399
35.98505,51814
35.99318,54394
36.00130,51795
36.00942,52249
36.01755,58602
36.02567,54944
36.03380,59004
36.04192,58656
36.05003,55750
36.05817,56318
36.06628,54944
36.07440,52350
36.08253,58158
36.09065,55317
36.09878,52618
36.10690,54724
36.11502,54154
36.12315,52904
36.13127,54388
36.13940,51770
36.14752,54817
36.15563,58112
36.16377,51757
36.17188,48587
36.18002,56172
36.18813,52872
36.19625,54074
36.20438,51519
36.21250,53701
36.22062,62133
36.22875,61982
36.23687,69919
36.24500,81181
36.25312,77289
36.26123,79479
36.26937,78976
36.27748,63518
36.28562,61931
36.29373,57546
36.30185,57301
36.30998,55401
36.31810,52234
36.32622,53756
36.33435,54330
36.34247,53742
36.35060,55337
36.35872,57501
36.36683,52531
36.37497,53554
36.38308,57971
36.39122,56575
36.39933,57743
36.40745,64707
36.41558,56165
36.42370,57635
36.43183,56394
36.43995,52092
36.44807,50366
36.45620,54831
36.46432,54820
36.47243,54332
36.48057,56876
36.48868,55730
36.49682,52147
36.50493,52883
36.51305,49937
36.52118,56862
36.52930,52345
36.53743,53417
36.54555,56024
36.55367,56692
36.56180,55029
36.56992,54622
36.57805,55359
36.58617,54994
36.59428,56432
36.60242,56105
36.61053,54439
36.61865,56821
36.62678,56911
36.63490,56268
36.64303,57777
36.65115,58055
36.65927,52356
36.66740,50263
36.67552,52149
36.68365,57845
36.69177,57764
36.69988,55810
36.70802,55824
36.71613,56978
36.72425,59808
36.73238,56154
36.74050,55871
36.74863,56719
36.75675,54133
36.76487,55282
36.77300,54090
36.78112,60735
36.78925,57127
36.79737,57594
36.80548,59724
36.81362,55922
36.82173,51290
36.82987,56979
36.83798,54177
36.84610,56119
36.85423,54857
36.86235,56486
36.87047,54662
36.87860,58037
36.88672,62563
36.89485,56963
36.90297,55303
36.91108,61114
36.91922,58205
36.92733,65347
36.93547,61684
36.94358,63998
36.95170,65124
36.95983,64419
36.96795,63043
36.97608,65803
36.98420,66393
36.99232,63851
37.00045,68314
37.00857,65894
37.01668,81987
37.02482,78963
37.03293,85250
37.04107,77737
37.04918,75250
37.05730,69700
37.06543,68142
37.07355,65875
37.08168,63969
37.08980,63389
37.09792,64950
37.10605,67787
37.11417,61870
37.12228,64607
37.13042,59789
37.13853,63982
37.14667,66343
37.15478,63489
37.16290,62265
37.17103,61863
37.17915,62318
37.18728,71154
37.19540,63845
37.20352,58548
37.21165,62760
37.21977,58974
37.22790,59640
37.23602,65239
37.24413,66809
37.25227,66051
37.26038,75631
37.26850,92594
37.27663,90963
37.28475,99671
37.29288,102382
37.30100,105395
37.30912,94788
37.31725,97757
37.32537,86769
37.33350,83278
37.34162,82094
37.34973,74634
37.35787,75312
37.36598,79594
37.37410,75022
37.38223,73648
37.39035,70615
37.39848,71620
37.40660,73233
37.41472,72495
37.42285,66047
37.43097,73735
37.43910,66668
37.44722,69367
37.45533,73087
37.46347,73094
37.47158,67978
37.47972,73938
37.48783,66533
