C:\MassHunter\GCMS\1\data\JTB-E02\BACandBLUE\JTB-E18-015-04.D Wed Jun 26 08:49:00 2019
Start of data points
2.09515	27766
2.10327	27646
2.11140	29406
2.11952	28753
2.12763	32161
2.13577	35863
2.14388	37296
2.15202	36360
2.16013	36467
2.16825	39205
2.17638	39713
2.18450	39861
2.19262	38220
2.20075	38041
2.20887	36693
2.21700	37547
2.22512	36511
2.23323	34508
2.24137	32963
2.24948	34229
2.25762	31501
2.26573	50035
2.27385	545657
2.28198	2861298
2.29010	2649085
2.29822	969361
2.30635	469124
2.31447	350553
2.32260	283205
2.33072	248897
2.33883	212071
2.34697	197004
2.35508	178914
2.36322	163435
2.37133	151670
2.37945	142984
2.38758	142396
2.39570	139367
2.40383	123387
2.41195	123773
2.42007	112953
2.42820	115589
2.43632	107952
2.44443	112544
2.45257	118930
2.46068	114544
2.46882	103460
2.47693	100776
2.48505	92674
2.49318	132319
2.50130	192680
2.50943	149584
2.51755	123969
2.52567	115667
2.53380	101474
2.54192	103123
2.55003	99195
2.55817	96315
2.56628	93457
2.57442	90721
2.58253	90209
2.59065	88037
2.59878	86342
2.60690	83893
2.61503	97826
2.62315	101911
2.63127	92388
2.63940	84661
2.64752	84286
2.65565	73040
2.66377	77662
2.67188	75995
2.68002	73908
2.68813	77108
2.69625	73531
2.70438	73367
2.71250	69992
2.72063	74479
2.72875	73426
2.73687	67988
2.74500	65091
2.75312	66577
2.76125	69828
2.76937	66060
2.77748	66203
2.78562	68572
2.79373	63468
2.80187	66365
2.80998	65211
2.81810	69124
2.82623	67441
2.83435	70272
2.84247	63390
2.85060	59497
2.85872	64593
2.86685	62278
2.87497	57754
2.88308	63155
2.89122	61739
2.89933	63375
2.90747	58465
2.91558	59491
2.92370	64139
2.93183	57268
2.93995	61671
2.94808	58140
2.95620	55424
2.96432	58326
2.97245	64957
2.98057	63559
2.98868	59793
2.99682	57334
3.00493	56983
3.01307	55698
3.02118	61407
3.02930	57767
3.03743	56081
3.04555	57468
3.05368	55848
3.06180	55655
3.06992	55853
3.07805	56911
3.08617	54346
3.09428	57113
3.10242	58411
3.11053	72735
3.11867	80905
3.12678	74012
3.13490	73577
3.14303	69568
3.15115	64324
3.15928	64693
3.16740	58731
3.17552	58973
3.18365	54561
3.19177	59543
3.19990	56816
3.20802	61038
3.21613	56026
3.22427	55343
3.23238	58463
3.24050	56961
3.24863	56011
3.25675	54519
3.26488	53083
3.27300	57991
3.28112	69635
3.28925	236467
3.29737	1332907
3.30550	5035050
3.31362	9966139
3.32173	1.16402E+07
3.32987	9363464
3.33798	6544563
3.34610	4605552
3.35423	3478310
3.36235	2798055
3.37048	2283197
3.37860	1951558
3.38672	1692897
3.39485	1473575
3.40297	1316469
3.41110	1227868
3.41922	1074428
3.42733	1000135
3.43547	923756
3.44358	872779
3.45172	820492
3.45983	764584
3.46795	755053
3.47608	698650
3.48420	682592
3.49232	656588
3.50045	614980
3.50857	601404
3.51670	582638
3.52482	547487
3.53293	527717
3.54107	516319
3.54918	500623
3.55732	488833
3.56543	475755
3.57355	454827
3.58168	458920
3.58980	449572
3.59793	431015
3.60605	423952
3.61417	419071
3.62230	417722
3.63042	409340
3.63853	397912
3.64667	392863
3.65478	395328
3.66292	369651
3.67103	371720
3.67915	367380
3.68728	364496
3.69540	354117
3.70353	348110
3.71165	348493
3.71977	346553
3.72790	340588
3.73602	322728
3.74413	327464
3.75227	317324
3.76038	314238
3.76852	313852
3.77663	299753
3.78475	305042
3.79288	288190
3.80100	297075
3.80913	293391
3.81725	291192
3.82537	288847
3.83350	291795
3.84162	283824
3.84975	283523
3.85787	286554
3.86598	280889
3.87412	273348
3.88223	268744
3.89035	261115
3.89848	258782
3.90660	253761
3.91473	255743
3.92285	252159
3.93097	255273
3.93910	252384
3.94722	243729
3.95535	250557
3.96347	238432
3.97158	238266
3.97972	245959
3.98783	235123
3.99597	232844
4.00408	235837
4.01220	238537
4.02033	240310
4.02845	233922
4.03657	235397
4.04470	222232
4.05282	236014
4.06095	222504
4.06907	223824
4.07718	226998
4.08532	223989
4.09343	217450
4.10157	217910
4.10968	219336
4.11780	217387
4.12593	205340
4.13405	216398
4.14217	233183
4.15030	269003
4.15842	279730
4.16655	256191
4.17467	247570
4.18278	225881
4.19092	226112
4.19903	212994
4.20717	205979
4.21528	213540
4.22340	214255
4.23153	227246
4.23965	228439
4.24778	229791
4.25590	220598
4.26402	215745
4.27215	205758
4.28027	208383
4.28838	202642
4.29652	203337
4.30463	198261
4.31277	195458
4.32088	193884
4.32900	195092
4.33713	195164
4.34525	193050
4.35338	197556
4.36150	195606
4.36962	190893
4.37775	203324
4.38587	202832
4.39398	192003
4.40212	188627
4.41023	189596
4.41837	186812
4.42648	184950
4.43460	187419
4.44273	182235
4.45085	179870
4.45898	181266
4.46710	175528
4.47522	180726
4.48335	185903
4.49147	173353
4.49960	177179
4.50772	182917
4.51583	170268
4.52397	175479
4.53208	173890
4.54020	167311
4.54833	168158
4.55645	166729
4.56458	166814
4.57270	166551
4.58082	171792
4.58895	168824
4.59707	164239
4.60520	166974
4.61332	159682
4.62143	166134
4.62957	165114
4.63768	164936
4.64582	159229
4.65393	160548
4.66205	160397
4.67018	156052
4.67830	157606
4.68642	161834
4.69455	160433
4.70267	156657
4.71080	160548
4.71892	166888
4.72703	159814
4.73517	159243
4.74328	153430
4.75142	152551
4.75953	148705
4.76765	152029
4.77578	147855
4.78390	147484
4.79202	150393
4.80015	152497
4.80827	153365
4.81640	149977
4.82452	143970
4.83263	147141
4.84077	146104
4.84888	147605
4.85702	147927
4.86513	143278
4.87325	147216
4.88138	149232
4.88950	143936
4.89763	150878
4.90575	147591
4.91387	151402
4.92200	151638
4.93012	192572
4.93823	421689
4.94637	1213817
4.95448	2864837
4.96262	5101491
4.97073	6225383
4.97885	5849342
4.98698	4501650
4.99510	3157444
5.00323	2229433
5.01135	1647882
5.01947	1330690
5.02760	1090766
5.03572	953948
5.04385	841586
5.05197	758595
5.06008	711731
5.06822	661047
5.07633	620493
5.08445	568678
5.09258	535612
5.10070	507380
5.10883	494527
5.11695	486234
5.12507	452168
5.13320	449062
5.14132	438013
5.14945	422235
5.15757	403358
5.16568	411367
5.17382	393022
5.18193	384863
5.19005	377458
5.19818	362807
5.20630	353586
5.21443	355053
5.22255	354900
5.23067	392534
5.23880	435939
5.24692	500801
5.25505	495647
5.26317	446823
5.27128	375243
5.27942	346101
5.28753	329577
5.29567	319024
5.30378	306212
5.31190	305263
5.32003	294917
5.32815	295991
5.33627	285562
5.34440	282719
5.35252	279566
5.36065	280830
5.36877	289433
5.37688	272184
5.38502	282230
5.39313	270088
5.40127	268306
5.40938	260393
5.41750	256144
5.42563	257902
5.43375	244482
5.44187	254065
5.45000	250132
5.45812	244318
5.46625	241102
5.47437	247180
5.48248	241020
5.49062	235638
5.49873	246271
5.50687	231370
5.51498	236320
5.52310	226361
5.53123	231479
5.53935	223041
5.54748	234046
5.55560	225285
5.56372	222447
5.57185	227046
5.57997	224325
5.58808	221207
5.59622	233850
5.60433	217034
5.61247	223964
5.62058	226746
5.62870	235204
5.63683	234888
5.64495	245828
5.65308	246698
5.66120	246717
5.66932	230754
5.67745	239287
5.68557	255546
5.69370	270910
5.70182	270386
5.70993	255072
5.71807	244947
5.72618	226785
5.73430	220816
5.74243	212687
5.75055	205432
5.75868	213050
5.76680	215332
5.77492	202211
5.78305	195759
5.79117	205459
5.79930	192282
5.80742	204895
5.81553	199560
5.82367	202564
5.83178	197976
5.83990	198042
5.84803	196374
5.85615	185476
5.86428	189179
5.87240	192914
5.88052	194998
5.88865	194720
5.89677	186355
5.90490	184722
5.91302	167878
5.92113	137600
5.92927	123746
5.93738	120097
5.94552	123331
5.95363	118699
5.96175	118366
5.96988	122480
5.97800	122212
5.98612	128719
5.99425	135664
6.00237	131448
6.01050	124312
6.01862	128935
6.02673	127355
6.03487	121946
6.04298	121375
6.05112	122510
6.05923	120817
6.06735	117563
6.07548	115704
6.08360	120494
6.09173	116472
6.09985	118379
6.10797	118319
6.11610	111980
6.12422	115162
6.13233	117023
6.14047	118263
6.14858	119393
6.15672	119197
6.16483	121543
6.17295	121243
6.18108	128386
6.18920	123038
6.19733	128176
6.20545	124787
6.21357	130351
6.22170	122568
6.22982	127312
6.23793	131753
6.24607	132918
6.25418	134165
6.26232	137971
6.27043	139500
6.27855	136940
6.28668	135512
6.29480	139418
6.30293	138891
6.31105	142774
6.31917	137047
6.32730	143837
6.33542	140811
6.34355	142692
6.35167	147876
6.35978	143101
6.36792	141609
6.37603	149085
6.38415	148232
6.39228	149816
6.40040	156346
6.40853	150831
6.41665	160614
6.42477	158074
6.43290	154902
6.44102	158485
6.44915	161058
6.45727	159670
6.46538	165153
6.47352	162024
6.48163	171496
6.48977	165171
6.49788	163684
6.50600	169018
6.51413	168079
6.52225	159801
6.53037	145494
6.53850	140148
6.54662	132636
6.55475	129329
6.56287	126079
6.57098	124742
6.57912	122330
6.58723	123929
6.59537	121031
6.60348	114118
6.61160	107114
6.61973	116396
6.62785	115410
6.63597	115879
6.64410	114171
6.65222	113042
6.66035	111512
6.66847	109549
6.67658	106485
6.68472	108838
6.69283	106858
6.70097	105524
6.70908	108414
6.71720	111915
6.72533	104092
6.73345	109359
6.74158	107307
6.74970	97469
6.75782	108369
6.76595	106467
6.77407	104455
6.78218	102659
6.79032	98351
6.79843	105177
6.80657	97441
6.81468	99682
6.82280	101282
6.83093	103667
6.83905	100043
6.84718	97532
6.85530	93372
6.86342	79210
6.87155	64851
6.87967	60800
6.88778	57231
6.89592	55277
6.90403	59817
6.91217	54424
6.92028	51259
6.92840	57410
6.93653	53482
6.94465	55469
6.95278	52217
6.96090	52353
6.96902	56650
6.97715	54559
6.98527	54681
6.99340	55929
7.00152	53581
7.00963	54094
7.01777	53883
7.02588	51316
7.03400	55959
7.04213	55037
7.05025	54045
7.05838	53933
7.06650	55607
7.07462	57428
7.08275	55305
7.09087	51335
7.09900	52476
7.10712	54894
7.11523	54239
7.12337	54042
7.13148	54895
7.13962	50760
7.14773	55080
7.15585	52261
7.16398	57186
7.17210	56467
7.18022	54376
7.18835	54128
7.19647	56552
7.20460	52913
7.21272	51520
7.22083	52997
7.22897	52891
7.23708	51267
7.24522	52859
7.25333	53448
7.26145	53288
7.26958	53266
7.27770	44627
7.28582	48041
7.29395	49686
7.30207	55482
7.31020	53217
7.31832	50776
7.32643	53426
7.33457	53443
7.34268	50648
7.35082	52769
7.35893	51544
7.36705	52002
7.37518	49837
7.38330	51103
7.39143	50833
7.39955	50767
7.40767	50722
7.41580	53525
7.42392	54183
7.43203	53680
7.44017	57898
7.44828	63205
7.45642	65519
7.46453	67385
7.47265	66464
7.48078	64339
7.48890	56542
7.49703	56805
7.50515	55918
7.51327	51301
7.52140	53902
7.52952	48252
7.53765	46943
7.54577	49172
7.55388	50389
7.56202	51252
7.57013	47700
7.57825	48720
7.58638	49800
7.59450	52542
7.60263	52831
7.61075	50198
7.61887	52169
7.62700	49760
7.63512	54152
7.64325	49658
7.65137	48504
7.65948	49418
7.66762	50523
7.67573	52862
7.68385	49967
7.69198	47083
7.70010	47320
7.70823	51456
7.71635	49825
7.72447	48749
7.73260	51149
7.74072	49770
7.74885	48226
7.75697	47961
7.76508	52445
7.77322	50129
7.78133	46829
7.78947	47126
7.79758	47277
7.80570	49371
7.81383	45043
7.82195	50870
7.83007	53793
7.83820	50099
7.84632	49857
7.85445	47332
7.86257	51017
7.87068	43272
7.87882	42343
7.88693	46277
7.89507	44970
7.90318	44401
7.91130	44897
7.91943	41359
7.92755	43377
7.93567	46708
7.94380	40861
7.95192	46513
7.96005	44439
7.96817	41248
7.97628	43827
7.98442	46788
7.99253	48881
8.00067	50196
8.00878	43397
8.01690	45572
8.02503	45308
8.03315	41688
8.04128	43639
8.04940	39488
8.05752	44060
8.06565	42419
8.07377	42900
8.08188	41524
8.09002	43838
8.09813	43559
8.10627	44374
8.11438	44168
8.12250	44940
8.13063	44085
8.13875	42867
8.14688	43202
8.15500	44345
8.16312	42042
8.17125	45092
8.17937	46571
8.18750	47650
8.19562	45803
8.20373	44428
8.21187	43682
8.21998	43929
8.22810	45258
8.23623	39979
8.24435	41378
8.25248	44104
8.26060	42445
8.26872	44472
8.27685	40660
8.28497	39488
8.29310	40244
8.30122	45152
8.30933	40497
8.31747	40453
8.32558	42758
8.33372	45338
8.34183	45792
8.34995	44466
8.35808	46231
8.36620	47055
8.37432	46733
8.38245	42606
8.39057	41332
8.39870	44166
8.40682	44987
8.41493	45722
8.42307	39444
8.43118	43413
8.43932	51584
8.44743	209674
8.45555	608690
8.46368	423406
8.47180	157860
8.47992	91544
8.48805	78507
8.49617	66095
8.50430	65784
8.51242	64992
8.52053	69935
8.52867	62922
8.53678	63003
8.54492	64139
8.55303	63836
8.56115	55878
8.56928	60795
8.57740	63686
8.58553	63296
8.59365	61097
8.60177	61467
8.60990	62485
8.61802	57332
8.62613	56863
8.63427	60159
8.64238	60265
8.65052	56711
8.65863	50835
8.66675	57714
8.67488	55782
8.68300	53328
8.69113	55349
8.69925	54819
8.70737	52227
8.71550	55264
8.72362	51220
8.73173	53846
8.73987	54925
8.74798	59345
8.75612	74670
8.76423	162479
8.77235	404597
8.78048	862784
8.78860	1433116
8.79673	1831404
8.80485	1829955
8.81297	1501023
8.82110	1024334
8.82922	719429
8.83735	559647
8.84547	437784
8.85358	612216
8.86172	2278349
8.86983	3875775
8.87795	2668122
8.88608	1595970
8.89420	1086518
8.90233	850813
8.91045	699091
8.91857	594627
8.92670	508554
8.93482	455196
8.94295	406185
8.95107	369795
8.95918	347318
8.96732	319737
8.97543	304292
8.98357	281713
8.99168	264753
8.99980	253390
9.00793	234595
9.01605	229254
9.02417	225709
9.03230	217359
9.04042	203170
9.04855	202345
9.05667	192326
9.06478	189925
9.07292	185641
9.08103	180032
9.08917	168175
9.09728	166277
9.10540	169653
9.11353	164184
9.12165	158812
9.12977	151636
9.13790	146084
9.14602	147303
9.15415	149617
9.16227	150988
9.17038	139874
9.17852	144459
9.18663	145065
9.19477	141709
9.20288	138504
9.21100	130213
9.21913	134941
9.22725	127518
9.23538	132270
9.24350	138740
9.25162	132029
9.25975	128069
9.26787	125212
9.27598	128640
9.28412	127348
9.29223	137519
9.30037	133390
9.30848	132978
9.31660	121723
9.32473	119391
9.33285	112865
9.34098	110075
9.34910	118681
9.35722	203001
9.36535	793741
9.37347	1855830
9.38160	2052831
9.38972	1366254
9.39783	878422
9.40597	654460
9.41408	523771
9.42220	431551
9.43033	361259
9.43845	321320
9.44658	285344
9.45470	264646
9.46282	233479
9.47095	228735
9.47907	208868
9.48720	189663
9.49532	185147
9.50343	174326
9.51157	165295
9.51968	158010
9.52780	150601
9.53593	146692
9.54405	139981
9.55218	133724
9.56030	119163
9.56842	109921
9.57655	103855
9.58467	99704
9.59280	90108
9.60092	91372
9.60903	93528
9.61717	85932
9.62528	80977
9.63342	85723
9.64153	85374
9.64965	80986
9.65778	73914
9.66590	78623
9.67402	76576
9.68215	77751
9.69027	71774
9.69840	72858
9.70652	68142
9.71463	67694
9.72277	71418
9.73088	68641
9.73902	69996
9.74713	69995
9.75525	68572
9.76338	66736
9.77150	61265
9.77962	68563
9.78775	64687
9.79587	69391
9.80400	80137
9.81212	89935
9.82023	89543
9.82837	79915
9.83648	72335
9.84462	71031
9.85273	66040
9.86085	70560
9.86898	69972
9.87710	78210
9.88523	77449
9.89335	74493
9.90147	70303
9.90960	64364
9.91772	63743
9.92583	63224
9.93397	64887
9.94208	65247
9.95022	62515
9.95833	62918
9.96645	61200
9.97458	64553
9.98270	60503
9.99083	69024
9.99895	70140
10.00707	69513
10.01520	75410
10.02332	75101
10.03145	81487
10.03957	86749
10.04768	86182
10.05582	84411
10.06393	81594
10.07205	88898
10.08018	92697
10.08830	95360
10.09643	97501
10.10455	99812
10.11267	103868
10.12080	107205
10.12892	109024
10.13705	103294
10.14517	89713
10.15328	78838
10.16142	80358
10.16953	79905
10.17765	74935
10.18578	77024
10.19390	74395
10.20203	72198
10.21015	72663
10.21827	69743
10.22640	75180
10.23452	76826
10.24265	75353
10.25077	75454
10.25888	73220
10.26702	70375
10.27513	71517
10.28327	71801
10.29138	69178
10.29950	65576
10.30763	71672
10.31575	69543
10.32387	71578
10.33200	73150
10.34012	72939
10.34825	67165
10.35637	60731
10.36448	65631
10.37262	64944
10.38073	66656
10.38887	66795
10.39698	68974
10.40510	70086
10.41323	63468
10.42135	65953
10.42948	63418
10.43760	59985
10.44572	63030
10.45385	61904
10.46197	62593
10.47008	62475
10.47822	64388
10.48633	64295
10.49447	61233
10.50258	62835
10.51070	60932
10.51883	63782
10.52695	61579
10.53508	58309
10.54320	61143
10.55132	60512
10.55945	60902
10.56757	58161
10.57568	58624
10.58382	62159
10.59193	63192
10.60007	62108
10.60818	60571
10.61630	65341
10.62443	59182
10.63255	64815
10.64068	60293
10.64880	62320
10.65692	59398
10.66505	59130
10.67317	57898
10.68130	56399
10.68942	56495
10.69753	52288
10.70567	53268
10.71378	53455
10.72190	53660
10.73003	54769
10.73815	55088
10.74628	55492
10.75440	56479
10.76252	55899
10.77065	55461
10.77877	57244
10.78690	55306
10.79502	56229
10.80313	55007
10.81127	55794
10.81938	56317
10.82752	56240
10.83563	54838
10.84375	54466
10.85188	54531
10.86000	52633
10.86812	55408
10.87625	52476
10.88437	51769
10.89250	53263
10.90062	51911
10.90873	52214
10.91687	48579
10.92498	51345
10.93312	52908
10.94123	54777
10.94935	55602
10.95748	51559
10.96560	54410
10.97372	62631
10.98185	110985
10.98997	252884
10.99810	430305
11.00622	527105
11.01433	482087
11.02247	361603
11.03058	270353
11.03872	203887
11.04683	167644
11.05495	143902
11.06308	129564
11.07120	118188
11.07933	103229
11.08745	98014
11.09557	84373
11.10370	82596
11.11182	81482
11.11993	71645
11.12807	76136
11.13618	72620
11.14432	68028
11.15243	68040
11.16055	66226
11.16868	64552
11.17680	71313
11.18493	80748
11.19305	81457
11.20117	86080
11.20930	88252
11.21742	85241
11.22553	79824
11.23367	73887
11.24178	69551
11.24992	61693
11.25803	58984
11.26615	58509
11.27428	56653
11.28240	59726
11.29053	57993
11.29865	54918
11.30677	56441
11.31490	54964
11.32302	56316
11.33115	62248
11.33927	50531
11.34738	53694
11.35552	51253
11.36363	53082
11.37175	54312
11.37988	52370
11.38800	53200
11.39613	54114
11.40425	52652
11.41237	53934
11.42050	54910
11.42862	59747
11.43675	51278
11.44487	53952
11.45298	49747
11.46112	49051
11.46923	58066
11.47737	51213
11.48548	49647
11.49360	50075
11.50173	56078
11.50985	51702
11.51797	52580
11.52610	50994
11.53422	51229
11.54235	49661
11.55047	46927
11.55858	50233
11.56672	51565
11.57483	50326
11.58297	48725
11.59108	51489
11.59920	51997
11.60733	49582
11.61545	50287
11.62357	49944
11.63170	49228
11.63982	55684
11.64795	46853
11.65607	51318
11.66418	48414
11.67232	49487
11.68043	54076
11.68857	48056
11.69668	48295
11.70480	55538
11.71293	53585
11.72105	54553
11.72918	56715
11.73730	56048
11.74542	56891
11.75355	53890
11.76167	57937
11.76978	57596
11.77792	58797
11.78603	52493
11.79417	52556
11.80228	52957
11.81040	51277
11.81853	51138
11.82665	50181
11.83478	49939
11.84290	49159
11.85102	50249
11.85915	52422
11.86727	52272
11.87540	50573
11.88352	53534
11.89163	52056
11.89977	51222
11.90788	50136
11.91600	47887
11.92413	50970
11.93225	51168
11.94038	50476
11.94850	52015
11.95662	47871
11.96475	51770
11.97287	47463
11.98100	49634
11.98912	50094
11.99723	48311
12.00537	47460
12.01348	50155
12.02160	50736
12.02973	51156
12.03785	50264
12.04598	49207
12.05410	51376
12.06222	50508
12.07035	50094
12.07847	48940
12.08660	49419
12.09472	50427
12.10283	48365
12.11097	49151
12.11908	53026
12.12722	55324
12.13533	48470
12.14345	48124
12.15158	51250
12.15970	50402
12.16782	52814
12.17595	48950
12.18407	45646
12.19220	53972
12.20032	47510
12.20843	54587
12.21657	54620
12.22468	53060
12.23282	53861
12.24093	48808
12.24905	50306
12.25718	48168
12.26530	51746
12.27342	52455
12.28155	45464
12.28967	48547
12.29780	49521
12.30592	50608
12.31403	49474
12.32217	52850
12.33028	47566
12.33842	47375
12.34653	49768
12.35465	50037
12.36278	47146
12.37090	50803
12.37903	49503
12.38715	57132
12.39527	47990
12.40340	49629
12.41152	50088
12.41963	48446
12.42777	51131
12.43588	47477
12.44402	46755
12.45213	46906
12.46025	51253
12.46838	52040
12.47650	52082
12.48463	52557
12.49275	50627
12.50087	49932
12.50900	53060
12.51712	52620
12.52525	50140
12.53337	52247
12.54148	48980
12.54962	49165
12.55773	51378
12.56585	46797
12.57398	49088
12.58210	47663
12.59023	50371
12.59835	49299
12.60647	47901
12.61460	47998
12.62272	44774
12.63085	49482
12.63897	48894
12.64708	47352
12.65522	47531
12.66333	48855
12.67145	48383
12.67958	48481
12.68770	46700
12.69583	53359
12.70395	48045
12.71207	47685
12.72020	50668
12.72832	49147
12.73645	47789
12.74457	50013
12.75268	51981
12.76082	52154
12.76893	51930
12.77707	48927
12.78518	46723
12.79330	46428
12.80143	48404
12.80955	46682
12.81767	47087
12.82580	48809
12.83392	46965
12.84205	47502
12.85017	44196
12.85828	44015
12.86642	46630
12.87453	42261
12.88267	45602
12.89078	47558
12.89890	47110
12.90703	43950
12.91515	45343
12.92328	45025
12.93140	44462
12.93952	42917
12.94765	44425
12.95577	44946
12.96388	45748
12.97202	44156
12.98013	43705
12.98827	46629
12.99638	47230
13.00450	44584
13.01263	46758
13.02075	47826
13.02888	43389
13.03700	46418
13.04512	44727
13.05325	46841
13.06137	44926
13.06948	44639
13.07762	45016
13.08573	45057
13.09387	45534
13.10198	41834
13.11010	47070
13.11823	44574
13.12635	45603
13.13448	45748
13.14260	42234
13.15072	44922
13.15885	44278
13.16697	50371
13.17510	43917
13.18322	44724
13.19133	50275
13.19947	48398
13.20758	53428
13.21570	50908
13.22383	50463
13.23195	49785
13.24008	50904
13.24820	49771
13.25632	46106
13.26445	47402
13.27257	42781
13.28070	42749
13.28882	46282
13.29693	47098
13.30507	46180
13.31318	46432
13.32130	44346
13.32943	49405
13.33755	48065
13.34568	45489
13.35380	45136
13.36192	48085
13.37005	45196
13.37817	43814
13.38630	47800
13.39442	45253
13.40253	43749
13.41067	45273
13.41878	44582
13.42692	43869
13.43503	45545
13.44315	48859
13.45128	46937
13.45940	45487
13.46752	46069
13.47565	44631
13.48377	49816
13.49190	43458
13.50002	45510
13.50813	43479
13.51627	45143
13.52438	44708
13.53252	45889
13.54063	46503
13.54875	45434
13.55688	45834
13.56500	43873
13.57313	45130
13.58125	45550
13.58937	42558
13.59750	45127
13.60562	44816
13.61373	47296
13.62187	42952
13.62998	46849
13.63812	46183
13.64623	47419
13.65435	47400
13.66248	48360
13.67060	44882
13.67873	45655
13.68685	47880
13.69497	48675
13.70310	49506
13.71122	46064
13.71935	45540
13.72747	47045
13.73558	45347
13.74372	45137
13.75183	45003
13.75995	46344
13.76808	53267
13.77620	55596
13.78433	59063
13.79245	57943
13.80057	70127
13.80870	61534
13.81682	66736
13.82495	65401
13.83307	64853
13.84118	68045
13.84932	62170
13.85743	66360
13.86555	62735
13.87368	66185
13.88180	65401
13.88993	60377
13.89805	65855
13.90617	60363
13.91430	66599
13.92242	64052
13.93055	65382
13.93867	66233
13.94678	67037
13.95492	68282
13.96303	63730
13.97117	64163
13.97928	63051
13.98740	63673
13.99553	62328
14.00365	63551
14.01177	65827
14.01990	63712
14.02802	63809
14.03615	61405
14.04427	65997
14.05238	61202
14.06052	64295
14.06863	67172
14.07677	69904
14.08488	66057
14.09300	65089
14.10113	63171
14.10925	61784
14.11737	62707
14.12550	59600
14.13362	59959
14.14175	62679
14.14987	65139
14.15798	65440
14.16612	74385
14.17423	110575
14.18237	170213
14.19048	295667
14.19860	438230
14.20673	567150
14.21485	574608
14.22298	489377
14.23110	368720
14.23922	291431
14.24735	221978
14.25547	194212
14.26358	166022
14.27172	156680
14.27983	149076
14.28797	141548
14.29608	130224
14.30420	126177
14.31233	121370
14.32045	112523
14.32858	108632
14.33670	103935
14.34482	97177
14.35295	92199
14.36107	83473
14.36920	74559
14.37732	65684
14.38543	69868
14.39357	64264
14.40168	64607
14.40980	65614
14.41793	59799
14.42605	60462
14.43418	58172
14.44230	60063
14.45042	64686
14.45855	58669
14.46667	58133
14.47480	58293
14.48292	59922
14.49103	60316
14.49917	63112
14.50728	60730
14.51540	57218
14.52353	56183
14.53165	56768
14.53978	57474
14.54790	59809
14.55602	60673
14.56415	60665
14.57227	54041
14.58040	56173
14.58852	54224
14.59663	52800
14.60477	57387
14.61288	58973
14.62102	53635
14.62913	53164
14.63725	52796
14.64538	56149
14.65350	54560
14.66162	56376
14.66975	52666
14.67787	60654
14.68600	55653
14.69412	48770
14.70223	57519
14.71037	52127
14.71848	50458
14.72662	53959
14.73473	52348
14.74285	59801
14.75098	69440
14.75910	97681
14.76723	130398
14.77535	163919
14.78347	171384
14.79160	153199
14.79972	132098
14.80783	104905
14.81597	81152
14.82408	78599
14.83222	73480
14.84033	75567
14.84845	68374
14.85658	78030
14.86470	69481
14.87283	71903
14.88095	68573
14.88907	67954
14.89720	61456
14.90532	76933
14.91343	248131
14.92157	623408
14.92968	360897
14.93782	143557
14.94593	101780
14.95405	87631
14.96218	80904
14.97030	79365
14.97843	78881
14.98655	83208
14.99467	87234
15.00280	80275
15.01092	75796
15.01905	72200
15.02717	71406
15.03528	70383
15.04342	70806
15.05153	70037
15.05965	64289
15.06778	67873
15.07590	66836
15.08403	65394
15.09215	128739
15.10027	2566420
15.10840	5525123
15.11652	2450146
15.12465	1220208
15.13277	820825
15.14088	604225
15.14902	486928
15.15713	395416
15.16525	330272
15.17338	284840
15.18150	252962
15.18963	223774
15.19775	201116
15.20587	191451
15.21400	175025
15.22212	162728
15.23025	149465
15.23837	156283
15.24648	552130
15.25462	3242308
15.26273	3334023
15.27087	1535183
15.27898	919032
15.28710	634462
15.29523	499321
15.30335	401276
15.31147	335126
15.31960	295072
15.32772	258245
15.33585	230501
15.34397	213528
15.35208	193293
15.36022	173513
15.36833	164507
15.37647	155968
15.38458	146100
15.39270	140336
15.40083	138532
15.40895	128193
15.41708	126436
15.42520	117932
15.43332	119490
15.44145	110729
15.44957	111401
15.45768	105683
15.46582	102645
15.47393	93974
15.48207	97298
15.49018	94775
15.49830	97856
15.50643	93003
15.51455	102082
15.52268	110201
15.53080	103899
15.53892	99984
15.54705	92838
15.55517	104696
15.56328	116840
15.57142	106027
15.57953	95358
15.58767	100317
15.59578	124080
15.60390	141973
15.61203	140309
15.62015	133732
15.62828	123987
15.63640	102067
15.64452	101560
15.65265	96157
15.66077	94260
15.66890	94849
15.67702	95716
15.68513	88858
15.69327	95826
15.70138	89695
15.70950	88063
15.71763	84759
15.72575	105478
15.73388	311797
15.74200	873323
15.75012	1015582
15.75825	672858
15.76637	425104
15.77450	300129
15.78262	246942
15.79073	207017
15.79887	176093
15.80698	159132
15.81512	150632
15.82323	134362
15.83135	128757
15.83948	115618
15.84760	108456
15.85572	111987
15.86385	101376
15.87197	93108
15.88010	95489
15.88822	93602
15.89633	89350
15.90447	89334
15.91258	88389
15.92072	89159
15.92883	80837
15.93695	80863
15.94508	79377
15.95320	80820
15.96132	80329
15.96945	77620
15.97757	82317
15.98570	77254
15.99382	76963
16.00193	77841
16.01007	78080
16.01818	74271
16.02632	81171
16.03443	80764
16.04255	81807
16.05068	80409
16.05880	78811
16.06693	77919
16.07505	73526
16.08317	75787
16.09130	73392
16.09942	76250
16.10753	76286
16.11567	74248
16.12378	70121
16.13192	69821
16.14003	72570
16.14815	74945
16.15628	71683
16.16440	75827
16.17253	72683
16.18065	70669
16.18877	71525
16.19690	71201
16.20502	77165
16.21315	75264
16.22127	74801
16.22938	68798
16.23752	71911
16.24563	69979
16.25375	67819
16.26188	68158
16.27000	71276
16.27813	69163
16.28625	70210
16.29437	66969
16.30250	68906
16.31062	67145
16.31875	66573
16.32687	63394
16.33498	63103
16.34312	66474
16.35123	66126
16.35935	66628
16.36748	64619
16.37560	62934
16.38373	63630
16.39185	71417
16.39997	70681
16.40810	69948
16.41622	69524
16.42435	62941
16.43247	66643
16.44058	68664
16.44872	71197
16.45683	63114
16.46497	60105
16.47308	60691
16.48120	66449
16.48933	65483
16.49745	68041
16.50557	66039
16.51370	69618
16.52182	62573
16.52995	65699
16.53807	62665
16.54618	67237
16.55432	67147
16.56243	69282
16.57057	69022
16.57868	67366
16.58680	64645
16.59493	66729
16.60305	62778
16.61117	67244
16.61930	62165
16.62742	60518
16.63555	65986
16.64367	59533
16.65178	64774
16.65992	65984
16.66803	61748
16.67617	58192
16.68428	63930
16.69240	67196
16.70053	67063
16.70865	60772
16.71678	63660
16.72490	61009
16.73302	63364
16.74115	59935
16.74927	56601
16.75738	58753
16.76552	63448
16.77363	58083
16.78177	56875
16.78988	62415
16.79800	57387
16.80613	59703
16.81425	60537
16.82238	59266
16.83050	59075
16.83862	60559
16.84675	57245
16.85487	62265
16.86300	60842
16.87112	56463
16.87923	58263
16.88737	56874
16.89548	58120
16.90360	57505
16.91173	58623
16.91985	57891
16.92798	59175
16.93610	57601
16.94422	60995
16.95235	60220
16.96047	57224
16.96860	53323
16.97672	62574
16.98483	58867
16.99297	57554
17.00108	55032
17.00920	56912
17.01733	56686
17.02545	58483
17.03358	58273
17.04170	55304
17.04982	55686
17.05795	55667
17.06607	56976
17.07420	56405
17.08232	57849
17.09043	56263
17.09857	55325
17.10668	57841
17.11482	56684
17.12293	53414
17.13105	52078
17.13918	59268
17.14730	54550
17.15542	54212
17.16355	54652
17.17167	55084
17.17980	53850
17.18792	56325
17.19603	59095
17.20417	52994
17.21228	54477
17.22042	51697
17.22853	51603
17.23665	49544
17.24478	53909
17.25290	52247
17.26103	56779
17.26915	80900
17.27727	134100
17.28540	206259
17.29352	227121
17.30163	178796
17.30977	133758
17.31788	114084
17.32602	97185
17.33413	85648
17.34225	80977
17.35038	77867
17.35850	76360
17.36663	73524
17.37475	82465
17.38287	77083
17.39100	69276
17.39912	71797
17.40723	68870
17.41537	67249
17.42348	65597
17.43162	61347
17.43973	66291
17.44785	61026
17.45598	64317
17.46410	59255
17.47223	61158
17.48035	64371
17.48847	58308
17.49660	57634
17.50472	61724
17.51285	58009
17.52097	57972
17.52908	57353
17.53722	57183
17.54533	56361
17.55345	54219
17.56158	56010
17.56970	57358
17.57783	52420
17.58595	55433
17.59407	56626
17.60220	55401
17.61032	55670
17.61845	52416
17.62657	51738
17.63468	52840
17.64282	50074
17.65093	53399
17.65905	50249
17.66718	56575
17.67530	54093
17.68343	55468
17.69155	58771
17.69967	60456
17.70780	58647
17.71592	61049
17.72405	57935
17.73217	57148
17.74028	56316
17.74842	56257
17.75653	56293
17.76467	52753
17.77278	56159
17.78090	53698
17.78903	50974
17.79715	49132
17.80527	55140
17.81340	51470
17.82152	49797
17.82965	49232
17.83777	50389
17.84588	47760
17.85402	52531
17.86213	51926
17.87027	52223
17.87838	52102
17.88650	47225
17.89463	48297
17.90275	50089
17.91088	51175
17.91900	48314
17.92712	43847
17.93525	49821
17.94337	43784
17.95148	50002
17.95962	49669
17.96773	44180
17.97587	46402
17.98398	45517
17.99210	46354
18.00023	42919
18.00835	48069
18.01648	47820
18.02460	45253
18.03272	46214
18.04085	47975
18.04897	44898
18.05710	47988
18.06522	49431
18.07333	50429
18.08147	52659
18.08958	57120
18.09770	55197
18.10583	57591
18.11395	64272
18.12208	60436
18.13020	59043
18.13832	60945
18.14645	64086
18.15457	58398
18.16270	60603
18.17082	61859
18.17893	59029
18.18707	56773
18.19518	58150
18.20330	57005
18.21143	54043
18.21955	60788
18.22768	54744
18.23580	56695
18.24392	60633
18.25205	60396
18.26017	60556
18.26830	55054
18.27642	55899
18.28453	55986
18.29267	52974
18.30078	52058
18.30892	46466
18.31703	47869
18.32515	45554
18.33328	46401
18.34140	51190
18.34952	51500
18.35765	50893
18.36577	50312
18.37390	49461
18.38202	49948
18.39013	46571
18.39827	46422
18.40638	47066
18.41452	49774
18.42263	50591
18.43075	46185
18.43888	47232
18.44700	46024
18.45512	48207
18.46325	47185
18.47137	50320
18.47950	48278
18.48762	45409
18.49573	51854
18.50387	46625
18.51198	45648
18.52012	47504
18.52823	46033
18.53635	49938
18.54448	48894
18.55260	47382
18.56073	48904
18.56885	46804
18.57697	49804
18.58510	48989
18.59322	45192
18.60133	43884
18.60947	44329
18.61758	47983
18.62572	47307
18.63383	47296
18.64195	47533
18.65008	45288
18.65820	49452
18.66633	48250
18.67445	47457
18.68257	45563
18.69070	47775
18.69882	44037
18.70695	48215
18.71507	44525
18.72318	47869
18.73132	44457
18.73943	50160
18.74755	47912
18.75568	46654
18.76380	43355
18.77193	46012
18.78005	49046
18.78817	46937
18.79630	40464
18.80442	46517
18.81255	43060
18.82067	43590
18.82878	48049
18.83692	45940
18.84503	48456
18.85315	43159
18.86128	39436
18.86940	44697
18.87753	45260
18.88565	45628
18.89377	46500
18.90190	45664
18.91002	49861
18.91815	47640
18.92627	47747
18.93438	46230
18.94252	44402
18.95063	41077
18.95877	41189
18.96688	47432
18.97500	41157
18.98313	47054
18.99125	45440
18.99937	47359
19.00750	47095
19.01562	42476
19.02375	41095
19.03187	42699
19.03998	43573
19.04812	43902
19.05623	41455
19.06437	40444
19.07248	47921
19.08060	47564
19.08873	48184
19.09685	50480
19.10498	46097
19.11310	45720
19.12122	54444
19.12935	55989
19.13747	56291
19.14558	60583
19.15372	65805
19.16183	69793
19.16997	73902
19.17808	67675
19.18620	81447
19.19433	76620
19.20245	74272
19.21058	77994
19.21870	76603
19.22682	78723
19.23495	77345
19.24307	76395
19.25118	74750
19.25932	77890
19.26743	80813
19.27557	78661
19.28368	86112
19.29180	81523
19.29993	84143
19.30805	83318
19.31618	86545
19.32430	79192
19.33242	82966
19.34055	82826
19.34867	91343
19.35680	85073
19.36492	87937
19.37303	84464
19.38117	84700
19.38928	81818
19.39740	83667
19.40553	82027
19.41365	83002
19.42178	81817
19.42990	80986
19.43802	83289
19.44615	81376
19.45427	82503
19.46240	93161
19.47052	95413
19.47863	112562
19.48677	151800
19.49488	222083
19.50300	278888
19.51113	326271
19.51925	319326
19.52738	264172
19.53550	200628
19.54362	150814
19.55175	123020
19.55987	102794
19.56800	90694
19.57612	93941
19.58423	91269
19.59237	101388
19.60048	115247
19.60862	124094
19.61673	133071
19.62485	137608
19.63298	138778
19.64110	149811
19.64922	188167
19.65735	247661
19.66547	319082
19.67360	365218
19.68172	372915
19.68983	345966
19.69797	300974
19.70608	246268
19.71422	191588
19.72233	162576
19.73045	146907
19.73858	121884
19.74670	114256
19.75483	108569
19.76295	101396
19.77107	94923
19.77920	92586
19.78732	88409
19.79543	85188
19.80357	85685
19.81168	84732
19.81982	83352
19.82793	79001
19.83605	75426
19.84418	77104
19.85230	80796
19.86043	77448
19.86855	81563
19.87667	80051
19.88480	95702
19.89292	120200
19.90103	150949
19.90917	184827
19.91728	222863
19.92542	245156
19.93353	250052
19.94165	258158
19.94978	251061
19.95790	236893
19.96603	229025
19.97415	218552
19.98227	202500
19.99040	199319
19.99852	197079
20.00665	187117
20.01477	184379
20.02288	173396
20.03102	169410
20.03913	155058
20.04725	145266
20.05538	133638
20.06350	119969
20.07163	104523
20.07975	98607
20.08787	91330
20.09600	89545
20.10412	84444
20.11225	87850
20.12037	83729
20.12848	81692
20.13662	79503
20.14473	84351
20.15287	83861
20.16098	80455
20.16910	78755
20.17723	79185
20.18535	82488
20.19347	78915
20.20160	78585
20.20972	81216
20.21785	77995
20.22597	81630
20.23408	81096
20.24222	90517
20.25033	112908
20.25847	139431
20.26658	189202
20.27470	228149
20.28283	266256
20.29095	282104
20.29907	264306
20.30720	233872
20.31532	190078
20.32345	157572
20.33157	128920
20.33968	116598
20.34782	98928
20.35593	89234
20.36407	92762
20.37218	90685
20.38030	91114
20.38843	85890
20.39655	93353
20.40468	93437
20.41280	94898
20.42092	116590
20.42905	141070
20.43717	166752
20.44528	185080
20.45342	182922
20.46153	168337
20.46967	150496
20.47778	137315
20.48590	117000
20.49403	105321
20.50215	99989
20.51028	90502
20.51840	84340
20.52652	83425
20.53465	86654
20.54277	78088
20.55090	76290
20.55902	76275
20.56713	75830
20.57527	75952
20.58338	70844
20.59150	74241
20.59963	73386
20.60775	78584
20.61588	74563
20.62400	70176
20.63212	74648
20.64025	71971
20.64837	73215
20.65650	70671
20.66462	73377
20.67273	68735
20.68087	69362
20.68898	68519
20.69710	67427
20.70523	65756
20.71335	69869
20.72148	65255
20.72960	66114
20.73772	66926
20.74585	69983
20.75397	68994
20.76210	63853
20.77022	64608
20.77833	61964
20.78647	64207
20.79458	64825
20.80272	59922
20.81083	64689
20.81895	60811
20.82708	65590
20.83520	64053
20.84332	66563
20.85145	62917
20.85957	64927
20.86770	66620
20.87582	62842
20.88393	57045
20.89207	59509
20.90018	64354
20.90832	58037
20.91643	57753
20.92455	64091
20.93268	55408
20.94080	55580
20.94892	55576
20.95705	57618
20.96517	56290
20.97330	64601
20.98142	57711
20.98953	57668
20.99767	54631
21.00578	59817
21.01392	56372
21.02203	55282
21.03015	54171
21.03828	57419
21.04640	55123
21.05453	54896
21.06265	57094
21.07077	60189
21.07890	53817
21.08702	58173
21.09513	62518
21.10327	66603
21.11138	68889
21.11952	69918
21.12763	71506
21.13575	68900
21.14388	63807
21.15200	57326
21.16013	63536
21.16825	58249
21.17637	60452
21.18450	62951
21.19262	59927
21.20075	58261
21.20887	58126
21.21698	59614
21.22512	57419
21.23323	54324
21.24135	52961
21.24948	60249
21.25760	59350
21.26573	59046
21.27385	61831
21.28197	61728
21.29010	60196
21.29822	56123
21.30635	58908
21.31447	59923
21.32258	54297
21.33072	53127
21.33883	51564
21.34695	51913
21.35508	53479
21.36320	56359
21.37133	55210
21.37945	60324
21.38757	64126
21.39570	64350
21.40382	63024
21.41195	70598
21.42007	58589
21.42818	59081
21.43632	57612
21.44443	55492
21.45257	54350
21.46068	53112
21.46880	52294
21.47693	52236
21.48505	57985
21.49317	49784
21.50130	52988
21.50942	55310
21.51755	53331
21.52567	52943
21.53378	54525
21.54192	53200
21.55003	52520
21.55817	50491
21.56628	49541
21.57440	49733
21.58253	49572
21.59065	49729
21.59878	53269
21.60690	57919
21.61502	61546
21.62315	83052
21.63127	93405
21.63938	105858
21.64752	108192
21.65563	102284
21.66377	89657
21.67188	83644
21.68000	74916
21.68813	63587
21.69625	66425
21.70438	61385
21.71250	63433
21.72062	60632
21.72875	62582
21.73687	59496
21.74498	61349
21.75312	58238
21.76123	61046
21.76937	58712
21.77748	54239
21.78560	55988
21.79373	54617
21.80185	64632
21.80998	64489
21.81810	74161
21.82622	81422
21.83435	84844
21.84247	87770
21.85060	86233
21.85872	80080
21.86683	69841
21.87497	65544
21.88308	64187
21.89120	59903
21.89933	63840
21.90745	59745
21.91558	55303
21.92370	59717
21.93182	59557
21.93995	58782
21.94807	52328
21.95620	53589
21.96432	51930
21.97243	52739
21.98057	53380
21.98868	51662
21.99680	50871
22.00493	49976
22.01305	45450
22.02118	55631
22.02930	54054
22.03742	50882
22.04555	48298
22.05367	46738
22.06180	42150
22.06992	43192
22.07803	47391
22.08617	47305
22.09428	48036
22.10242	45671
22.11053	48738
22.11865	48097
22.12678	49313
22.13490	51683
22.14302	50399
22.15115	53854
22.15927	51744
22.16740	45579
22.17552	47691
22.18363	45721
22.19177	48447
22.19988	49679
22.20802	53020
22.21613	53028
22.22425	62205
22.23238	53266
22.24050	54149
22.24863	47113
22.25675	48797
22.26487	44098
22.27300	44479
22.28112	41639
22.28923	48708
22.29737	43352
22.30548	47252
22.31362	47814
22.32173	44445
22.32985	49918
22.33798	45617
22.34610	46872
22.35423	47867
22.36235	48396
22.37047	48704
22.37860	44108
22.38672	42626
22.39483	45544
22.40297	45826
22.41108	41936
22.41922	46796
22.42733	44744
22.43545	40311
22.44358	39574
22.45170	45437
22.45983	44595
22.46795	45109
22.47607	43557
22.48420	39819
22.49232	40513
22.50045	46132
22.50857	49717
22.51668	42503
22.52482	45107
22.53293	43919
22.54105	40921
22.54918	44955
22.55730	43858
22.56543	43007
22.57355	41870
22.58167	43976
22.58980	41195
22.59792	39417
22.60605	37765
22.61417	41824
22.62228	40520
22.63042	39226
22.63853	36469
22.64667	36904
22.65478	39441
22.66290	38569
22.67103	37986
22.67915	38564
22.68727	37527
22.69540	40153
22.70352	40260
22.71165	40891
22.71977	39380
22.72788	38605
22.73602	38662
22.74413	38141
22.75227	41293
22.76038	41242
22.76850	39068
22.77663	37679
22.78475	36833
22.79287	40610
22.80100	38636
22.80912	38534
22.81725	39997
22.82537	36366
22.83348	39266
22.84162	38608
22.84973	42007
22.85787	39355
22.86598	40017
22.87410	42052
22.88223	42444
22.89035	45664
22.89848	46136
22.90660	45962
22.91472	50717
22.92285	59305
22.93097	66232
22.93908	74273
22.94722	80257
22.95533	73181
22.96347	67130
22.97158	66525
22.97970	65416
22.98783	60757
22.99595	56746
23.00408	56277
23.01220	52645
23.02032	51442
23.02845	48148
23.03657	44971
23.04468	44486
23.05282	42462
23.06093	41907
23.06907	37626
23.07718	39151
23.08530	37363
23.09343	38928
23.10155	38220
23.10968	39445
23.11780	31979
23.12592	32190
23.13405	34350
23.14217	37572
23.15030	39387
23.15842	36461
23.16653	38613
23.17467	47993
23.18278	40504
23.19090	41604
23.19903	40647
23.20715	38793
23.21528	37051
23.22340	37893
23.23152	39145
23.23965	37023
23.24777	41726
23.25590	43762
23.26402	40481
23.27213	38679
23.28027	38952
23.28838	39184
23.29652	33939
23.30463	38782
23.31275	36724
23.32088	34263
23.32900	39369
23.33712	40384
23.34525	38998
23.35337	39666
23.36150	35693
23.36962	45780
23.37773	40578
23.38587	41821
23.39398	38375
23.40212	37085
23.41023	38968
23.41835	43036
23.42648	41731
23.43460	41225
23.44273	37838
23.45085	37951
23.45897	40197
23.46710	39401
23.47522	38779
23.48333	40080
23.49147	38253
23.49958	36816
23.50772	35208
23.51583	38690
23.52395	39200
23.53208	37661
23.54020	40383
23.54833	36064
23.55645	39554
23.56457	38255
23.57270	41542
23.58082	42661
23.58893	43739
23.59707	38962
23.60518	43958
23.61332	46851
23.62143	47303
23.62955	46646
23.63768	47148
23.64580	49174
23.65393	48442
23.66205	50749
23.67017	47427
23.67830	50706
23.68642	48253
23.69455	50203
23.70267	48507
23.71078	49611
23.71892	45834
23.72703	48758
23.73515	69832
23.74328	130701
23.75140	328024
23.75953	814501
23.76765	1874407
23.77577	3548293
23.78390	4861865
23.79202	5611233
23.80015	5299235
23.80827	4577097
23.81638	3628631
23.82452	2551424
23.83263	1807830
23.84075	1326440
23.84888	1052665
23.85700	846980
23.86513	770483
23.87325	802392
23.88137	903968
23.88950	1033992
23.89762	1105685
23.90575	1090096
23.91387	1004784
23.92198	842593
23.93012	685739
23.93823	568944
23.94637	461283
23.95448	394388
23.96260	347205
23.97073	307596
23.97885	270490
23.98697	244189
23.99510	234948
24.00322	206108
24.01135	195495
24.01947	191622
24.02758	189962
24.03572	180149
24.04383	174053
24.05197	167824
24.06008	159342
24.06820	153210
24.07633	144501
24.08445	144201
24.09258	137213
24.10070	137964
24.10882	137717
24.11695	127719
24.12507	138712
24.13318	136759
24.14132	136185
24.14943	133287
24.15757	130717
24.16568	119241
24.17380	119588
24.18193	117723
24.19005	120120
24.19818	113246
24.20630	118816
24.21442	118075
24.22255	117130
24.23067	115821
24.23878	109130
24.24692	107978
24.25503	102986
24.26317	105122
24.27128	97545
24.27940	92464
24.28753	95871
24.29565	87492
24.30378	84599
24.31190	88920
24.32002	86299
24.32815	86974
24.33627	85377
24.34440	81162
24.35252	79667
24.36063	84178
24.36877	95320
24.37688	111594
24.38500	145054
24.39313	171726
24.40125	194919
24.40938	208505
24.41750	226851
24.42562	281463
24.43375	393094
24.44187	570168
24.45000	748898
24.45812	839855
24.46623	830040
24.47437	745426
24.48248	603570
24.49062	498626
24.49873	403077
24.50685	340554
24.51498	296994
24.52310	250299
24.53122	219825
24.53935	193624
24.54747	176245
24.55560	168476
24.56372	150639
24.57183	144167
24.57997	135377
24.58808	127496
24.59622	128128
24.60433	129362
24.61245	124097
24.62058	129328
24.62870	129182
24.63682	124164
24.64495	115561
24.65307	110456
24.66120	110606
24.66932	104065
24.67743	105239
24.68557	99352
24.69368	97043
24.70182	91001
24.70993	87357
24.71805	87964
24.72618	79896
24.73430	76205
24.74243	80740
24.75055	76516
24.75867	78914
24.76680	78092
24.77492	74549
24.78303	77601
24.79117	77156
24.79928	75035
24.80742	72537
24.81553	74771
24.82365	72464
24.83178	69712
24.83990	65929
24.84803	67213
24.85615	73289
24.86427	69169
24.87240	66337
24.88052	75280
24.88863	74793
24.89677	67605
24.90488	71614
24.91302	70145
24.92113	69628
24.92925	67113
24.93738	65526
24.94550	60260
24.95363	59562
24.96175	62944
24.96987	60007
24.97800	61479
24.98612	65512
24.99425	67567
25.00237	63437
25.01048	64722
25.01862	60371
25.02673	60902
25.03485	62563
25.04298	64770
25.05110	60078
25.05923	62701
25.06735	62420
25.07547	60963
25.08360	57275
25.09172	60077
25.09985	61280
25.10797	61434
25.11608	62096
25.12422	69430
25.13233	82536
25.14047	91695
25.14858	104464
25.15670	109631
25.16483	114629
25.17295	109449
25.18107	97561
25.18920	84474
25.19732	79975
25.20545	74171
25.21357	64406
25.22168	64176
25.22982	66888
25.23793	62478
25.24607	63921
25.25418	62253
25.26230	61902
25.27043	62667
25.27855	63279
25.28667	64745
25.29480	68295
25.30292	65505
25.31105	69580
25.31917	71200
25.32728	66632
25.33542	70736
25.34353	61796
25.35167	62483
25.35978	58869
25.36790	57995
25.37603	55135
25.38415	58691
25.39228	52332
25.40040	53582
25.40852	52280
25.41665	49326
25.42477	51082
25.43288	52115
25.44102	50117
25.44913	54349
25.45727	53803
25.46538	59218
25.47350	60467
25.48163	60821
25.48975	55411
25.49788	57447
25.50600	54542
25.51412	53514
25.52225	52344
25.53037	49694
25.53850	52642
25.54662	50842
25.55473	48777
25.56287	48493
25.57098	47829
25.57910	48195
25.58723	48907
25.59535	51749
25.60348	45541
25.61160	44970
25.61972	47493
25.62785	49520
25.63597	46653
25.64410	45764
25.65222	48777
25.66033	42892
25.66847	49527
25.67658	45150
25.68470	43863
25.69283	47491
25.70095	44047
25.70908	43210
25.71720	43612
25.72532	44956
25.73345	45928
25.74157	46805
25.74970	44005
25.75782	44270
25.76593	41365
25.77407	43366
25.78218	47911
25.79032	48047
25.79843	45038
25.80655	45892
25.81468	41514
25.82280	45262
25.83092	49098
25.83905	48730
25.84717	49056
25.85530	48095
25.86342	45775
25.87153	48718
25.87967	47614
25.88778	51038
25.89592	43770
25.90403	39988
25.91215	39722
25.92028	45864
25.92840	44355
25.93652	42205
25.94465	43289
25.95277	43319
25.96090	47668
25.96902	45163
25.97713	46288
25.98527	42575
25.99338	43839
26.00152	41243
26.00963	40137
26.01775	41480
26.02588	41533
26.03400	43002
26.04213	45658
26.05025	43232
26.05837	45037
26.06650	41686
26.07462	41194
26.08273	42882
26.09087	40559
26.09898	42521
26.10712	43760
26.11523	46980
26.12335	50215
26.13148	52937
26.13960	52684
26.14773	51203
26.15585	56447
26.16397	58452
26.17210	52781
26.18022	52963
26.18835	51891
26.19647	53042
26.20458	48289
26.21272	44666
26.22083	45886
26.22895	47456
26.23708	45494
26.24520	46950
26.25333	48879
26.26145	51707
26.26957	50131
26.27770	51133
26.28582	49609
26.29395	47699
26.30207	44876
26.31018	47169
26.31832	50227
26.32643	48734
26.33455	44232
26.34268	47325
26.35080	43549
26.35893	47262
26.36705	44338
26.37517	45184
26.38330	49764
26.39142	50750
26.39955	51753
26.40767	51634
26.41578	54859
26.42392	55383
26.43203	54866
26.44017	51466
26.44828	46763
26.45640	45322
26.46453	53066
26.47265	42525
26.48077	41406
26.48890	43102
26.49702	40496
26.50515	41928
26.51327	39462
26.52138	41583
26.52952	39921
26.53763	41961
26.54577	40869
26.55388	40627
26.56200	45862
26.57013	41072
26.57825	42225
26.58638	39988
26.59450	41641
26.60262	40873
26.61075	39817
26.61887	39493
26.62698	41502
26.63512	38075
26.64323	39224
26.65137	41030
26.65948	38284
26.66760	43409
26.67573	38095
26.68385	38779
26.69198	43377
26.70010	41765
26.70822	40608
26.71635	42306
26.72447	38210
26.73258	44026
26.74072	43083
26.74883	41664
26.75697	38831
26.76508	39920
26.77320	45179
26.78133	41662
26.78945	40737
26.79758	39257
26.80570	44312
26.81382	47316
26.82195	42498
26.83007	41447
26.83820	46033
26.84632	45686
26.85443	46494
26.86257	48468
26.87068	45136
26.87880	48865
26.88693	45441
26.89505	46181
26.90318	47244
26.91130	47693
26.91942	50539
26.92755	51464
26.93567	48511
26.94380	52723
26.95192	67576
26.96003	95078
26.96817	168126
26.97628	329269
26.98442	665266
26.99253	1265436
27.00065	2218826
27.00878	3571248
27.01690	4560091
27.02502	5000547
27.03315	5078275
27.04127	4577732
27.04940	3778271
27.05752	3114997
27.06563	2483448
27.07377	1842813
27.08188	1432867
27.09002	1126392
27.09813	923313
27.10625	744174
27.11438	603223
27.12250	520796
27.13062	451203
27.13875	399890
27.14687	352122
27.15500	323166
27.16312	294971
27.17123	274106
27.17937	260768
27.18748	245393
27.19562	231840
27.20373	219635
27.21185	210969
27.21998	203575
27.22810	199099
27.23623	208368
27.24435	230410
27.25247	290607
27.26060	361954
27.26872	426826
27.27683	495853
27.28497	537733
27.29308	547338
27.30122	560082
27.30933	499102
27.31745	442574
27.32558	389517
27.33370	334290
27.34183	288633
27.34995	257405
27.35807	227136
27.36620	202503
27.37432	190183
27.38243	176615
27.39057	166560
27.39868	154617
27.40682	146227
27.41493	137857
27.42305	128586
27.43118	124647
27.43930	130047
27.44743	117881
27.45555	112282
27.46367	115607
27.47180	107675
27.47992	103418
27.48805	100680
27.49617	111163
27.50428	104884
27.51242	103837
27.52053	103079
27.52865	102500
27.53678	104130
27.54490	95910
27.55303	95161
27.56115	89808
27.56927	93476
27.57740	90511
27.58552	86855
27.59365	86727
27.60177	87624
27.60988	88204
27.61802	86928
27.62613	83662
27.63427	81040
27.64238	80939
27.65050	77985
27.65863	83239
27.66675	76168
27.67487	80586
27.68300	78750
27.69112	72576
27.69925	75470
27.70737	77204
27.71548	67999
27.72362	68842
27.73173	73070
27.73987	68192
27.74798	75758
27.75610	64844
27.76423	64720
27.77235	67782
27.78047	64448
27.78860	67209
27.79672	64599
27.80485	66242
27.81297	65274
27.82108	68663
27.82922	66766
27.83733	63262
27.84547	61259
27.85358	64104
27.86170	63085
27.86983	62695
27.87795	62514
27.88608	58733
27.89420	62494
27.90232	57985
27.91045	60005
27.91857	57032
27.92668	56203
27.93482	59200
27.94293	55978
27.95107	56753
27.95918	54870
27.96730	57870
27.97543	58269
27.98355	55368
27.99168	57031
27.99980	55787
28.00792	56033
28.01605	56797
28.02417	61251
28.03230	58745
28.04042	55112
28.04853	63760
28.05667	63674
28.06478	59729
28.07290	58531
28.08103	60692
28.08915	57449
28.09728	57972
28.10540	54860
28.11352	55489
28.12165	57001
28.12977	54175
28.13790	54343
28.14602	52024
28.15413	54391
28.16227	56432
28.17038	55211
28.17850	56864
28.18663	61280
28.19475	69960
28.20288	71806
28.21100	73795
28.21912	75770
28.22725	72241
28.23537	61409
28.24350	62370
28.25162	54206
28.25973	59326
28.26787	59856
28.27598	70450
28.28412	95038
28.29223	141266
28.30035	203177
28.30848	314526
28.31660	462009
28.32472	660802
28.33285	878357
28.34097	1143366
28.34910	1409226
28.35722	1605232
28.36533	1704293
28.37347	1810335
28.38158	1801354
28.38972	1834002
28.39783	1710561
28.40595	1555068
28.41408	1420397
28.42220	1245156
28.43032	1109452
28.43845	968598
28.44657	848782
28.45470	745720
28.46282	646646
28.47093	577659
28.47907	518797
28.48718	488757
28.49532	448877
28.50343	424881
28.51155	412148
28.51968	418572
28.52780	402605
28.53593	401588
28.54405	397029
28.55217	382609
28.56030	383372
28.56842	360660
28.57653	348235
28.58467	338880
28.59278	323723
28.60092	305891
28.60903	293041
28.61715	271306
28.62528	256878
28.63340	239327
28.64153	232732
28.64965	218640
28.65777	213928
28.66590	209222
28.67402	195290
28.68215	181994
28.69027	179321
28.69838	173967
28.70652	160919
28.71463	151517
28.72275	153625
28.73088	147294
28.73900	147377
28.74713	154927
28.75525	161641
28.76337	176814
28.77150	186082
28.77962	188387
28.78775	173492
28.79587	157423
28.80398	147078
28.81212	127061
28.82023	130029
28.82837	131660
28.83648	127115
28.84460	116271
28.85273	116648
28.86085	110605
28.86897	106377
28.87710	102787
28.88522	98925
28.89335	97836
28.90147	104612
28.90958	96834
28.91772	94200
28.92583	95310
28.93397	88953
28.94208	94200
28.95020	93281
28.95833	92509
28.96645	94852
28.97457	93151
28.98270	89655
28.99082	87693
28.99895	90968
29.00707	89783
29.01518	79728
29.02332	83104
29.03143	86857
29.03957	85345
29.04768	84988
29.05580	82176
29.06393	84411
29.07205	78092
29.08018	81489
29.08830	81371
29.09642	76639
29.10455	76780
29.11267	77522
29.12078	75236
29.12892	77684
29.13703	78323
29.14517	79305
29.15328	75287
29.16140	75379
29.16953	76033
29.17765	78052
29.18578	77272
29.19390	75485
29.20202	76287
29.21015	78406
29.21827	72658
29.22638	77760
29.23452	79141
29.24263	73514
29.25077	75936
29.25888	81390
29.26700	82994
29.27513	85535
29.28325	85317
29.29138	80888
29.29950	81881
29.30762	81735
29.31575	77406
29.32387	77710
29.33200	70469
29.34012	71131
29.34823	71853
29.35637	69527
29.36448	74673
29.37260	70393
29.38073	66591
29.38885	68525
29.39698	68990
29.40510	75610
29.41322	68791
29.42135	73551
29.42947	63901
29.43760	73638
29.44572	68505
29.45383	65281
29.46197	67206
29.47008	71241
29.47822	70016
29.48633	71352
29.49445	73802
29.50258	73181
29.51070	72001
29.51882	73452
29.52695	72570
29.53507	64896
29.54320	67761
29.55132	66097
29.55943	66268
29.56757	61069
29.57568	57821
29.58382	59310
29.59193	54605
29.60005	58075
29.60818	61851
29.61630	60368
29.62442	56964
29.63255	56209
29.64067	61611
29.64880	53787
29.65692	61005
29.66503	58688
29.67317	63004
29.68128	55989
29.68942	55164
29.69753	57958
29.70565	59445
29.71378	53759
29.72190	50946
29.73003	53272
29.73815	54411
29.74627	52344
29.75440	53212
29.76252	52608
29.77063	53848
29.77877	54143
29.78688	52203
29.79502	51728
29.80313	50356
29.81125	52321
29.81938	50397
29.82750	52618
29.83563	51572
29.84375	52025
29.85187	48033
29.86000	47870
29.86812	52840
29.87625	51327
29.88437	53831
29.89248	57223
29.90062	58248
29.90873	64773
29.91685	72923
29.92498	87375
29.93310	104717
29.94123	128712
29.94935	164207
29.95747	197891
29.96560	251580
29.97372	305923
29.98185	368703
29.98997	414931
29.99808	474199
30.00622	537869
30.01433	583670
30.02245	606386
30.03058	615162
30.03870	625823
30.04683	628209
30.05495	630884
30.06307	629514
30.07120	621135
30.07932	585542
30.08745	563957
30.09557	528308
30.10368	505720
30.11182	472536
30.11993	454264
30.12807	435729
30.13618	394871
30.14430	379155
30.15243	348372
30.16055	332744
30.16867	306367
30.17680	294161
30.18492	275070
30.19305	264651
30.20117	244785
30.20928	219757
30.21742	208236
30.22553	194372
30.23367	195078
30.24178	182905
30.24990	175095
30.25803	163394
30.26615	147161
30.27427	141530
30.28240	139020
30.29052	130192
30.29865	127043
30.30677	127352
30.31488	128230
30.32302	114979
30.33113	112141
30.33927	110677
30.34738	109199
30.35550	104544
30.36363	97563
30.37175	97537
30.37988	96441
30.38800	101140
30.39612	93641
30.40425	93699
30.41237	91989
30.42048	89271
30.42862	88698
30.43673	87839
30.44487	88959
30.45298	85609
30.46110	87347
30.46923	81796
30.47735	79708
30.48548	81955
30.49360	80971
30.50172	80374
30.50985	76264
30.51797	78325
30.52610	71959
30.53422	79723
30.54233	73278
30.55047	71474
30.55858	72662
30.56670	73117
30.57483	70443
30.58295	66455
30.59108	66094
30.59920	67462
30.60732	72876
30.61545	67988
30.62357	63851
30.63170	68597
30.63982	66930
30.64793	66247
30.65607	61001
30.66418	70698
30.67230	64460
30.68043	62431
30.68855	61773
30.69668	62504
30.70480	58781
30.71292	62381
30.72105	59560
30.72917	68427
30.73730	58177
30.74542	62629
30.75353	60118
30.76167	60697
30.76978	61386
30.77792	61971
30.78603	59725
30.79415	64895
30.80228	65950
30.81040	65954
30.81852	70307
30.82665	65479
30.83477	67162
30.84290	62509
30.85102	64914
30.85913	63933
30.86727	56922
30.87538	59763
30.88352	57588
30.89163	60285
30.89975	53447
30.90788	55432
30.91600	58045
30.92413	60099
30.93225	56377
30.94037	54350
30.94850	55964
30.95662	56759
30.96473	58999
30.97287	51883
30.98098	53825
30.98912	54670
30.99723	54570
31.00535	51895
31.01348	54093
31.02160	51341
31.02973	54057
31.03785	59783
31.04597	59683
31.05410	55900
31.06222	58724
31.07033	61197
31.07847	62869
31.08658	66555
31.09472	68576
31.10283	68124
31.11095	73309
31.11908	70348
31.12720	69006
31.13533	61183
31.14345	58623
31.15157	62297
31.15970	64043
31.16782	60626
31.17595	67803
31.18407	70857
31.19218	80662
31.20032	101602
31.20843	117630
31.21655	138764
31.22468	148509
31.23280	156706
31.24093	147485
31.24905	123000
31.25717	107472
31.26530	93659
31.27342	77802
31.28155	75907
31.28967	65530
31.29778	64067
31.30592	61465
31.31403	58570
31.32215	55967
31.33028	55317
31.33840	55813
31.34653	60342
31.35465	60467
31.36277	62962
31.37090	67880
31.37902	66594
31.38715	67611
31.39527	67320
31.40338	68310
31.41152	67919
31.41963	65687
31.42777	64568
31.43588	58784
31.44400	60464
31.45213	58695
31.46025	54558
31.46837	51623
31.47650	52891
31.48462	56386
31.49275	52155
31.50087	48823
31.50898	54337
31.51712	52753
31.52523	49212
31.53337	52744
31.54148	52627
31.54960	48836
31.55773	51676
31.56585	49053
31.57398	50042
31.58210	50345
31.59022	49873
31.59835	50175
31.60647	47021
31.61458	48031
31.62272	51150
31.63083	49574
31.63897	46159
31.64708	47649
31.65520	47088
31.66333	51543
31.67145	50584
31.67958	48455
31.68770	49779
31.69582	46851
31.70395	45014
31.71207	46456
31.72018	47511
31.72832	45498
31.73643	45031
31.74457	48330
31.75268	47829
31.76080	46954
31.76893	47085
31.77705	48831
31.78518	49471
31.79330	50268
31.80142	51184
31.80955	51018
31.81767	49677
31.82580	47281
31.83392	45928
31.84203	50062
31.85017	54856
31.85828	53734
31.86640	57930
31.87453	64961
31.88265	78618
31.89078	90620
31.89890	114676
31.90702	135553
31.91515	170229
31.92327	208418
31.93140	237309
31.93952	283991
31.94763	308078
31.95577	330098
31.96388	357617
31.97202	376316
31.98013	375319
31.98825	376201
31.99638	386154
32.00450	351053
32.01262	343948
32.02075	319990
32.02887	311450
32.03700	285262
32.04512	276441
32.05323	251070
32.06137	247295
32.06948	242837
32.07762	222313
32.08573	217809
32.09385	196461
32.10198	181524
32.11010	161117
32.11822	151764
32.12635	144066
32.13447	135982
32.14260	125964
32.15072	122580
32.15883	117627
32.16697	114404
32.17508	103563
32.18322	103156
32.19133	100884
32.19945	95246
32.20758	90762
32.21570	92110
32.22383	88090
32.23195	91152
32.24007	87939
32.24820	83139
32.25632	84362
32.26443	81765
32.27257	76863
32.28068	78931
32.28882	78485
32.29693	75900
32.30505	77921
32.31318	74263
32.32130	75388
32.32943	72712
32.33755	70196
32.34567	66586
32.35380	74450
32.36192	70145
32.37005	69593
32.37817	67558
32.38628	71577
32.39442	67629
32.40253	66531
32.41065	65395
32.41878	64427
32.42690	68895
32.43503	59554
32.44315	60677
32.45127	60040
32.45940	61657
32.46752	58803
32.47565	62889
32.48377	58954
32.49188	59121
32.50002	59999
32.50813	59582
32.51625	65326
32.52438	60316
32.53250	54973
32.54063	58506
32.54875	56397
32.55687	60807
32.56500	60267
32.57312	56820
32.58125	60669
32.58937	59279
32.59748	59132
32.60562	54024
32.61373	56346
32.62187	61515
32.62998	61639
32.63810	65359
32.64623	75640
32.65435	90527
32.66247	96738
32.67060	91801
32.67872	97935
32.68685	89054
32.69497	79180
32.70308	72717
32.71122	67615
32.71933	65025
32.72747	67175
32.73558	58787
32.74370	59796
32.75183	61839
32.75995	55048
32.76807	56972
32.77620	56178
32.78432	53381
32.79245	52841
32.80057	53541
32.80868	52118
32.81682	51083
32.82493	52906
32.83307	56100
32.84118	53326
32.84930	50554
32.85743	49512
32.86555	52038
32.87368	50806
32.88180	51395
32.88992	53280
32.89805	49939
32.90617	53647
32.91428	50936
32.92242	53066
32.93053	52677
32.93867	53708
32.94678	48321
32.95490	49885
32.96303	50482
32.97115	52246
32.97928	52489
32.98740	54409
32.99552	52515
33.00365	55732
33.01177	53861
33.01990	56212
33.02802	49136
33.03613	50766
33.04427	50425
33.05238	52281
33.06050	47666
33.06863	47942
33.07675	51198
33.08488	50660
33.09300	53967
33.10112	55521
33.10925	55830
33.11737	60656
33.12550	62878
33.13362	61514
33.14173	57009
33.14987	58041
33.15798	54141
33.16610	54489
33.17423	60684
33.18235	60945
33.19048	57919
33.19860	56006
33.20672	56103
33.21485	56920
33.22297	58222
33.23110	55907
33.23922	54892
33.24733	50962
33.25547	49669
33.26358	47305
33.27172	51208
33.27983	49369
33.28795	49266
33.29608	52857
33.30420	48541
33.31232	52101
33.32045	51080
33.32857	53270
33.33670	50715
33.34482	49319
33.35293	47430
33.36107	49112
33.36918	50776
33.37732	52285
33.38543	44982
33.39355	50736
33.40168	49496
33.40980	47326
33.41793	51338
33.42605	47960
33.43417	49175
33.44230	48917
33.45042	48513
33.45853	44536
33.46667	48999
33.47478	47952
33.48292	47391
33.49103	53167
33.49915	49109
33.50728	50423
33.51540	49357
33.52353	51523
33.53165	45669
33.53977	50210
33.54790	47938
33.55602	49779
33.56413	50185
33.57227	46053
33.58038	47833
33.58852	47790
33.59663	48349
33.60475	46308
33.61288	43791
33.62100	46751
33.62913	45088
33.63725	46819
33.64537	48174
33.65350	47609
33.66162	43139
33.66975	48965
33.67787	49148
33.68598	45115
33.69412	46495
33.70223	44482
33.71035	45718
33.71848	44854
33.72660	48975
33.73473	47869
33.74285	51472
33.75097	43242
33.75910	43311
33.76722	41238
33.77535	40980
33.78347	41654
33.79158	45226
33.79972	44008
33.80783	44454
33.81595	46997
33.82408	50447
33.83220	48092
33.84033	51509
33.84845	49947
33.85657	48696
33.86470	47878
33.87282	46398
33.88095	46307
33.88907	48801
33.89718	46550
33.90532	50762
33.91343	46846
33.92157	49528
33.92968	54965
33.93780	54964
33.94593	48815
33.95405	46992
33.96217	49789
33.97030	46667
33.97842	46150
33.98655	46460
33.99467	45099
34.00278	48728
34.01092	45771
34.01903	48998
34.02717	44731
34.03528	47972
34.04340	46568
34.05153	48082
34.05965	46985
34.06778	47444
34.07590	50868
34.08402	47808
34.09215	45498
34.10027	47479
34.10838	47945
34.11652	45495
34.12463	46046
34.13277	48244
34.14088	47593
34.14900	45624
34.15713	49761
34.16525	51581
34.17338	47983
34.18150	43637
34.18962	48843
34.19775	50524
34.20587	51168
34.21400	47150
34.22212	47322
34.23023	45558
34.23837	46815
34.24648	45772
34.25460	45940
34.26273	50834
34.27085	46599
34.27898	47477
34.28710	45406
34.29522	45551
34.30335	45536
34.31147	49254
34.31960	48842
34.32772	44871
34.33583	47647
34.34397	50374
34.35208	52870
34.36020	45589
34.36833	47559
34.37645	47374
34.38458	46853
34.39270	46497
34.40082	45856
34.40895	51954
34.41707	46492
34.42520	43627
34.43332	47759
34.44143	45280
34.44957	44761
34.45768	46079
34.46582	44168
34.47393	55507
34.48205	56852
34.49018	62785
34.49830	84193
34.50642	110964
34.51455	147339
34.52267	205626
34.53080	254886
34.53892	283874
34.54703	314288
34.55517	338733
34.56328	328305
34.57142	325335
34.57953	292665
34.58765	268692
34.59578	240884
34.60390	213961
34.61202	186447
34.62015	171999
34.62827	154556
34.63640	140066
34.64452	135372
34.65263	121976
34.66077	119021
34.66888	108503
34.67702	103444
34.68513	107558
34.69325	101866
34.70138	96213
34.70950	90757
34.71763	91902
34.72575	86640
34.73387	86321
34.74200	85010
34.75012	84732
34.75823	81391
34.76637	82384
34.77448	81938
34.78262	79907
34.79073	79207
34.79885	73397
34.80698	73788
34.81510	82163
34.82323	73357
34.83135	70018
34.83947	76884
34.84760	71495
34.85572	73439
34.86383	71050
34.87197	67243
34.88008	70572
34.88822	70776
34.89633	71371
34.90445	68482
34.91258	69070
34.92070	69638
34.92883	69685
34.93695	69556
34.94507	69895
34.95320	77132
34.96132	76863
34.96945	73110
34.97757	66929
34.98568	71365
34.99382	72910
35.00193	63513
35.01005	67740
35.01818	65169
35.02630	64897
35.03443	64563
35.04255	60741
35.05067	56993
35.05880	61589
35.06692	64239
35.07505	60173
35.08317	63851
35.09128	62255
35.09942	60294
35.10753	62910
35.11567	62692
35.12378	62477
35.13190	68219
35.14003	64502
35.14815	65079
35.15627	65156
35.16440	67183
35.17252	64165
35.18065	63296
35.18877	60891
35.19688	61342
35.20502	60076
35.21313	58981
35.22127	56100
35.22938	54193
35.23750	56268
35.24563	55381
35.25375	59714
35.26188	57981
35.27000	56914
35.27812	55673
35.28625	61722
35.29437	62246
35.30248	56282
35.31062	56890
35.31873	55567
35.32687	53430
35.33498	56117
35.34310	57948
35.35123	56786
35.35935	54914
35.36748	53438
35.37560	56217
35.38372	55251
35.39185	57668
35.39997	55677
35.40808	58150
35.41622	60757
35.42433	61069
35.43247	61900
35.44058	62800
35.44870	62224
35.45683	62777
35.46495	64723
35.47308	65765
35.48120	63749
35.48932	62619
35.49745	60160
35.50557	56770
35.51370	55890
35.52182	56033
35.52993	56395
35.53807	55444
35.54618	52244
35.55430	59733
35.56243	62451
35.57055	58344
35.57868	53188
35.58680	59642
35.59492	57980
35.60305	57150
35.61117	59233
35.61930	57783
35.62742	55641
35.63553	54234
35.64367	61733
35.65178	57749
35.65990	63357
35.66803	68208
35.67615	66578
35.68428	71198
35.69240	64073
35.70052	65576
35.70865	66127
35.71677	55630
35.72490	58640
35.73302	59844
35.74113	58348
35.74927	56883
35.75738	60717
35.76552	56492
35.77363	58236
35.78175	59950
35.78988	54649
35.79800	58058
35.80612	53991
35.81425	50924
35.82237	55919
35.83050	55042
35.83862	55073
35.84673	57940
35.85487	56526
35.86298	57114
35.87112	51068
35.87923	51268
35.88735	57183
35.89548	53670
35.90360	55623
35.91173	53685
35.91985	50970
35.92797	52331
35.93610	53056
35.94422	56201
35.95233	54216
35.96047	52006
35.96858	54695
35.97672	57636
35.98483	57063
35.99295	56650
36.00108	55966
36.00920	61250
36.01733	59483
36.02545	62180
36.03357	61498
36.04170	59002
36.04982	58402
36.05793	58273
36.06607	59243
36.07418	57268
36.08232	55864
36.09043	56532
36.09855	55258
36.10668	57726
36.11480	53917
36.12293	57671
36.13105	56529
36.13917	56924
36.14730	56757
36.15542	59817
36.16355	58058
36.17167	56172
36.17978	53802
36.18792	59153
36.19603	55184
36.20415	56059
36.21228	54480
36.22040	57399
36.22853	55524
36.23665	53530
36.24477	56969
36.25290	52747
36.26102	53974
36.26915	57406
36.27727	63954
36.28538	71195
36.29352	79943
36.30163	88852
36.30977	91277
36.31788	95627
36.32600	88827
36.33413	86625
36.34225	78154
36.35037	72723
36.35850	65727
36.36662	58224
36.37475	59979
36.38287	58609
36.39098	63332
36.39912	68078
36.40723	57582
36.41537	61080
36.42348	59312
36.43160	55941
36.43973	59744
36.44785	58126
36.45597	56280
36.46410	64666
36.47222	58582
36.48035	52626
36.48847	61939
36.49658	63178
36.50472	56437
36.51283	55247
36.52097	63358
36.52908	56556
36.53720	55347
36.54533	57013
36.55345	59774
36.56158	62757
36.56970	58113
36.57782	58776
36.58595	59764
36.59407	60061
36.60218	61811
36.61032	61284
36.61843	59288
36.62657	61140
36.63468	63370
36.64280	63894
36.65093	66752
36.65905	66443
36.66718	60295
36.67530	62479
36.68342	67752
36.69155	62534
36.69967	67247
36.70778	66037
36.71592	71486
36.72403	67729
36.73217	76075
36.74028	78180
36.74840	76023
36.75653	85343
36.76465	86510
36.77278	91894
36.78090	93531
36.78902	96304
36.79715	94527
36.80527	97814
36.81340	99285
36.82152	98499
36.82963	98633
36.83777	87868
36.84588	89481
36.85400	90543
36.86213	85437
36.87025	86492
36.87838	79552
36.88650	75522
36.89462	73415
36.90275	70491
36.91087	70210
36.91900	64940
36.92712	66947
36.93523	64220
36.94337	61523
36.95148	57931
36.95962	61829
36.96773	62172
36.97585	61480
36.98398	58322
36.99210	57686
37.00022	59035
37.00835	62226
37.01647	60536
37.02460	61654
37.03272	58670
37.04083	57990
37.04897	57304
37.05708	59482
37.06522	58983
37.07333	59756
37.08145	60087
37.08958	61030
37.09770	64360
37.10582	66764
37.11395	61666
37.12207	59327
37.13020	60180
37.13832	60258
37.14643	61066
37.15457	58644
37.16268	60984
37.17082	62268
37.17893	67540
37.18705	62330
37.19518	63509
37.20330	63833
37.21143	64244
37.21955	61977
37.22767	62838
37.23580	61796
37.24392	62949
37.25203	59928
37.26017	57272
37.26828	61931
37.27642	62640
37.28453	64561
37.29265	68493
37.30078	78814
37.30890	94448
37.31703	119399
37.32515	159823
37.33327	197637
37.34140	228016
37.34952	259154
37.35765	250983
37.36577	244911
37.37388	221677
37.38202	197550
37.39013	179689
37.39825	157089
37.40638	145079
37.41450	142475
37.42263	129675
37.43075	120234
37.43887	113352
37.44700	120203
37.45512	115089
37.46325	110575
37.47137	110847
37.47948	105402
37.48762	96782
