Z:\data\JTB-E02\BACandBLUE\JTB-E02-201-15.D Fri Mar 01 14:11:02 2019
Start of data points
2.09540	61678
2.10352	68618
2.11163	61892
2.11977	67007
2.12788	61976
2.13602	69540
2.14413	61554
2.15225	64247
2.16038	61843
2.16850	55501
2.17662	59896
2.18475	57919
2.19287	57615
2.20100	57350
2.20912	52170
2.21723	53923
2.22537	52308
2.23348	57324
2.24162	58617
2.24973	57460
2.25785	57389
2.26598	211733
2.27410	863230
2.28223	1260752
2.29035	840260
2.29847	445478
2.30660	339241
2.31472	292266
2.32283	258750
2.33097	227990
2.33908	218108
2.34722	200964
2.35533	180152
2.36345	165306
2.37158	160859
2.37970	157043
2.38783	144537
2.39595	139746
2.40407	140675
2.41220	140460
2.42032	140763
2.42843	136923
2.43657	130584
2.44468	127084
2.45282	125594
2.46093	122064
2.46905	117820
2.47718	112452
2.48530	112752
2.49343	123200
2.50155	114262
2.50967	114767
2.51780	111366
2.52592	111960
2.53405	108701
2.54217	105743
2.55028	131093
2.55842	190253
2.56653	210250
2.57465	171976
2.58278	135624
2.59090	124062
2.59903	114676
2.60715	120464
2.61527	152962
2.62340	152290
2.63152	137249
2.63965	128953
2.64777	119310
2.65588	122283
2.66402	116424
2.67213	110211
2.68027	109043
2.68838	107670
2.69650	105082
2.70463	97626
2.71275	100110
2.72087	98320
2.72900	96394
2.73712	94486
2.74525	97244
2.75337	94252
2.76148	94471
2.76962	104766
2.77773	234603
2.78587	583578
2.79398	704518
2.80210	476327
2.81023	300321
2.81835	263825
2.82647	232262
2.83460	206285
2.84272	180591
2.85085	161188
2.85897	157520
2.86708	142601
2.87522	141382
2.88333	129411
2.89147	131775
2.89958	123771
2.90770	118672
2.91583	111149
2.92395	107416
2.93208	105321
2.94020	105469
2.94832	104289
2.95645	99991
2.96457	95808
2.97268	99235
2.98082	97540
2.98893	98126
2.99707	105881
3.00518	125398
3.01330	150684
3.02143	128958
3.02955	110244
3.03768	104764
3.04580	99803
3.05392	97235
3.06205	104608
3.07017	105284
3.07828	99434
3.08642	142190
3.09453	481339
3.10267	2259914
3.11078	5454931
3.11890	6100093
3.12703	4152314
3.13515	2806600
3.14328	2120929
3.15140	1696392
3.15952	1394966
3.16765	1196637
3.17577	1074443
3.18390	1115266
3.19202	1543471
3.20013	1891440
3.20827	1582196
3.21638	1169265
3.22450	951444
3.23263	820441
3.24075	731515
3.24888	640461
3.25700	585486
3.26512	527210
3.27325	485460
3.28137	468913
3.28950	602468
3.29762	1341389
3.30573	3036994
3.31387	4745414
3.32198	4887366
3.33012	3817161
3.33823	2819037
3.34635	2169968
3.35448	1787275
3.36260	1496493
3.37072	1319810
3.37885	1171965
3.38697	1089754
3.39510	991057
3.40322	900973
3.41133	848382
3.41947	798650
3.42758	759284
3.43572	727613
3.44383	671262
3.45195	633421
3.46008	583345
3.46820	597287
3.47632	591572
3.48445	563228
3.49257	544568
3.50070	522963
3.50882	489431
3.51693	471448
3.52507	458185
3.53318	459099
3.54132	452763
3.54943	430969
3.55755	404804
3.56568	378358
3.57380	371600
3.58193	358638
3.59005	336134
3.59817	338867
3.60630	330665
3.61442	328706
3.62253	326024
3.63067	332988
3.63878	322535
3.64692	327663
3.65503	358227
3.66315	1096130
3.67128	4638929
3.67940	1.126335E+07
3.68753	1.429702E+07
3.69565	1.070008E+07
3.70377	6473581
3.71190	4357012
3.72002	3397819
3.72815	2838469
3.73627	2444919
3.74438	2154654
3.75252	1966575
3.76063	1750753
3.76875	1591380
3.77688	1469909
3.78500	1392983
3.79313	1362809
3.80125	1539897
3.80937	2454614
3.81750	3963235
3.82562	4361738
3.83375	3363204
3.84187	2391399
3.84998	1894900
3.85812	1623015
3.86623	1467047
3.87435	1339962
3.88248	1237132
3.89060	1133717
3.89873	1071793
3.90685	1006329
3.91497	1006026
3.92310	1059006
3.93122	1132155
3.93935	1135369
3.94747	1026664
3.95558	952290
3.96372	975596
3.97183	1009331
3.97997	938613
3.98808	834029
3.99620	825192
4.00433	1077519
4.01245	1587631
4.02057	1921055
4.02870	1700339
4.03682	1235908
4.04495	945183
4.05307	792002
4.06118	689440
4.06932	655284
4.07743	612912
4.08557	574572
4.09368	564671
4.10180	526437
4.10993	524686
4.11805	518901
4.12618	506577
4.13430	495775
4.14242	488253
4.15055	536082
4.15867	545384
4.16678	548491
4.17492	561673
4.18303	559107
4.19117	519811
4.19928	481706
4.20740	657036
4.21553	1905993
4.22365	5836741
4.23178	1.217793E+07
4.23990	1.662877E+07
4.24802	1.666233E+07
4.25615	1.245203E+07
4.26427	8027672
4.27238	5589619
4.28052	4191650
4.28863	3262690
4.29677	2612470
4.30488	2147543
4.31300	1783567
4.32113	1547575
4.32925	1362095
4.33738	1217289
4.34550	1098920
4.35362	1016442
4.36175	963183
4.36987	952126
4.37800	884647
4.38612	815722
4.39423	756904
4.40237	692166
4.41048	656984
4.41860	620274
4.42673	606041
4.43485	577135
4.44298	543895
4.45110	516934
4.45922	522377
4.46735	481457
4.47547	466072
4.48360	461478
4.49172	448314
4.49983	433459
4.50797	430954
4.51608	420354
4.52420	410748
4.53233	402397
4.54045	394484
4.54858	386876
4.55670	387938
4.56482	379582
4.57295	367501
4.58107	346087
4.58920	344633
4.59732	336657
4.60543	319630
4.61357	333189
4.62168	347375
4.62982	417176
4.63793	556522
4.64605	675457
4.65418	665609
4.66230	564061
4.67042	458550
4.67855	401009
4.68667	376551
4.69480	350149
4.70292	324316
4.71103	311175
4.71917	297368
4.72728	290540
4.73542	288465
4.74353	280321
4.75165	279956
4.75978	267662
4.76790	252468
4.77603	255661
4.78415	289787
4.79227	403269
4.80040	765760
4.80852	1162844
4.81663	1304568
4.82477	1057161
4.83288	815855
4.84102	690944
4.84913	680222
4.85725	624495
4.86538	547151
4.87350	461346
4.88163	405973
4.88975	386883
4.89787	367863
4.90600	355197
4.91412	336743
4.92223	325854
4.93037	324825
4.93848	400936
4.94662	689977
4.95473	1385784
4.96285	2347010
4.97098	3012391
4.97910	3020249
4.98723	2421215
4.99535	1801979
5.00347	1355618
5.01160	1076034
5.01972	916189
5.02785	860959
5.03597	865001
5.04408	909870
5.05222	891688
5.06033	793599
5.06845	692657
5.07658	633387
5.08470	585465
5.09283	539528
5.10095	513864
5.10907	489476
5.11720	481237
5.12532	465315
5.13345	438788
5.14157	432442
5.14968	437588
5.15782	470378
5.16593	529746
5.17407	552465
5.18218	532086
5.19030	480140
5.19843	478681
5.20655	495028
5.21467	487630
5.22280	483287
5.23092	461220
5.23905	456579
5.24717	451678
5.25528	436796
5.26342	372781
5.27153	344739
5.27967	332330
5.28778	314622
5.29590	305717
5.30403	307771
5.31215	298183
5.32027	297842
5.32840	311137
5.33652	325393
5.34465	351440
5.35277	354497
5.36088	339295
5.36902	309505
5.37713	290872
5.38527	291107
5.39338	310889
5.40150	297491
5.40963	297831
5.41775	288810
5.42588	280686
5.43400	271580
5.44212	263185
5.45025	268923
5.45837	285049
5.46648	278513
5.47462	272726
5.48273	253028
5.49087	249238
5.49898	242799
5.50710	242065
5.51523	254870
5.52335	268446
5.53148	264988
5.53960	264670
5.54772	243102
5.55585	254630
5.56397	286990
5.57208	344454
5.58022	383523
5.58833	378430
5.59647	320631
5.60458	281318
5.61270	257525
5.62083	248418
5.62895	247910
5.63708	250215
5.64520	244881
5.65332	229935
5.66145	234586
5.66957	227026
5.67770	238566
5.68582	287090
5.69393	341309
5.70207	389003
5.71018	384455
5.71830	343675
5.72643	281665
5.73455	257054
5.74268	242659
5.75080	231031
5.75892	217696
5.76705	213364
5.77517	219997
5.78330	202374
5.79142	197121
5.79953	199621
5.80767	201193
5.81578	199828
5.82392	195812
5.83203	198321
5.84015	194220
5.84828	202339
5.85640	198024
5.86452	201799
5.87265	189103
5.88077	197927
5.88890	179141
5.89702	182837
5.90513	176636
5.91327	167549
5.92138	167564
5.92952	158590
5.93763	163000
5.94575	160323
5.95388	180624
5.96200	200243
5.97013	267799
5.97825	370977
5.98637	502971
5.99450	554717
6.00262	531977
6.01073	426577
6.01887	339779
6.02698	276488
6.03512	238547
6.04323	219842
6.05135	196936
6.05948	187601
6.06760	175681
6.07573	172333
6.08385	166711
6.09197	162402
6.10010	154425
6.10822	150168
6.11633	152367
6.12447	173557
6.13258	228003
6.14072	356859
6.14883	474708
6.15695	506822
6.16508	437319
6.17320	346921
6.18133	268788
6.18945	244942
6.19757	215050
6.20570	208754
6.21382	204044
6.22195	195052
6.23007	186248
6.23818	191434
6.24632	189277
6.25443	194873
6.26255	206162
6.27068	198924
6.27880	211151
6.28693	198603
6.29505	195554
6.30317	189996
6.31130	190363
6.31942	197457
6.32755	206950
6.33567	224553
6.34378	255281
6.35192	248531
6.36003	238234
6.36815	216518
6.37628	204889
6.38440	209510
6.39253	207916
6.40065	204209
6.40877	196456
6.41690	194306
6.42502	202652
6.43315	194381
6.44127	206453
6.44938	202974
6.45752	203145
6.46563	199488
6.47377	201458
6.48188	207285
6.49000	199729
6.49813	213130
6.50625	213170
6.51437	211207
6.52250	213991
6.53062	214815
6.53875	221280
6.54687	219514
6.55498	221249
6.56312	226098
6.57123	242733
6.57937	280125
6.58748	307312
6.59560	305853
6.60373	279819
6.61185	263938
6.61998	236664
6.62810	225238
6.63622	233849
6.64435	241766
6.65247	278232
6.66058	376220
6.66872	554984
6.67683	681894
6.68497	671202
6.69308	527487
6.70120	394616
6.70933	327093
6.71745	293928
6.72558	284820
6.73370	278546
6.74182	277295
6.74995	265932
6.75807	266698
6.76618	232978
6.77432	204630
6.78243	190601
6.79057	176634
6.79868	175419
6.80680	166279
6.81493	148774
6.82305	156694
6.83118	151293
6.83930	154043
6.84742	160053
6.85555	164282
6.86367	148811
6.87180	146791
6.87992	133571
6.88803	115940
6.89617	111760
6.90428	106599
6.91240	104823
6.92053	103561
6.92865	100911
6.93678	100471
6.94490	105083
6.95302	101968
6.96115	109003
6.96927	123601
6.97740	155076
6.98552	173994
6.99363	180510
7.00177	159877
7.00988	139288
7.01802	118565
7.02613	109408
7.03425	110035
7.04238	103731
7.05050	107326
7.05862	104834
7.06675	104081
7.07487	107725
7.08300	109018
7.09112	91944
7.09923	93908
7.10737	96630
7.11548	93916
7.12362	102894
7.13173	98416
7.13985	104699
7.14798	115971
7.15610	139041
7.16422	171543
7.17235	174064
7.18047	167165
7.18860	148846
7.19672	124067
7.20483	109783
7.21297	140003
7.22108	291860
7.22922	749167
7.23733	1628477
7.24545	2421774
7.25358	2762541
7.26170	2239206
7.26983	1469822
7.27795	845095
7.28607	552734
7.29420	373841
7.30232	261870
7.31043	176211
7.31857	143834
7.32668	130979
7.33482	124158
7.34293	122704
7.35105	110825
7.35918	108950
7.36730	100308
7.37543	109736
7.38355	103984
7.39167	101134
7.39980	100147
7.40792	101306
7.41603	98937
7.42417	93385
7.43228	94800
7.44042	90735
7.44853	93899
7.45665	94602
7.46478	96403
7.47290	95313
7.48103	86167
7.48915	88983
7.49727	83933
7.50540	86185
7.51352	97431
7.52165	135958
7.52977	202613
7.53788	309352
7.54602	453480
7.55413	566164
7.56225	627750
7.57038	586391
7.57850	481173
7.58663	343688
7.59475	249097
7.60287	187457
7.61100	146372
7.61912	140605
7.62725	123774
7.63537	109964
7.64348	98769
7.65162	86536
7.65973	93075
7.66787	87714
7.67598	85906
7.68410	91430
7.69223	77440
7.70035	80153
7.70847	86346
7.71660	81021
7.72472	79307
7.73285	76900
7.74097	76793
7.74908	73858
7.75722	74589
7.76533	78452
7.77347	76221
7.78158	81817
7.78970	85163
7.79783	93046
7.80595	100176
7.81407	108162
7.82220	106703
7.83032	98977
7.83845	92207
7.84657	86423
7.85468	79359
7.86282	80343
7.87093	89114
7.87907	89033
7.88718	93131
7.89530	95025
7.90343	97276
7.91155	94005
7.91968	93544
7.92780	124853
7.93592	178664
7.94405	259452
7.95217	330127
7.96028	322597
7.96842	274577
7.97653	207485
7.98467	151825
7.99278	121282
8.00090	101323
8.00903	92622
8.01715	83756
8.02528	81013
8.03340	78178
8.04152	75542
8.04965	71291
8.05777	74407
8.06590	71656
8.07402	73930
8.08213	66631
8.09027	76711
8.09838	71206
8.10650	69424
8.11463	67929
8.12275	68416
8.13088	73935
8.13900	85231
8.14712	97547
8.15525	104288
8.16337	113491
8.17150	116898
8.17962	94452
8.18773	80307
8.19587	71523
8.20398	73006
8.21210	65709
8.22023	68503
8.22835	63545
8.23648	64853
8.24460	63378
8.25272	62269
8.26085	62770
8.26897	60250
8.27710	59157
8.28522	59052
8.29333	63588
8.30147	64868
8.30958	73000
8.31772	70262
8.32583	80655
8.33395	75969
8.34208	65330
8.35020	61049
8.35832	65153
8.36645	62675
8.37457	64489
8.38270	62171
8.39082	68063
8.39893	69168
8.40707	63816
8.41518	59491
8.42332	57375
8.43143	55434
8.43955	56580
8.44768	55569
8.45580	56475
8.46393	59836
8.47205	63986
8.48017	60475
8.48830	67893
8.49642	57204
8.50453	61574
8.51267	59445
8.52078	67345
8.52892	114396
8.53703	251549
8.54515	558756
8.55328	944092
8.56140	1228964
8.56953	1192133
8.57765	879775
8.58577	534630
8.59390	307696
8.60202	197214
8.61013	135542
8.61827	128844
8.62638	113084
8.63452	110542
8.64263	108422
8.65075	96113
8.65888	86132
8.66700	81241
8.67513	87197
8.68325	91711
8.69137	81875
8.69950	83505
8.70762	88815
8.71575	83779
8.72387	76442
8.73198	72593
8.74012	67077
8.74823	71145
8.75635	81790
8.76448	114093
8.77260	193802
8.78073	353914
8.78885	544094
8.79697	693883
8.80510	713623
8.81322	591921
8.82135	445844
8.82947	325899
8.83758	251202
8.84572	203682
8.85383	209978
8.86195	209995
8.87008	211752
8.87820	187727
8.88633	192837
8.89445	178412
8.90257	161206
8.91070	165816
8.91882	153867
8.92695	155353
8.93507	158646
8.94318	172588
8.95132	199160
8.95943	203381
8.96757	191911
8.97568	181557
8.98380	168155
8.99193	153105
9.00005	151287
9.00817	136031
9.01630	131885
9.02442	130992
9.03255	118666
9.04067	110847
9.04878	110908
9.05692	111291
9.06503	106719
9.07317	103839
9.08128	105099
9.08940	107410
9.09753	120755
9.10565	128147
9.11378	137052
9.12190	148908
9.13002	145897
9.13815	130225
9.14627	121036
9.15438	119843
9.16252	103983
9.17063	104734
9.17877	99531
9.18688	104478
9.19500	93901
9.20313	100924
9.21125	96303
9.21938	89548
9.22750	94997
9.23562	94860
9.24375	93701
9.25187	95072
9.25998	94480
9.26812	89936
9.27623	93645
9.28437	84457
9.29248	83715
9.30060	81197
9.30873	80543
9.31685	76279
9.32498	82825
9.33310	83078
9.34122	79658
9.34935	80830
9.35747	81734
9.36560	79322
9.37372	79778
9.38183	75919
9.38997	79643
9.39808	86220
9.40620	82371
9.41433	94250
9.42245	99258
9.43058	108251
9.43870	118225
9.44682	119615
9.45495	114143
9.46307	106600
9.47120	99500
9.47932	89997
9.48743	81702
9.49557	79765
9.50368	94909
9.51182	121768
9.51993	149851
9.52805	172025
9.53618	176222
9.54430	156735
9.55242	128443
9.56055	107112
9.56867	89853
9.57680	77415
9.58492	77321
9.59303	74808
9.60117	67931
9.60928	60448
9.61742	54714
9.62553	65463
9.63365	59117
9.64178	55970
9.64990	52414
9.65802	52681
9.66615	54776
9.67427	52557
9.68240	55843
9.69052	53912
9.69863	51867
9.70677	49067
9.71488	52922
9.72302	50675
9.73113	48193
9.73925	51757
9.74738	53256
9.75550	50059
9.76363	46128
9.77175	48679
9.77987	47807
9.78800	49444
9.79612	47789
9.80423	50397
9.81237	46598
9.82048	47034
9.82862	49556
9.83673	41073
9.84485	48796
9.85298	47233
9.86110	51638
9.86923	53718
9.87735	53379
9.88547	52333
9.89360	51828
9.90172	48817
9.90983	45148
9.91797	48307
9.92608	55588
9.93422	60573
9.94233	74031
9.95045	102399
9.95858	107431
9.96670	117787
9.97483	110193
9.98295	100129
9.99107	85174
9.99920	80121
10.00732	73472
10.01545	76341
10.02357	71446
10.03168	75283
10.03982	69063
10.04793	61382
10.05605	57227
10.06418	57021
10.07230	56654
10.08043	60267
10.08855	62533
10.09667	62097
10.10480	60865
10.11292	59349
10.12105	61707
10.12917	55980
10.13728	57726
10.14542	60098
10.15353	51240
10.16167	54049
10.16978	50189
10.17790	50786
10.18603	50939
10.19415	54218
10.20227	46746
10.21040	49775
10.21852	51481
10.22665	54441
10.23477	55711
10.24288	55769
10.25102	57836
10.25913	76296
10.26727	118187
10.27538	261141
10.28350	638613
10.29163	1388173
10.29975	2400789
10.30787	3737423
10.31600	5553077
10.32412	8463265
10.33225	1.298524E+07
10.34037	1.811006E+07
10.34848	2.192277E+07
10.35662	2.150631E+07
10.36473	1.616218E+07
10.37287	9302570
10.38098	4372749
10.38910	2148663
10.39723	1211299
10.40535	850824
10.41348	666104
10.42160	559039
10.42972	470149
10.43785	419931
10.44597	379214
10.45408	352511
10.46222	327813
10.47033	317591
10.47847	286258
10.48658	260035
10.49470	251161
10.50283	230534
10.51095	223771
10.51908	209390
10.52720	200442
10.53532	187207
10.54345	187901
10.55157	176902
10.55970	170881
10.56782	175503
10.57593	168728
10.58407	158752
10.59218	157831
10.60030	152643
10.60843	148651
10.61655	139956
10.62468	129870
10.63280	128379
10.64092	125693
10.64905	120469
10.65717	116314
10.66530	113862
10.67342	115114
10.68153	114292
10.68967	111667
10.69778	115945
10.70590	112118
10.71403	109861
10.72215	111359
10.73028	106468
10.73840	109004
10.74652	105246
10.75465	104191
10.76277	107725
10.77090	101200
10.77902	99282
10.78713	98355
10.79527	90756
10.80338	97365
10.81152	93953
10.81963	92684
10.82775	89986
10.83588	85413
10.84400	83572
10.85212	83839
10.86025	74622
10.86837	76271
10.87650	76761
10.88462	79625
10.89273	80724
10.90087	74597
10.90898	73190
10.91712	75281
10.92523	69723
10.93335	70289
10.94148	69118
10.94960	68885
10.95772	71323
10.96585	73726
10.97397	67409
10.98210	69814
10.99022	68639
10.99833	68875
11.00647	75657
11.01458	63048
11.02272	64641
11.03083	60394
11.03895	62784
11.04708	57456
11.05520	58595
11.06333	64113
11.07145	61895
11.07957	63901
11.08770	66883
11.09582	67998
11.10393	66944
11.11207	63380
11.12018	60126
11.12832	59906
11.13643	54605
11.14455	52621
11.15268	55445
11.16080	52152
11.16893	51836
11.17705	52012
11.18517	55915
11.19330	59885
11.20142	56182
11.20955	57767
11.21767	54307
11.22578	53778
11.23392	47434
11.24203	48376
11.25015	52331
11.25828	44581
11.26640	47109
11.27453	47860
11.28265	42345
11.29077	50619
11.29890	53034
11.30702	68360
11.31515	99282
11.32327	148685
11.33138	228731
11.33952	309433
11.34763	356843
11.35577	356120
11.36388	313679
11.37200	229296
11.38013	171674
11.38825	121169
11.39637	106142
11.40450	98612
11.41262	95355
11.42075	90904
11.42887	86097
11.43698	82486
11.44512	76725
11.45323	81031
11.46137	72296
11.46948	70740
11.47760	82716
11.48573	107533
11.49385	125347
11.50197	166569
11.51010	177969
11.51822	174907
11.52635	162668
11.53447	137001
11.54258	123609
11.55072	128968
11.55883	115790
11.56697	112248
11.57508	95088
11.58320	89191
11.59133	81747
11.59945	88663
11.60758	110607
11.61570	146824
11.62382	178039
11.63195	206289
11.64007	197040
11.64818	164719
11.65632	125710
11.66443	97964
11.67257	90070
11.68068	80994
11.68880	79725
11.69693	78263
11.70505	78118
11.71318	76143
11.72130	69996
11.72942	67926
11.73755	65614
11.74567	65581
11.75378	60079
11.76192	59620
11.77003	59036
11.77817	57557
11.78628	54204
11.79440	53641
11.80253	53205
11.81065	51643
11.81878	50038
11.82690	56613
11.83502	51769
11.84315	51779
11.85127	59503
11.85940	58013
11.86752	48808
11.87563	49847
11.88377	48252
11.89188	45856
11.90000	48330
11.90813	45685
11.91625	51241
11.92438	52830
11.93250	53995
11.94062	55934
11.94875	54212
11.95687	53147
11.96500	50442
11.97312	45427
11.98123	49196
11.98937	54837
11.99748	54919
12.00562	65613
12.01373	73561
12.02185	90425
12.02998	90827
12.03810	77978
12.04622	73087
12.05435	59607
12.06247	53750
12.07060	49435
12.07872	50798
12.08683	49796
12.09497	50129
12.10308	52358
12.11122	60696
12.11933	65127
12.12745	77265
12.13558	83792
12.14370	86343
12.15182	73974
12.15995	74518
12.16807	60052
12.17620	46799
12.18432	51017
12.19243	49232
12.20057	50638
12.20868	52114
12.21682	53786
12.22493	52121
12.23305	53009
12.24118	47857
12.24930	49568
12.25743	52127
12.26555	51276
12.27367	53243
12.28180	49209
12.28992	47669
12.29803	45181
12.30617	45686
12.31428	45526
12.32242	46993
12.33053	45286
12.33865	44908
12.34678	42891
12.35490	43988
12.36303	42435
12.37115	48266
12.37927	45728
12.38740	39987
12.39552	45231
12.40365	51160
12.41177	62668
12.41988	79493
12.42802	94365
12.43613	110668
12.44425	107916
12.45238	103884
12.46050	95355
12.46863	78435
12.47675	68653
12.48487	63328
12.49300	55188
12.50112	56330
12.50925	55269
12.51737	52265
12.52548	53309
12.53362	56727
12.54173	60818
12.54985	69932
12.55798	93111
12.56610	124002
12.57423	151175
12.58235	157036
12.59047	135432
12.59860	115780
12.60672	86003
12.61485	74931
12.62297	68422
12.63108	61049
12.63922	60346
12.64733	58463
12.65547	61216
12.66358	53124
12.67170	54864
12.67983	52765
12.68795	50580
12.69607	50720
12.70420	51115
12.71232	48395
12.72045	49531
12.72857	49035
12.73668	47073
12.74482	51996
12.75293	51191
12.76107	49427
12.76918	46698
12.77730	46932
12.78543	41506
12.79355	41150
12.80167	43788
12.80980	41166
12.81792	43136
12.82605	38695
12.83417	40666
12.84228	41507
12.85042	40409
12.85853	39497
12.86667	39798
12.87478	39480
12.88290	41136
12.89103	36475
12.89915	39405
12.90728	40266
12.91540	37607
12.92352	38052
12.93165	36090
12.93977	32990
12.94788	37619
12.95602	35943
12.96413	36790
12.97227	50001
12.98038	43879
12.98850	48311
12.99663	48096
13.00475	57584
13.01288	45095
13.02100	45353
13.02912	42545
13.03725	42272
13.04537	36595
13.05350	42397
13.06162	41681
13.06973	41434
13.07787	39936
13.08598	45772
13.09410	42840
13.10223	43454
13.11035	44528
13.11848	39985
13.12660	42165
13.13472	40537
13.14285	43908
13.15097	38591
13.15910	42254
13.16722	42394
13.17533	41673
13.18347	42376
13.19158	43308
13.19970	48013
13.20783	47942
13.21595	49847
13.22408	51447
13.23220	50742
13.24032	47223
13.24845	48065
13.25657	44379
13.26470	42812
13.27282	43654
13.28093	40210
13.28907	40778
13.29718	42639
13.30532	37875
13.31343	35929
13.32155	39705
13.32968	38313
13.33780	38778
13.34592	39058
13.35405	33572
13.36217	37227
13.37030	37442
13.37842	35284
13.38653	34942
13.39467	36216
13.40278	37163
13.41092	35944
13.41903	37392
13.42715	32171
13.43528	34332
13.44340	36199
13.45153	36357
13.45965	37182
13.46777	38094
13.47590	37154
13.48402	36246
13.49213	38621
13.50027	37638
13.50838	38415
13.51652	39833
13.52463	38945
13.53275	43651
13.54088	38525
13.54900	39492
13.55713	42616
13.56525	41717
13.57337	41574
13.58150	40975
13.58962	42451
13.59773	42434
13.60587	43778
13.61398	47533
13.62212	52306
13.63023	60882
13.63835	56144
13.64648	56510
13.65460	47321
13.66273	39377
13.67085	37750
13.67897	38528
13.68710	37639
13.69522	40395
13.70335	36673
13.71147	35620
13.71958	38963
13.72772	39581
13.73583	33758
13.74395	42134
13.75208	48357
13.76020	64344
13.76833	91738
13.77645	137775
13.78457	189818
13.79270	268485
13.80082	304522
13.80895	338593
13.81707	346298
13.82518	317812
13.83332	290486
13.84143	267676
13.84957	244297
13.85768	219496
13.86580	187896
13.87393	144623
13.88205	124962
13.89017	105560
13.89830	95257
13.90642	83789
13.91455	79610
13.92267	73103
13.93078	68060
13.93892	72005
13.94703	62302
13.95517	68381
13.96328	73003
13.97140	89282
13.97953	119209
13.98765	144723
13.99577	159902
14.00390	155134
14.01202	140017
14.02015	115385
14.02827	102731
14.03638	91960
14.04452	80564
14.05263	66705
14.06077	64273
14.06888	63705
14.07700	68281
14.08513	68759
14.09325	63311
14.10138	63718
14.10950	56059
14.11762	56957
14.12575	58226
14.13387	56825
14.14198	53857
14.15012	53070
14.15823	54938
14.16637	57824
14.17448	58385
14.18260	64104
14.19073	71146
14.19885	78423
14.20698	115333
14.21510	157699
14.22322	198861
14.23135	215987
14.23947	219428
14.24758	214232
14.25572	192510
14.26383	180410
14.27197	167890
14.28008	142849
14.28820	130614
14.29633	123929
14.30445	107353
14.31258	96253
14.32070	91202
14.32882	90043
14.33695	86906
14.34507	85464
14.35320	89278
14.36132	92661
14.36943	88417
14.37757	78534
14.38568	68947
14.39380	69281
14.40193	62392
14.41005	61006
14.41818	66821
14.42630	75218
14.43442	80655
14.44255	83752
14.45067	76494
14.45880	63370
14.46692	57493
14.47503	50459
14.48317	48134
14.49128	49636
14.49942	51686
14.50753	47238
14.51565	48105
14.52378	47735
14.53190	49809
14.54002	50777
14.54815	51145
14.55627	47111
14.56440	46064
14.57252	48783
14.58063	43618
14.58877	44173
14.59688	42628
14.60502	39748
14.61313	38235
14.62125	42343
14.62938	41767
14.63750	39532
14.64562	38397
14.65375	38292
14.66187	40198
14.67000	36162
14.67812	42202
14.68623	37427
14.69437	41326
14.70248	37004
14.71062	39721
14.71873	41583
14.72685	45751
14.73498	39803
14.74310	40805
14.75123	41221
14.75935	43319
14.76747	43092
14.77560	46284
14.78372	44828
14.79183	71652
14.79997	131508
14.80808	332806
14.81622	870944
14.82433	1963495
14.83245	3433038
14.84058	4763052
14.84870	5213621
14.85683	4716546
14.86495	3369173
14.87307	2147935
14.88120	1252351
14.88932	811015
14.89745	577385
14.90557	443976
14.91368	376505
14.92182	335825
14.92993	302434
14.93805	265416
14.94618	237133
14.95430	222875
14.96243	207748
14.97055	190746
14.97867	195697
14.98680	182531
14.99492	169051
15.00305	162117
15.01117	162247
15.01928	143012
15.02742	140776
15.03553	141521
15.04365	128823
15.05178	125196
15.05990	119122
15.06803	116874
15.07615	121326
15.08427	108241
15.09240	106612
15.10052	108756
15.10865	107219
15.11677	105154
15.12488	102057
15.13302	112587
15.14113	119751
15.14927	133154
15.15738	137161
15.16550	139528
15.17363	122293
15.18175	100427
15.18987	88101
15.19800	74100
15.20612	68738
15.21425	64337
15.22237	61530
15.23048	59192
15.23862	55195
15.24673	61820
15.25487	53936
15.26298	54003
15.27110	51663
15.27923	50316
15.28735	48521
15.29547	55273
15.30360	48803
15.31172	50225
15.31985	51059
15.32797	45919
15.33608	47304
15.34422	45168
15.35233	53371
15.36047	47181
15.36858	46429
15.37670	49099
15.38483	50974
15.39295	52450
15.40108	50104
15.40920	42790
15.41732	53801
15.42545	49788
15.43357	45734
15.44168	46989
15.44982	45333
15.45793	47010
15.46607	43441
15.47418	51484
15.48230	57066
15.49043	71539
15.49855	79511
15.50668	88754
15.51480	90371
15.52292	91856
15.53105	83264
15.53917	82402
15.54730	76085
15.55542	67561
15.56353	69244
15.57167	58194
15.57978	57779
15.58790	49194
15.59603	52945
15.60415	51515
15.61228	48675
15.62040	50550
15.62852	52162
15.63665	50962
15.64477	48744
15.65290	47761
15.66102	47601
15.66913	45375
15.67727	50353
15.68538	45735
15.69350	45669
15.70163	41941
15.70975	47525
15.71788	44117
15.72600	45341
15.73412	46958
15.74225	45791
15.75037	55289
15.75850	68537
15.76662	108514
15.77473	196639
15.78287	353659
15.79098	550672
15.79912	719164
15.80723	744293
15.81535	617045
15.82348	441757
15.83160	293013
15.83972	205661
15.84785	141495
15.85597	121107
15.86410	114603
15.87222	109805
15.88033	113194
15.88847	120491
15.89658	121207
15.90472	122643
15.91283	120850
15.92095	109325
15.92908	95044
15.93720	91373
15.94533	81142
15.95345	76832
15.96157	75410
15.96970	84175
15.97782	82575
15.98593	89577
15.99407	82551
16.00218	84949
16.01032	81138
16.01843	85508
16.02655	78610
16.03468	77005
16.04280	75222
16.05093	64544
16.05905	69284
16.06717	62537
16.07530	63123
16.08342	56978
16.09153	53052
16.09967	56157
16.10778	56338
16.11592	53054
16.12403	54273
16.13215	56775
16.14028	58347
16.14840	53850
16.15653	57786
16.16465	61107
16.17277	54010
16.18090	55348
16.18902	50284
16.19715	49695
16.20527	53222
16.21338	49331
16.22152	50210
16.22963	52581
16.23775	49937
16.24588	52334
16.25400	56135
16.26213	46299
16.27025	45381
16.27837	50084
16.28650	48692
16.29462	51119
16.30275	49949
16.31087	53397
16.31898	55114
16.32712	56024
16.33523	53691
16.34335	48195
16.35148	55544
16.35960	57707
16.36773	63349
16.37585	77294
16.38397	86054
16.39210	96482
16.40022	92739
16.40835	80329
16.41647	74206
16.42458	64623
16.43272	60643
16.44083	54963
16.44897	71104
16.45708	112495
16.46520	205254
16.47333	387031
16.48145	665672
16.48957	947430
16.49770	1059930
16.50582	982050
16.51395	743236
16.52207	469765
16.53018	289463
16.53832	193239
16.54643	145763
16.55457	120017
16.56268	109387
16.57080	98446
16.57893	92318
16.58705	94094
16.59518	88279
16.60330	82429
16.61142	83937
16.61955	87179
16.62767	95182
16.63578	85392
16.64392	77001
16.65203	71820
16.66017	75347
16.66828	67836
16.67640	63448
16.68453	63184
16.69265	67666
16.70078	61639
16.70890	55472
16.71702	58204
16.72515	52316
16.73327	52613
16.74140	55177
16.74952	51481
16.75763	57880
16.76577	64518
16.77388	68606
16.78200	65334
16.79013	62942
16.79825	63772
16.80638	53168
16.81450	49815
16.82262	47497
16.83075	46010
16.83887	48697
16.84700	45500
16.85512	43039
16.86323	41526
16.87137	43550
16.87948	42557
16.88760	44984
16.89573	41437
16.90385	48385
16.91198	46566
16.92010	41464
16.92822	44570
16.93635	42202
16.94447	44683
16.95260	42114
16.96072	41822
16.96883	35305
16.97697	42655
16.98508	42168
16.99322	43663
17.00133	45477
17.00945	49788
17.01758	46104
17.02570	45055
17.03382	45464
17.04195	43736
17.05007	49514
17.05820	52828
17.06632	64031
17.07443	55979
17.08257	57110
17.09068	54927
17.09882	62472
17.10693	58256
17.11505	59333
17.12318	67114
17.13130	63203
17.13942	63020
17.14755	60547
17.15567	55898
17.16380	50881
17.17192	54617
17.18003	51614
17.18817	47669
17.19628	48098
17.20442	43939
17.21253	42548
17.22065	41956
17.22878	45329
17.23690	41223
17.24503	55302
17.25315	47101
17.26127	46917
17.26940	56277
17.27752	49137
17.28563	53714
17.29377	45808
17.30188	49361
17.31002	46319
17.31813	50756
17.32625	47249
17.33438	51398
17.34250	52775
17.35063	59878
17.35875	63658
17.36687	63061
17.37500	62256
17.38312	61066
17.39125	58182
17.39937	57726
17.40748	54754
17.41562	55993
17.42373	53439
17.43185	53823
17.43998	57884
17.44810	52409
17.45623	50462
17.46435	50726
17.47247	47670
17.48060	50489
17.48872	53324
17.49685	48887
17.50497	44440
17.51308	46308
17.52122	45211
17.52933	47472
17.53745	46798
17.54558	49925
17.55370	53795
17.56183	61224
17.56995	86981
17.57807	147025
17.58620	276685
17.59432	490845
17.60245	796602
17.61057	1105956
17.61868	1322881
17.62682	1311593
17.63493	1105640
17.64307	843839
17.65118	591790
17.65930	448497
17.66743	395312
17.67555	364155
17.68367	328110
17.69180	300916
17.69992	256843
17.70805	204996
17.71617	177922
17.72428	143214
17.73242	131207
17.74053	116552
17.74867	106840
17.75678	102449
17.76490	91282
17.77303	92013
17.78115	83020
17.78928	82129
17.79740	77221
17.80552	76942
17.81365	74376
17.82177	76142
17.82988	73981
17.83802	74400
17.84613	74274
17.85427	78976
17.86238	88870
17.87050	84987
17.87863	90684
17.88675	91234
17.89488	81787
17.90300	70821
17.91112	68658
17.91925	58830
17.92737	56681
17.93548	54571
17.94362	51986
17.95173	50186
17.95987	50181
17.96798	49300
17.97610	59337
17.98423	50870
17.99235	46010
18.00048	46876
18.00860	47653
18.01672	51062
18.02485	62770
18.03297	78397
18.04110	90608
18.04922	103533
18.05733	111007
18.06547	117733
18.07358	112151
18.08170	131142
18.08983	156656
18.09795	205970
18.10608	236200
18.11420	236233
18.12232	218393
18.13045	195899
18.13857	176303
18.14670	155236
18.15482	153306
18.16293	143562
18.17107	131592
18.17918	126673
18.18730	122164
18.19543	116723
18.20355	108021
18.21168	104623
18.21980	96296
18.22792	96008
18.23605	82048
18.24417	87946
18.25230	87880
18.26042	84181
18.26853	83718
18.27667	76244
18.28478	72435
18.29292	68120
18.30103	61388
18.30915	56581
18.31728	56281
18.32540	51382
18.33352	46362
18.34165	42803
18.34977	49783
18.35790	53217
18.36602	49954
18.37413	48547
18.38227	40377
18.39038	41621
18.39852	41528
18.40663	49210
18.41475	46470
18.42288	48827
18.43100	53847
18.43913	59866
18.44725	73546
18.45537	105375
18.46350	152188
18.47162	226161
18.47973	334333
18.48787	439008
18.49598	503051
18.50412	485552
18.51223	415500
18.52035	324037
18.52848	229685
18.53660	172252
18.54473	130351
18.55285	106759
18.56097	91740
18.56910	84301
18.57722	80387
18.58533	72140
18.59347	69386
18.60158	74323
18.60972	67019
18.61783	66078
18.62595	65944
18.63408	65780
18.64220	71794
18.65033	67577
18.65845	58044
18.66657	57521
18.67470	53143
18.68282	51236
18.69095	55307
18.69907	53093
18.70718	51004
18.71532	47347
18.72343	48182
18.73155	54700
18.73968	69270
18.74780	118722
18.75593	160603
18.76405	189063
18.77217	205118
18.78030	222895
18.78842	225966
18.79655	227742
18.80467	235787
18.81278	236592
18.82092	247904
18.82903	230214
18.83717	236616
18.84528	229023
18.85340	234304
18.86153	232304
18.86965	239281
18.87777	243429
18.88590	234362
18.89402	241114
18.90215	236096
18.91027	240652
18.91838	241805
18.92652	231516
18.93463	243314
18.94277	239755
18.95088	246490
18.95900	248958
18.96713	258512
18.97525	245123
18.98337	246538
18.99150	242558
18.99962	232175
19.00775	231346
19.01587	219584
19.02398	225314
19.03212	220147
19.04023	221299
19.04837	212331
19.05648	216257
19.06460	208972
19.07273	217830
19.08085	223457
19.08898	227427
19.09710	243963
19.10522	257799
19.11335	274585
19.12147	287862
19.12958	272807
19.13772	259470
19.14583	244899
19.15397	227241
19.16208	220320
19.17020	228203
19.17833	224380
19.18645	217902
19.19458	219834
19.20270	209689
19.21082	215298
19.21895	211796
19.22707	206778
19.23518	200102
19.24332	197117
19.25143	190374
19.25957	182939
19.26768	188601
19.27580	192346
19.28393	189624
19.29205	194910
19.30018	193439
19.30830	197164
19.31642	200013
19.32455	179128
19.33267	187396
19.34080	183358
19.34892	187131
19.35703	190343
19.36517	197064
19.37328	224754
19.38140	235832
19.38953	245366
19.39765	239858
19.40578	218716
19.41390	204779
19.42202	191180
19.43015	187732
19.43827	176712
19.44640	172040
19.45452	168057
19.46263	168164
19.47077	168600
19.47888	166085
19.48702	165140
19.49513	171244
19.50325	184746
19.51138	214234
19.51950	254479
19.52762	281391
19.53575	292482
19.54387	291442
19.55200	252767
19.56012	221942
19.56823	200866
19.57637	168445
19.58448	174737
19.59262	158966
19.60073	155860
19.60885	149258
19.61698	146962
19.62510	148645
19.63322	155413
19.64135	158003
19.64947	197911
19.65760	248094
19.66572	334737
19.67383	430180
19.68197	505344
19.69008	556523
19.69822	549363
19.70633	506203
19.71445	436649
19.72258	376361
19.73070	333375
19.73883	282701
19.74695	245892
19.75507	229962
19.76320	209373
19.77132	187042
19.77943	183623
19.78757	182309
19.79568	185731
19.80382	187991
19.81193	187014
19.82005	185021
19.82818	175704
19.83630	176227
19.84443	159447
19.85255	155413
19.86067	175117
19.86880	238468
19.87692	393860
19.88505	724851
19.89317	1214694
19.90128	1826117
19.90942	2433561
19.91753	2777332
19.92565	2812504
19.93378	2612991
19.94190	2316386
19.95003	2069362
19.95815	1819686
19.96627	1669078
19.97440	1583164
19.98252	1446649
19.99065	1375742
19.99877	1308213
20.00688	1262015
20.01502	1214858
20.02313	1148836
20.03125	1097435
20.03938	1019567
20.04750	950268
20.05563	814293
20.06375	683541
20.07187	560724
20.08000	435512
20.08812	381059
20.09625	324265
20.10437	301648
20.11248	278860
20.12062	261341
20.12873	257743
20.13687	242869
20.14498	246797
20.15310	240110
20.16123	246750
20.16935	253202
20.17747	273703
20.18560	273793
20.19372	287185
20.20185	302180
20.20997	287507
20.21808	271180
20.22622	267761
20.23433	255810
20.24247	239546
20.25058	239489
20.25870	251915
20.26683	292289
20.27495	359215
20.28308	429497
20.29120	506542
20.29932	528448
20.30745	529128
20.31557	469193
20.32368	408894
20.33182	343673
20.33993	282913
20.34807	242610
20.35618	190313
20.36430	173327
20.37243	148085
20.38055	136270
20.38868	129376
20.39680	125939
20.40492	116887
20.41305	116712
20.42117	123866
20.42928	127174
20.43742	135103
20.44553	143948
20.45367	157369
20.46178	171896
20.46990	164013
20.47803	153797
20.48615	142734
20.49428	134568
20.50240	120406
20.51052	112664
20.51865	106940
20.52677	113161
20.53490	104050
20.54302	110101
20.55113	98393
20.55927	96587
20.56738	94121
20.57550	96687
20.58363	96226
20.59175	93620
20.59988	96471
20.60800	93430
20.61612	92928
20.62425	92738
20.63237	91619
20.64050	89180
20.64862	94021
20.65673	91225
20.66487	99467
20.67298	91306
20.68110	87484
20.68923	91000
20.69735	87177
20.70548	85304
20.71360	81536
20.72172	86567
20.72985	82540
20.73797	81147
20.74610	84095
20.75422	84637
20.76233	87127
20.77047	87790
20.77858	90893
20.78672	97543
20.79483	111809
20.80295	133651
20.81108	179780
20.81920	233576
20.82732	269603
20.83545	271819
20.84357	264062
20.85170	218221
20.85982	168968
20.86793	133762
20.87607	112683
20.88418	102082
20.89232	95203
20.90043	97442
20.90855	90208
20.91668	90869
20.92480	91291
20.93293	88591
20.94105	86139
20.94917	80976
20.95730	80010
20.96542	83458
20.97353	84803
20.98167	80235
20.98978	78862
20.99792	80105
21.00603	73406
21.01415	75713
21.02228	73565
21.03040	76878
21.03853	83574
21.04665	76589
21.05477	78454
21.06290	74207
21.07102	78537
21.07913	77509
21.08727	74145
21.09538	75816
21.10352	73285
21.11163	76432
21.11975	82544
21.12788	90073
21.13600	93149
21.14413	102911
21.15225	131667
21.16037	160164
21.16850	186574
21.17662	209194
21.18475	211174
21.19287	182087
21.20098	157051
21.20912	132286
21.21723	117144
21.22535	100191
21.23348	100561
21.24160	90793
21.24973	87458
21.25785	87908
21.26597	86844
21.27410	84562
21.28222	80230
21.29035	82603
21.29847	80737
21.30658	78816
21.31472	82248
21.32283	75487
21.33097	73342
21.33908	83824
21.34720	84994
21.35533	80476
21.36345	76966
21.37157	77953
21.37970	80024
21.38782	72401
21.39595	73363
21.40407	76194
21.41218	77130
21.42032	83806
21.42843	80578
21.43657	80937
21.44468	89409
21.45280	83115
21.46093	82764
21.46905	86628
21.47717	77524
21.48530	71448
21.49342	76449
21.50155	70031
21.50967	68173
21.51778	71164
21.52592	68188
21.53403	71040
21.54217	69615
21.55028	70578
21.55840	70830
21.56653	69416
21.57465	68374
21.58278	72197
21.59090	80516
21.59902	78874
21.60715	83017
21.61527	79878
21.62338	91688
21.63152	84982
21.63963	99969
21.64777	108969
21.65588	122426
21.66400	127407
21.67213	128759
21.68025	120085
21.68838	117925
21.69650	109271
21.70462	105757
21.71275	90861
21.72087	82735
21.72898	75358
21.73712	66645
21.74523	63294
21.75337	66157
21.76148	60226
21.76960	59223
21.77773	58365
21.78585	59700
21.79398	56051
21.80210	55801
21.81022	55963
21.81835	59159
21.82647	59728
21.83460	67631
21.84272	76604
21.85083	94119
21.85897	104535
21.86708	105964
21.87520	93517
21.88333	88833
21.89145	81696
21.89958	76543
21.90770	65226
21.91582	63416
21.92395	55377
21.93207	60540
21.94020	52508
21.94832	52099
21.95643	50980
21.96457	53218
21.97268	52025
21.98082	51576
21.98893	45307
21.99705	47286
22.00518	44000
22.01330	47510
22.02142	50119
22.02955	42871
22.03767	47532
22.04580	50211
22.05392	52910
22.06203	47652
22.07017	49741
22.07828	46694
22.08642	48430
22.09453	44898
22.10265	48790
22.11078	45664
22.11890	47317
22.12703	46799
22.13515	41377
22.14327	48182
22.15140	47871
22.15952	47338
22.16763	44309
22.17577	47643
22.18388	45346
22.19202	46211
22.20013	47065
22.20825	45236
22.21638	50042
22.22450	49776
22.23263	54764
22.24075	54765
22.24887	54694
22.25700	54829
22.26512	53270
22.27323	54915
22.28137	53107
22.28948	50168
22.29762	57392
22.30573	62055
22.31385	67720
22.32198	75124
22.33010	97477
22.33823	107861
22.34635	123198
22.35447	125320
22.36260	116670
22.37072	102594
22.37885	97276
22.38697	80623
22.39508	82738
22.40322	83602
22.41133	102867
22.41945	124614
22.42758	140954
22.43570	154388
22.44383	154674
22.45195	151188
22.46007	137514
22.46820	133077
22.47632	121401
22.48445	119095
22.49257	118134
22.50068	124766
22.50882	130986
22.51693	131586
22.52505	124960
22.53318	115989
22.54130	126750
22.54943	120542
22.55755	120508
22.56567	121663
22.57380	121187
22.58192	107788
22.59005	111867
22.59817	107632
22.60628	97417
22.61442	108587
22.62253	99515
22.63067	97204
22.63878	97799
22.64690	102174
22.65503	103732
22.66315	100334
22.67127	98760
22.67940	110515
22.68752	107684
22.69565	114552
22.70377	119667
22.71188	128658
22.72002	140366
22.72813	143143
22.73627	145346
22.74438	141500
22.75250	127963
22.76063	119677
22.76875	115328
22.77688	109478
22.78500	105013
22.79312	112321
22.80125	115966
22.80937	120173
22.81748	127839
22.82562	127227
22.83373	125351
22.84187	125947
22.84998	117429
22.85810	120894
22.86623	108286
22.87435	112343
22.88248	108214
22.89060	107733
22.89872	108911
22.90685	102825
22.91497	111797
22.92308	118703
22.93122	139100
22.93933	136106
22.94747	148403
22.95558	142565
22.96370	128400
22.97183	114821
22.97995	103761
22.98808	88490
22.99620	80254
23.00432	78966
23.01245	75333
23.02057	67212
23.02870	64429
23.03682	61251
23.04493	60489
23.05307	62054
23.06118	56614
23.06930	58656
23.07743	57996
23.08555	62472
23.09368	64137
23.10180	56762
23.10992	64541
23.11805	58931
23.12617	58789
23.13430	57671
23.14242	54544
23.15053	51648
23.15867	59439
23.16678	60424
23.17492	70765
23.18303	95344
23.19115	102537
23.19928	107192
23.20740	114360
23.21552	117795
23.22365	123931
23.23177	131859
23.23990	135382
23.24802	138223
23.25613	151954
23.26427	172506
23.27238	182764
23.28052	172195
23.28863	168271
23.29675	160552
23.30488	154189
23.31300	148827
23.32112	140835
23.32925	142070
23.33737	144534
23.34550	146468
23.35362	149309
23.36173	170304
23.36987	172604
23.37798	184924
23.38612	185559
23.39423	188953
23.40235	182271
23.41048	170702
23.41860	168998
23.42673	166484
23.43485	162309
23.44297	158800
23.45110	158387
23.45922	166100
23.46733	159083
23.47547	154494
23.48358	149083
23.49172	142764
23.49983	142177
23.50795	148197
23.51608	143011
23.52420	138312
23.53233	133712
23.54045	143650
23.54857	134156
23.55670	140306
23.56482	138232
23.57293	136062
23.58107	145549
23.58918	164768
23.59732	172678
23.60543	188478
23.61355	198238
23.62168	189148
23.62980	200240
23.63793	193079
23.64605	218677
23.65417	292237
23.66230	399207
23.67042	495382
23.67855	546784
23.68667	536574
23.69478	470357
23.70292	394973
23.71103	308096
23.71915	240513
23.72728	202359
23.73540	184146
23.74353	163135
23.75165	154339
23.75977	193853
23.76790	331831
23.77602	618557
23.78415	1170198
23.79227	2029519
23.80038	2778606
23.80852	3060107
23.81663	2978978
23.82477	2598676
23.83288	2020449
23.84100	1482612
23.84913	1103418
23.85725	845272
23.86537	692914
23.87350	569883
23.88162	490130
23.88975	428056
23.89787	385386
23.90598	358738
23.91412	347076
23.92223	326140
23.93037	304858
23.93848	296424
23.94660	298599
23.95473	274641
23.96285	264189
23.97097	253638
23.97910	235477
23.98722	226907
23.99535	205076
24.00347	201215
24.01158	213079
24.01972	216033
24.02783	247227
24.03597	301651
24.04408	352005
24.05220	350693
24.06033	323274
24.06845	285068
24.07658	238593
24.08470	202759
24.09282	182201
24.10095	167067
24.10907	155174
24.11718	157906
24.12532	155629
24.13343	159338
24.14157	167245
24.14968	177393
24.15780	181145
24.16593	195320
24.17405	187689
24.18218	190547
24.19030	177504
24.19842	165402
24.20655	158579
24.21467	159213
24.22280	157343
24.23092	155681
24.23903	155106
24.24717	150354
24.25528	147671
24.26340	142608
24.27153	134307
24.27965	129777
24.28778	129759
24.29590	127972
24.30402	133259
24.31215	132291
24.32027	129387
24.32840	119115
24.33652	116240
24.34463	109703
24.35277	101226
24.36088	91515
24.36900	93749
24.37713	86838
24.38525	94974
24.39338	97761
24.40150	114189
24.40962	126127
24.41775	141316
24.42587	147026
24.43400	147352
24.44212	123524
24.45023	103199
24.45837	88382
24.46648	82383
24.47462	77925
24.48273	79540
24.49085	77847
24.49898	81533
24.50710	85422
24.51522	92678
24.52335	94878
24.53147	102088
24.53960	111832
24.54772	121969
24.55583	115891
24.56397	119247
24.57208	116971
24.58022	110729
24.58833	102268
24.59645	99425
24.60458	92648
24.61270	93389
24.62083	95385
24.62895	95290
24.63707	89434
24.64520	88560
24.65332	85112
24.66143	84467
24.66957	74483
24.67768	82643
24.68582	73349
24.69393	77682
24.70205	68597
24.71018	74563
24.71830	71676
24.72643	67320
24.73455	67506
24.74267	67408
24.75080	65746
24.75892	70214
24.76703	69288
24.77517	72454
24.78328	78465
24.79142	74954
24.79953	84392
24.80765	75622
24.81578	83223
24.82390	78915
24.83203	91037
24.84015	93140
24.84827	103006
24.85640	145002
24.86452	204605
24.87265	278936
24.88077	362127
24.88888	463417
24.89702	558300
24.90513	623540
24.91325	625277
24.92138	563335
24.92950	501008
24.93763	410698
24.94575	351789
24.95387	302756
24.96200	277598
24.97012	267396
24.97825	271680
24.98637	255523
24.99448	259787
25.00262	254426
25.01073	250738
25.01885	247161
25.02698	244824
25.03510	249979
25.04323	249896
25.05135	249725
25.05947	246394
25.06760	237750
25.07572	250120
25.08385	248269
25.09197	239422
25.10008	253790
25.10822	294239
25.11633	376133
25.12447	582539
25.13258	985542
25.14070	1591478
25.14883	2240102
25.15695	2691441
25.16507	2779263
25.17320	2498893
25.18132	1957427
25.18945	1369393
25.19757	920992
25.20568	611310
25.21382	476279
25.22193	365093
25.23007	312112
25.23818	316075
25.24630	360850
25.25443	441418
25.26255	609584
25.27068	824970
25.27880	1044907
25.28692	1196748
25.29505	1168457
25.30317	1039731
25.31128	826038
25.31942	605273
25.32753	435252
25.33567	315170
25.34378	265117
25.35190	233172
25.36003	218875
25.36815	202830
25.37628	195582
25.38440	188665
25.39252	182201
25.40065	173669
25.40877	166424
25.41688	164078
25.42502	137120
25.43313	118756
25.44127	110511
25.44938	94271
25.45750	98725
25.46563	87199
25.47375	89509
25.48188	86965
25.49000	92595
25.49812	95811
25.50625	87520
25.51437	95139
25.52250	83128
25.53062	80892
25.53873	79287
25.54687	71436
25.55498	80216
25.56310	67258
25.57123	70179
25.57935	69205
25.58748	65788
25.59560	67479
25.60372	67541
25.61185	64408
25.61997	67265
25.62810	70207
25.63622	72365
25.64433	75004
25.65247	84081
25.66058	81666
25.66872	86370
25.67683	83774
25.68495	82068
25.69308	79161
25.70120	72216
25.70932	67555
25.71745	62793
25.72557	68447
25.73370	64066
25.74182	65867
25.74993	67143
25.75807	64783
25.76618	63122
25.77432	67187
25.78243	63110
25.79055	66390
25.79868	63457
25.80680	74361
25.81492	95940
25.82305	134467
25.83117	193849
25.83930	239708
25.84742	283583
25.85553	295823
25.86367	294099
25.87178	291342
25.87992	296706
25.88803	294434
25.89615	298810
25.90428	297253
25.91240	304746
25.92053	301432
25.92865	299328
25.93677	308035
25.94490	303942
25.95302	298145
25.96113	305771
25.96927	299579
25.97738	292380
25.98552	298046
25.99363	296309
26.00175	284333
26.00988	274768
26.01800	280777
26.02613	278255
26.03425	275903
26.04237	278326
26.05050	287830
26.05862	269728
26.06673	272998
26.07487	263264
26.08298	279240
26.09112	276121
26.09923	276777
26.10735	270254
26.11548	264245
26.12360	269595
26.13173	256402
26.13985	265385
26.14797	259341
26.15610	257985
26.16422	257561
26.17235	250485
26.18047	262021
26.18858	248727
26.19672	246393
26.20483	250546
26.21295	242338
26.22108	239819
26.22920	227623
26.23733	239915
26.24545	229488
26.25357	224807
26.26170	230369
26.26982	220205
26.27795	239580
26.28607	226874
26.29418	225670
26.30232	222376
26.31043	229792
26.31857	227619
26.32668	224017
26.33480	215164
26.34293	216730
26.35105	213553
26.35917	206292
26.36730	221410
26.37542	218879
26.38355	222746
26.39167	215603
26.39978	246504
26.40792	230493
26.41603	228608
26.42417	229820
26.43228	224591
26.44040	211059
26.44853	209272
26.45665	203269
26.46477	199811
26.47290	197299
26.48102	197629
26.48915	191549
26.49727	194061
26.50538	187967
26.51352	186902
26.52163	188191
26.52977	182794
26.53788	174654
26.54600	179358
26.55413	173761
26.56225	177563
26.57038	175118
26.57850	172248
26.58662	167830
26.59475	163982
26.60287	167379
26.61098	167832
26.61912	156407
26.62723	155637
26.63537	161594
26.64348	156850
26.65160	158120
26.65973	155484
26.66785	164150
26.67598	159802
26.68410	164974
26.69222	171593
26.70035	161132
26.70847	152157
26.71660	151628
26.72472	136160
26.73283	145980
26.74097	144821
26.74908	135843
26.75720	135907
26.76533	138727
26.77345	140808
26.78158	133419
26.78970	128649
26.79782	129721
26.80595	140210
26.81407	135791
26.82220	135774
26.83032	137961
26.83843	142322
26.84657	137745
26.85468	123563
26.86280	128900
26.87093	117820
26.87905	124071
26.88718	124383
26.89530	116039
26.90342	116520
26.91155	112568
26.91967	113961
26.92780	106197
26.93592	110913
26.94403	107327
26.95217	109952
26.96028	116066
26.96842	119162
26.97653	134430
26.98465	163817
26.99278	224873
27.00090	344908
27.00902	545467
27.01715	795901
27.02527	1068520
27.03340	1256911
27.04152	1318992
27.04963	1168708
27.05777	1035132
27.06588	823538
27.07402	645220
27.08213	505156
27.09025	409959
27.09838	339626
27.10650	315729
27.11463	275446
27.12275	268811
27.13087	236396
27.13900	224253
27.14712	199961
27.15523	204374
27.16337	197181
27.17148	204947
27.17962	213724
27.18773	231278
27.19585	230813
27.20398	226786
27.21210	218575
27.22023	198491
27.22835	184726
27.23647	164070
27.24460	149018
27.25272	144301
27.26083	131140
27.26897	135095
27.27708	128417
27.28522	128936
27.29333	124977
27.30145	116385
27.30958	117658
27.31770	115113
27.32583	112912
27.33395	116464
27.34207	114232
27.35020	108689
27.35832	108622
27.36645	108781
27.37457	112488
27.38268	111540
27.39082	115575
27.39893	110556
27.40705	107506
27.41518	107043
27.42330	99828
27.43143	102718
27.43955	95682
27.44767	92797
27.45580	91959
27.46392	94562
27.47205	91049
27.48017	92121
27.48828	93083
27.49642	85629
27.50453	90442
27.51267	88064
27.52078	88135
27.52890	92572
27.53703	96200
27.54515	89997
27.55327	91237
27.56140	92868
27.56952	87624
27.57765	89722
27.58577	98535
27.59388	100524
27.60202	99359
27.61013	104926
27.61827	106717
27.62638	99700
27.63450	103674
27.64263	92402
27.65075	82171
27.65887	82948
27.66700	82631
27.67512	77940
27.68325	74915
27.69137	83005
27.69948	81703
27.70762	73302
27.71573	75728
27.72387	76193
27.73198	72098
27.74010	73344
27.74823	74686
27.75635	72570
27.76448	83737
27.77260	95931
27.78072	109384
27.78885	137096
27.79697	155768
27.80508	160671
27.81322	159809
27.82133	133282
27.82947	114319
27.83758	102700
27.84570	88982
27.85383	87654
27.86195	79033
27.87008	73016
27.87820	74761
27.88632	76473
27.89445	73258
27.90257	69495
27.91068	68855
27.91882	72574
27.92693	69445
27.93507	67924
27.94318	65089
27.95130	64883
27.95943	62132
27.96755	72264
27.97568	69736
27.98380	72653
27.99192	66905
28.00005	69392
28.00817	75525
28.01630	74352
28.02442	76562
28.03253	73435
28.04067	75523
28.04878	72442
28.05690	71375
28.06503	74049
28.07315	69314
28.08128	71693
28.08940	67994
28.09752	66311
28.10565	68278
28.11377	62276
28.12190	71687
28.13002	64477
28.13813	59392
28.14627	60596
28.15438	60409
28.16252	60785
28.17063	60832
28.17875	65522
28.18688	58336
28.19500	62979
28.20312	66166
28.21125	84670
28.21937	90087
28.22750	96346
28.23562	98977
28.24373	99677
28.25187	94465
28.25998	85680
28.26812	79737
28.27623	72216
28.28435	73770
28.29248	64596
28.30060	64176
28.30872	64191
28.31685	74260
28.32497	83665
28.33310	92340
28.34122	115038
28.34933	137638
28.35747	151563
28.36558	175363
28.37372	197184
28.38183	203949
28.38995	216176
28.39808	219594
28.40620	221757
28.41433	201681
28.42245	197943
28.43057	169836
28.43870	166278
28.44682	147781
28.45493	132601
28.46307	132388
28.47118	122673
28.47932	112372
28.48743	108320
28.49555	96478
28.50368	100539
28.51180	93917
28.51993	98589
28.52805	92490
28.53617	95495
28.54430	84606
28.55242	87107
28.56055	85906
28.56867	81961
28.57678	78947
28.58492	77356
28.59303	77602
28.60115	74491
28.60928	74857
28.61740	74253
28.62553	71635
28.63365	73671
28.64177	74279
28.64990	78362
28.65802	83420
28.66615	77647
28.67427	78094
28.68238	77201
28.69052	76785
28.69863	75259
28.70675	70664
28.71488	73003
28.72300	80195
28.73113	73949
28.73925	74639
28.74737	77028
28.75550	73997
28.76362	79592
28.77175	78688
28.77987	81057
28.78798	94516
28.79612	99346
28.80423	96269
28.81237	89531
28.82048	78470
28.82860	83894
28.83673	81162
28.84485	71337
28.85297	65459
28.86110	68425
28.86922	63549
28.87735	62945
28.88547	70442
28.89358	71342
28.90172	70269
28.90983	75913
28.91797	81183
28.92608	72879
28.93420	72315
28.94233	74696
28.95045	75523
28.95857	78459
28.96670	78716
28.97482	83738
28.98295	82402
28.99107	79603
28.99918	70055
29.00732	69372
29.01543	68705
29.02357	65828
29.03168	61584
29.03980	62958
29.04793	63789
29.05605	67554
29.06418	72370
29.07230	79690
29.08042	84536
29.08855	88066
29.09667	88740
29.10478	94130
29.11292	77998
29.12103	75766
29.12917	71683
29.13728	68859
29.14540	67721
29.15353	68349
29.16165	63819
29.16978	62596
29.17790	64436
29.18602	65483
29.19415	69744
29.20227	75142
29.21040	86035
29.21852	99984
29.22663	105800
29.23477	106143
29.24288	103735
29.25100	98439
29.25913	103080
29.26725	92867
29.27538	86881
29.28350	81318
29.29162	75785
29.29975	67860
29.30787	63272
29.31600	66521
29.32412	65734
29.33223	62015
29.34037	58041
29.34848	60043
29.35660	62155
29.36473	58944
29.37285	58518
29.38098	59216
29.38910	58434
29.39722	57411
29.40535	56098
29.41347	58443
29.42160	58933
29.42972	59281
29.43783	59576
29.44597	60806
29.45408	56463
29.46222	59315
29.47033	56916
29.47845	56401
29.48658	54085
29.49470	53443
29.50282	56671
29.51095	63449
29.51907	62088
29.52720	64638
29.53532	64989
29.54343	66013
29.55157	61645
29.55968	58618
29.56782	59836
29.57593	56196
29.58405	57579
29.59218	52898
29.60030	54924
29.60843	51603
29.61655	50988
29.62467	57139
29.63280	61907
29.64092	56646
29.64903	57235
29.65717	54456
29.66528	50741
29.67342	54593
29.68153	59290
29.68965	56123
29.69778	56121
29.70590	60529
29.71403	59698
29.72215	53608
29.73027	53750
29.73840	58566
29.74652	56141
29.75463	55885
29.76277	53482
29.77088	55742
29.77902	49397
29.78713	50287
29.79525	49761
29.80338	49542
29.81150	50077
29.81963	47838
29.82775	48529
29.83587	51340
29.84400	53843
29.85212	59471
29.86025	65738
29.86837	82734
29.87648	144905
29.88462	255624
29.89273	465159
29.90085	723725
29.90898	940808
29.91710	1018142
29.92523	891271
29.93335	685238
29.94147	431815
29.94960	264122
29.95772	168286
29.96585	116676
29.97397	95888
29.98208	101936
29.99022	96642
29.99833	103986
30.00647	109809
30.01458	116063
30.02270	131204
30.03083	122544
30.03895	134710
30.04707	140588
30.05520	131980
30.06332	127975
30.07145	128056
30.07957	121608
30.08768	123867
30.09582	114071
30.10393	107488
30.11207	101829
30.12018	100692
30.12830	96855
30.13643	94971
30.14455	85571
30.15267	84594
30.16080	85842
30.16892	79543
30.17705	84307
30.18517	77799
30.19328	79893
30.20142	72600
30.20953	69946
30.21767	71746
30.22578	65778
30.23390	73205
30.24203	64706
30.25015	64825
30.25828	64178
30.26640	70617
30.27452	57226
30.28265	57489
30.29077	58293
30.29888	60829
30.30702	63149
30.31513	64986
30.32327	63769
30.33138	57022
30.33950	61563
30.34763	59953
30.35575	61857
30.36388	57597
30.37200	62527
30.38012	59735
30.38825	60814
30.39637	60234
30.40448	62941
30.41262	62378
30.42073	58785
30.42887	60462
30.43698	60629
30.44510	55785
30.45323	55476
30.46135	57968
30.46948	58258
30.47760	59395
30.48572	56463
30.49385	65781
30.50197	62606
30.51010	68609
30.51822	64089
30.52633	66026
30.53447	62632
30.54258	59535
30.55070	54586
30.55883	53355
30.56695	54013
30.57508	56115
30.58320	51601
30.59132	51565
30.59945	47080
30.60757	50049
30.61570	50817
30.62382	51670
30.63193	54642
30.64007	54187
30.64818	49316
30.65632	50556
30.66443	55750
30.67255	52438
30.68068	52323
30.68880	53157
30.69692	53745
30.70505	56678
30.71317	53394
30.72130	56528
30.72942	55574
30.73753	57458
30.74567	53328
30.75378	53835
30.76192	59061
30.77003	62923
30.77815	74439
30.78628	102639
30.79440	161034
30.80252	246213
30.81065	375457
30.81877	462637
30.82690	505806
30.83502	443507
30.84313	364409
30.85127	252403
30.85938	176440
30.86752	123346
30.87563	95514
30.88375	83737
30.89188	72459
30.90000	76206
30.90813	65718
30.91625	66121
30.92437	68511
30.93250	70936
30.94062	69699
30.94873	69688
30.95687	71156
30.96498	67407
30.97312	70487
30.98123	65539
30.98935	66466
30.99748	64555
31.00560	62923
31.01373	62992
31.02185	63831
31.02997	66344
31.03810	67150
31.04622	66624
31.05435	65527
31.06247	65760
31.07058	66732
31.07872	74444
31.08683	78916
31.09495	103032
31.10308	125065
31.11120	153874
31.11933	175856
31.12745	174008
31.13557	164173
31.14370	143270
31.15182	109326
31.15995	82894
31.16807	82614
31.17618	66636
31.18432	72458
31.19243	70800
31.20055	83057
31.20868	100721
31.21680	105276
31.22493	124447
31.23305	135493
31.24117	128707
31.24930	113061
31.25742	101097
31.26555	85825
31.27367	69510
31.28178	62111
31.28992	61267
31.29803	57424
31.30617	56460
31.31428	54320
31.32240	55100
31.33053	54224
31.33865	53962
31.34677	59372
31.35490	61543
31.36302	60913
31.37115	64536
31.37927	69983
31.38738	70505
31.39552	70408
31.40363	73232
31.41177	74350
31.41988	68253
31.42800	72951
31.43613	62090
31.44425	61139
31.45237	57184
31.46050	57648
31.46862	62594
31.47675	69650
31.48487	79631
31.49298	85685
31.50112	95808
31.50923	91548
31.51737	88889
31.52548	75436
31.53360	72675
31.54173	65582
31.54985	70281
31.55798	78225
31.56610	78645
31.57422	89555
31.58235	99655
31.59047	93188
31.59858	95701
31.60672	92063
31.61483	84459
31.62297	80320
31.63108	82365
31.63920	78612
31.64733	74640
31.65545	83553
31.66358	84964
31.67170	82287
31.67982	83728
31.68795	86805
31.69607	85258
31.70420	82390
31.71232	85047
31.72043	77126
31.72857	78224
31.73668	86566
31.74480	74715
31.75293	77074
31.76105	76927
31.76918	79607
31.77730	81279
31.78542	80821
31.79355	77557
31.80167	78829
31.80980	78797
31.81792	80396
31.82603	74523
31.83417	81036
31.84228	72617
31.85042	72448
31.85853	82236
31.86665	76288
31.87478	82575
31.88290	79498
31.89102	84656
31.89915	85367
31.90727	85134
31.91540	91281
31.92352	94226
31.93163	98775
31.93977	104341
31.94788	109988
31.95602	102226
31.96413	108697
31.97225	115349
31.98038	118973
31.98850	118057
31.99662	116160
32.00475	121001
32.01287	119756
32.02100	122109
32.02912	109948
32.03723	109051
32.04537	100173
32.05348	100685
32.06162	98441
32.06973	96139
32.07785	91546
32.08598	91097
32.09410	101593
32.10223	95772
32.11035	84708
32.11847	83577
32.12660	80219
32.13472	77826
32.14283	76761
32.15097	75554
32.15908	69522
32.16722	73388
32.17533	75498
32.18345	70925
32.19158	69347
32.19970	68655
32.20783	62152
32.21595	59323
32.22407	72932
32.23220	68773
32.24032	59458
32.24843	68377
32.25657	66061
32.26468	67231
32.27282	76546
32.28093	75950
32.28905	80329
32.29718	78038
32.30530	72259
32.31343	66533
32.32155	64824
32.32967	60127
32.33780	62736
32.34592	59144
32.35405	63768
32.36217	71315
32.37028	65973
32.37842	69648
32.38653	56815
32.39465	59262
32.40278	60927
32.41090	57273
32.41903	60383
32.42715	50151
32.43527	57190
32.44340	59101
32.45152	55079
32.45965	53586
32.46777	63902
32.47588	55587
32.48402	49150
32.49213	52321
32.50027	55013
32.50838	54165
32.51650	56500
32.52463	54042
32.53275	54253
32.54087	55560
32.54900	53551
32.55712	54170
32.56525	52536
32.57337	53683
32.58148	51372
32.58962	54389
32.59773	51195
32.60587	50247
32.61398	52122
32.62210	50602
32.63023	49778
32.63835	50142
32.64647	48977
32.65460	54684
32.66272	59611
32.67085	59830
32.67897	66282
32.68708	73398
32.69522	70024
32.70333	68246
32.71147	69101
32.71958	54803
32.72770	57101
32.73583	52796
32.74395	53351
32.75208	58195
32.76020	53877
32.76832	52655
32.77645	49441
32.78457	56704
32.79268	47144
32.80082	51114
32.80893	53089
32.81707	49729
32.82518	55341
32.83330	52009
32.84143	48701
32.84955	49233
32.85768	49832
32.86580	50242
32.87392	49004
32.88205	49806
32.89017	50399
32.89830	52835
32.90642	52250
32.91453	51603
32.92267	56114
32.93078	47417
32.93890	49011
32.94703	49576
32.95515	53172
32.96328	58029
32.97140	54874
32.97952	62072
32.98765	82432
32.99577	111013
33.00390	154971
33.01202	173070
33.02013	185491
33.02827	168835
33.03638	156938
33.04450	115750
33.05263	95698
33.06075	80827
33.06888	74228
33.07700	77246
33.08512	69611
33.09325	68829
33.10137	77634
33.10950	83424
33.11762	85850
33.12573	94041
33.13387	98678
33.14198	95113
33.15012	95738
33.15823	81651
33.16635	75993
33.17448	70115
33.18260	63661
33.19072	62767
33.19885	61783
33.20697	55247
33.21510	62552
33.22322	55754
33.23133	57307
33.23947	65457
33.24758	57782
33.25572	54738
33.26383	52421
33.27195	54601
33.28008	49352
33.28820	54258
33.29632	49913
33.30445	48524
33.31257	50249
33.32070	50950
33.32882	51348
33.33693	52781
33.34507	50686
33.35318	53415
33.36132	52997
33.36943	51089
33.37755	56067
33.38568	53042
33.39380	50728
33.40193	54359
33.41005	51618
33.41817	50611
33.42630	52405
33.43442	52385
33.44253	48708
33.45067	46175
33.45878	52000
33.46692	46289
33.47503	49301
33.48315	46150
33.49128	50829
33.49940	50902
33.50753	59253
33.51565	54484
33.52377	57207
33.53190	54158
33.54002	55527
33.54815	60548
33.55627	57720
33.56438	60495
33.57252	64024
33.58063	62561
33.58875	57445
33.59688	56833
33.60500	50057
33.61313	52618
33.62125	53885
33.62937	56410
33.63750	51151
33.64562	53008
33.65375	52456
33.66187	53626
33.66998	51954
33.67812	54625
33.68623	51359
33.69435	51809
33.70248	51254
33.71060	51871
33.71873	51383
33.72685	52009
33.73497	49571
33.74310	49185
33.75122	49924
33.75935	49576
33.76747	50459
33.77558	49057
33.78372	51293
33.79183	50115
33.79997	51833
33.80808	54127
33.81620	50424
33.82433	48012
33.83245	51936
33.84057	57644
33.84870	51071
33.85682	51849
33.86495	49850
33.87307	60462
33.88118	53209
33.88932	57206
33.89743	59392
33.90557	51100
33.91368	48853
33.92180	52520
33.92993	52485
33.93805	52655
33.94618	56887
33.95430	52255
33.96242	50518
33.97055	50892
33.97867	51860
33.98678	52573
33.99492	50871
34.00303	53276
34.01117	51772
34.01928	52736
34.02740	54612
34.03553	55269
34.04365	49543
34.05178	52460
34.05990	47749
34.06802	50338
34.07615	47305
34.08427	50310
34.09238	51576
34.10052	54402
34.10863	49700
34.11677	54792
34.12488	52399
34.13300	52117
34.14113	54545
34.14925	54531
34.15738	48547
34.16550	52352
34.17362	53109
34.18175	50501
34.18987	53196
34.19800	53017
34.20612	53065
34.21423	58469
34.22237	53018
34.23048	49590
34.23860	45628
34.24673	47693
34.25485	46746
34.26298	50238
34.27110	51252
34.27922	49152
34.28735	47156
34.29547	48039
34.30360	48560
34.31172	50245
34.31983	51865
34.32797	53829
34.33608	54388
34.34420	53989
34.35233	58887
34.36045	52455
34.36858	51089
34.37670	54204
34.38482	51018
34.39295	51863
34.40107	50053
34.40920	51338
34.41732	50849
34.42543	49643
34.43357	55352
34.44168	52269
34.44982	48414
34.45793	48398
34.46605	50039
34.47418	48793
34.48230	49319
34.49042	47103
34.49855	43718
34.50667	50599
34.51480	55431
34.52292	51638
34.53103	56564
34.53917	63451
34.54728	68827
34.55542	71758
34.56353	78561
34.57165	79300
34.57978	90464
34.58790	79809
34.59603	77505
34.60415	77905
34.61227	73334
34.62040	64158
34.62852	58571
34.63663	61101
34.64477	64416
34.65288	59211
34.66102	61722
34.66913	55656
34.67725	64402
34.68538	54516
34.69350	55417
34.70163	56772
34.70975	51373
34.71787	54400
34.72600	56191
34.73412	62302
34.74223	55216
34.75037	49579
34.75848	51348
34.76662	58710
34.77473	58067
34.78285	52026
34.79098	55741
34.79910	56528
34.80723	50529
34.81535	50761
34.82347	55470
34.83160	57564
34.83972	53771
34.84785	52794
34.85597	48221
34.86408	57159
34.87222	52676
34.88033	52460
34.88845	52452
34.89658	58375
34.90470	62585
34.91283	53818
34.92095	57785
34.92907	54765
34.93720	59303
34.94532	63570
34.95345	84249
34.96157	109121
34.96968	173377
34.97782	224976
34.98593	298105
34.99407	319497
35.00218	294719
35.01030	240337
35.01843	162052
35.02655	106876
35.03467	88491
35.04280	75911
35.05092	67417
35.05905	65224
35.06717	60772
35.07528	65383
35.08342	59290
35.09153	60324
35.09967	64230
35.10778	62172
35.11590	59286
35.12403	57309
35.13215	61097
35.14027	60834
35.14840	60786
35.15652	58901
35.16465	60849
35.17277	59519
35.18088	58075
35.18902	61929
35.19713	59241
35.20527	55763
35.21338	57058
35.22150	54765
35.22963	54936
35.23775	55011
35.24588	56427
35.25400	55919
35.26212	59289
35.27025	61859
35.27837	56307
35.28648	57880
35.29462	55088
35.30273	63075
35.31087	57749
35.31898	54518
35.32710	59122
35.33523	48846
35.34335	53004
35.35148	53385
35.35960	53020
35.36772	56089
35.37585	53405
35.38397	50561
35.39210	58124
35.40022	54245
35.40833	56885
35.41647	53680
35.42458	58101
35.43270	55808
35.44083	56720
35.44895	58740
35.45708	55280
35.46520	57319
35.47332	56522
35.48145	61876
35.48957	60569
35.49770	64205
35.50582	58962
35.51393	64733
35.52207	59753
35.53018	56140
35.53830	59884
35.54643	53381
35.55455	58134
35.56268	52096
35.57080	49331
35.57892	54153
35.58705	58446
35.59517	58344
35.60330	65398
35.61142	56381
35.61953	57593
35.62767	56073
35.63578	50099
35.64392	51841
35.65203	55691
35.66015	53377
35.66828	51770
35.67640	54871
35.68452	55906
35.69265	54933
35.70077	61187
35.70890	56989
35.71702	61761
35.72513	65798
35.73327	58699
35.74138	56975
35.74952	59492
35.75763	59064
35.76575	57525
35.77388	65582
35.78200	64028
35.79012	61780
35.79825	59748
35.80637	58618
35.81450	59101
35.82262	56257
35.83073	54284
35.83887	55070
35.84698	58266
35.85512	57326
35.86323	55697
35.87135	56636
35.87948	53420
35.88760	56821
35.89573	56329
35.90385	56685
35.91197	55296
35.92010	57097
35.92822	55697
35.93633	54601
35.94447	54021
35.95258	52167
35.96072	56065
35.96883	57165
35.97695	55601
35.98508	56399
35.99320	53408
36.00133	62396
36.00945	54808
36.01757	62617
36.02570	62474
36.03382	57938
36.04195	59205
36.05007	57122
36.05818	58677
36.06632	54405
36.07443	54232
36.08255	55138
36.09068	55878
36.09880	57057
36.10693	59390
36.11505	57617
36.12317	58248
36.13130	59379
36.13942	60073
36.14755	60037
36.15567	57939
36.16378	61085
36.17192	63072
36.18003	56900
36.18815	60943
36.19628	60470
36.20440	55711
36.21253	55022
36.22065	59636
36.22877	51949
36.23690	57017
36.24502	60662
36.25315	52469
36.26127	51269
36.26938	53937
36.27752	54806
36.28563	55665
36.29377	61357
36.30188	58498
36.31000	55319
36.31813	63036
36.32625	73647
36.33437	70271
36.34250	73091
36.35062	73199
36.35875	65471
36.36687	60668
36.37498	59896
36.38312	56916
36.39123	59405
36.39937	55681
36.40748	61302
36.41560	63448
36.42373	60068
36.43185	59479
36.43998	59861
36.44810	61095
36.45622	62846
36.46435	56597
36.47247	58476
36.48058	58647
36.48872	59044
36.49683	57932
36.50497	56873
36.51308	55642
36.52120	55232
36.52933	55097
36.53745	57918
36.54558	56005
36.55370	58489
36.56182	54717
36.56995	55416
36.57807	58973
36.58618	56953
36.59432	52102
36.60243	53696
36.61057	54188
36.61868	54168
36.62680	53916
36.63493	57881
36.64305	60496
36.65118	52703
36.65930	54440
36.66742	56512
36.67555	59604
36.68367	63492
36.69180	59480
36.69992	59012
36.70803	63115
36.71617	58483
36.72428	57239
36.73240	58538
36.74053	62713
36.74865	61432
36.75678	59525
36.76490	63500
36.77302	61747
36.78115	56601
36.78927	61894
36.79740	61417
36.80552	58746
36.81363	58246
36.82177	60913
36.82988	57105
36.83800	61298
36.84613	56393
36.85425	59344
36.86238	60629
36.87050	62303
36.87862	58245
36.88675	56307
36.89487	55687
36.90300	58674
36.91112	60604
36.91923	63050
36.92737	62605
36.93548	67626
36.94362	76461
36.95173	94347
36.95985	122127
36.96798	154234
36.97610	190449
36.98422	211263
36.99235	203003
37.00047	165270
37.00860	147333
37.01672	112190
37.02483	88102
37.03297	79165
37.04108	73859
37.04922	68957
37.05733	73419
37.06545	72070
37.07358	66669
37.08170	70971
37.08983	71898
37.09795	73843
37.10607	73974
37.11420	76995
37.12232	75218
37.13043	76500
37.13857	76485
37.14668	80103
37.15482	76151
37.16293	77569
37.17105	75803
37.17918	76125
37.18730	80289
37.19543	78977
37.20355	75367
37.21167	76560
37.21980	78118
37.22792	84247
37.23605	82671
37.24417	77990
37.25228	92273
37.26042	80705
37.26853	79652
37.27665	79681
37.28478	79537
37.29290	74037
37.30103	74433
37.30915	74216
37.31727	74492
37.32540	74068
37.33352	77596
37.34165	80230
37.34977	82904
37.35788	82407
37.36602	85164
37.37413	93674
37.38225	93138
37.39038	91025
37.39850	93316
37.40663	85527
37.41475	85460
37.42287	83827
37.43100	79342
37.43912	80780
37.44725	81293
37.45537	79966
37.46348	80545
37.47162	90663
37.47973	81979
37.48787	80532
