D:\MassHunter\GCMS\1\data\JTB-E02\BACandSTRAW\JTB-E02-207-18.D Wed Mar 13 17:53:16 2019
Start of data points
2.09525,691924
2.10337,621198
2.11148,560272
2.11962,544056
2.12773,520295
2.13587,509915
2.14398,479116
2.15210,478874
2.16023,479412
2.16835,465754
2.17648,450071
2.18460,425912
2.19272,429013
2.20085,413493
2.20897,393610
2.21710,393926
2.22522,381452
2.23333,374284
2.24147,369171
2.24958,360288
2.25770,357882
2.26583,354248
2.27395,352398
2.28208,341848
2.29020,339880
2.29832,327798
2.30645,327083
2.31457,314716
2.32270,319055
2.33082,319941
2.33893,310845
2.34707,322014
2.35518,318533
2.36332,315520
2.37143,320998
2.37955,310819
2.38768,292700
2.39580,294098
2.40392,365407
2.41205,285347
2.42017,297764
2.42830,278854
2.43642,281839
2.44453,290600
2.45267,279519
2.46078,283065
2.46892,277727
2.47703,282374
2.48515,283513
2.49328,318251
2.50140,491093
2.50953,860633
2.51765,1268946
2.52577,1309764
2.53390,1008291
2.54202,702610
2.55013,528790
2.55827,452910
2.56638,398332
2.57452,367179
2.58263,345983
2.59075,333758
2.59888,329881
2.60700,403231
2.61513,543741
2.62325,686912
2.63137,655531
2.63950,553453
2.64762,450840
2.65573,400014
2.66387,376417
2.67198,341454
2.68012,314128
2.68823,301650
2.69635,287742
2.70448,290990
2.71260,277527
2.72073,269357
2.72885,267141
2.73697,267263
2.74510,259389
2.75322,244889
2.76135,240072
2.76947,256526
2.77758,233585
2.78572,239346
2.79383,237204
2.80195,236955
2.81008,233307
2.81820,233020
2.82633,231859
2.83445,237111
2.84257,232756
2.85070,234261
2.85882,222281
2.86695,226742
2.87507,221868
2.88318,222201
2.89132,225443
2.89943,224891
2.90757,222160
2.91568,221510
2.92380,217327
2.93193,214943
2.94005,211136
2.94817,212341
2.95630,212177
2.96442,213154
2.97255,211170
2.98067,219646
2.98878,226864
2.99692,248867
3.00503,258458
3.01317,243852
3.02128,229858
3.02940,218035
3.03753,211649
3.04565,214581
3.05377,203583
3.06190,207952
3.07002,207872
3.07815,216929
3.08627,226721
3.09438,238645
3.10252,249250
3.11063,227868
3.11877,224954
3.12688,212250
3.13500,205863
3.14313,210838
3.15125,190918
3.15938,212976
3.16750,212909
3.17562,212440
3.18375,210298
3.19187,207068
3.19998,193897
3.20812,208953
3.21623,206227
3.22437,198154
3.23248,198080
3.24060,195704
3.24873,190418
3.25685,197346
3.26498,194163
3.27310,195215
3.28122,191516
3.28935,181226
3.29747,184185
3.30560,187386
3.31372,185554
3.32183,192621
3.32997,198546
3.33808,222805
3.34620,239495
3.35433,249425
3.36245,247162
3.37058,243500
3.37870,249792
3.38682,255190
3.39495,243723
3.40307,221154
3.41120,208585
3.41932,207838
3.42743,204668
3.43557,200996
3.44368,208471
3.45180,213840
3.45993,222111
3.46805,201900
3.47618,195811
3.48430,195405
3.49242,190915
3.50055,188629
3.50867,181416
3.51680,180531
3.52492,182577
3.53303,203851
3.54117,382754
3.54928,1407697
3.55742,5072096
3.56553,1.310769E+07
3.57365,2.23672E+07
3.58178,2.649578E+07
3.58990,2.256181E+07
3.59802,1.475927E+07
3.60615,8789773
3.61427,5932900
3.62240,4581013
3.63052,3791350
3.63863,3294516
3.64677,2908267
3.65488,2640656
3.66302,2410721
3.67113,2223910
3.67925,2074053
3.68738,1921773
3.69550,1804910
3.70363,1693858
3.71175,1627965
3.71987,1560274
3.72800,1525592
3.73612,1503214
3.74423,1589231
3.75237,1880649
3.76048,2392844
3.76862,2870564
3.77673,2989082
3.78485,2774580
3.79298,2407659
3.80110,2049767
3.80923,1825498
3.81735,1650262
3.82547,1502715
3.83360,1439656
3.84172,1367844
3.84985,1292590
3.85797,1241198
3.86608,1207073
3.87422,1178895
3.88233,1118131
3.89045,1086569
3.89858,1044383
3.90670,1038066
3.91483,1000325
3.92295,975738
3.93107,956847
3.93920,931915
3.94732,889161
3.95545,902313
3.96357,868371
3.97168,851267
3.97982,838672
3.98793,824110
3.99605,795056
4.00418,787088
4.01230,773879
4.02043,759617
4.02855,768911
4.03667,777483
4.04480,816461
4.05292,825783
4.06105,784041
4.06917,767686
4.07728,725940
4.08542,687586
4.09353,697402
4.10167,733141
4.10978,874453
4.11790,1263921
4.12603,1873040
4.13415,2367222
4.14227,2437729
4.15040,2020664
4.15852,1503953
4.16665,1101122
4.17477,898755
4.18288,799852
4.19102,772690
4.19913,752044
4.20727,710325
4.21538,722925
4.22350,719205
4.23163,705909
4.23975,666652
4.24788,641739
4.25600,613846
4.26412,599610
4.27225,592894
4.28037,577272
4.28848,581331
4.29662,562861
4.30473,548869
4.31287,544827
4.32098,535935
4.32910,544485
4.33723,628560
4.34535,868405
4.35348,1349675
4.36160,1943914
4.36972,2262983
4.37785,2117906
4.38597,1697841
4.39408,1262459
4.40222,1083582
4.41033,911276
4.41847,758483
4.42658,681478
4.43470,630397
4.44283,612870
4.45095,595525
4.45908,554563
4.46720,536448
4.47532,533328
4.48345,511235
4.49157,501090
4.49970,494615
4.50782,489527
4.51593,475844
4.52407,465365
4.53218,459159
4.54030,457897
4.54843,458146
4.55655,447046
4.56468,443183
4.57280,467071
4.58092,439488
4.58905,440589
4.59717,433566
4.60530,439352
4.61342,458686
4.62153,506432
4.62967,466205
4.63778,464255
4.64592,437812
4.65403,457058
4.66215,420093
4.67028,402436
4.67840,391243
4.68652,391156
4.69465,394595
4.70277,386970
4.71090,412423
4.71902,380815
4.72713,385682
4.73527,373775
4.74338,364831
4.75152,374208
4.75963,374566
4.76775,369749
4.77588,368091
4.78400,370116
4.79212,435035
4.80025,714416
4.80837,1549327
4.81650,3169840
4.82462,4991812
4.83273,5843334
4.84087,5133099
4.84898,3449286
4.85712,2077858
4.86523,1304676
4.87335,1000649
4.88148,824263
4.88960,754781
4.89773,693816
4.90585,668684
4.91397,701290
4.92210,926075
4.93022,1631576
4.93833,2938786
4.94647,4512186
4.95458,5368747
4.96272,4827711
4.97083,3519835
4.97895,2244646
4.98708,1454832
4.99520,1052198
5.00333,876957
5.01145,775753
5.01957,712936
5.02770,694060
5.03582,628491
5.04395,613455
5.05207,572644
5.06018,573033
5.06832,566261
5.07643,555251
5.08455,551682
5.09268,521362
5.10080,506441
5.10893,503430
5.11705,485413
5.12517,473346
5.13330,479386
5.14142,459418
5.14955,447486
5.15767,448028
5.16578,439222
5.17392,442813
5.18203,462918
5.19017,446952
5.19828,418968
5.20640,426042
5.21453,412910
5.22265,412671
5.23077,411287
5.23890,422349
5.24702,432200
5.25515,446882
5.26327,500276
5.27138,569544
5.27952,596554
5.28763,559687
5.29577,518225
5.30388,452326
5.31200,425758
5.32013,406093
5.32825,402786
5.33637,391766
5.34450,385965
5.35262,408367
5.36075,378175
5.36887,376546
5.37698,371038
5.38512,381522
5.39323,358484
5.40137,361902
5.40948,364114
5.41760,343611
5.42573,343319
5.43385,346046
5.44198,339574
5.45010,337736
5.45822,344597
5.46635,338193
5.47447,336014
5.48258,334077
5.49072,331537
5.49883,334288
5.50697,343632
5.51508,335491
5.52320,334810
5.53133,336930
5.53945,339972
5.54758,344507
5.55570,345997
5.56382,344464
5.57195,340173
5.58007,340424
5.58820,340603
5.59632,341869
5.60443,334452
5.61257,333823
5.62068,347160
5.62880,348058
5.63693,338893
5.64505,343010
5.65318,350023
5.66130,355461
5.66942,386396
5.67755,470742
5.68567,646794
5.69380,798199
5.70192,815859
5.71003,716868
5.71817,597919
5.72628,503961
5.73440,464927
5.74253,419332
5.75065,401653
5.75878,390640
5.76690,398154
5.77502,430553
5.78315,582895
5.79127,834077
5.79940,1025123
5.80752,1031050
5.81563,850306
5.82377,700251
5.83188,632813
5.84002,650274
5.84813,668297
5.85625,628032
5.86438,529615
5.87250,487308
5.88062,441392
5.88875,412393
5.89687,413688
5.90500,396258
5.91312,404822
5.92123,384543
5.92937,390330
5.93748,396002
5.94562,389278
5.95373,388147
5.96185,396447
5.96998,388092
5.97810,393253
5.98623,391375
5.99435,392591
6.00247,390694
6.01060,422974
6.01872,412386
6.02683,407211
6.03497,422336
6.04308,406591
6.05122,405273
6.05933,384545
6.06745,368995
6.07558,338403
6.08370,308407
6.09183,307077
6.09995,296266
6.10807,281532
6.11620,287351
6.12432,276221
6.13243,282334
6.14057,287138
6.14868,330399
6.15682,412080
6.16493,512746
6.17305,546085
6.18118,505859
6.18930,430670
6.19743,341775
6.20555,296211
6.21367,276878
6.22180,258151
6.22992,253277
6.23805,253540
6.24617,247839
6.25428,236205
6.26242,237462
6.27053,249091
6.27865,246247
6.28678,238442
6.29490,233673
6.30303,241816
6.31115,228686
6.31927,220244
6.32740,228694
6.33552,221338
6.34365,221754
6.35177,229059
6.35988,219516
6.36802,227397
6.37613,224732
6.38427,227038
6.39238,226876
6.40050,213910
6.40863,215789
6.41675,207392
6.42487,215172
6.43300,214550
6.44112,206054
6.44925,202049
6.45737,197865
6.46548,195402
6.47362,193526
6.48173,199772
6.48987,194391
6.49798,196310
6.50610,191018
6.51423,200312
6.52235,197013
6.53048,193318
6.53860,193473
6.54672,209007
6.55485,213428
6.56297,198208
6.57108,212147
6.57922,211407
6.58733,212734
6.59547,233688
6.60358,216676
6.61170,223760
6.61983,207544
6.62795,202344
6.63608,198057
6.64420,193935
6.65232,187975
6.66045,190698
6.66857,182972
6.67668,183509
6.68482,179319
6.69293,178128
6.70107,179726
6.70918,179621
6.71730,184539
6.72543,180852
6.73355,188643
6.74168,190468
6.74980,211449
6.75792,227908
6.76605,234691
6.77417,231319
6.78230,220393
6.79042,199811
6.79853,201840
6.80667,200119
6.81478,181938
6.82290,181117
6.83103,179962
6.83915,185833
6.84728,185520
6.85540,181324
6.86352,177209
6.87165,179022
6.87977,178163
6.88790,165296
6.89602,171589
6.90413,168227
6.91227,173064
6.92038,169343
6.92852,171746
6.93663,177998
6.94475,180044
6.95288,184108
6.96100,184315
6.96912,184028
6.97725,178471
6.98537,168113
6.99350,169740
7.00162,162095
7.00973,161603
7.01787,164744
7.02598,168142
7.03412,172802
7.04223,172231
7.05035,166706
7.05848,159138
7.06660,149799
7.07472,146094
7.08285,141433
7.09097,141947
7.09910,136644
7.10722,134465
7.11533,126550
7.12347,126065
7.13158,129733
7.13972,124438
7.14783,130194
7.15595,125127
7.16408,130410
7.17220,122436
7.18033,130047
7.18845,126782
7.19657,125342
7.20470,132019
7.21282,157257
7.22093,217580
7.22907,333796
7.23718,502846
7.24532,667462
7.25343,752673
7.26155,858727
7.26968,1011684
7.27780,1246626
7.28593,1417010
7.29405,1353707
7.30217,1072642
7.31030,753637
7.31842,487524
7.32655,322960
7.33467,233158
7.34278,203171
7.35092,180318
7.35903,168189
7.36715,161014
7.37528,154781
7.38340,142865
7.39153,133656
7.39965,125912
7.40777,121871
7.41590,125537
7.42402,130927
7.43215,136832
7.44027,145748
7.44838,154058
7.45652,144239
7.46463,140342
7.47275,146156
7.48088,139541
7.48900,144144
7.49713,140367
7.50525,132158
7.51337,145428
7.52150,147352
7.52962,164387
7.53775,184427
7.54587,193250
7.55398,204233
7.56212,191956
7.57023,179529
7.57837,162002
7.58648,159604
7.59460,145723
7.60273,140801
7.61085,130989
7.61897,138665
7.62710,133657
7.63522,129595
7.64335,119361
7.65147,120411
7.65958,120198
7.66772,126116
7.67583,128420
7.68397,132812
7.69208,131557
7.70020,130609
7.70833,130883
7.71645,126995
7.72458,120544
7.73270,125982
7.74082,132949
7.74895,142813
7.75707,145159
7.76518,129887
7.77332,130762
7.78143,117019
7.78957,120122
7.79768,115954
7.80580,125891
7.81393,117695
7.82205,121104
7.83018,112706
7.83830,115620
7.84642,111011
7.85455,110275
7.86267,104500
7.87080,110916
7.87892,114671
7.88703,117836
7.89517,113208
7.90328,119678
7.91140,119438
7.91953,119062
7.92765,132647
7.93578,186118
7.94390,246789
7.95202,336272
7.96015,374339
7.96827,371142
7.97640,321938
7.98452,238389
7.99263,186291
8.00077,145403
8.00888,125702
8.01700,127850
8.02513,121237
8.03325,113453
8.04138,113725
8.04950,102215
8.05762,101457
8.06575,100919
8.07387,100890
8.08200,103979
8.09012,102582
8.09823,102639
8.10637,98012
8.11448,105157
8.12262,97066
8.13073,105179
8.13885,99089
8.14698,108849
8.15510,118206
8.16322,138134
8.17135,152596
8.17947,175369
8.18760,170608
8.19572,156680
8.20383,133007
8.21197,122340
8.22008,112150
8.22822,99489
8.23633,109261
8.24445,98498
8.25258,102372
8.26070,108421
8.26883,97560
8.27695,98347
8.28507,96261
8.29320,96761
8.30132,97619
8.30943,92045
8.31757,99217
8.32568,100913
8.33382,101936
8.34193,112216
8.35005,106019
8.35818,110497
8.36630,101269
8.37443,97053
8.38255,95996
8.39067,94053
8.39880,91459
8.40692,92537
8.41503,88242
8.42317,91017
8.43128,98833
8.43942,96107
8.44753,93467
8.45565,106059
8.46378,119311
8.47190,135454
8.48003,143238
8.48815,143436
8.49627,133347
8.50440,125828
8.51252,118351
8.52065,112283
8.52877,103424
8.53688,116158
8.54502,106449
8.55313,114186
8.56125,104645
8.56938,112523
8.57750,132150
8.58563,172819
8.59375,266571
8.60187,405447
8.61000,526839
8.61812,585594
8.62625,554004
8.63437,454251
8.64248,378329
8.65062,302568
8.65873,246615
8.66687,215222
8.67498,200822
8.68310,211291
8.69123,203499
8.69935,210264
8.70747,209542
8.71560,207945
8.72372,212191
8.73185,201200
8.73997,199871
8.74808,197550
8.75622,198162
8.76433,186589
8.77247,182364
8.78058,185651
8.78870,183275
8.79683,176812
8.80495,169211
8.81307,172377
8.82120,172144
8.82932,183761
8.83745,170797
8.84557,170360
8.85368,174435
8.86182,174994
8.86993,161319
8.87807,164480
8.88618,166974
8.89430,166956
8.90243,163788
8.91055,160436
8.91868,165936
8.92680,166182
8.93492,188553
8.94305,194543
8.95117,201091
8.95928,189764
8.96742,172929
8.97553,167299
8.98367,153283
8.99178,148025
8.99990,144880
9.00803,152984
9.01615,140648
9.02428,136910
9.03240,154862
9.04052,142614
9.04865,137912
9.05677,135363
9.06490,134832
9.07302,141406
9.08113,132762
9.08927,129822
9.09738,130921
9.10550,130515
9.11363,124098
9.12175,133227
9.12988,124037
9.13800,125149
9.14612,124781
9.15425,125729
9.16237,122718
9.17050,131649
9.17862,126422
9.18673,131973
9.19487,147207
9.20298,167259
9.21112,170710
9.21923,187165
9.22735,173970
9.23548,161037
9.24360,132227
9.25172,127158
9.25985,124541
9.26797,126268
9.27610,132159
9.28422,130266
9.29233,122950
9.30047,120052
9.30858,120781
9.31672,118816
9.32483,123452
9.33295,166933
9.34108,374596
9.34920,1107012
9.35732,3184890
9.36545,7686192
9.37357,1.470699E+07
9.38170,2.222075E+07
9.38982,2.675584E+07
9.39793,2.601913E+07
9.40607,2.046366E+07
9.41418,1.251784E+07
9.42232,6382441
9.43043,3032928
9.43855,1569663
9.44668,936671
9.45480,717586
9.46293,708712
9.47105,877236
9.47917,1129804
9.48730,1348505
9.49542,1441561
9.50353,1462800
9.51167,1402006
9.51978,1321966
9.52792,1227388
9.53603,1169413
9.54415,1110716
9.55228,1058998
9.56040,1016515
9.56853,959710
9.57665,920025
9.58477,885936
9.59290,850973
9.60102,811514
9.60915,798369
9.61727,779387
9.62538,762924
9.63352,745328
9.64163,736167
9.64975,706307
9.65788,709329
9.66600,705467
9.67413,690079
9.68225,665379
9.69037,647039
9.69850,642840
9.70662,622174
9.71475,609073
9.72287,603131
9.73098,559562
9.73912,570302
9.74723,553837
9.75535,552467
9.76348,534057
9.77160,513253
9.77973,501366
9.78785,526437
9.79597,494981
9.80410,474533
9.81222,475839
9.82035,459234
9.82847,453100
9.83658,439231
9.84472,439191
9.85283,439639
9.86097,433091
9.86908,432879
9.87720,436151
9.88533,429090
9.89345,449993
9.90157,456046
9.90970,449056
9.91782,429148
9.92595,416714
9.93407,397659
9.94218,387708
9.95032,380875
9.95843,382301
9.96657,369971
9.97468,377848
9.98280,372218
9.99093,347094
9.99905,349111
10.00718,362696
10.01530,348035
10.02342,339045
10.03155,350962
10.03967,333500
10.04778,333848
10.05592,316470
10.06403,332962
10.07217,326531
10.08028,306450
10.08840,320434
10.09653,306113
10.10465,297985
10.11278,292169
10.12090,285879
10.12902,287666
10.13715,289572
10.14527,292584
10.15338,306487
10.16152,316584
10.16963,353702
10.17777,367917
10.18588,398728
10.19400,379661
10.20213,389272
10.21025,406760
10.21838,459417
10.22650,482596
10.23462,480251
10.24275,402123
10.25087,336537
10.25900,295552
10.26712,262891
10.27523,248308
10.28337,261844
10.29148,247632
10.29960,248149
10.30773,265080
10.31585,258072
10.32398,262536
10.33210,266925
10.34022,275723
10.34835,267968
10.35647,259326
10.36460,247036
10.37272,245089
10.38083,225858
10.38897,217710
10.39708,212158
10.40522,218716
10.41333,222961
10.42145,249781
10.42958,298790
10.43770,393813
10.44582,472460
10.45395,526194
10.46207,499151
10.47020,417179
10.47832,331750
10.48643,257660
10.49457,231391
10.50268,212195
10.51082,196651
10.51893,195522
10.52705,199925
10.53518,206027
10.54330,206358
10.55143,202117
10.55955,194724
10.56767,194949
10.57580,190917
10.58392,192074
10.59203,183740
10.60017,189431
10.60828,190827
10.61642,187469
10.62453,184556
10.63265,185488
10.64078,186616
10.64890,194833
10.65703,178589
10.66515,180803
10.67327,182747
10.68140,184748
10.68952,168154
10.69763,164437
10.70577,163716
10.71388,171087
10.72202,165305
10.73013,163527
10.73825,163745
10.74638,170013
10.75450,156244
10.76263,157932
10.77075,156970
10.77887,153622
10.78700,152563
10.79512,158529
10.80325,173335
10.81137,170573
10.81948,186344
10.82762,205771
10.83573,231244
10.84385,233835
10.85198,217929
10.86010,199950
10.86823,187344
10.87635,169313
10.88447,173868
10.89260,176452
10.90072,185607
10.90885,186021
10.91697,212782
10.92508,266597
10.93322,454694
10.94133,858914
10.94947,1633270
10.95758,2679601
10.96570,3840028
10.97383,4527944
10.98195,4464738
10.99007,3562612
10.99820,2374389
11.00632,1309162
11.01445,655790
11.02257,370750
11.03068,287988
11.03882,304585
11.04693,329575
11.05507,365628
11.06318,348652
11.07130,331397
11.07943,306034
11.08755,277358
11.09567,260510
11.10380,252651
11.11192,235634
11.12005,224671
11.12817,219615
11.13628,207192
11.14442,206891
11.15253,194525
11.16067,187810
11.16878,181993
11.17690,188534
11.18503,181490
11.19315,184984
11.20128,179300
11.20940,173179
11.21752,163547
11.22565,161023
11.23377,161662
11.24188,158741
11.25002,158447
11.25813,159311
11.26627,153373
11.27438,143039
11.28250,155452
11.29063,140558
11.29875,143879
11.30688,138005
11.31500,127448
11.32312,130013
11.33125,128055
11.33937,129870
11.34750,139519
11.35562,128810
11.36373,130237
11.37187,133113
11.37998,138212
11.38810,157464
11.39623,165941
11.40435,196133
11.41248,210815
11.42060,221010
11.42872,208422
11.43685,172492
11.44497,153241
11.45310,139262
11.46122,146927
11.46933,151741
11.47747,166021
11.48558,174790
11.49370,189443
11.50183,182891
11.50995,171762
11.51808,166562
11.52620,167124
11.53432,151819
11.54245,136481
11.55057,133378
11.55870,133296
11.56682,116558
11.57493,118791
11.58307,106379
11.59118,106012
11.59932,107679
11.60743,117183
11.61555,115278
11.62368,138190
11.63180,135078
11.63992,139318
11.64805,140030
11.65617,125791
11.66430,123109
11.67242,118850
11.68053,112024
11.68867,100732
11.69678,106419
11.70492,108524
11.71303,112070
11.72115,121675
11.72928,121661
11.73740,105905
11.74553,102413
11.75365,95459
11.76177,91648
11.76990,96266
11.77802,107687
11.78613,98131
11.79427,101684
11.80238,109025
11.81052,98604
11.81863,94389
11.82675,89543
11.83488,84703
11.84300,88156
11.85113,90159
11.85925,87254
11.86737,86718
11.87550,94437
11.88362,84162
11.89175,90153
11.89987,83655
11.90798,88021
11.91612,82600
11.92423,80831
11.93235,83780
11.94048,85010
11.94860,85698
11.95673,93927
11.96485,94482
11.97297,104888
11.98110,98049
11.98922,93794
11.99735,99308
12.00547,107277
12.01358,107361
12.02172,136474
12.02983,206180
12.03795,308478
12.04608,443260
12.05420,506593
12.06233,493603
12.07045,388654
12.07857,273119
12.08670,192256
12.09482,137087
12.10295,118318
12.11107,117985
12.11918,116733
12.12732,109631
12.13543,112657
12.14357,104137
12.15168,100101
12.15980,98317
12.16793,91282
12.17605,90295
12.18417,90232
12.19230,90859
12.20042,81197
12.20855,77245
12.21667,79080
12.22478,80073
12.23292,90675
12.24103,104175
12.24917,178423
12.25728,364769
12.26540,699694
12.27353,1151392
12.28165,1533480
12.28978,1618681
12.29790,1363553
12.30602,950286
12.31415,539133
12.32227,304775
12.33038,210268
12.33852,179719
12.34663,171971
12.35477,169493
12.36288,156428
12.37100,150360
12.37913,143703
12.38725,137384
12.39538,131413
12.40350,128262
12.41162,120671
12.41975,120082
12.42787,115272
12.43598,119794
12.44412,115241
12.45223,124128
12.46037,123129
12.46848,117907
12.47660,111390
12.48473,109563
12.49285,106486
12.50098,101538
12.50910,96318
12.51722,101058
12.52535,98062
12.53347,103400
12.54160,111761
12.54972,103756
12.55783,105143
12.56597,100700
12.57408,89665
12.58220,89580
12.59033,96808
12.59845,87752
12.60658,95353
12.61470,91573
12.62282,93993
12.63095,95886
12.63907,102076
12.64720,99366
12.65532,95094
12.66343,89417
12.67157,82626
12.67968,84466
12.68782,78674
12.69593,84471
12.70405,74745
12.71218,73865
12.72030,70326
12.72842,79444
12.73655,75694
12.74467,68787
12.75280,71136
12.76092,79912
12.76903,78282
12.77717,87237
12.78528,91806
12.79342,88212
12.80153,84757
12.80965,96706
12.81778,123957
12.82590,164912
12.83403,221133
12.84215,286969
12.85027,285315
12.85840,234746
12.86652,176871
12.87463,125254
12.88277,110289
12.89088,89501
12.89902,87667
12.90713,86614
12.91525,81969
12.92338,78723
12.93150,78135
12.93963,83207
12.94775,70402
12.95587,77867
12.96400,74880
12.97212,74369
12.98023,71002
12.98837,67658
12.99648,72825
13.00462,69123
13.01273,71372
13.02085,81276
13.02898,80616
13.03710,87458
13.04523,99803
13.05335,99093
13.06147,98510
13.06960,97149
13.07772,83605
13.08585,75384
13.09397,74390
13.10208,73375
13.11022,73510
13.11833,71175
13.12645,73450
13.13458,73984
13.14270,65683
13.15083,62977
13.15895,64007
13.16707,64940
13.17520,64332
13.18332,65898
13.19145,62264
13.19957,64843
13.20768,64670
13.21582,61725
13.22393,59593
13.23207,63814
13.24018,57719
13.24830,57440
13.25643,61134
13.26455,54066
13.27267,63452
13.28080,54937
13.28892,57489
13.29705,60805
13.30517,62438
13.31328,52918
13.32142,54191
13.32953,59877
13.33767,58836
13.34578,55418
13.35390,57440
13.36203,61892
13.37015,63487
13.37828,61303
13.38640,61325
13.39452,76465
13.40265,63832
13.41077,65396
13.41888,60989
13.42702,61101
13.43513,55834
13.44327,62559
13.45138,63611
13.45950,54448
13.46763,54554
13.47575,56471
13.48388,58161
13.49200,55517
13.50012,52221
13.50825,61188
13.51637,53250
13.52448,49137
13.53262,58220
13.54073,48736
13.54887,48597
13.55698,51642
13.56510,45890
13.57323,52561
13.58135,49862
13.58948,58092
13.59760,53250
13.60572,56166
13.61385,55506
13.62197,47816
13.63010,45796
13.63822,52483
13.64633,52751
13.65447,47998
13.66258,53537
13.67070,53010
13.67883,49182
13.68695,50920
13.69508,50279
13.70320,51294
13.71132,52335
13.71945,58029
13.72757,69231
13.73570,90801
13.74382,136081
13.75193,224661
13.76007,311987
13.76818,350197
13.77632,329879
13.78443,249880
13.79255,187052
13.80068,126982
13.80880,109284
13.81692,88642
13.82505,77555
13.83317,81878
13.84130,82478
13.84942,83177
13.85753,81759
13.86567,74288
13.87378,73731
13.88192,64997
13.89003,62365
13.89815,59928
13.90628,59214
13.91440,56588
13.92252,56640
13.93065,62614
13.93877,61995
13.94690,68324
13.95502,81662
13.96313,90545
13.97127,112495
13.97938,119972
13.98752,119057
13.99563,101829
14.00375,100200
14.01188,86933
14.02000,80204
14.02813,76804
14.03625,68598
14.04437,67165
14.05250,56327
14.06062,59748
14.06873,60639
14.07687,59919
14.08498,64731
14.09312,61689
14.10123,58354
14.10935,60056
14.11748,59028
14.12560,54866
14.13373,56753
14.14185,55364
14.14997,54217
14.15810,57522
14.16622,55994
14.17435,67210
14.18247,54619
14.19058,54250
14.19872,53071
14.20683,53439
14.21495,53019
14.22308,55665
14.23120,51431
14.23933,53110
14.24745,56609
14.25557,61647
14.26370,65673
14.27182,56594
14.27995,60763
14.28807,59134
14.29618,64543
14.30432,75686
14.31243,90487
14.32055,106386
14.32868,127404
14.33680,139432
14.34493,132403
14.35305,108875
14.36117,87507
14.36930,78159
14.37742,71637
14.38555,72392
14.39367,86530
14.40178,126065
14.40992,186258
14.41803,227308
14.42617,271971
14.43428,273231
14.44240,266282
14.45053,228294
14.45865,210305
14.46677,184560
14.47490,160380
14.48302,155876
14.49115,146547
14.49927,137320
14.50738,119772
14.51552,124793
14.52363,113894
14.53177,117524
14.53988,124556
14.54800,110130
14.55613,107914
14.56425,102017
14.57238,97206
14.58050,92313
14.58862,88244
14.59675,88653
14.60487,82344
14.61298,75570
14.62112,76448
14.62923,71269
14.63737,66421
14.64548,62602
14.65360,59502
14.66173,57569
14.66985,63591
14.67798,58010
14.68610,67104
14.69422,72644
14.70235,67373
14.71047,72443
14.71860,60618
14.72672,59675
14.73483,59828
14.74297,58209
14.75108,54942
14.75920,56013
14.76733,57613
14.77545,54630
14.78358,59452
14.79170,57890
14.79982,62206
14.80795,61233
14.81607,63329
14.82420,54180
14.83232,54528
14.84043,49798
14.84857,51709
14.85668,47575
14.86480,50485
14.87293,56869
14.88105,55866
14.88918,60155
14.89730,57959
14.90542,50094
14.91355,46023
14.92167,48297
14.92980,45758
14.93792,47026
14.94603,53552
14.95417,58104
14.96228,48571
14.97042,51216
14.97853,48904
14.98665,57149
14.99478,52921
15.00290,51446
15.01102,49544
15.01915,48810
15.02727,48842
15.03540,48438
15.04352,63246
15.05163,56566
15.05977,60033
15.06788,78517
15.07602,101552
15.08413,143384
15.09225,146396
15.10038,140833
15.10850,126254
15.11663,100734
15.12475,80716
15.13287,70451
15.14100,63082
15.14912,66972
15.15723,67533
15.16537,55770
15.17348,56085
15.18162,56236
15.18973,57787
15.19785,53078
15.20598,50322
15.21410,52882
15.22223,53234
15.23035,52658
15.23847,51232
15.24660,51858
15.25472,58586
15.26283,53984
15.27097,68434
15.27908,59763
15.28722,58620
15.29533,55650
15.30345,63358
15.31158,53981
15.31970,55988
15.32783,50476
15.33595,50722
15.34407,48283
15.35220,52964
15.36032,54861
15.36845,47912
15.37657,48598
15.38468,47399
15.39282,46354
15.40093,53374
15.40905,47578
15.41718,45703
15.42530,51745
15.43343,49022
15.44155,47798
15.44967,57053
15.45780,48695
15.46592,44786
15.47405,46030
15.48217,45841
15.49028,46939
15.49842,46033
15.50653,50961
15.51467,45882
15.52278,44140
15.53090,48424
15.53903,45518
15.54715,48408
15.55527,54889
15.56340,49304
15.57152,47885
15.57965,50843
15.58777,49140
15.59588,52664
15.60402,48911
15.61213,48031
15.62027,45545
15.62838,46329
15.63650,48245
15.64463,53693
15.65275,48453
15.66087,51641
15.66900,52042
15.67712,49561
15.68525,46888
15.69337,48669
15.70148,45725
15.70962,47484
15.71773,43290
15.72587,41852
15.73398,43510
15.74210,40357
15.75023,44666
15.75835,43871
15.76648,44880
15.77460,49369
15.78272,43771
15.79085,41022
15.79897,51798
15.80708,54725
15.81522,61481
15.82333,74081
15.83147,79401
15.83958,74135
15.84770,65122
15.85583,61402
15.86395,51783
15.87208,45529
15.88020,52225
15.88832,46005
15.89645,55636
15.90457,50804
15.91270,47660
15.92082,45702
15.92893,47077
15.93707,44878
15.94518,43797
15.95330,44233
15.96143,44614
15.96955,40017
15.97768,41517
15.98580,40344
15.99392,46095
16.00205,43807
16.01017,46622
16.01830,53833
16.02642,44559
16.03453,43798
16.04267,44266
16.05078,48291
16.05892,53031
16.06703,69256
16.07515,82459
16.08328,97316
16.09140,97665
16.09952,89293
16.10765,72840
16.11577,59585
16.12390,65876
16.13202,54336
16.14013,53923
16.14827,63056
16.15638,79034
16.16452,94891
16.17263,120506
16.18075,150442
16.18888,166807
16.19700,149914
16.20512,126583
16.21325,96739
16.22137,84554
16.22950,72367
16.23762,68875
16.24573,67028
16.25387,70106
16.26198,73190
16.27012,87169
16.27823,84118
16.28635,87086
16.29448,78628
16.30260,69790
16.31073,65858
16.31885,60704
16.32697,61265
16.33510,65402
16.34322,57553
16.35133,60767
16.35947,52257
16.36758,51285
16.37572,62553
16.38383,49903
16.39195,53746
16.40008,51393
16.40820,53180
16.41633,53890
16.42445,53089
16.43257,49902
16.44070,50428
16.44882,51041
16.45695,49448
16.46507,47184
16.47318,49623
16.48132,49276
16.48943,52532
16.49755,52724
16.50568,52960
16.51380,51582
16.52193,52087
16.53005,51869
16.53817,52571
16.54630,59752
16.55442,48220
16.56255,52035
16.57067,47228
16.57878,48419
16.58692,47624
16.59503,49626
16.60315,48525
16.61128,49622
16.61940,50234
16.62753,56496
16.63565,53898
16.64377,51018
16.65190,52948
16.66002,58780
16.66815,59105
16.67627,70293
16.68438,58825
16.69252,59997
16.70063,63782
16.70877,64233
16.71688,53385
16.72500,52875
16.73313,51938
16.74125,60184
16.74937,50491
16.75750,49271
16.76562,51821
16.77375,53329
16.78187,53270
16.78998,46135
16.79812,55304
16.80623,53038
16.81437,53979
16.82248,52491
16.83060,53904
16.83873,51295
16.84685,61892
16.85498,51295
16.86310,51256
16.87122,45789
16.87935,45268
16.88747,46051
16.89558,46483
16.90372,45669
16.91183,50429
16.91997,51008
16.92808,49212
16.93620,52959
16.94433,57032
16.95245,66819
16.96058,81561
16.96870,87664
16.97682,73795
16.98495,70048
16.99307,73551
17.00118,60632
17.00932,59558
17.01743,61332
17.02557,74175
17.03368,96177
17.04180,117146
17.04993,137437
17.05805,140755
17.06618,134414
17.07430,110234
17.08242,87781
17.09055,72073
17.09867,62882
17.10680,65229
17.11492,55945
17.12303,50181
17.13117,49821
17.13928,49445
17.14740,47562
17.15553,50694
17.16365,50276
17.17178,47425
17.17990,50795
17.18802,51497
17.19615,48500
17.20427,44711
17.21240,56131
17.22052,47834
17.22863,47463
17.23677,58657
17.24488,46174
17.25302,46949
17.26113,45903
17.26925,53074
17.27738,43256
17.28550,39890
17.29362,45892
17.30175,53493
17.30987,51230
17.31800,43858
17.32612,43222
17.33423,50344
17.34237,44172
17.35048,43843
17.35862,50355
17.36673,40306
17.37485,52365
17.38298,48503
17.39110,58940
17.39923,49916
17.40735,56936
17.41547,45899
17.42360,54616
17.43172,48916
17.43983,51150
17.44797,44743
17.45608,44924
17.46422,44633
17.47233,43251
17.48045,41539
17.48858,45515
17.49670,43451
17.50483,43949
17.51295,47109
17.52107,43443
17.52920,50760
17.53732,53561
17.54543,45219
17.55357,52004
17.56168,46544
17.56982,47840
17.57793,55235
17.58605,47242
17.59418,45694
17.60230,44067
17.61043,53654
17.61855,44332
17.62667,47648
17.63480,48796
17.64292,60201
17.65105,54856
17.65917,60491
17.66728,70046
17.67542,56722
17.68353,62750
17.69165,58377
17.69978,55075
17.70790,56452
17.71603,55242
17.72415,51613
17.73227,52969
17.74040,49272
17.74852,49580
17.75665,52694
17.76477,48939
17.77288,49389
17.78102,52536
17.78913,49008
17.79727,47670
17.80538,56252
17.81350,47889
17.82163,47892
17.82975,48173
17.83787,50270
17.84600,47761
17.85412,49418
17.86225,52371
17.87037,49568
17.87848,51253
17.88662,45880
17.89473,43958
17.90287,48848
17.91098,45450
17.91910,49644
17.92723,51560
17.93535,52983
17.94347,58388
17.95160,58252
17.95972,66646
17.96785,67076
17.97597,75867
17.98408,73690
17.99222,79014
18.00033,68473
18.00847,64131
18.01658,63139
18.02470,57242
18.03283,56863
18.04095,53656
18.04908,55956
18.05720,50537
18.06532,46828
18.07345,52498
18.08157,51735
18.08968,46610
18.09782,56997
18.10593,47434
18.11407,49809
18.12218,47790
18.13030,50359
18.13843,52125
18.14655,49960
18.15468,50439
18.16280,51553
18.17092,47734
18.17905,50174
18.18717,48139
18.19530,47874
18.20342,47945
18.21153,50189
18.21967,51671
18.22778,59763
18.23590,49017
18.24403,49138
18.25215,47562
18.26028,47083
18.26840,43512
18.27652,41938
18.28465,44546
18.29277,44686
18.30090,48343
18.30902,42857
18.31713,48181
18.32527,51569
18.33338,44787
18.34150,48818
18.34963,46031
18.35775,61287
18.36588,50556
18.37400,54824
18.38212,54287
18.39025,54425
18.39837,53127
18.40650,57627
18.41462,64950
18.42273,74792
18.43087,78177
18.43898,83515
18.44712,78276
18.45523,76738
18.46335,71402
18.47148,71051
18.47960,69162
18.48772,59320
18.49585,58108
18.50397,55658
18.51210,54368
18.52022,49191
18.52833,50912
18.53647,50357
18.54458,61139
18.55272,47968
18.56083,48423
18.56895,44926
18.57708,49748
18.58520,45951
18.59333,54206
18.60145,55137
18.60957,56413
18.61770,50685
18.62582,52764
18.63393,54523
18.64207,65348
18.65018,62367
18.65832,59443
18.66643,56781
18.67455,58868
18.68268,59577
18.69080,56724
18.69893,63979
18.70705,63015
18.71517,69367
18.72330,69197
18.73142,62614
18.73955,58394
18.74767,58633
18.75578,64842
18.76392,58964
18.77203,57782
18.78015,59699
18.78828,57861
18.79640,59836
18.80453,59522
18.81265,54424
18.82077,54260
18.82890,62257
18.83702,65483
18.84515,73212
18.85327,76962
18.86138,84582
18.86952,90613
18.87763,82363
18.88575,78386
18.89388,74969
18.90200,63478
18.91013,74634
18.91825,65764
18.92637,79688
18.93450,94920
18.94262,124655
18.95075,147746
18.95887,158209
18.96698,155519
18.97512,122273
18.98323,98762
18.99137,81817
18.99948,70790
19.00760,65548
19.01573,57153
19.02385,54650
19.03197,52531
19.04010,56142
19.04822,49435
19.05635,50402
19.06447,49976
19.07258,54066
19.08072,50043
19.08883,53171
19.09697,53021
19.10508,53071
19.11320,50653
19.12133,55296
19.12945,60599
19.13758,60577
19.14570,54903
19.15382,54996
19.16195,50643
19.17007,52519
19.17818,49736
19.18632,47320
19.19443,54057
19.20257,50519
19.21068,46026
19.21880,49200
19.22693,49772
19.23505,47126
19.24318,43491
19.25130,45543
19.25942,45698
19.26755,47241
19.27567,45491
19.28378,45489
19.29192,42523
19.30003,45682
19.30817,46671
19.31628,44801
19.32440,54417
19.33253,48050
19.34065,48473
19.34878,45615
19.35690,55229
19.36502,47217
19.37315,44947
19.38127,47005
19.38940,47441
19.39752,41709
19.40563,42750
19.41377,39423
19.42188,44429
19.43000,43301
19.43813,45198
19.44625,49841
19.45438,54697
19.46250,54917
19.47062,56176
19.47875,63408
19.48687,68817
19.49500,77067
19.50312,79497
19.51123,88325
19.51937,79951
19.52748,81502
19.53562,76067
19.54373,73893
19.55185,73502
19.55998,71094
19.56810,71426
19.57622,67611
19.58435,68677
19.59247,72254
19.60060,61066
19.60872,59965
19.61683,64310
19.62497,74121
19.63308,63117
19.64122,73639
19.64933,69737
19.65745,65230
19.66558,64204
19.67370,58036
19.68182,58380
19.68995,55459
19.69807,60374
19.70620,54412
19.71432,57671
19.72243,58854
19.73057,53196
19.73868,52209
19.74682,52337
19.75493,54826
19.76305,55993
19.77118,65336
19.77930,79555
19.78743,112252
19.79555,146410
19.80367,162194
19.81180,162032
19.81992,136213
19.82803,108389
19.83617,90625
19.84428,72504
19.85242,69092
19.86053,56604
19.86865,54275
19.87678,57741
19.88490,53031
19.89303,49040
19.90115,51629
19.90927,49060
19.91740,57456
19.92552,52298
19.93365,50207
19.94177,53049
19.94988,49396
19.95802,46662
19.96613,62942
19.97425,62426
19.98238,81291
19.99050,128645
19.99863,223510
20.00675,342408
20.01487,470966
20.02300,559832
20.03112,564925
20.03925,493476
20.04737,379644
20.05548,291468
20.06362,213216
20.07173,169119
20.07987,153319
20.08798,130455
20.09610,119699
20.10423,108791
20.11235,102889
20.12047,92171
20.12860,88827
20.13672,80648
20.14485,82090
20.15297,71877
20.16108,64200
20.16922,76532
20.17733,63314
20.18547,64562
20.19358,64186
20.20170,53667
20.20983,53269
20.21795,57954
20.22607,51917
20.23420,53940
20.24232,54863
20.25045,54515
20.25857,53090
20.26668,54316
20.27482,66656
20.28293,64461
20.29107,74900
20.29918,87996
20.30730,94568
20.31543,107299
20.32355,95726
20.33168,88177
20.33980,92647
20.34792,89033
20.35605,83919
20.36417,83635
20.37228,85127
20.38042,85915
20.38853,81294
20.39667,81907
20.40478,77542
20.41290,79502
20.42103,75765
20.42915,72662
20.43728,82279
20.44540,69364
20.45352,71844
20.46165,63160
20.46977,75485
20.47790,67449
20.48602,73989
20.49413,68320
20.50227,74713
20.51038,67170
20.51850,62060
20.52663,61438
20.53475,59446
20.54288,60985
20.55100,58741
20.55912,63017
20.56725,77295
20.57537,112862
20.58350,174936
20.59162,238023
20.59973,307536
20.60787,350795
20.61598,334824
20.62410,294038
20.63223,251619
20.64035,211112
20.64848,159809
20.65660,136014
20.66472,119022
20.67285,110146
20.68097,99972
20.68910,74934
20.69722,74980
20.70533,62385
20.71347,62352
20.72158,60682
20.72972,66044
20.73783,68253
20.74595,87553
20.75408,102751
20.76220,127212
20.77032,144912
20.77845,145651
20.78657,141516
20.79470,130587
20.80282,114103
20.81093,112122
20.81907,95009
20.82718,88630
20.83532,74034
20.84343,80887
20.85155,62966
20.85968,60916
20.86780,59306
20.87593,57183
20.88405,53299
20.89217,54571
20.90030,51445
20.90842,57436
20.91653,50256
20.92467,48845
20.93278,52209
20.94092,59730
20.94903,47119
20.95715,48679
20.96528,49028
20.97340,50641
20.98153,48523
20.98965,46163
20.99777,49545
21.00590,50096
21.01402,45860
21.02213,46883
21.03027,50726
21.03838,44352
21.04652,47323
21.05463,46124
21.06275,46357
21.07088,52669
21.07900,45708
21.08713,48954
21.09525,50721
21.10337,48004
21.11150,50825
21.11962,55070
21.12775,51741
21.13587,49308
21.14398,53764
21.15212,49796
21.16023,47214
21.16835,51189
21.17648,59928
21.18460,104391
21.19273,203508
21.20085,450844
21.20897,928439
21.21710,1615034
21.22522,2204841
21.23335,2333577
21.24147,1984300
21.24958,1392222
21.25772,870871
21.26583,529876
21.27397,332069
21.28208,214098
21.29020,158195
21.29833,132880
21.30645,120584
21.31457,106654
21.32270,95573
21.33082,88179
21.33895,86851
21.34707,80119
21.35518,73562
21.36332,69688
21.37143,62153
21.37957,71267
21.38768,61570
21.39580,60872
21.40393,61730
21.41205,56915
21.42018,58236
21.42830,59603
21.43642,56918
21.44455,58638
21.45267,57062
21.46078,55759
21.46892,53485
21.47703,59311
21.48517,54236
21.49328,61228
21.50140,53306
21.50953,58792
21.51765,58622
21.52578,50611
21.53390,52771
21.54202,54586
21.55015,56746
21.55827,58357
21.56638,62541
21.57452,67613
21.58263,75213
21.59077,71556
21.59888,77599
21.60700,70719
21.61513,69797
21.62325,57978
21.63138,58070
21.63950,61236
21.64762,57822
21.65575,66073
21.66387,61026
21.67200,54477
21.68012,61539
21.68823,57754
21.69637,56906
21.70448,59987
21.71260,58445
21.72073,57202
21.72885,52399
21.73698,56272
21.74510,52706
21.75322,56314
21.76135,51698
21.76947,53701
21.77760,58513
21.78572,49525
21.79383,52250
21.80197,50221
21.81008,48730
21.81822,56413
21.82633,52417
21.83445,55884
21.84258,49590
21.85070,55992
21.85882,49801
21.86695,57632
21.87507,49040
21.88320,47885
21.89132,48938
21.89943,47842
21.90757,47892
21.91568,57099
21.92382,68826
21.93193,100605
21.94005,112228
21.94818,124656
21.95630,138378
21.96442,137793
21.97255,118200
21.98067,96000
21.98880,84595
21.99692,74469
22.00503,68712
22.01317,63587
22.02128,64926
22.02942,59750
22.03753,55983
22.04565,57269
22.05378,52926
22.06190,53846
22.07003,54214
22.07815,56692
22.08627,57711
22.09440,60453
22.10252,54561
22.11063,60656
22.11877,64866
22.12688,71207
22.13502,84669
22.14313,105862
22.15125,119360
22.15938,132260
22.16750,130488
22.17563,121672
22.18375,99784
22.19187,90438
22.20000,77684
22.20812,73837
22.21625,71425
22.22437,73097
22.23248,74050
22.24062,69395
22.24873,79651
22.25685,64795
22.26498,60583
22.27310,59804
22.28123,59635
22.28935,64443
22.29747,56712
22.30560,58766
22.31372,53826
22.32185,56118
22.32997,50914
22.33808,52993
22.34622,55432
22.35433,55062
22.36245,58264
22.37058,51703
22.37870,44570
22.38683,52197
22.39495,56575
22.40307,54794
22.41120,50708
22.41932,53262
22.42745,53208
22.43557,53587
22.44368,53289
22.45182,62155
22.45993,56739
22.46807,56517
22.47618,54293
22.48430,58910
22.49243,60979
22.50055,62881
22.50867,88369
22.51680,119940
22.52492,188429
22.53305,249476
22.54117,326109
22.54928,343850
22.55742,312713
22.56553,241099
22.57367,183852
22.58178,138558
22.58990,102594
22.59803,93987
22.60615,92117
22.61428,89780
22.62240,87243
22.63052,78140
22.63865,74796
22.64677,66904
22.65488,62811
22.66302,68810
22.67113,61925
22.67927,63530
22.68738,59542
22.69550,58597
22.70363,58267
22.71175,54547
22.71988,54673
22.72800,56593
22.73612,55808
22.74425,57442
22.75237,56691
22.76050,56192
22.76862,62700
22.77673,58273
22.78487,59428
22.79298,60345
22.80110,66363
22.80923,62519
22.81735,60989
22.82548,60611
22.83360,57968
22.84172,66869
22.84985,53432
22.85797,51860
22.86610,53964
22.87422,58230
22.88233,51475
22.89047,50565
22.89858,62600
22.90670,55195
22.91483,55055
22.92295,61203
22.93108,61535
22.93920,68988
22.94732,65176
22.95545,64817
22.96357,71917
22.97170,71993
22.97982,74537
22.98793,80746
22.99607,81686
23.00418,69666
23.01232,65774
23.02043,59314
23.02855,57701
23.03668,55294
23.04480,54160
23.05292,59385
23.06105,57437
23.06917,55403
23.07730,59753
23.08542,62066
23.09353,59738
23.10167,58442
23.10978,59695
23.11792,58426
23.12603,54183
23.13415,57329
23.14228,62553
23.15040,56862
23.15853,74445
23.16665,75194
23.17477,67708
23.18290,67338
23.19102,66941
23.19913,65090
23.20727,63458
23.21538,60590
23.22352,68442
23.23163,59629
23.23975,55686
23.24788,57542
23.25600,65486
23.26413,57076
23.27225,56274
23.28037,59809
23.28850,66193
23.29662,78407
23.30473,83421
23.31287,96569
23.32098,107243
23.32912,110304
23.33723,108731
23.34535,101504
23.35348,92375
23.36160,95133
23.36973,76594
23.37785,77732
23.38597,77689
23.39410,76280
23.40222,90287
23.41035,92385
23.41847,113599
23.42658,123538
23.43472,136507
23.44283,140537
23.45095,142670
23.45908,135392
23.46720,127766
23.47533,131825
23.48345,119585
23.49157,108613
23.49970,103683
23.50782,98227
23.51595,90417
23.52407,82423
23.53218,85958
23.54032,78225
23.54843,73314
23.55657,77642
23.56468,71783
23.57280,57394
23.58093,64478
23.58905,57912
23.59717,62320
23.60530,58490
23.61342,61830
23.62155,64894
23.62967,58178
23.63778,60917
23.64592,53063
23.65403,58257
23.66217,54799
23.67028,55916
23.67840,52866
23.68653,54031
23.69465,51535
23.70277,52858
23.71090,52924
23.71902,53248
23.72715,52049
23.73527,54501
23.74338,51685
23.75152,61539
23.75963,59307
23.76777,53577
23.77588,62049
23.78400,47752
23.79213,58347
23.80025,58647
23.80838,57566
23.81650,48926
23.82462,48866
23.83275,51919
23.84087,49759
23.84898,51993
23.85712,52198
23.86523,47003
23.87337,56690
23.88148,50378
23.88960,48779
23.89773,56916
23.90585,48239
23.91398,50220
23.92210,51210
23.93022,51098
23.93835,49798
23.94647,54711
23.95460,50691
23.96272,49248
23.97083,61313
23.97897,49033
23.98708,48205
23.99520,47920
24.00333,50399
24.01145,58469
24.01958,57632
24.02770,54606
24.03582,59292
24.04395,66172
24.05207,67326
24.06020,58545
24.06832,61891
24.07643,63717
24.08457,61336
24.09268,65262
24.10082,79355
24.10893,84672
24.11705,80022
24.12518,86317
24.13330,85850
24.14142,92045
24.14955,89956
24.15767,84483
24.16580,84658
24.17392,84147
24.18203,77835
24.19017,73526
24.19828,75522
24.20642,80307
24.21453,121053
24.22265,266165
24.23078,741745
24.23890,1875521
24.24702,3942192
24.25515,6167253
24.26327,7446507
24.27140,7245247
24.27952,6408475
24.28763,5106543
24.29577,3922545
24.30388,2993796
24.31202,2257880
24.32013,1665303
24.32825,1294040
24.33638,994203
24.34450,823887
24.35263,680069
24.36075,565301
24.36887,486567
24.37700,425734
24.38512,367274
24.39323,310345
24.40137,272853
24.40948,232458
24.41762,223709
24.42573,207471
24.43385,208468
24.44198,200947
24.45010,182652
24.45823,173932
24.46635,157573
24.47447,144037
24.48260,140504
24.49072,127150
24.49885,123499
24.50697,121914
24.51508,127705
24.52322,130951
24.53133,131163
24.53945,131306
24.54758,134552
24.55570,126009
24.56383,117308
24.57195,97299
24.58007,100624
24.58820,97942
24.59632,98043
24.60445,97912
24.61257,98248
24.62068,98750
24.62882,116806
24.63693,139275
24.64505,164858
24.65318,205392
24.66130,217071
24.66943,226180
24.67755,213064
24.68567,205366
24.69380,186885
24.70192,183633
24.71005,201348
24.71817,203790
24.72628,196840
24.73442,160947
24.74253,132650
24.75067,127945
24.75878,97348
24.76690,89930
24.77503,81435
24.78315,85014
24.79127,83799
24.79940,91409
24.80752,101357
24.81565,116672
24.82377,117962
24.83188,106540
24.84002,100025
24.84813,88531
24.85627,82789
24.86438,83550
24.87250,80530
24.88063,74028
24.88875,71935
24.89688,69442
24.90500,68397
24.91312,72573
24.92125,72343
24.92937,66987
24.93748,67056
24.94562,67647
24.95373,73883
24.96187,68133
24.96998,68129
24.97810,63002
24.98623,68550
24.99435,67133
25.00248,65437
25.01060,61674
25.01872,59422
25.02685,62284
25.03497,66802
25.04308,64766
25.05122,66164
25.05933,64244
25.06747,65330
25.07558,72508
25.08370,66291
25.09183,68320
25.09995,60304
25.10808,70393
25.11620,69693
25.12432,69196
25.13245,74730
25.14057,81109
25.14870,80312
25.15682,89666
25.16493,80927
25.17307,75764
25.18118,70698
25.18930,73697
25.19743,67608
25.20555,63653
25.21368,64919
25.22180,69068
25.22992,61348
25.23805,74669
25.24617,78472
25.25430,79953
25.26242,75622
25.27053,76271
25.27867,72754
25.28678,72392
25.29492,73586
25.30303,75537
25.31115,74654
25.31928,74207
25.32740,72739
25.33552,72159
25.34365,67301
25.35177,66265
25.35990,68337
25.36802,68649
25.37613,64810
25.38427,62559
25.39238,63535
25.40052,58563
25.40863,58767
25.41675,64433
25.42488,58989
25.43300,58701
25.44113,54669
25.44925,59785
25.45737,61614
25.46550,59193
25.47362,54772
25.48173,55353
25.48987,57313
25.49798,53808
25.50612,63844
25.51423,60040
25.52235,59799
25.53048,56894
25.53860,60893
25.54673,63557
25.55485,59298
25.56297,59321
25.57110,66967
25.57922,62537
25.58733,74492
25.59547,72763
25.60358,79988
25.61172,82409
25.61983,89752
25.62795,100592
25.63608,97924
25.64420,100711
25.65233,97606
25.66045,94404
25.66857,78069
25.67670,72767
25.68482,66544
25.69295,61816
25.70107,70402
25.70918,61594
25.71732,66286
25.72543,56549
25.73355,59228
25.74168,53666
25.74980,66484
25.75793,56581
25.76605,61550
25.77417,72145
25.78230,83485
25.79042,87752
25.79855,84606
25.80667,83776
25.81478,88247
25.82292,80178
25.83103,72556
25.83917,70993
25.84728,66937
25.85540,82559
25.86353,65993
25.87165,67600
25.87977,69018
25.88790,68475
25.89602,63505
25.90415,68741
25.91227,62994
25.92038,59625
25.92852,60869
25.93663,56666
25.94477,55356
25.95288,55696
25.96100,56998
25.96913,56084
25.97725,57028
25.98537,57654
25.99350,57748
26.00162,55414
26.00975,55589
26.01787,58539
26.02598,52297
26.03412,56407
26.04223,56061
26.05037,58514
26.05848,57447
26.06660,59032
26.07473,52101
26.08285,55757
26.09098,51025
26.09910,55870
26.10722,54303
26.11535,56629
26.12347,52089
26.13158,55565
26.13972,51168
26.14783,57035
26.15597,56066
26.16408,58968
26.17220,53470
26.18033,54735
26.18845,51651
26.19658,51292
26.20470,53754
26.21282,52191
26.22095,58181
26.22907,57396
26.23720,55528
26.24532,54970
26.25343,54761
26.26157,54548
26.26968,56834
26.27780,58685
26.28593,67324
26.29405,64580
26.30218,77237
26.31030,89230
26.31842,117443
26.32655,154369
26.33467,193583
26.34280,224638
26.35092,236437
26.35903,242668
26.36717,209958
26.37528,188547
26.38340,160356
26.39153,145452
26.39965,155914
26.40778,187154
26.41590,194829
26.42402,212911
26.43215,174625
26.44027,148391
26.44840,110874
26.45652,96495
26.46463,85255
26.47277,67924
26.48088,66331
26.48902,63670
26.49713,64684
26.50525,60001
26.51338,57955
26.52150,62567
26.52962,65640
26.53775,57408
26.54587,56049
26.55400,58795
26.56212,58687
26.57023,60917
26.57837,60102
26.58648,56222
26.59462,58254
26.60273,56633
26.61085,60494
26.61898,60741
26.62710,64187
26.63523,73136
26.64335,72043
26.65147,74790
26.65960,77914
26.66772,88064
26.67583,78234
26.68397,82810
26.69208,77782
26.70022,76860
26.70833,75991
26.71645,73251
26.72458,64346
26.73270,56982
26.74083,66759
26.74895,59478
26.75707,57930
26.76520,55142
26.77332,66430
26.78145,67091
26.78957,55852
26.79768,54786
26.80582,56843
26.81393,60950
26.82205,52879
26.83018,52522
26.83830,55136
26.84643,53640
26.85455,55987
26.86267,54799
26.87080,60652
26.87892,52029
26.88705,56605
26.89517,54879
26.90328,50093
26.91142,58094
26.91953,52767
26.92765,56757
26.93578,57335
26.94390,53485
26.95203,60715
26.96015,60709
26.96827,63146
26.97640,76415
26.98452,73457
26.99265,82736
27.00077,73969
27.00888,77521
27.01702,69092
27.02513,58581
27.03327,60688
27.04138,70078
27.04950,57572
27.05763,55200
27.06575,60423
27.07387,57198
27.08200,66924
27.09012,59816
27.09825,56735
27.10637,59048
27.11448,54650
27.12262,56319
27.13073,63529
27.13887,59193
27.14698,63486
27.15510,56067
27.16323,64925
27.17135,71157
27.17948,64129
27.18760,69220
27.19572,65380
27.20385,65189
27.21197,71067
27.22008,68383
27.22822,65900
27.23633,70375
27.24447,64294
27.25258,66781
27.26070,68596
27.26883,67821
27.27695,66744
27.28508,65581
27.29320,63674
27.30132,73038
27.30945,74050
27.31757,63135
27.32570,73329
27.33382,62730
27.34193,63367
27.35007,64665
27.35818,60624
27.36630,61325
27.37443,62061
27.38255,58106
27.39068,74406
27.39880,80292
27.40692,100264
27.41505,179545
27.42317,324986
27.43130,609390
27.43942,1036117
27.44753,1521617
27.45567,1929477
27.46378,2115947
27.47190,2141820
27.48003,1924995
27.48815,1646821
27.49628,1312521
27.50440,1074184
27.51252,865981
27.52065,694018
27.52877,556221
27.53690,445830
27.54502,365256
27.55313,311955
27.56127,257431
27.56938,234589
27.57752,197729
27.58563,179161
27.59375,154182
27.60188,148222
27.61000,137573
27.61812,125834
27.62625,119562
27.63437,117194
27.64250,121620
27.65062,123089
27.65873,125817
27.66687,126609
27.67498,132348
27.68312,119110
27.69123,114757
27.69935,105234
27.70748,109133
27.71560,100321
27.72373,94151
27.73185,82123
27.73997,86980
27.74810,85983
27.75622,81373
27.76433,81587
27.77247,77703
27.78058,78946
27.78872,77510
27.79683,78217
27.80495,75593
27.81308,70220
27.82120,76153
27.82933,78171
27.83745,79538
27.84557,76418
27.85370,76079
27.86182,71259
27.86993,75072
27.87807,78304
27.88618,67543
27.89432,64414
27.90243,69412
27.91055,73837
27.91868,73778
27.92680,72199
27.93493,69228
27.94305,73817
27.95117,68544
27.95930,66591
27.96742,62767
27.97555,63909
27.98367,66552
27.99178,64156
27.99992,63449
28.00803,71367
28.01615,61623
28.02428,64840
28.03240,61860
28.04053,59409
28.04865,61719
28.05677,62232
28.06490,64119
28.07302,62997
28.08115,64532
28.08927,61242
28.09738,65911
28.10552,71174
28.11363,74601
28.12177,74992
28.12988,72032
28.13800,71476
28.14613,77288
28.15425,73617
28.16237,71110
28.17050,63427
28.17862,66210
28.18675,60942
28.19487,59111
28.20298,64184
28.21112,62347
28.21923,62681
28.22737,58550
28.23548,60685
28.24360,59107
28.25173,59407
28.25985,58411
28.26798,60310
28.27610,59296
28.28422,60013
28.29235,58832
28.30047,59751
28.30858,62533
28.31672,64690
28.32483,61394
28.33297,71970
28.34108,62408
28.34920,60652
28.35733,59483
28.36545,67034
28.37358,60227
28.38170,61202
28.38982,60469
28.39795,61542
28.40607,60275
28.41418,58575
28.42232,58513
28.43043,59818
28.43857,67094
28.44668,67190
28.45480,65627
28.46293,66635
28.47105,65429
28.47918,60920
28.48730,63913
28.49542,68929
28.50355,73262
28.51167,82160
28.51980,81366
28.52792,81558
28.53603,75310
28.54417,77327
28.55228,64814
28.56040,65933
28.56853,67060
28.57665,71827
28.58478,69721
28.59290,68943
28.60102,71509
28.60915,79592
28.61727,66747
28.62540,64784
28.63352,63104
28.64163,63459
28.64977,61802
28.65788,65021
28.66602,59013
28.67413,57598
28.68225,65470
28.69038,68129
28.69850,82513
28.70662,111841
28.71475,133384
28.72287,167336
28.73100,220030
28.73912,264454
28.74723,319512
28.75537,340239
28.76348,342830
28.77162,356155
28.77973,356198
28.78785,344734
28.79598,342150
28.80410,322823
28.81222,305152
28.82035,298944
28.82847,276652
28.83660,258116
28.84472,242974
28.85283,239694
28.86097,220103
28.86908,207239
28.87722,196208
28.88533,174965
28.89345,165932
28.90158,156500
28.90970,154289
28.91783,139372
28.92595,138940
28.93407,123981
28.94220,125412
28.95032,121351
28.95843,126949
28.96657,108266
28.97468,109974
28.98282,102663
28.99093,100177
28.99905,107165
29.00718,95369
29.01530,91290
29.02343,99567
29.03155,89037
29.03967,84001
29.04780,88140
29.05592,85562
29.06405,97332
29.07217,88401
29.08028,99990
29.08842,108331
29.09653,115606
29.10465,106283
29.11278,103940
29.12090,85672
29.12903,83102
29.13715,73412
29.14527,72865
29.15340,75920
29.16152,78786
29.16965,90363
29.17777,85706
29.18588,87300
29.19402,91529
29.20213,88433
29.21025,80178
29.21838,78110
29.22650,76059
29.23463,75957
29.24275,70431
29.25087,73523
29.25900,79183
29.26712,68036
29.27525,68920
29.28337,76878
29.29148,70135
29.29962,74983
29.30773,69730
29.31587,73841
29.32398,67712
29.33210,76845
29.34023,68268
29.34835,69806
29.35647,64772
29.36460,62761
29.37272,63120
29.38085,61381
29.38897,65710
29.39708,66149
29.40522,67506
29.41333,62970
29.42147,64177
29.42958,59618
29.43770,61461
29.44583,63220
29.45395,64844
29.46208,65700
29.47020,64941
29.47832,67074
29.48645,69179
29.49457,66116
29.50268,83094
29.51082,70121
29.51893,72019
29.52707,67160
29.53518,59978
29.54330,61785
29.55143,60657
29.55955,71118
29.56768,68637
29.57580,60401
29.58392,60339
29.59205,57910
29.60017,61672
29.60830,61983
29.61642,57253
29.62453,59855
29.63267,62273
29.64078,60152
29.64890,63496
29.65703,65438
29.66515,64409
29.67328,65883
29.68140,68064
29.68952,69275
29.69765,76604
29.70577,66260
29.71390,71570
29.72202,68207
29.73013,65489
29.73827,65263
29.74638,64363
29.75450,61781
29.76263,66714
29.77075,63039
29.77888,71124
29.78700,66413
29.79512,71831
29.80325,70754
29.81137,78466
29.81950,73021
29.82762,62868
29.83573,67211
29.84387,59688
29.85198,63230
29.86012,68394
29.86823,67329
29.87635,66276
29.88448,65901
29.89260,66999
29.90072,61252
29.90885,68097
29.91697,62478
29.92510,58634
29.93322,63237
29.94133,62071
29.94947,71838
29.95758,61956
29.96572,65960
29.97383,63198
29.98195,60749
29.99008,55438
29.99820,60274
30.00633,60913
30.01445,67632
30.02257,66368
30.03070,71355
30.03882,74256
30.04693,80841
30.05507,69870
30.06318,72456
30.07132,70085
30.07943,67021
30.08755,65638
30.09568,66705
30.10380,65925
30.11193,69152
30.12005,73722
30.12817,73276
30.13630,81670
30.14442,81875
30.15253,84363
30.16067,90184
30.16878,89025
30.17692,83207
30.18503,88304
30.19315,79922
30.20128,78152
30.20940,76464
30.21753,76225
30.22565,88204
30.23377,76342
30.24190,80761
30.25002,79092
30.25815,80629
30.26627,78948
30.27438,76380
30.28252,67699
30.29063,69743
30.29875,74629
30.30688,79613
30.31500,95783
30.32313,116120
30.33125,141562
30.33937,159782
30.34750,174356
30.35562,182018
30.36375,195467
30.37187,204510
30.37998,206447
30.38812,206782
30.39623,198536
30.40437,200407
30.41248,204425
30.42060,204005
30.42873,213917
30.43685,213575
30.44497,206112
30.45310,192500
30.46122,173919
30.46935,169615
30.47747,156758
30.48558,158164
30.49372,147509
30.50183,134495
30.50997,130970
30.51808,138851
30.52620,122083
30.53433,114797
30.54245,115891
30.55057,104848
30.55870,99537
30.56682,103590
30.57495,110073
30.58307,104619
30.59118,90379
30.59932,92354
30.60743,96223
30.61557,90681
30.62368,90844
30.63180,94911
30.63993,83080
30.64805,88547
30.65618,89094
30.66430,84620
30.67242,83681
30.68055,81665
30.68867,82144
30.69678,78943
30.70492,82068
30.71303,78657
30.72117,76405
30.72928,75434
30.73740,76962
30.74553,72723
30.75365,73519
30.76178,74371
30.76990,72705
30.77802,71224
30.78615,75682
30.79427,76165
30.80240,71374
30.81052,74591
30.81863,74602
30.82677,79119
30.83488,75447
30.84300,73118
30.85113,78175
30.85925,76677
30.86738,75124
30.87550,73648
30.88362,75649
30.89175,70434
30.89987,69851
30.90800,67965
30.91612,69889
30.92423,67284
30.93237,70452
30.94048,65098
30.94862,69596
30.95673,70557
30.96485,78889
30.97298,67527
30.98110,69137
30.98922,66131
30.99735,65702
31.00547,67099
31.01360,65128
31.02172,72785
31.02983,66119
31.03797,69354
31.04608,65698
31.05422,67470
31.06233,67208
31.07045,65159
31.07858,67185
31.08670,67601
31.09482,67810
31.10295,65986
31.11107,72674
31.11920,64211
31.12732,65376
31.13543,61429
31.14357,66368
31.15168,69705
31.15982,65261
31.16793,62032
31.17605,68325
31.18418,67644
31.19230,71476
31.20043,69139
31.20855,70289
31.21667,64770
31.22480,66945
31.23292,69378
31.24103,69224
31.24917,65562
31.25728,62478
31.26542,68205
31.27353,66234
31.28165,61184
31.28978,61926
31.29790,66164
31.30603,68572
31.31415,65342
31.32227,69741
31.33040,67344
31.33852,72748
31.34665,70305
31.35477,75579
31.36288,71887
31.37102,69708
31.37913,74328
31.38725,84640
31.39538,72096
31.40350,83107
31.41163,73736
31.41975,79503
31.42787,79847
31.43600,71758
31.44412,69176
31.45225,65475
31.46037,71415
31.46848,67458
31.47662,65152
31.48473,71765
31.49285,66297
31.50098,64439
31.50910,67451
31.51723,68691
31.52535,68173
31.53347,70892
31.54160,71501
31.54972,81817
31.55785,73584
31.56597,75676
31.57408,86211
31.58222,67015
31.59033,74443
31.59847,73723
31.60658,74606
31.61470,70170
31.62283,87949
31.63095,101428
31.63907,124962
31.64720,145215
31.65532,170006
31.66345,178304
31.67157,175830
31.67968,148996
31.68782,136717
31.69593,122685
31.70407,101786
31.71218,86156
31.72030,87299
31.72843,76042
31.73655,80041
31.74468,80018
31.75280,77198
31.76092,78630
31.76905,74993
31.77717,74150
31.78528,69527
31.79342,75402
31.80153,72827
31.80967,72013
31.81778,72709
31.82590,72791
31.83403,71519
31.84215,73561
31.85028,70637
31.85840,67609
31.86652,68232
31.87465,77327
31.88277,76200
31.89088,68568
31.89902,64628
31.90713,65831
31.91527,72813
31.92338,68179
31.93150,67130
31.93963,66054
31.94775,68113
31.95588,67264
31.96400,64827
31.97212,69416
31.98025,68603
31.98837,69192
31.99650,73933
32.00462,76097
32.01273,73375
32.02087,73462
32.02898,68806
32.03710,66164
32.04523,71099
32.05335,66405
32.06148,67716
32.06960,69812
32.07772,70805
32.08585,74496
32.09397,69136
32.10210,69898
32.11022,70788
32.11833,73123
32.12647,73879
32.13458,71225
32.14272,66035
32.15083,72469
32.15895,74153
32.16708,69865
32.17520,74413
32.18332,75033
32.19145,70253
32.19957,69539
32.20770,71604
32.21582,72564
32.22393,71883
32.23207,74264
32.24018,80397
32.24832,88262
32.25643,97067
32.26455,124731
32.27268,139869
32.28080,161247
32.28893,164287
32.29705,175084
32.30517,189440
32.31330,185571
32.32142,166974
32.32953,170731
32.33767,162873
32.34578,159680
32.35392,155504
32.36203,151924
32.37015,145007
32.37828,139965
32.38640,138951
32.39453,138712
32.40265,129434
32.41077,129066
32.41890,137790
32.42702,130243
32.43513,134841
32.44327,130670
32.45138,124324
32.45952,118768
32.46763,108295
32.47575,100001
32.48388,93487
32.49200,93881
32.50013,89240
32.50825,89056
32.51637,90384
32.52450,80240
32.53262,84453
32.54075,84784
32.54887,83356
32.55698,83764
32.56512,76411
32.57323,79016
32.58135,79669
32.58948,75898
32.59760,78960
32.60573,78797
32.61385,75627
32.62197,71956
32.63010,74436
32.63822,73739
32.64635,72292
32.65447,75872
32.66258,77306
32.67072,78207
32.67883,76624
32.68697,73877
32.69508,82856
32.70320,77600
32.71133,77039
32.71945,76636
32.72757,77111
32.73570,74077
32.74382,78340
32.75195,74866
32.76007,81326
32.76818,80479
32.77632,81614
32.78443,85739
32.79257,81011
32.80068,81066
32.80880,79815
32.81693,83880
32.82505,87618
32.83317,82545
32.84130,83601
32.84942,79616
32.85755,81318
32.86567,81838
32.87378,78695
32.88192,78134
32.89003,88784
32.89817,80442
32.90628,74618
32.91440,74757
32.92253,79875
32.93065,79871
32.93878,83599
32.94690,84874
32.95502,81005
32.96315,89504
32.97127,85541
32.97938,88470
32.98752,93145
32.99563,98528
33.00377,101574
33.01188,97849
33.02000,92431
33.02813,84888
33.03625,79213
33.04438,80434
33.05250,86376
33.06062,77219
33.06875,87605
33.07687,77079
33.08500,78911
33.09312,79064
33.10123,77661
33.10937,76681
33.11748,74178
33.12560,82054
33.13373,76239
33.14185,83766
33.14998,80870
33.15810,79317
33.16622,76331
33.17435,79573
33.18247,79825
33.19060,74536
33.19872,74152
33.20683,80547
33.21497,80758
33.22308,83524
33.23120,82039
33.23933,82265
33.24745,84770
33.25558,83997
33.26370,81447
33.27182,88558
33.27995,81568
33.28807,84091
33.29620,78749
33.30432,75979
33.31243,74158
33.32057,83093
33.32868,75725
33.33682,77397
33.34493,80588
33.35305,73517
33.36118,73691
33.36930,75986
33.37742,71127
33.38555,81166
33.39367,73615
33.40180,73876
33.40992,82993
33.41803,69282
33.42617,72710
33.43428,77219
33.44242,74271
33.45053,73767
33.45865,79840
33.46678,83493
33.47490,77811
33.48303,74828
33.49115,76493
33.49927,85332
33.50740,86522
33.51552,88525
33.52363,93177
33.53177,85949
33.53988,86364
33.54802,85127
33.55613,78541
33.56425,75372
33.57238,79236
33.58050,76869
33.58863,82886
33.59675,79129
33.60487,82039
33.61300,83371
33.62112,81545
33.62925,78299
33.63737,99537
33.64548,109657
33.65362,120545
33.66173,133812
33.66985,121775
33.67798,113357
33.68610,102587
33.69423,88652
33.70235,86491
33.71047,82988
33.71860,78246
33.72672,84242
33.73485,81671
33.74297,77933
33.75108,75566
33.75922,79294
33.76733,87226
33.77545,79442
33.78358,81864
33.79170,79023
33.79983,81815
33.80795,78993
33.81607,80974
33.82420,81357
33.83232,81189
33.84045,81055
33.84857,84914
33.85668,80682
33.86482,84809
33.87293,76045
33.88107,83868
33.88918,82710
33.89730,78179
33.90543,78748
33.91355,81376
33.92167,77627
33.92980,84835
33.93792,78553
33.94605,82272
33.95417,77847
33.96228,84761
33.97042,80060
33.97853,79918
33.98667,80150
33.99478,81066
34.00290,77654
34.01103,79264
34.01915,76085
34.02728,90639
34.03540,78769
34.04352,77939
34.05165,80821
34.05977,79756
34.06788,81074
34.07602,79696
34.08413,82301
34.09227,83830
34.10038,80555
34.10850,83042
34.11663,83764
34.12475,91490
34.13288,81274
34.14100,87549
34.14912,85896
34.15725,96890
34.16537,84153
34.17348,87399
34.18162,92757
34.18973,84552
34.19787,88082
34.20598,90140
34.21410,88026
34.22223,89449
34.23035,90342
34.23848,92221
34.24660,88352
34.25472,92686
34.26285,90756
34.27097,90452
34.27910,85506
34.28722,88044
34.29533,84916
34.30347,85216
34.31158,81803
34.31970,86341
34.32783,84215
34.33595,84394
34.34408,80344
34.35220,85183
34.36032,83789
34.36845,85182
34.37657,83693
34.38470,84540
34.39282,84564
34.40093,87370
34.40907,94548
34.41718,91799
34.42532,92067
34.43343,95693
34.44155,94885
34.44968,96823
34.45780,90182
34.46592,88712
34.47405,88315
34.48217,86388
34.49030,85120
34.49842,87261
34.50653,84503
34.51467,86981
34.52278,97763
34.53092,92622
34.53903,96842
34.54715,114294
34.55528,145152
34.56340,192936
34.57152,260461
34.57965,303419
34.58777,320216
34.59590,291084
34.60402,238410
34.61213,181418
34.62027,137824
34.62838,113781
34.63652,103884
34.64463,107766
34.65275,99724
34.66088,94260
34.66900,96507
34.67713,91063
34.68525,92139
34.69337,97341
34.70150,92663
34.70962,92716
34.71773,90920
34.72587,95277
34.73398,90051
34.74212,92582
34.75023,93060
34.75835,92167
34.76648,94214
34.77460,92771
34.78273,86742
34.79085,90280
34.79897,94056
34.80710,89693
34.81522,89025
34.82335,90727
34.83147,91394
34.83958,93031
34.84772,93795
34.85583,122491
34.86395,134671
34.87208,150296
34.88020,173225
34.88833,188709
34.89645,199733
34.90457,196978
34.91270,185902
34.92082,167455
34.92895,155665
34.93707,150894
34.94518,129280
34.95332,135737
34.96143,123822
34.96957,117118
34.97768,114201
34.98580,112668
34.99393,116078
35.00205,104139
35.01017,106809
35.01830,117939
35.02642,98149
35.03455,104341
35.04267,105201
35.05078,106320
35.05892,97278
35.06703,107176
35.07517,98813
35.08328,97343
35.09140,96890
35.09953,96711
35.10765,101211
35.11577,103985
35.12390,105921
35.13202,106957
35.14015,94540
35.14827,93530
35.15638,99305
35.16452,98269
35.17263,92272
35.18077,99243
35.18888,93449
35.19700,93380
35.20513,98031
35.21325,89966
35.22138,102156
35.22950,100344
35.23762,92423
35.24575,92938
35.25387,92132
35.26198,101643
35.27012,96723
35.27823,98962
35.28637,99658
35.29448,99821
35.30260,101395
35.31073,94817
35.31885,93366
35.32698,90044
35.33510,97741
35.34322,99193
35.35135,95532
35.35947,96383
35.36760,96118
35.37572,96835
35.38383,102296
35.39197,97505
35.40008,100454
35.40820,100813
35.41633,95631
35.42445,106234
35.43258,107039
35.44070,110268
35.44882,100898
35.45695,106360
35.46507,102175
35.47320,111939
35.48132,112278
35.48943,112073
35.49757,116921
35.50568,116258
35.51380,115438
35.52193,113181
35.53005,111000
35.53818,108801
35.54630,107513
35.55442,104716
35.56255,113547
35.57067,111452
35.57880,111567
35.58692,113922
35.59503,106187
35.60317,116021
35.61128,115427
35.61942,107824
35.62753,119086
35.63565,112482
35.64378,109194
35.65190,108120
35.66002,108672
35.66815,115632
35.67627,113814
35.68440,106019
35.69252,107306
35.70063,103526
35.70877,107074
35.71688,107118
35.72502,103777
35.73313,105078
35.74125,99186
35.74938,105414
35.75750,101973
35.76563,103201
35.77375,103300
35.78187,101792
35.79000,104498
35.79812,111884
35.80623,114456
35.81437,105879
35.82248,110224
35.83062,112791
35.83873,100976
35.84685,101922
35.85498,101544
35.86310,101357
35.87123,102773
35.87935,101375
35.88747,100683
35.89560,98387
35.90372,103674
35.91183,103121
35.91997,102839
35.92808,98242
35.93622,100105
35.94433,99902
35.95245,104958
35.96058,105600
35.96870,109924
35.97683,112737
35.98495,119719
35.99307,122547
36.00120,122437
36.00932,125254
36.01745,117595
36.02557,119110
36.03368,123476
36.04182,122723
36.04993,113882
36.05805,123016
36.06618,113453
36.07430,109342
36.08243,111656
36.09055,111773
36.09867,111524
36.10680,114569
36.11492,109376
36.12305,117155
36.13117,110099
36.13928,107570
36.14742,106496
36.15553,116767
36.16367,105103
36.17178,113859
36.17990,107532
36.18803,109321
36.19615,106080
36.20427,113479
36.21240,120254
36.22052,108284
36.22865,113791
36.23677,115583
36.24488,113136
36.25302,118919
36.26113,118346
36.26927,118804
36.27738,119229
36.28550,122968
36.29363,113456
36.30175,113305
36.30988,117128
36.31800,112732
36.32612,112478
36.33425,115200
36.34237,110805
36.35048,111421
36.35862,115906
36.36673,110195
36.37487,110401
36.38298,106512
36.39110,114086
36.39923,117666
36.40735,111168
36.41548,111874
36.42360,117936
36.43172,108965
36.43985,108204
36.44797,109083
36.45608,103521
36.46422,109355
36.47233,108499
36.48047,105526
36.48858,108391
36.49670,112350
36.50483,110568
36.51295,112472
36.52108,107520
36.52920,113104
36.53732,119135
36.54545,112223
36.55357,113639
36.56170,121764
36.56982,123488
36.57793,123249
36.58607,125940
36.59418,126308
36.60230,127138
36.61043,124115
36.61855,130483
36.62668,127514
36.63480,138259
36.64292,141264
36.65105,135016
36.65917,133700
36.66730,133225
36.67542,128622
36.68353,125697
36.69167,125063
36.69978,117544
36.70792,127409
36.71603,129728
36.72415,115579
36.73228,125697
36.74040,114372
36.74852,113388
36.75665,118141
36.76477,127220
36.77290,119442
36.78102,117273
36.78913,119609
36.79727,121373
36.80538,120905
36.81352,113232
36.82163,119485
36.82975,115028
36.83788,118716
36.84600,116252
36.85412,123344
36.86225,118574
36.87037,120906
36.87850,119448
36.88662,115376
36.89473,112682
36.90287,122975
36.91098,120156
36.91912,122048
36.92723,117149
36.93535,130449
36.94348,139513
36.95160,168600
36.95973,230057
36.96785,325888
36.97597,435907
36.98410,546354
36.99222,588792
37.00033,546393
37.00847,446933
37.01658,345543
37.02472,250992
37.03283,207256
37.04095,160024
37.04908,144786
37.05720,150683
37.06533,138751
37.07345,133543
37.08157,138396
37.08970,135886
37.09782,136681
37.10595,136563
37.11407,139983
37.12218,131614
37.13032,148171
37.13843,143172
37.14655,140115
37.15468,139979
37.16280,144549
37.17093,141647
37.17905,142428
37.18717,143443
37.19530,135372
37.20342,132378
37.21155,129058
37.21967,128856
37.22778,130857
37.23592,138433
37.24403,127783
37.25217,129326
37.26028,126140
37.26840,126917
37.27653,141591
37.28465,125321
37.29277,134832
37.30090,137935
37.30902,130920
37.31715,127953
37.32527,130963
37.33338,128122
37.34152,131701
37.34963,139999
37.35777,125314
37.36588,134847
37.37400,135176
37.38213,131282
37.39025,134422
37.39837,133558
37.40650,128527
37.41462,136014
37.42275,138264
37.43087,128645
37.43898,135171
37.44712,135348
37.45523,139668
37.46337,130662
37.47148,131962
37.47960,130519
37.48773,137907
