C:\MassHunter\GCMS\1\data\20191125_ALKANES\Burnoff 11262020 part 2.D Tue Nov 26 11:41:29 2019
Start of data points
2.09528	2226298
2.10340	2996665
2.11153	3687002
2.11965	4177127
2.12778	4428442
2.13590	4412053
2.14402	4221752
2.15215	3910681
2.16027	3582782
2.16840	3244324
2.17652	2916775
2.18463	2594895
2.19277	2341888
2.20088	2084864
2.20900	1833979
2.21713	1636256
2.22525	1460915
2.23338	1291481
2.24150	1156596
2.24962	1026427
2.25775	927012
2.26587	844346
2.27400	752801
2.28212	684340
2.29023	622269
2.29837	562465
2.30648	516161
2.31460	465146
2.32273	434989
2.33085	406507
2.33898	384947
2.34710	344113
2.35522	324587
2.36335	300040
2.37147	282504
2.37960	258272
2.38772	241329
2.39583	231027
2.40397	219624
2.41208	216027
2.42022	201319
2.42833	194292
2.43645	179509
2.44458	180366
2.45270	167562
2.46082	161861
2.46895	157052
2.47707	147890
2.48520	140943
2.49332	139830
2.50143	133679
2.50957	129739
2.51768	130402
2.52582	125170
2.53393	115503
2.54205	117355
2.55018	112574
2.55830	121451
2.56642	105492
2.57455	102091
2.58267	103564
2.59080	104519
2.59892	102669
2.60703	102385
2.61517	99340
2.62328	99080
2.63142	94400
2.63953	98984
2.64765	95317
2.65578	96811
2.66390	93411
2.67203	87995
2.68015	84186
2.68827	87009
2.69640	88732
2.70452	85047
2.71263	88190
2.72077	85701
2.72888	83989
2.73702	80765
2.74513	83309
2.75325	80306
2.76138	81902
2.76950	82754
2.77763	80658
2.78575	84413
2.79387	74959
2.80200	83870
2.81012	76873
2.81823	78719
2.82637	81686
2.83448	75202
2.84262	72731
2.85073	71883
2.85885	79871
2.86698	73389
2.87510	73165
2.88323	70915
2.89135	69376
2.89947	70398
2.90760	73328
2.91572	70009
2.92385	66860
2.93197	72361
2.94008	72203
2.94822	69618
2.95633	69015
2.96445	67252
2.97258	70125
2.98070	70419
2.98883	69033
2.99695	73390
3.00507	68912
3.01320	68300
3.02132	80132
3.02945	70101
3.03757	69331
3.04568	63440
3.05382	64127
3.06193	68953
3.07007	65706
3.07818	64761
3.08630	66504
3.09443	71000
3.10255	67022
3.11067	69561
3.11880	71085
3.12692	73475
3.13505	68929
3.14317	74497
3.15128	75765
3.15942	72574
3.16753	74231
3.17567	69617
3.18378	69929
3.19190	72005
3.20003	71134
3.20815	69063
3.21628	67063
3.22440	72458
3.23252	71069
3.24065	69934
3.24877	71617
3.25688	75157
3.26502	69696
3.27313	74001
3.28127	70496
3.28938	70335
3.29750	68851
3.30563	73361
3.31375	69042
3.32188	68071
3.33000	69626
3.33812	65064
3.34625	66796
3.35437	66129
3.36248	71661
3.37062	66395
3.37873	69628
3.38687	67018
3.39498	66496
3.40310	65790
3.41123	68607
3.41935	74614
3.42748	66945
3.43560	67199
3.44372	69645
3.45185	66697
3.45997	78885
3.46810	68843
3.47622	64089
3.48433	69816
3.49247	67360
3.50058	69471
3.50870	67496
3.51683	63190
3.52495	63436
3.53308	64593
3.54120	68970
3.54932	61811
3.55745	64322
3.56557	62327
3.57370	60307
3.58182	66919
3.58993	66897
3.59807	67893
3.60618	67751
3.61430	67543
3.62243	66973
3.63055	68499
3.63868	66667
3.64680	63485
3.65492	63127
3.66305	64318
3.67117	64502
3.67930	67691
3.68742	65305
3.69553	64113
3.70367	64978
3.71178	65301
3.71992	67212
3.72803	66200
3.73615	68390
3.74428	62424
3.75240	62608
3.76052	64646
3.76865	65209
3.77677	63048
3.78490	68028
3.79302	65147
3.80113	60490
3.80927	63520
3.81738	61677
3.82552	59572
3.83363	62976
3.84175	62361
3.84988	64284
3.85800	62783
3.86613	66255
3.87425	61852
3.88237	61725
3.89050	62494
3.89862	64799
3.90673	61411
3.91487	64273
3.92298	64681
3.93112	69256
3.93923	61797
3.94735	59964
3.95548	62591
3.96360	65026
3.97173	63564
3.97985	60419
3.98797	62914
3.99610	60665
4.00422	68987
4.01233	61168
4.02047	59714
4.02858	62528
4.03672	65312
4.04483	61707
4.05295	60916
4.06108	56623
4.06920	56550
4.07733	58252
4.08545	59015
4.09357	60315
4.10170	62704
4.10982	61979
4.11795	63813
4.12607	63702
4.13418	63057
4.14232	59633
4.15043	58503
4.15855	59731
4.16668	60017
4.17480	60986
4.18293	61125
4.19105	65147
4.19917	62946
4.20730	68158
4.21542	58365
4.22355	57977
4.23167	61465
4.23978	56511
4.24792	58975
4.25603	62172
4.26417	62402
4.27228	60913
4.28040	57610
4.28853	60819
4.29665	63591
4.30477	58579
4.31290	60959
4.32102	61216
4.32915	61721
4.33727	59954
4.34538	57850
4.35352	58892
4.36163	61710
4.36977	57181
4.37788	58618
4.38600	61155
4.39413	58777
4.40225	59621
4.41037	57025
4.41850	60490
4.42662	60386
4.43475	58834
4.44287	57354
4.45098	61500
4.45912	63734
4.46723	56967
4.47537	62268
4.48348	60560
4.49160	59459
4.49973	59755
4.50785	55435
4.51598	54807
4.52410	56391
4.53222	57099
4.54035	59030
4.54847	58794
4.55658	60041
4.56472	56195
4.57283	60256
4.58097	62294
4.58908	58605
4.59720	60078
4.60533	57383
4.61345	59352
4.62158	57305
4.62970	56445
4.63782	62767
4.64595	56702
4.65407	56087
4.66218	59350
4.67032	61117
4.67843	56959
4.68657	58110
4.69468	57530
4.70280	55891
4.71093	54680
4.71905	64018
4.72718	57580
4.73530	57573
4.74342	58129
4.75155	58217
4.75967	58999
4.76780	56227
4.77592	59639
4.78403	56131
4.79217	59128
4.80028	62203
4.80840	55793
4.81653	59781
4.82465	58319
4.83278	58974
4.84090	55695
4.84902	60961
4.85715	60294
4.86527	59878
4.87340	60344
4.88152	60380
4.88963	56169
4.89777	58435
4.90588	58275
4.91402	60536
4.92213	60702
4.93025	60315
4.93838	62064
4.94650	59975
4.95462	62144
4.96275	57893
4.97087	57199
4.97900	58337
4.98712	61032
4.99523	62659
5.00337	57708
5.01148	60177
5.01962	58356
5.02773	56103
5.03585	66354
5.04398	62962
5.05210	56518
5.06022	55719
5.06835	60962
5.07647	60180
5.08460	59580
5.09272	55879
5.10083	57026
5.10897	58347
5.11708	62850
5.12522	61225
5.13333	69281
5.14145	59829
5.14958	61653
5.15770	55803
5.16583	61811
5.17395	59458
5.18207	57335
5.19020	60704
5.19832	56896
5.20643	54776
5.21457	57635
5.22268	59864
5.23082	59531
5.23893	60050
5.24705	58538
5.25518	58037
5.26330	63768
5.27143	54253
5.27955	57687
5.28767	55564
5.29580	58772
5.30392	55353
5.31205	53318
5.32017	53606
5.32828	52822
5.33642	58561
5.34453	52440
5.35265	55824
5.36078	51712
5.36890	54956
5.37703	52922
5.38515	55153
5.39327	51033
5.40140	53658
5.40952	54440
5.41765	49471
5.42577	50312
5.43388	51281
5.44202	52627
5.45013	51339
5.45825	43964
5.46638	50012
5.47450	48094
5.48263	50623
5.49075	51125
5.49887	48270
5.50700	47756
5.51512	49794
5.52325	49034
5.53137	50414
5.53948	46204
5.54762	47979
5.55573	48631
5.56387	54759
5.57198	50142
5.58010	53979
5.58823	48111
5.59635	51189
5.60447	49679
5.61260	53423
5.62072	47137
5.62885	54548
5.63697	50704
5.64508	49330
5.65322	50492
5.66133	51458
5.66947	45548
5.67758	47274
5.68570	48830
5.69383	50966
5.70195	50549
5.71008	49726
5.71820	50920
5.72632	47477
5.73445	47844
5.74257	49824
5.75068	48533
5.75882	48199
5.76693	51729
5.77507	48506
5.78318	48176
5.79130	52200
5.79943	47643
5.80755	47200
5.81568	50708
5.82380	49383
5.83192	47901
5.84005	44322
5.84817	51260
5.85628	51019
5.86442	47143
5.87253	47402
5.88067	48235
5.88878	48578
5.89690	54220
5.90503	50303
5.91315	43068
5.92128	40110
5.92940	39051
5.93752	39955
5.94565	39739
5.95377	37937
5.96190	44143
5.97002	41929
5.97813	39275
5.98627	43540
5.99438	39390
6.00250	39510
6.01063	43277
6.01875	38459
6.02688	40255
6.03500	39570
6.04312	39636
6.05125	42865
6.05937	37688
6.06750	40427
6.07562	40652
6.08373	40019
6.09187	39459
6.09998	41359
6.10810	35937
6.11623	40731
6.12435	37615
6.13248	39460
6.14060	40906
6.14872	40974
6.15685	39098
6.16497	39052
6.17310	43468
6.18122	40423
6.18933	42607
6.19747	37874
6.20558	41336
6.21372	41013
6.22183	37519
6.22995	38292
6.23808	39342
6.24620	39304
6.25432	39910
6.26245	38579
6.27057	39111
6.27870	39524
6.28682	39923
6.29493	41964
6.30307	41330
6.31118	42371
6.31932	40159
6.32743	39927
6.33555	39628
6.34368	40443
6.35180	43371
6.35993	39933
6.36805	39416
6.37617	36340
6.38430	36319
6.39242	45506
6.40053	38846
6.40867	42168
6.41678	41105
6.42492	36592
6.43303	38604
6.44115	37894
6.44928	41435
6.45740	36841
6.46553	34121
6.47365	39902
6.48177	39146
6.48990	39883
6.49802	36894
6.50613	38600
6.51427	38618
6.52238	35505
6.53052	37412
6.53863	35428
6.54675	37160
6.55488	39053
6.56300	41363
6.57113	40148
6.57925	37652
6.58737	34417
6.59550	38717
6.60362	37696
6.61175	41838
6.61987	36440
6.62798	35328
6.63612	41562
6.64423	37281
6.65235	38167
6.66048	35884
6.66860	42128
6.67673	38157
6.68485	37243
6.69297	36925
6.70110	34763
6.70922	37493
6.71735	38627
6.72547	39504
6.73358	41394
6.74172	38116
6.74983	35053
6.75797	39218
6.76608	37846
6.77420	39281
6.78233	36875
6.79045	38697
6.79857	35807
6.80670	35459
6.81482	39910
6.82295	39903
6.83107	37720
6.83918	33749
6.84732	35842
6.85543	32672
6.86357	36021
6.87168	36987
6.87980	35564
6.88793	33103
6.89605	32777
6.90417	35827
6.91230	33160
6.92042	33383
6.92855	34268
6.93667	38757
6.94478	32414
6.95292	32339
6.96103	32791
6.96917	29762
6.97728	33833
6.98540	32567
6.99353	33089
7.00165	34282
7.00978	33988
7.01790	34329
7.02602	34016
7.03415	33215
7.04227	35953
7.05038	34087
7.05852	33105
7.06663	36513
7.07477	35240
7.08288	33278
7.09100	32385
7.09913	32880
7.10725	32641
7.11538	37434
7.12350	35012
7.13162	34790
7.13975	35267
7.14787	33624
7.15598	29945
7.16412	32220
7.17223	34685
7.18037	31257
7.18848	34132
7.19660	33825
7.20473	36600
7.21285	35254
7.22098	34208
7.22910	34135
7.23722	33943
7.24535	41376
7.25347	33353
7.26160	33781
7.26972	32997
7.27783	33704
7.28597	33726
7.29408	37675
7.30220	34614
7.31033	32859
7.31845	31513
7.32658	35173
7.33470	34529
7.34282	36354
7.35095	32938
7.35907	32555
7.36720	35886
7.37532	35683
7.38343	33855
7.39157	34581
7.39968	38055
7.40782	36319
7.41593	30505
7.42405	38416
7.43218	31018
7.44030	34258
7.44842	33636
7.45655	34108
7.46467	31452
7.47280	33516
7.48092	38597
7.48903	32436
7.49717	34741
7.50528	35000
7.51342	32752
7.52153	33971
7.52965	33342
7.53778	34510
7.54590	32861
7.55403	31403
7.56215	32889
7.57027	31993
7.57840	32073
7.58652	33184
7.59463	32332
7.60277	34158
7.61088	31835
7.61902	33822
7.62713	33813
7.63525	33046
7.64338	32261
7.65150	34394
7.65963	36132
7.66775	32624
7.67587	29253
7.68400	31309
7.69212	33120
7.70023	31443
7.70837	35637
7.71648	33767
7.72462	35544
7.73273	31562
7.74085	32586
7.74898	32808
7.75710	32865
7.76523	37835
7.77335	33175
7.78147	32897
7.78960	34638
7.79772	31723
7.80585	31668
7.81397	33778
7.82208	32115
7.83022	30856
7.83833	33247
7.84645	33015
7.85458	32742
7.86270	31622
7.87083	37141
7.87895	33306
7.88707	34972
7.89520	31709
7.90332	32235
7.91145	35305
7.91957	32256
7.92768	30675
7.93582	30671
7.94393	36012
7.95205	31236
7.96018	38050
7.96830	31083
7.97643	32440
7.98455	33398
7.99267	31472
8.00080	30177
8.00892	32305
8.01705	34319
8.02517	33845
8.03328	31760
8.04142	31560
8.04953	35840
8.05767	30145
8.06578	31134
8.07390	30845
8.08203	32967
8.09015	31062
8.09827	31835
8.10640	31508
8.11452	37996
8.12265	33426
8.13077	29018
8.13888	31378
8.14702	31811
8.15513	31077
8.16327	37319
8.17138	34265
8.17950	31671
8.18763	33342
8.19575	31975
8.20388	27979
8.21200	31807
8.22012	30722
8.22825	29317
8.23637	29897
8.24448	31636
8.25262	30516
8.26073	31190
8.26887	34749
8.27698	29878
8.28510	34033
8.29323	34990
8.30135	33067
8.30948	31548
8.31760	32409
8.32572	33397
8.33385	30120
8.34197	33365
8.35008	32369
8.35822	30341
8.36633	28778
8.37447	31773
8.38258	32795
8.39070	31038
8.39883	29344
8.40695	33336
8.41508	32307
8.42320	31647
8.43132	36707
8.43945	34838
8.44757	30107
8.45570	31119
8.46382	29872
8.47193	30721
8.48007	34772
8.48818	30726
8.49630	33284
8.50443	29687
8.51255	31525
8.52068	29229
8.52880	29302
8.53692	34423
8.54505	32751
8.55317	31877
8.56130	32610
8.56942	31332
8.57753	31225
8.58567	30903
8.59378	32605
8.60192	28965
8.61003	30002
8.61815	30351
8.62628	30708
8.63440	31213
8.64252	30756
8.65065	30930
8.65877	28361
8.66690	31116
8.67502	29769
8.68313	28573
8.69127	27722
8.69938	29552
8.70752	30652
8.71563	30130
8.72375	30745
8.73188	33567
8.74000	32176
8.74812	29720
8.75625	28633
8.76437	31385
8.77250	34470
8.78062	29827
8.78873	28985
8.79687	31400
8.80498	32050
8.81312	28787
8.82123	31424
8.82935	32776
8.83748	32363
8.84560	30288
8.85373	28685
8.86185	37520
8.86997	29564
8.87810	31556
8.88622	33513
8.89433	31331
8.90247	30755
8.91058	31567
8.91872	30706
8.92683	29999
8.93495	29066
8.94308	30472
8.95120	30469
8.95933	28613
8.96745	31310
8.97557	30772
8.98370	30816
8.99182	29859
8.99993	31685
9.00807	28370
9.01618	33439
9.02432	29794
9.03243	35173
9.04055	29796
9.04868	34171
9.05680	30311
9.06493	30969
9.07305	32094
9.08117	35162
9.08930	27611
9.09742	31039
9.10555	33127
9.11367	32131
9.12178	33173
9.12992	28012
9.13803	30208
9.14615	30066
9.15428	30812
9.16240	32132
9.17053	34371
9.17865	30994
9.18677	30407
9.19490	31750
9.20302	32273
9.21115	29180
9.21927	30709
9.22738	29884
9.23552	34250
9.24363	29905
9.25177	32787
9.25988	30673
9.26800	29204
9.27613	29631
9.28425	32381
9.29237	32182
9.30050	29047
9.30862	29790
9.31675	33097
9.32487	31362
9.33298	32726
9.34112	27242
9.34923	32493
9.35737	27955
9.36548	29907
9.37360	31543
9.38173	32473
9.38985	28188
9.39797	30031
9.40610	29149
9.41422	29835
9.42235	32006
9.43047	27776
9.43858	28748
9.44672	31154
9.45483	28563
9.46297	28877
9.47108	31355
9.47920	31743
9.48733	35082
9.49545	29565
9.50358	30855
9.51170	29145
9.51982	34390
9.52795	32344
9.53607	33996
9.54418	29118
9.55232	29681
9.56043	30105
9.56857	28842
9.57668	29801
9.58480	30127
9.59293	29210
9.60105	28748
9.60918	32304
9.61730	25052
9.62542	30203
9.63355	31855
9.64167	29878
9.64980	27121
9.65792	28470
9.66603	29785
9.67417	29474
9.68228	28641
9.69040	31818
9.69853	27552
9.70665	29885
9.71478	27693
9.72290	28870
9.73102	29945
9.73915	29776
9.74727	27890
9.75540	27182
9.76352	31884
9.77163	36330
9.77977	31125
9.78788	30846
9.79600	29393
9.80413	28063
9.81225	29196
9.82038	27169
9.82850	30118
9.83662	27927
9.84475	29491
9.85287	29339
9.86100	26028
9.86912	28541
9.87723	28511
9.88537	28471
9.89348	27712
9.90162	25882
9.90973	28602
9.91785	29771
9.92598	27909
9.93410	29480
9.94222	28272
9.95035	29871
9.95847	26513
9.96660	28686
9.97472	30857
9.98283	25356
9.99097	27009
9.99908	26714
10.00722	26728
10.01533	29079
10.02345	30124
10.03158	25565
10.03970	28795
10.04782	28700
10.05595	28500
10.06407	26921
10.07220	33056
10.08032	30790
10.08843	31408
10.09657	27864
10.10468	30073
10.11282	27958
10.12093	28619
10.12905	28290
10.13718	30052
10.14530	27988
10.15343	29661
10.16155	27896
10.16967	28751
10.17780	29413
10.18592	31605
10.19403	30483
10.20217	26031
10.21028	26815
10.21842	29434
10.22653	31482
10.23465	27381
10.24278	27969
10.25090	28382
10.25903	28417
10.26715	28173
10.27527	29845
10.28340	29717
10.29152	27634
10.29965	26100
10.30777	28007
10.31588	28535
10.32402	30455
10.33213	31001
10.34025	28681
10.34838	26568
10.35650	27466
10.36463	25739
10.37275	30732
10.38087	24735
10.38900	28011
10.39712	28553
10.40525	26059
10.41337	28862
10.42148	33813
10.42962	27827
10.43773	27735
10.44585	28643
10.45398	28066
10.46210	27656
10.47023	30942
10.47835	26712
10.48647	27507
10.49460	27706
10.50272	28585
10.51085	28046
10.51897	27961
10.52708	25902
10.53522	31779
10.54333	28680
10.55147	35541
10.55958	28384
10.56770	25253
10.57583	29754
10.58395	28958
10.59207	26759
10.60020	29575
10.60832	33275
10.61645	29843
10.62457	28851
10.63268	27575
10.64082	31019
10.64893	29532
10.65707	31103
10.66518	27434
10.67330	26512
10.68143	27506
10.68955	25812
10.69768	28010
10.70580	26725
10.71392	26408
10.72205	27788
10.73017	29908
10.73828	26842
10.74642	27551
10.75453	29421
10.76267	26257
10.77078	27422
10.77890	30630
10.78703	27444
10.79515	26659
10.80328	25903
10.81140	29256
10.81952	29321
10.82765	28161
10.83577	27823
10.84388	27585
10.85202	27352
10.86013	26839
10.86827	28015
10.87638	27777
10.88450	27960
10.89263	29077
10.90075	27547
10.90888	26286
10.91700	30142
10.92512	29105
10.93325	27962
10.94137	28227
10.94950	28642
10.95762	27927
10.96573	26585
10.97387	26885
10.98198	27566
10.99010	28632
10.99823	26783
11.00635	24339
11.01448	28432
11.02260	29331
11.03072	29325
11.03885	25016
11.04697	28738
11.05510	32648
11.06322	27498
11.07133	27037
11.07947	29196
11.08758	26162
11.09572	27371
11.10383	25375
11.11195	26729
11.12008	33267
11.12820	26734
11.13632	27069
11.14445	28625
11.15257	28234
11.16070	27226
11.16882	28288
11.17693	32437
11.18507	33189
11.19318	29754
11.20132	25277
11.20943	27848
11.21755	28748
11.22568	32139
11.23380	24966
11.24192	28765
11.25005	31250
11.25817	27369
11.26630	28120
11.27442	32306
11.28253	27556
11.29067	27527
11.29878	24727
11.30692	30726
11.31503	28474
11.32315	24806
11.33128	26056
11.33940	28364
11.34753	28018
11.35565	26216
11.36377	29871
11.37190	29795
11.38002	26299
11.38813	27607
11.39627	27461
11.40438	29812
11.41252	27383
11.42063	27440
11.42875	27143
11.43688	27267
11.44500	27700
11.45313	28214
11.46125	27055
11.46937	27108
11.47750	26490
11.48562	32134
11.49373	28434
11.50187	25636
11.50998	26159
11.51812	26071
11.52623	28941
11.53435	26812
11.54248	29904
11.55060	27375
11.55873	30247
11.56685	26266
11.57497	27540
11.58310	25489
11.59122	25285
11.59935	28553
11.60747	30769
11.61558	32267
11.62372	26437
11.63183	29779
11.63995	29924
11.64808	26209
11.65620	26761
11.66433	30543
11.67245	28327
11.68057	27816
11.68870	26990
11.69682	27847
11.70495	32266
11.71307	25599
11.72118	27610
11.72932	27119
11.73743	26965
11.74557	26522
11.75368	28921
11.76180	27321
11.76993	29862
11.77805	28197
11.78617	28020
11.79430	28272
11.80242	30147
11.81055	25332
11.81867	25989
11.82678	25710
11.83492	27445
11.84303	26816
11.85117	32111
11.85928	29682
11.86740	27098
11.87553	28665
11.88365	25652
11.89177	31695
11.89990	26655
11.90802	28488
11.91615	26572
11.92427	29310
11.93238	28868
11.94052	29068
11.94863	27651
11.95677	27372
11.96488	26982
11.97300	25804
11.98113	30955
11.98925	26913
11.99738	29364
12.00550	26355
12.01362	26340
12.02175	24294
12.02987	29359
12.03798	25601
12.04612	28688
12.05423	28927
12.06237	31043
12.07048	28375
12.07860	27204
12.08673	27353
12.09485	26025
12.10298	30799
12.11110	30894
12.11922	26039
12.12735	26926
12.13547	27088
12.14360	26042
12.15172	27146
12.15983	28936
12.16797	27451
12.17608	25296
12.18420	24289
12.19233	27390
12.20045	28255
12.20858	28907
12.21670	27992
12.22482	25253
12.23295	26685
12.24107	26666
12.24920	25788
12.25732	28533
12.26543	27643
12.27357	25431
12.28168	26959
12.28980	25497
12.29793	26459
12.30605	26879
12.31418	27068
12.32230	26436
12.33042	24432
12.33855	24265
12.34667	25100
12.35480	25497
12.36292	27468
12.37103	26650
12.37917	28145
12.38728	28621
12.39542	28671
12.40353	26915
12.41165	29767
12.41978	30965
12.42790	29328
12.43602	29685
12.44415	27034
12.45227	28634
12.46040	28108
12.46852	29065
12.47663	26566
12.48477	26205
12.49288	27556
12.50102	26015
12.50913	27709
12.51725	28261
12.52538	25325
12.53350	27929
12.54162	25120
12.54975	25549
12.55787	27113
12.56600	26932
12.57412	26556
12.58223	28788
12.59037	28418
12.59848	27542
12.60662	26366
12.61473	30922
12.62285	22942
12.63098	27647
12.63910	29735
12.64723	30256
12.65535	29358
12.66347	31436
12.67160	30798
12.67972	27466
12.68783	25538
12.69597	29545
12.70408	30235
12.71222	28987
12.72033	31024
12.72845	25572
12.73658	25545
12.74470	27008
12.75283	24746
12.76095	29837
12.76907	27390
12.77720	24473
12.78532	32438
12.79345	26174
12.80157	32178
12.80968	25470
12.81782	32360
12.82593	26651
12.83405	32866
12.84218	26217
12.85030	26764
12.85843	24649
12.86655	27959
12.87467	27660
12.88280	27165
12.89092	27648
12.89905	26051
12.90717	28197
12.91528	27416
12.92342	26540
12.93153	26337
12.93967	26370
12.94778	27178
12.95590	27555
12.96403	28780
12.97215	25075
12.98027	27120
12.98840	32506
12.99652	25470
13.00465	25608
13.01277	26739
13.02088	29393
13.02902	29314
13.03713	25594
13.04527	24317
13.05338	27835
13.06150	30153
13.06963	26862
13.07775	27263
13.08587	25782
13.09400	27266
13.10212	26390
13.11025	25818
13.11837	27908
13.12648	28255
13.13462	26262
13.14273	25501
13.15087	26268
13.15898	25722
13.16710	31202
13.17523	26244
13.18335	24740
13.19148	27987
13.19960	27537
13.20772	29284
13.21585	26787
13.22397	25453
13.23208	26648
13.24022	28682
13.24833	27234
13.25647	30537
13.26458	26703
13.27270	26250
13.28083	26970
13.28895	26014
13.29708	29598
13.30520	26814
13.31332	26908
13.32145	25419
13.32957	28130
13.33768	27031
13.34582	26358
13.35393	24651
13.36207	24090
13.37018	24953
13.37830	25547
13.38643	26205
13.39455	26587
13.40268	26724
13.41080	26412
13.41892	25954
13.42705	27150
13.43517	25364
13.44330	25206
13.45142	28631
13.45953	27410
13.46767	31470
13.47578	26846
13.48390	24679
13.49203	28326
13.50015	26842
13.50828	24832
13.51640	26921
13.52452	30115
13.53265	30895
13.54077	28238
13.54890	27834
13.55702	22205
13.56513	26150
13.57327	26146
13.58138	27075
13.58952	26582
13.59763	26497
13.60575	23930
13.61388	25855
13.62200	25978
13.63012	28253
13.63825	26078
13.64637	25580
13.65450	25821
13.66262	26235
13.67073	27634
13.67887	28175
13.68698	27582
13.69512	26392
13.70323	28342
13.71135	29211
13.71948	27689
13.72760	31429
13.73572	28608
13.74385	25601
13.75197	26993
13.76010	27538
13.76822	26870
13.77633	26178
13.78447	27151
13.79258	30236
13.80072	24377
13.80883	22657
13.81695	23602
13.82508	26692
13.83320	26000
13.84133	23907
13.84945	28162
13.85757	30423
13.86570	26710
13.87382	26749
13.88193	27594
13.89007	25687
13.89818	28797
13.90632	28423
13.91443	27954
13.92255	25726
13.93068	25546
13.93880	29065
13.94693	27264
13.95505	27623
13.96317	25137
13.97130	27927
13.97942	25989
13.98755	27402
13.99567	27425
14.00378	28179
14.01192	24445
14.02003	27732
14.02815	27040
14.03628	27795
14.04440	30978
14.05253	26348
14.06065	29144
14.06877	27015
14.07690	29265
14.08502	26097
14.09315	26510
14.10127	30064
14.10938	27402
14.11752	26268
14.12563	28716
14.13375	25918
14.14188	26251
14.15000	26327
14.15813	26706
14.16625	25998
14.17437	23950
14.18250	27308
14.19062	27651
14.19875	31307
14.20687	28007
14.21498	26423
14.22312	30076
14.23123	29372
14.23937	29264
14.24748	25191
14.25560	27271
14.26373	29254
14.27185	24075
14.27997	25610
14.28810	25235
14.29622	28515
14.30435	26572
14.31247	25451
14.32058	28275
14.32872	25912
14.33683	26686
14.34497	28218
14.35308	24954
14.36120	25457
14.36933	30242
14.37745	25963
14.38557	30936
14.39370	26831
14.40182	29857
14.40995	25763
14.41807	25292
14.42618	25845
14.43432	26239
14.44243	24927
14.45057	31282
14.45868	27928
14.46680	28700
14.47493	26201
14.48305	25359
14.49118	24501
14.49930	27239
14.50742	26604
14.51555	28360
14.52367	28592
14.53178	27125
14.53992	24132
14.54803	24578
14.55617	30472
14.56428	29995
14.57240	31643
14.58053	25748
14.58865	24642
14.59678	26037
14.60490	27282
14.61302	23719
14.62115	28113
14.62927	25267
14.63740	21339
14.64552	25746
14.65363	27857
14.66177	28901
14.66988	28258
14.67800	26342
14.68613	26819
14.69425	27557
14.70238	24708
14.71050	26522
14.71862	28688
14.72675	30287
14.73487	25345
14.74300	25509
14.75112	27200
14.75923	26771
14.76737	25348
14.77548	25293
14.78360	24706
14.79173	25398
14.79985	27150
14.80798	29126
14.81610	26304
14.82422	26766
14.83235	32471
14.84047	23562
14.84860	27909
14.85672	23955
14.86483	25031
14.87297	28129
14.88108	26641
14.88922	27981
14.89733	27575
14.90545	24488
14.91358	23984
14.92170	26988
14.92982	29261
14.93795	28009
14.94607	26709
14.95420	25743
14.96232	26355
14.97043	26090
14.97857	25821
14.98668	26315
14.99482	25045
15.00293	30520
15.01105	26417
15.01918	25386
15.02730	26261
15.03543	28021
15.04355	28680
15.05167	26619
15.05980	24943
15.06792	29357
15.07603	28609
15.08417	25530
15.09228	23584
15.10042	25633
15.10853	25854
15.11665	26230
15.12478	28299
15.13290	24681
15.14103	25176
15.14915	25109
15.15727	26815
15.16540	30755
15.17352	25419
15.18163	25554
15.18977	26442
15.19788	27684
15.20602	25482
15.21413	26440
15.22225	25400
15.23038	28104
15.23850	27270
15.24663	26913
15.25475	25915
15.26287	24062
15.27100	24620
15.27912	24234
15.28725	25187
15.29537	27198
15.30348	25976
15.31162	23609
15.31973	29193
15.32785	24455
15.33598	24741
15.34410	24458
15.35223	25376
15.36035	29983
15.36847	27062
15.37660	25791
15.38472	28310
15.39285	26837
15.40097	27804
15.40908	27374
15.41722	23857
15.42533	25007
15.43345	27711
15.44158	26913
15.44970	25008
15.45783	26325
15.46595	23943
15.47407	24970
15.48220	28958
15.49032	28834
15.49845	24002
15.50657	27053
15.51468	27532
15.52282	26575
15.53093	25605
15.53907	28010
15.54718	25777
15.55530	24465
15.56343	24998
15.57155	25293
15.57967	32076
15.58780	27336
15.59592	25687
15.60405	27927
15.61217	29505
15.62028	24031
15.62842	26614
15.63653	24637
15.64467	28740
15.65278	23430
15.66090	25650
15.66903	24781
15.67715	24227
15.68528	24575
15.69340	27959
15.70152	24958
15.70965	29412
15.71777	26337
15.72588	27932
15.73402	24584
15.74213	21912
15.75027	27973
15.75838	28905
15.76650	24173
15.77463	26303
15.78275	23499
15.79088	24966
15.79900	23319
15.80712	28415
15.81525	26811
15.82337	26041
15.83148	26145
15.83962	27067
15.84773	28848
15.85587	29244
15.86398	27487
15.87210	27164
15.88023	24969
15.88835	22856
15.89648	24478
15.90460	26035
15.91272	24698
15.92085	26744
15.92897	28349
15.93710	29009
15.94522	29256
15.95333	30510
15.96147	24394
15.96958	23472
15.97770	28163
15.98583	29068
15.99395	24320
16.00208	23835
16.01020	28328
16.01832	29163
16.02645	26736
16.03457	26433
16.04270	24897
16.05082	26826
16.05893	24955
16.06707	29468
16.07518	26680
16.08332	32824
16.09143	22789
16.09955	29004
16.10768	27253
16.11580	25266
16.12392	24628
16.13205	26280
16.14017	27901
16.14830	25117
16.15642	28062
16.16453	27867
16.17267	23204
16.18078	25006
16.18892	26923
16.19703	27333
16.20515	24675
16.21328	26573
16.22140	24318
16.22952	32306
16.23765	25585
16.24577	24720
16.25390	24120
16.26202	25794
16.27013	24420
16.27827	29268
16.28638	28425
16.29452	29938
16.30263	24399
16.31075	28451
16.31888	26114
16.32700	27517
16.33513	28259
16.34325	26014
16.35137	28093
16.35950	25886
16.36762	29786
16.37573	26572
16.38387	26074
16.39198	24698
16.40012	27673
16.40823	23315
16.41635	30384
16.42448	28634
16.43260	25791
16.44073	25586
16.44885	27341
16.45697	22601
16.46510	28689
16.47322	27179
16.48135	26713
16.48947	26742
16.49758	30844
16.50572	26337
16.51383	29172
16.52195	25394
16.53008	22549
16.53820	25259
16.54633	24701
16.55445	27460
16.56257	25978
16.57070	29261
16.57882	25155
16.58695	29194
16.59507	27333
16.60318	26544
16.61132	23842
16.61943	25801
16.62755	24955
16.63568	22579
16.64380	26002
16.65193	27361
16.66005	26314
16.66817	25471
16.67630	28380
16.68442	25069
16.69255	25999
16.70067	28222
16.70878	27276
16.71692	25639
16.72503	28121
16.73317	24595
16.74128	26731
16.74940	29617
16.75753	25816
16.76565	24243
16.77377	26795
16.78190	25953
16.79002	26134
16.79815	26149
16.80627	26923
16.81438	24862
16.82252	27369
16.83063	25242
16.83877	28435
16.84688	27553
16.85500	24984
16.86313	23943
16.87125	27933
16.87937	23767
16.88750	23320
16.89562	25927
16.90375	25816
16.91187	24362
16.91998	23515
16.92812	23798
16.93623	28332
16.94437	26319
16.95248	29919
16.96060	27034
16.96873	25163
16.97685	25509
16.98498	23892
16.99310	28308
17.00122	24273
17.00935	23796
17.01747	24449
17.02558	25944
17.03372	26472
17.04183	25415
17.04997	24808
17.05808	24337
17.06620	27302
17.07433	23971
17.08245	26585
17.09058	24885
17.09870	25001
17.10682	26264
17.11495	24765
17.12307	27836
17.13120	28273
17.13932	26231
17.14743	28048
17.15557	23033
17.16368	29272
17.17180	25155
17.17993	26095
17.18805	26226
17.19618	25592
17.20430	25555
17.21242	24517
17.22055	33329
17.22867	26619
17.23680	28224
17.24492	28651
17.25303	25137
17.26117	25402
17.26928	24944
17.27740	25370
17.28553	26099
17.29365	23769
17.30178	25558
17.30990	23777
17.31802	23816
17.32615	25523
17.33427	26878
17.34240	29073
17.35052	31549
17.35863	27210
17.36677	27306
17.37488	25500
17.38302	24142
17.39113	28239
17.39925	27524
17.40738	30951
17.41550	26403
17.42362	31679
17.43175	27130
17.43987	28266
17.44800	28021
17.45612	27294
17.46423	24662
17.47237	27247
17.48048	25665
17.48862	26136
17.49673	29994
17.50485	24958
17.51298	28439
17.52110	26118
17.52923	24525
17.53735	32024
17.54547	25127
17.55360	26000
17.56172	25215
17.56983	23775
17.57797	24100
17.58608	27032
17.59422	29993
17.60233	26386
17.61045	28066
17.61858	25521
17.62670	24034
17.63483	27394
17.64295	26730
17.65107	26666
17.65920	27200
17.66732	24689
17.67543	24741
17.68357	26638
17.69168	30964
17.69982	26337
17.70793	27773
17.71605	26896
17.72418	22881
17.73230	29413
17.74043	27117
17.74855	28605
17.75667	24575
17.76480	26346
17.77292	23788
17.78105	26925
17.78917	31670
17.79728	27020
17.80542	28791
17.81353	24265
17.82165	27451
17.82978	27244
17.83790	25452
17.84603	26872
17.85415	26492
17.86227	26243
17.87040	26591
17.87852	27862
17.88665	28580
17.89477	28346
17.90288	27403
17.91102	26154
17.91913	23493
17.92725	26546
17.93538	24003
17.94350	25412
17.95163	25327
17.95975	28353
17.96787	25530
17.97600	24016
17.98412	26291
17.99225	30300
18.00037	28024
18.00848	27878
18.01662	24635
18.02473	24792
18.03287	27826
18.04098	25833
18.04910	25597
18.05723	25322
18.06535	26169
18.07347	25265
18.08160	27048
18.08972	26299
18.09785	31139
18.10597	27650
18.11408	30488
18.12222	30144
18.13033	25998
18.13847	27756
18.14658	30279
18.15470	25558
18.16283	33056
18.17095	27439
18.17908	29829
18.18720	25655
18.19532	24728
18.20345	29222
18.21157	24694
18.21968	25791
18.22782	27424
18.23593	25172
18.24407	25632
18.25218	26968
18.26030	28554
18.26843	23676
18.27655	27102
18.28468	27088
18.29280	26975
18.30092	25810
18.30905	25826
18.31717	25328
18.32530	31095
18.33342	26688
18.34153	25250
18.34967	27775
18.35778	26150
18.36590	24173
18.37403	25436
18.38215	25263
18.39028	23912
18.39840	26888
18.40652	25099
18.41465	24510
18.42277	33161
18.43090	23868
18.43902	25494
18.44713	25605
18.45527	26678
18.46338	26062
18.47150	26290
18.47963	26818
18.48775	28362
18.49588	26409
18.50400	29534
18.51212	27975
18.52025	27321
18.52837	28486
18.53650	25509
18.54462	25221
18.55273	28047
18.56087	28822
18.56898	25302
18.57712	25130
18.58523	28439
18.59335	25197
18.60148	26576
18.60960	28479
18.61772	26459
18.62585	26821
18.63397	28174
18.64210	30984
18.65022	24571
18.65833	24855
18.66647	28262
18.67458	26247
18.68272	25094
18.69083	24212
18.69895	25473
18.70708	24124
18.71520	26607
18.72332	27348
18.73145	27830
18.73957	26395
18.74770	25730
18.75582	27524
18.76393	26231
18.77207	25924
18.78018	24638
18.78832	26261
18.79643	27145
18.80455	25209
18.81268	24750
18.82080	26982
18.82893	23908
18.83705	30674
18.84517	25541
18.85330	25700
18.86142	25820
18.86953	27422
18.87767	25360
18.88578	27315
18.89392	27234
18.90203	25908
18.91015	28482
18.91828	26311
18.92640	29071
18.93453	25078
18.94265	27228
18.95077	24403
18.95890	25619
18.96702	26274
18.97515	24902
18.98327	30022
18.99138	24221
18.99952	26152
19.00763	25288
19.01575	24294
19.02388	28437
19.03200	24811
19.04013	28568
19.04825	24072
19.05637	26265
19.06450	25970
19.07262	29085
19.08075	27546
19.08887	27384
19.09698	25553
19.10512	26319
19.11323	26574
19.12135	26223
19.12948	24256
19.13760	24848
19.14573	26379
19.15385	27174
19.16197	28570
19.17010	27696
19.17822	26738
19.18635	24380
19.19447	25517
19.20258	32508
19.21072	29014
19.21883	25714
19.22697	25911
19.23508	26431
19.24320	27033
19.25133	29765
19.25945	26568
19.26757	27287
19.27570	25802
19.28382	27580
19.29195	26601
19.30007	27589
19.30818	30943
19.31632	27392
19.32443	25776
19.33257	26963
19.34068	24177
19.34880	27858
19.35693	26283
19.36505	25821
19.37318	27655
19.38130	28682
19.38942	25017
19.39755	28642
19.40567	31148
19.41378	29491
19.42192	27218
19.43003	27849
19.43817	29570
19.44628	35286
19.45440	29357
19.46253	28516
19.47065	28893
19.47878	27763
19.48690	25600
19.49502	26970
19.50315	27083
19.51127	30070
19.51938	27114
19.52752	29534
19.53563	25994
19.54377	26699
19.55188	28044
19.56000	24793
19.56813	22607
19.57625	24778
19.58438	27075
19.59250	26300
19.60062	26500
19.60875	26228
19.61687	25751
19.62500	28011
19.63312	29683
19.64123	26726
19.64937	26304
19.65748	26524
19.66560	28560
19.67373	26439
19.68185	27068
19.68998	28234
19.69810	27311
19.70622	28742
19.71435	28100
19.72247	24883
19.73060	28588
19.73872	28900
19.74683	24587
19.75497	29645
19.76308	27105
19.77120	26920
19.77933	26206
19.78745	27703
19.79558	28320
19.80370	28554
19.81182	27229
19.81995	31026
19.82807	27077
19.83620	31188
19.84432	25900
19.85243	29395
19.86057	31152
19.86868	27138
19.87682	30050
19.88493	25871
19.89305	27003
19.90118	27227
19.90930	31118
19.91742	27204
19.92555	26852
19.93367	24752
19.94180	27559
19.94992	24704
19.95803	27452
19.96617	28448
19.97428	27254
19.98242	29028
19.99053	26247
19.99865	28350
20.00678	30154
20.01490	25707
20.02303	30295
20.03115	26034
20.03927	25063
20.04740	28564
20.05552	29177
20.06363	27038
20.07177	24216
20.07988	26102
20.08802	25336
20.09613	24686
20.10425	28508
20.11238	23789
20.12050	26365
20.12863	24673
20.13675	28002
20.14487	26357
20.15300	26439
20.16112	29328
20.16923	26610
20.17737	26120
20.18548	29881
20.19362	29637
20.20173	25657
20.20985	24693
20.21798	26505
20.22610	28188
20.23423	26529
20.24235	28657
20.25047	29392
20.25860	25336
20.26672	29367
20.27485	27203
20.28297	26870
20.29108	26174
20.29922	28865
20.30733	25567
20.31545	29815
20.32358	25006
20.33170	26018
20.33983	29514
20.34795	23991
20.35607	29436
20.36420	25710
20.37232	30350
20.38045	31963
20.38857	27332
20.39668	27144
20.40482	26186
20.41293	24976
20.42107	26310
20.42918	26682
20.43730	26580
20.44543	26033
20.45355	26537
20.46167	31973
20.46980	27140
20.47792	28888
20.48605	27815
20.49417	25924
20.50228	29715
20.51042	30240
20.51853	27951
20.52667	28126
20.53478	27345
20.54290	28534
20.55103	30723
20.55915	26733
20.56727	28449
20.57540	28409
20.58352	31477
20.59165	27474
20.59977	24028
20.60788	26942
20.61602	26677
20.62413	25841
20.63227	29207
20.64038	29346
20.64850	34010
20.65663	28259
20.66475	24849
20.67288	25955
20.68100	29567
20.68912	28108
20.69725	29417
20.70537	27602
20.71348	26707
20.72162	30113
20.72973	23875
20.73787	25244
20.74598	26896
20.75410	22915
20.76223	25717
20.77035	25319
20.77848	28820
20.78660	26115
20.79472	31090
20.80285	25938
20.81097	27948
20.81908	29873
20.82722	25895
20.83533	27243
20.84347	27695
20.85158	28265
20.85970	26781
20.86783	28221
20.87595	29021
20.88408	27893
20.89220	29090
20.90032	26837
20.90845	27141
20.91657	27969
20.92470	27277
20.93282	28654
20.94093	28659
20.94907	27600
20.95718	27552
20.96530	27029
20.97343	27401
20.98155	29790
20.98968	24968
20.99780	25027
21.00592	28933
21.01405	28979
21.02217	27193
21.03030	32369
21.03842	27778
21.04653	25994
21.05467	29118
21.06278	29290
21.07092	24828
21.07903	27645
21.08715	29553
21.09528	25876
21.10340	30621
21.11152	27735
21.11965	26128
21.12777	26278
21.13590	26077
21.14402	25583
21.15213	28212
21.16027	26118
21.16838	27229
21.17652	26281
21.18463	28359
21.19275	28820
21.20088	27812
21.20900	28965
21.21712	25553
21.22525	25899
21.23337	27116
21.24150	27854
21.24962	26457
21.25773	28776
21.26587	26256
21.27398	23785
21.28212	27536
21.29023	27950
21.29835	26073
21.30648	26052
21.31460	27068
21.32273	23973
21.33085	27630
21.33897	25235
21.34710	25242
21.35522	25844
21.36333	26787
21.37147	25304
21.37958	26818
21.38772	28110
21.39583	25814
21.40395	25305
21.41208	26612
21.42020	28408
21.42833	26047
21.43645	25765
21.44457	26315
21.45270	26575
21.46082	27273
21.46895	32422
21.47707	27355
21.48518	27749
21.49332	25288
21.50143	28370
21.50955	30777
21.51768	25899
21.52580	26174
21.53393	28103
21.54205	28216
21.55017	24910
21.55830	27224
21.56642	26343
21.57455	27526
21.58267	26454
21.59078	27901
21.59892	28749
21.60703	32993
21.61515	27261
21.62328	28518
21.63140	29664
21.63953	26165
21.64765	23274
21.65577	26374
21.66390	25681
21.67202	30356
21.68015	22621
21.68827	25248
21.69638	26262
21.70452	26258
21.71263	25855
21.72077	27701
21.72888	25539
21.73700	25928
21.74513	27460
21.75325	28468
21.76137	24151
21.76950	26766
21.77762	24730
21.78575	25407
21.79387	26451
21.80198	31230
21.81012	29943
21.81823	27557
21.82637	25992
21.83448	27467
21.84260	25193
21.85073	26361
21.85885	27420
21.86698	25568
21.87510	30746
21.88322	26838
21.89135	27797
21.89947	24666
21.90758	28216
21.91572	27062
21.92383	26529
21.93197	25369
21.94008	29340
21.94820	23931
21.95633	30612
21.96445	27435
21.97258	26288
21.98070	26795
21.98882	26422
21.99695	26073
22.00507	26146
22.01318	27825
22.02132	24781
22.02943	24932
22.03757	26965
22.04568	28624
22.05380	30578
22.06193	26328
22.07005	30697
22.07818	25761
22.08630	26458
22.09442	27059
22.10255	26705
22.11067	25837
22.11880	26328
22.12692	30019
22.13503	30084
22.14317	29400
22.15128	27450
22.15940	33035
22.16753	31501
22.17565	28676
22.18378	28158
22.19190	27197
22.20002	26267
22.20815	31089
22.21627	29693
22.22440	25341
22.23252	27481
22.24063	26523
22.24877	27708
22.25688	25911
22.26500	28576
22.27313	26885
22.28125	26758
22.28938	27429
22.29750	25659
22.30562	24689
22.31375	28184
22.32187	27861
22.33000	25839
22.33812	31740
22.34623	27145
22.35437	25170
22.36248	27244
22.37062	28415
22.37873	27711
22.38685	27956
22.39498	29110
22.40310	28179
22.41122	25104
22.41935	28326
22.42747	27384
22.43560	26643
22.44372	28900
22.45183	25851
22.45997	24468
22.46808	28396
22.47622	28373
22.48433	26551
22.49245	27716
22.50058	25652
22.50870	27670
22.51683	25503
22.52495	25692
22.53307	28403
22.54120	27935
22.54932	27406
22.55743	28651
22.56557	26395
22.57368	27381
22.58182	25104
22.58993	24507
22.59805	24273
22.60618	26551
22.61430	28526
22.62243	27269
22.63055	27108
22.63867	28799
22.64680	24727
22.65492	28882
22.66303	29399
22.67117	27300
22.67928	28533
22.68742	28563
22.69553	29120
22.70365	28042
22.71178	26295
22.71990	27737
22.72803	27020
22.73615	26930
22.74427	23650
22.75240	26676
22.76052	29519
22.76865	25195
22.77677	28310
22.78488	27647
22.79302	23092
22.80113	25351
22.80925	31735
22.81738	24236
22.82550	24698
22.83363	25305
22.84175	30811
22.84987	32330
22.85800	24783
22.86612	26453
22.87425	25748
22.88237	24147
22.89048	26978
22.89862	27083
22.90673	28134
22.91487	24328
22.92298	28114
22.93110	28451
22.93923	28173
22.94735	27437
22.95547	31061
22.96360	26043
22.97172	27759
22.97985	26920
22.98797	27398
22.99608	28213
23.00422	28327
23.01233	28068
23.02047	31476
23.02858	28177
23.03670	26757
23.04483	26103
23.05295	27344
23.06107	26529
23.06920	27996
23.07732	28948
23.08545	27209
23.09357	26378
23.10168	28778
23.10982	28034
23.11793	27991
23.12607	24007
23.13418	27637
23.14230	27436
23.15043	29504
23.15855	24097
23.16668	24898
23.17480	25249
23.18292	27152
23.19105	26004
23.19917	27702
23.20728	27699
23.21542	28827
23.22353	27383
23.23167	25635
23.23978	23643
23.24790	28879
23.25603	28046
23.26415	25786
23.27228	25310
23.28040	27451
23.28852	27200
23.29665	28282
23.30477	28327
23.31288	25082
23.32102	27568
23.32913	26476
23.33727	25693
23.34538	29480
23.35350	26706
23.36163	26832
23.36975	28544
23.37788	26191
23.38600	27437
23.39412	30907
23.40225	27232
23.41037	28397
23.41850	26379
23.42662	25397
23.43473	24245
23.44287	24685
23.45098	28161
23.45910	29241
23.46723	29064
23.47535	24972
23.48348	27505
23.49160	26706
23.49972	25754
23.50785	26592
23.51597	29950
23.52410	29336
23.53222	25281
23.54033	26241
23.54847	26360
23.55658	25961
23.56472	28805
23.57283	27725
23.58095	28938
23.58908	26394
23.59720	26910
23.60532	25721
23.61345	25627
23.62157	25692
23.62970	26368
23.63782	27732
23.64593	29621
23.65407	26834
23.66218	27129
23.67032	33095
23.67843	29610
23.68655	24803
23.69468	26317
23.70280	27601
23.71093	26275
23.71905	26380
23.72717	23446
23.73530	25067
23.74342	26725
23.75153	26891
23.75967	28439
23.76778	28844
23.77592	26688
23.78403	27575
23.79215	25372
23.80028	25452
23.80840	28239
23.81653	27254
23.82465	26246
23.83277	28377
23.84090	26981
23.84902	31810
23.85713	26866
23.86527	28408
23.87338	23031
23.88152	26329
23.88963	28028
23.89775	24820
23.90588	25572
23.91400	26656
23.92213	25607
23.93025	26041
23.93837	24539
23.94650	24637
23.95462	25839
23.96275	26823
23.97087	25997
23.97898	25419
23.98712	25546
23.99523	29151
24.00335	26729
24.01148	27977
24.01960	24323
24.02773	24802
24.03585	24217
24.04397	25836
24.05210	23469
24.06022	26301
24.06835	27876
24.07647	26552
24.08458	29698
24.09272	24428
24.10083	25314
24.10895	27665
24.11708	26157
24.12520	27544
24.13333	25492
24.14145	26451
24.14957	25931
24.15770	26002
24.16582	25198
24.17395	27417
24.18207	26471
24.19018	27935
24.19832	28546
24.20643	28354
24.21457	29070
24.22268	26084
24.23080	27823
24.23893	28544
24.24705	26646
24.25517	26792
24.26330	30409
24.27142	23848
24.27955	26332
24.28767	27962
24.29578	25325
24.30392	26684
24.31203	25037
24.32017	27384
24.32828	24982
24.33640	24441
24.34453	25859
24.35265	25979
24.36078	24792
24.36890	25699
24.37702	26873
24.38515	24759
24.39327	28053
24.40138	24378
24.40952	30484
24.41763	26599
24.42577	28262
24.43388	24019
24.44200	21478
24.45013	27937
24.45825	28526
24.46638	23723
24.47450	23474
24.48262	25655
24.49075	23999
24.49887	26581
24.50698	25409
24.51512	26391
24.52323	24269
24.53137	24354
24.53948	26206
24.54760	31984
24.55573	26000
24.56385	25431
24.57198	24225
24.58010	24496
24.58822	23715
24.59635	23863
24.60447	26376
24.61260	25571
24.62072	28324
24.62883	25435
24.63697	30846
24.64508	25384
24.65320	25533
24.66133	25893
24.66945	25887
24.67758	24007
24.68570	26913
24.69382	26660
24.70195	26939
24.71007	26505
24.71820	25739
24.72632	22668
24.73443	25643
24.74257	23366
24.75068	26315
24.75882	23875
24.76693	24666
24.77505	24807
24.78318	24116
24.79130	21699
24.79942	30103
24.80755	25877
24.81567	27024
24.82380	27838
24.83192	24373
24.84003	24529
24.84817	26782
24.85628	26670
24.86442	22032
24.87253	22986
24.88065	25210
24.88878	27236
24.89690	23066
24.90502	27333
24.91315	30291
24.92127	24474
24.92940	24435
24.93752	24941
24.94563	24369
24.95377	22733
24.96188	22988
24.97002	21753
24.97813	24662
24.98625	25447
24.99438	24505
25.00250	23354
25.01063	24496
25.01875	24613
25.02687	21581
25.03500	25809
25.04312	22822
25.05123	23338
25.05937	22755
25.06748	24562
25.07562	24954
25.08373	24500
25.09185	24372
25.09998	25183
25.10810	26434
25.11623	26085
25.12435	25046
25.13247	28877
25.14060	27710
25.14872	28790
25.15683	22897
25.16497	28664
25.17308	26674
25.18122	24754
25.18933	25957
25.19745	22982
25.20558	28338
25.21370	26102
25.22183	28447
25.22995	26269
25.23807	25542
25.24620	23926
25.25432	22448
25.26245	23480
25.27057	29246
25.27868	22145
25.28682	22672
25.29493	26752
25.30305	24034
25.31118	25360
25.31930	23439
25.32743	24737
25.33555	22489
25.34367	24155
25.35180	23369
25.35992	26308
25.36805	29711
25.37617	25810
25.38428	22921
25.39242	28827
25.40053	23979
25.40867	23725
25.41678	22335
25.42490	24521
25.43303	22478
25.44115	28434
25.44927	23795
25.45740	27228
25.46552	25249
25.47365	23645
25.48177	24729
25.48988	24994
25.49802	24035
25.50613	26436
25.51427	23289
25.52238	27062
25.53050	23435
25.53863	22291
25.54675	29132
25.55487	24731
25.56300	22829
25.57112	21755
25.57925	24874
25.58737	23793
25.59548	22601
25.60362	27440
25.61173	26609
25.61987	25812
25.62798	25075
25.63610	27478
25.64423	28878
25.65235	24475
25.66048	24368
25.66860	23581
25.67672	25973
25.68485	22657
25.69297	21149
25.70108	25348
25.70922	25197
25.71733	25917
25.72547	26567
25.73358	23069
25.74170	23088
25.74983	23328
25.75795	22811
25.76608	24289
25.77420	25429
25.78232	24901
25.79045	23016
25.79857	24631
25.80670	20746
25.81482	22662
25.82293	22756
25.83107	22415
25.83918	28431
25.84730	21003
25.85543	24505
25.86355	22269
25.87168	24681
25.87980	29099
25.88792	24591
25.89605	23057
25.90417	23083
25.91230	29753
25.92042	21752
25.92853	22691
25.93667	26830
25.94478	23057
25.95290	22535
25.96103	21138
25.96915	22162
25.97728	22886
25.98540	24893
25.99352	24801
26.00165	26036
26.00977	23711
26.01790	26254
26.02602	25721
26.03413	23927
26.04227	24503
26.05038	22561
26.05852	22688
26.06663	23848
26.07475	24590
26.08288	23248
26.09100	27832
26.09912	23697
26.10725	23904
26.11537	23278
26.12350	25898
26.13162	23442
26.13973	24335
26.14787	21738
26.15598	23832
26.16412	21829
26.17223	21756
26.18035	28640
26.18848	23487
26.19660	27512
26.20473	21810
26.21285	23738
26.22097	25450
26.22910	21907
26.23722	24491
26.24533	22816
26.25347	23513
26.26158	23855
26.26972	23019
26.27783	22052
26.28595	23681
26.29408	22528
26.30220	22467
26.31033	23224
26.31845	25836
26.32657	24002
26.33470	21933
26.34282	24022
26.35093	23146
26.35907	24234
26.36718	25187
26.37532	24075
26.38343	26363
26.39155	26138
26.39968	26014
26.40780	22431
26.41593	22083
26.42405	20426
26.43217	23827
26.44030	22698
26.44842	23129
26.45655	22982
26.46467	26553
26.47278	21932
26.48092	21200
26.48903	24127
26.49715	28619
26.50528	26186
26.51340	24596
26.52153	29403
26.52965	25357
26.53777	24435
26.54590	23595
26.55402	22182
26.56215	25025
26.57027	25144
26.57838	25450
26.58652	24807
26.59463	24732
26.60275	22991
26.61088	23390
26.61900	21494
26.62713	26949
26.63525	24110
26.64337	25727
26.65150	23744
26.65962	25529
26.66775	23954
26.67587	22935
26.68398	25381
26.69212	23908
26.70023	25304
26.70837	22644
26.71648	29942
26.72460	24098
26.73273	25592
26.74085	22028
26.74897	24379
26.75710	23273
26.76522	22067
26.77335	22915
26.78147	26814
26.78958	22802
26.79772	24066
26.80583	24778
26.81397	24047
26.82208	22931
26.83020	22187
26.83833	25488
26.84645	24903
26.85458	23507
26.86270	26487
26.87082	25938
26.87895	24418
26.88707	26313
26.89518	22514
26.90332	23302
26.91143	23366
26.91957	23646
26.92768	23122
26.93580	22757
26.94393	24484
26.95205	22195
26.96018	23203
26.96830	23654
26.97642	22653
26.98455	22216
26.99267	21420
27.00078	21896
27.00892	23427
27.01703	23003
27.02517	23273
27.03328	22143
27.04140	24881
27.04953	25421
27.05765	26389
27.06578	26046
27.07390	25862
27.08202	24846
27.09015	24002
27.09827	25540
27.10640	21644
27.11452	25608
27.12263	24814
27.13077	25189
27.13888	24820
27.14700	24571
27.15513	27070
27.16325	23999
27.17138	22107
27.17950	25436
27.18762	25730
27.19575	24306
27.20387	21494
27.21200	23569
27.22012	25421
27.22823	24156
27.23637	24737
27.24448	23131
27.25262	24290
27.26073	24491
27.26885	25625
27.27698	23559
27.28510	22504
27.29322	26456
27.30135	28463
27.30947	24537
27.31760	23702
27.32572	34640
27.33383	26878
27.34197	25082
27.35008	20791
27.35822	22717
27.36633	24060
27.37445	23766
27.38258	23312
27.39070	24451
27.39882	23822
27.40695	23005
27.41507	25294
27.42320	25757
27.43132	22950
27.43943	24351
27.44757	23037
27.45568	23580
27.46382	24624
27.47193	21999
27.48005	22475
27.48818	21752
27.49630	22592
27.50443	26337
27.51255	24164
27.52067	29038
27.52880	25212
27.53692	27639
27.54503	24171
27.55317	22941
27.56128	25744
27.56942	23978
27.57753	27761
27.58565	25011
27.59378	27609
27.60190	24196
27.61003	24676
27.61815	23359
27.62627	23660
27.63440	25145
27.64252	26470
27.65063	25755
27.65877	26021
27.66688	28111
27.67502	24184
27.68313	22876
27.69125	23793
27.69938	23426
27.70750	26580
27.71563	28113
27.72375	24698
27.73187	26853
27.74000	27389
27.74812	23599
27.75625	25608
27.76437	27779
27.77248	22890
27.78062	23433
27.78873	24932
27.79685	26711
27.80498	23507
27.81310	23775
27.82123	24299
27.82935	26239
27.83747	24956
27.84560	25472
27.85372	24685
27.86185	26152
27.86997	25421
27.87808	25130
27.88622	22627
27.89433	25500
27.90247	23218
27.91058	22789
27.91870	24151
27.92683	25020
27.93495	24170
27.94307	24135
27.95120	25027
27.95932	25108
27.96745	26627
27.97557	24139
27.98368	22237
27.99182	25419
27.99993	23650
28.00807	24180
28.01618	24270
28.02430	24272
28.03243	21697
28.04055	24209
28.04867	27716
28.05680	26719
28.06492	25267
28.07305	23245
28.08117	26246
28.08928	25301
28.09742	25484
28.10553	28196
28.11367	23892
28.12178	26839
28.12990	23779
28.13803	21966
28.14615	26424
28.15428	26510
28.16240	25638
28.17052	25633
28.17865	25831
28.18677	25667
28.19488	24534
28.20302	25219
28.21113	24517
28.21927	22961
28.22738	30484
28.23550	24713
28.24363	23321
28.25175	23455
28.25988	24454
28.26800	24789
28.27612	24210
28.28425	23825
28.29237	25552
28.30050	24799
28.30862	24973
28.31673	23294
28.32487	25268
28.33298	26331
28.34110	26898
28.34923	25708
28.35735	23719
28.36548	24937
28.37360	23106
28.38172	23631
28.38985	25220
28.39797	23943
28.40610	27834
28.41422	19492
28.42233	23468
28.43047	25582
28.43858	25751
28.44670	25786
28.45483	24383
28.46295	22806
28.47108	27216
28.47920	26370
28.48732	23983
28.49545	24791
28.50357	25443
28.51170	27325
28.51982	27273
28.52793	25499
28.53607	26681
28.54418	28211
28.55232	24434
28.56043	24231
28.56855	23904
28.57668	24409
28.58480	25423
28.59292	24131
28.60105	27020
28.60917	25859
28.61730	22463
28.62542	30036
28.63353	29062
28.64167	23892
28.64978	25302
28.65792	26420
28.66603	25850
28.67415	25728
28.68228	25393
28.69040	26591
28.69852	25255
28.70665	23375
28.71477	25851
28.72290	25742
28.73102	28351
28.73913	24514
28.74727	26236
28.75538	24261
28.76352	26750
28.77163	23690
28.77975	22976
28.78788	28079
28.79600	25848
28.80413	25587
28.81225	27651
28.82037	28569
28.82850	25003
28.83662	26650
28.84473	25666
28.85287	30341
28.86098	24767
28.86912	23592
28.87723	24310
28.88535	28894
28.89348	26572
28.90160	26603
28.90973	22712
28.91785	23710
28.92597	24796
28.93410	26622
28.94222	22390
28.95035	25916
28.95847	27212
28.96658	27589
28.97472	24608
28.98283	27820
28.99095	27399
28.99908	25213
29.00720	25059
29.01533	25781
29.02345	28037
29.03157	26233
29.03970	24268
29.04782	25037
29.05595	25128
29.06407	28274
29.07218	26977
29.08032	23612
29.08843	28429
29.09657	24429
29.10468	24040
29.11280	23258
29.12093	25789
29.12905	25054
29.13717	25503
29.14530	22857
29.15342	27686
29.16155	29131
29.16967	28932
29.17778	28510
29.18592	25682
29.19403	23463
29.20217	25492
29.21028	27094
29.21840	27496
29.22653	25352
29.23465	24253
29.24277	27367
29.25090	26583
29.25902	28508
29.26715	25103
29.27527	28333
29.28338	24741
29.29152	26317
29.29963	26218
29.30777	29095
29.31588	24254
29.32400	27054
29.33213	27984
29.34025	25600
29.34838	27460
29.35650	28562
29.36462	23749
29.37275	28493
29.38087	26899
29.38898	25447
29.39712	25822
29.40523	23909
29.41337	29038
29.42148	24298
29.42960	27206
29.43773	29998
29.44585	26960
29.45398	28836
29.46210	26483
29.47022	25213
29.47835	27012
29.48647	27588
29.49458	26163
29.50272	27148
29.51083	24483
29.51897	24685
29.52708	27932
29.53520	24331
29.54333	28056
29.55145	26122
29.55958	27536
29.56770	26496
29.57582	26515
29.58395	23783
29.59207	25734
29.60020	28598
29.60832	25401
29.61643	26093
29.62457	28216
29.63268	26488
29.64080	26391
29.64893	27600
29.65705	26373
29.66518	27122
29.67330	29180
29.68142	24968
29.68955	28625
29.69767	27932
29.70580	33116
29.71392	27843
29.72203	27549
29.73017	28541
29.73828	29654
29.74642	27462
29.75453	28384
29.76265	25146
29.77078	24944
29.77890	29794
29.78702	25744
29.79515	26850
29.80327	25916
29.81140	26023
29.81952	28795
29.82763	30864
29.83577	30807
29.84388	27229
29.85202	24164
29.86013	27207
29.86825	27956
29.87638	26228
29.88450	27601
29.89262	28551
29.90075	29461
29.90887	28221
29.91700	28384
29.92512	28326
29.93323	26744
29.94137	30439
29.94948	28603
29.95762	30507
29.96573	26392
29.97385	27545
29.98198	28312
29.99010	30777
29.99823	26787
30.00635	29573
30.01447	28490
30.02260	28068
30.03072	30270
30.03883	27994
30.04697	26379
30.05508	29120
30.06322	29590
30.07133	27237
30.07945	29052
30.08758	25934
30.09570	25791
30.10383	27825
30.11195	27943
30.12007	26677
30.12820	27582
30.13632	25714
30.14445	27249
30.15257	26744
30.16068	29161
30.16882	30815
30.17693	26794
30.18505	30923
30.19318	30978
30.20130	29327
30.20943	23688
30.21755	27303
30.22567	24822
30.23380	27754
30.24192	27070
30.25005	25857
30.25817	25966
30.26628	26949
30.27442	28750
30.28253	25028
30.29065	28949
30.29878	28165
30.30690	27910
30.31503	25523
30.32315	25881
30.33127	28086
30.33940	26561
30.34752	26871
30.35565	27306
30.36377	27734
30.37188	28663
30.38002	26284
30.38813	27353
30.39627	28781
30.40438	27620
30.41250	24059
30.42063	25519
30.42875	27754
30.43687	27784
30.44500	26321
30.45312	28337
30.46125	25897
30.46937	26171
30.47748	26037
30.48562	29834
30.49373	28697
30.50187	26867
30.50998	27264
30.51810	26367
30.52623	27822
30.53435	28226
30.54247	32365
30.55060	26603
30.55872	29193
30.56685	28078
30.57497	29658
30.58308	28371
30.59122	30997
30.59933	27510
30.60747	29488
30.61558	34735
30.62370	28700
30.63183	29132
30.63995	30144
30.64808	29459
30.65620	32598
30.66432	29984
30.67245	29970
30.68057	29058
30.68868	25478
30.69682	27275
30.70493	31356
30.71307	31710
30.72118	31275
30.72930	29383
30.73743	30210
30.74555	32279
30.75368	29359
30.76180	29847
30.76992	27266
30.77805	29380
30.78617	26625
30.79430	28998
30.80242	29033
30.81053	28956
30.81867	30003
30.82678	26433
30.83490	29197
30.84303	28745
30.85115	26013
30.85928	27255
30.86740	28889
30.87552	35071
30.88365	30418
30.89177	30054
30.89990	31759
30.90802	28593
30.91613	29815
30.92427	31133
30.93238	28980
30.94050	29949
30.94863	28295
30.95675	27898
30.96488	29478
30.97300	30594
30.98112	29916
30.98925	29645
30.99737	28029
31.00550	29225
31.01362	30222
31.02173	29102
31.02987	29131
31.03798	31816
31.04612	28674
31.05423	30013
31.06235	32229
31.07048	26325
31.07860	33503
31.08672	29312
31.09485	28536
31.10297	31261
31.11110	33707
31.11922	32102
31.12733	30512
31.13547	34900
31.14358	29761
31.15172	30654
31.15983	26124
31.16795	29741
31.17608	32119
31.18420	30934
31.19233	30697
31.20045	28753
31.20857	27672
31.21670	27252
31.22482	26088
31.23293	31077
31.24107	29111
31.24918	29126
31.25732	29949
31.26543	26987
31.27355	27744
31.28168	30653
31.28980	33473
31.29793	30459
31.30605	32171
31.31417	30799
31.32230	33090
31.33042	30030
31.33853	30213
31.34667	31332
31.35478	28029
31.36292	28501
31.37103	34630
31.37915	35102
31.38728	29364
31.39540	28745
31.40353	31280
31.41165	29538
31.41977	30802
31.42790	33071
31.43602	32800
31.44415	28418
31.45227	28933
31.46038	32212
31.46852	30154
31.47663	29188
31.48475	27442
31.49288	31963
31.50100	28112
31.50913	30090
31.51725	29678
31.52537	29451
31.53350	30472
31.54162	36591
31.54975	29778
31.55787	27933
31.56598	31093
31.57412	32376
31.58223	29125
31.59037	29544
31.59848	29902
31.60660	32865
31.61473	29590
31.62285	28264
31.63097	29548
31.63910	30075
31.64722	30394
31.65535	30295
31.66347	35017
31.67158	29465
31.67972	27896
31.68783	28897
31.69597	31836
31.70408	29052
31.71220	32771
31.72033	36227
31.72845	32094
31.73657	30996
31.74470	30821
31.75282	32981
31.76095	30351
31.76907	32676
31.77718	33787
31.78532	31010
31.79343	33193
31.80157	32549
31.80968	31940
31.81780	33013
31.82593	29853
31.83405	29975
31.84218	29065
31.85030	33307
31.85842	30912
31.86655	33678
31.87467	32186
31.88278	30219
31.89092	30558
31.89903	33427
31.90717	30719
31.91528	33197
31.92340	33175
31.93153	31498
31.93965	30180
31.94778	31022
31.95590	32876
31.96402	31694
31.97215	31162
31.98027	33624
31.98838	33084
31.99652	32209
32.00463	34769
32.01277	27696
32.02088	36948
32.02900	31657
32.03713	34840
32.04525	34618
32.05338	30802
32.06150	31319
32.06962	33737
32.07775	31305
32.08587	31397
32.09400	33524
32.10212	35081
32.11023	30959
32.11837	32289
32.12648	28968
32.13460	31111
32.14273	34221
32.15085	33242
32.15898	32889
32.16710	32772
32.17522	32654
32.18335	32915
32.19147	31516
32.19960	31714
32.20772	34248
32.21583	34652
32.22397	35611
32.23208	33533
32.24022	32918
32.24833	34094
32.25645	33207
32.26458	35888
32.27270	34157
32.28082	33206
32.28895	34004
32.29707	34287
32.30520	32084
32.31332	33152
32.32143	30133
32.32957	32821
32.33768	33253
32.34582	35382
32.35393	32905
32.36205	37393
32.37018	35025
32.37830	32654
32.38642	34583
32.39455	34252
32.40267	36020
32.41080	32337
32.41892	31509
32.42703	35517
32.43517	33670
32.44328	33813
32.45142	36491
32.45953	33439
32.46765	31702
32.47578	32439
32.48390	36989
32.49203	35394
32.50015	32895
32.50827	37196
32.51640	34810
32.52452	34529
32.53263	33281
32.54077	32662
32.54888	33986
32.55702	34637
32.56513	35365
32.57325	34952
32.58138	34083
32.58950	36604
32.59763	31424
32.60575	34830
32.61387	37546
32.62200	36781
32.63012	40077
32.63825	32824
32.64637	34530
32.65448	37952
32.66262	36787
32.67073	37713
32.67885	36878
32.68698	37692
32.69510	32258
32.70323	35558
32.71135	38523
32.71947	37663
32.72760	43738
32.73572	34345
32.74385	35267
32.75197	42656
32.76008	35843
32.76822	40390
32.77633	36105
32.78445	35548
32.79258	33123
32.80070	39613
32.80883	38811
32.81695	37396
32.82507	40260
32.83320	36962
32.84132	40768
32.84945	41400
32.85757	37232
32.86568	39240
32.87382	40008
32.88193	38539
32.89007	38589
32.89818	41002
32.90630	38784
32.91443	42262
32.92255	37683
32.93067	42798
32.93880	40327
32.94692	43529
32.95505	41176
32.96317	39422
32.97128	40050
32.97942	38669
32.98753	41426
32.99567	40500
33.00378	47059
33.01190	44886
33.02003	38968
33.02815	40974
33.03627	40656
33.04440	42639
33.05252	45579
33.06065	39561
33.06877	41381
33.07688	41772
33.08502	43798
33.09313	41695
33.10127	40623
33.10938	42436
33.11750	40966
33.12563	42463
33.13375	44381
33.14188	42117
33.15000	44813
33.15812	43909
33.16625	47091
33.17437	41779
33.18248	43305
33.19062	44203
33.19873	42624
33.20687	41460
33.21498	49271
33.22310	42074
33.23123	46165
33.23935	42512
33.24748	43008
33.25560	40534
33.26372	38513
33.27185	45454
33.27997	43495
33.28810	41627
33.29622	43103
33.30433	45834
33.31247	43238
33.32058	41538
33.32870	42425
33.33683	45752
33.34495	44597
33.35308	44108
33.36120	45617
33.36932	40826
33.37745	43329
33.38557	42316
33.39370	42924
33.40182	41047
33.40993	44698
33.41807	44423
33.42618	43873
33.43432	44296
33.44243	40990
33.45055	43956
33.45868	40436
33.46680	40391
33.47492	42158
33.48305	44589
33.49117	42406
33.49930	44564
33.50742	40713
33.51553	43156
33.52367	44713
33.53178	45955
33.53992	39708
33.54803	41112
33.55615	40017
33.56428	42508
33.57240	42524
33.58052	43139
33.58865	43164
33.59677	46786
33.60490	42892
33.61302	43575
33.62113	44233
33.62927	39775
33.63738	44615
33.64552	43216
33.65363	45455
33.66175	44357
33.66988	43776
33.67800	44605
33.68613	43160
33.69425	45102
33.70237	39756
33.71050	45957
33.71862	46907
33.72673	46182
33.73487	45585
33.74298	43662
33.75112	50407
33.75923	50692
33.76735	45314
33.77548	48969
33.78360	48386
33.79173	50474
33.79985	51160
33.80797	48320
33.81610	49264
33.82422	50789
33.83233	48681
33.84047	49979
33.84858	53849
33.85672	57651
33.86483	51180
33.87295	54772
33.88108	50980
33.88920	56867
33.89733	55356
33.90545	55819
33.91357	59954
33.92170	57167
33.92982	62141
33.93795	61144
33.94607	65264
33.95418	61238
33.96232	63667
33.97043	64877
33.97855	65117
33.98668	61392
33.99480	65824
34.00293	68358
34.01105	65190
34.01917	65808
34.02730	72834
34.03542	71619
34.04355	72157
34.05167	79225
34.05978	77009
34.06792	77330
34.07603	77209
34.08417	79281
34.09228	81602
34.10040	85090
34.10853	82752
34.11665	86625
34.12477	87763
34.13290	92412
34.14102	99812
34.14915	102590
34.15727	109972
34.16538	105135
34.17352	106955
34.18163	118691
34.18977	121276
34.19788	125413
34.20600	131887
34.21413	138760
34.22225	145194
34.23037	146028
34.23850	161648
34.24662	159254
34.25475	167609
34.26287	182432
34.27098	188121
34.27912	204741
34.28723	214506
34.29537	240948
34.30348	243512
34.31160	264942
34.31973	282456
34.32785	295845
34.33598	316962
34.34410	346679
34.35222	366476
34.36035	384743
34.36847	408968
34.37658	446437
34.38472	478814
34.39283	505833
34.40097	549498
34.40908	574676
34.41720	617503
34.42533	640994
34.43345	694875
34.44158	751983
34.44970	797279
34.45782	852626
34.46595	919445
34.47407	1005216
34.48220	1074081
34.49032	1135288
34.49843	1224957
34.50657	1282411
34.51468	1385362
34.52280	1485286
34.53093	1560045
34.53905	1678931
34.54718	1773376
34.55530	1876439
34.56342	1968442
34.57155	2088238
34.57967	2160615
34.58780	2243378
34.59592	2323091
34.60403	2374034
34.61217	2469667
34.62028	2548135
34.62840	2621827
34.63653	2697831
34.64465	2763953
34.65278	2830971
34.66090	2890234
34.66902	2955009
34.67715	3080078
34.68527	3154946
34.69340	3236493
34.70152	3303206
34.70963	3418493
34.71777	3476830
34.72588	3583218
34.73402	3677593
34.74213	3751470
34.75025	3821151
34.75838	3819776
34.76650	3916580
34.77462	3940238
34.78275	3960053
34.79087	3958940
34.79900	3990565
34.80712	4005148
34.81523	3981040
34.82337	3964928
34.83148	3966206
34.83962	3954605
34.84773	4026214
34.85585	4079280
34.86398	4134547
34.87210	4181672
34.88022	4237752
34.88835	4359591
34.89647	4458933
34.90460	4541223
34.91272	4618184
34.92083	4705437
34.92897	4780667
34.93708	4878586
34.94522	4959540
34.95333	5034253
34.96145	5063655
34.96958	5131731
34.97770	5213351
34.98583	5187985
34.99395	5224013
35.00207	5257663
35.01020	5421503
35.01832	5435534
35.02643	5464765
35.03457	5437421
35.04268	5545480
35.05082	5630846
35.05893	5754514
35.06705	5925184
35.07518	6048614
35.08330	6076610
35.09143	6107087
35.09955	6111127
35.10767	6148782
35.11580	6198237
35.12392	6176662
35.13205	6184139
35.14017	6325016
35.14828	6322994
35.15642	6216726
35.16453	6191564
35.17265	6179070
35.18078	6246536
35.18890	6374190
35.19703	6459151
35.20515	6428348
35.21327	6580226
35.22140	6742415
35.22952	6932911
35.23765	7138954
35.24577	7286251
35.25388	7470283
35.26202	7694793
35.27013	7910881
35.27825	8085500
35.28638	8212503
35.29450	8330439
35.30263	8486773
35.31075	8691057
35.31887	8976770
35.32700	9272343
35.33512	9489544
35.34325	9674915
35.35137	9849048
35.35948	9966758
35.36762	1.008362E+07
35.37573	1.039645E+07
35.38387	1.050765E+07
35.39198	1.057777E+07
35.40010	1.074867E+07
35.40823	1.088166E+07
35.41635	1.096363E+07
35.42447	1.083667E+07
35.43260	1.09647E+07
35.44072	1.099358E+07
35.44885	1.094651E+07
35.45697	1.101657E+07
35.46508	1.124607E+07
35.47322	1.142831E+07
35.48133	1.165801E+07
35.48947	1.165041E+07
35.49758	1.154985E+07
35.50570	1.169717E+07
35.51383	1.190507E+07
35.52195	1.200991E+07
35.53008	1.2096E+07
35.53820	1.21099E+07
35.54632	1.20202E+07
35.55445	1.172695E+07
35.56257	1.158087E+07
35.57068	1.165292E+07
35.57882	1.157645E+07
35.58693	1.154226E+07
35.59507	1.173167E+07
35.60318	1.187065E+07
35.61130	1.213278E+07
35.61943	1.239716E+07
35.62755	1.246513E+07
35.63568	1.27981E+07
35.64380	1.295151E+07
35.65192	1.329737E+07
35.66005	1.345136E+07
35.66817	1.371773E+07
35.67628	1.408032E+07
35.68442	1.432151E+07
35.69253	1.43709E+07
35.70067	1.460229E+07
35.70878	1.50815E+07
35.71690	1.530443E+07
35.72503	1.515219E+07
35.73315	1.490491E+07
35.74128	1.484272E+07
35.74940	1.509133E+07
35.75752	1.521039E+07
35.76565	1.511899E+07
35.77377	1.483413E+07
35.78190	1.485631E+07
35.79002	1.500662E+07
35.79813	1.518538E+07
35.80627	1.565548E+07
35.81438	1.53904E+07
35.82250	1.533918E+07
35.83063	1.513123E+07
35.83875	1.494187E+07
35.84688	1.464502E+07
35.85500	1.484765E+07
35.86312	1.50977E+07
35.87125	1.515043E+07
35.87937	1.539065E+07
35.88750	1.565936E+07
35.89562	1.557441E+07
35.90373	1.573054E+07
35.91187	1.585303E+07
35.91998	1.588952E+07
35.92812	1.636916E+07
35.93623	1.6973E+07
35.94435	1.732082E+07
35.95248	1.784316E+07
35.96060	1.843199E+07
35.96872	1.866143E+07
35.97685	1.89104E+07
35.98497	1.946016E+07
35.99310	2.006217E+07
36.00122	2.028912E+07
36.00933	2.07395E+07
36.01747	2.138599E+07
36.02558	2.211441E+07
36.03372	2.285197E+07
36.04183	2.304667E+07
36.04995	2.377081E+07
36.05808	2.44211E+07
36.06620	2.521654E+07
36.07432	2.553437E+07
36.08245	2.611071E+07
36.09057	2.670874E+07
36.09870	2.688914E+07
36.10682	2.756644E+07
36.11493	2.791753E+07
36.12307	2.794796E+07
36.13118	2.832079E+07
36.13932	2.841576E+07
36.14743	2.820061E+07
36.15555	2.828192E+07
36.16368	2.884137E+07
36.17180	2.899199E+07
36.17993	2.85965E+07
36.18805	2.897824E+07
36.19617	2.889687E+07
36.20430	2.923134E+07
36.21242	2.955122E+07
36.22053	2.926483E+07
36.22867	2.873453E+07
36.23678	2.864024E+07
36.24492	2.795797E+07
36.25303	2.731635E+07
36.26115	2.731439E+07
36.26928	2.718529E+07
36.27740	2.694026E+07
36.28553	2.702397E+07
36.29365	2.730481E+07
36.30177	2.774262E+07
36.30990	2.847939E+07
36.31802	2.865409E+07
36.32613	2.835811E+07
36.33427	2.917596E+07
36.34238	2.978662E+07
36.35052	2.995958E+07
36.35863	3.014675E+07
36.36675	3.102779E+07
36.37488	3.176688E+07
36.38300	3.230968E+07
36.39113	3.277704E+07
36.39925	3.332022E+07
36.40737	3.378852E+07
36.41550	3.428218E+07
36.42362	3.476972E+07
36.43175	3.514748E+07
36.43987	3.480088E+07
36.44798	3.462264E+07
36.45612	3.40744E+07
36.46423	3.385209E+07
36.47235	3.372934E+07
36.48048	3.27177E+07
36.48860	3.265132E+07
36.49673	3.264091E+07
36.50485	3.30789E+07
36.51297	3.27028E+07
36.52110	3.207267E+07
36.52922	3.136186E+07
36.53735	3.136771E+07
36.54547	3.121779E+07
36.55358	3.112528E+07
36.56172	3.057658E+07
36.56983	3.01786E+07
36.57797	3.007532E+07
36.58608	3.00067E+07
36.59420	2.974849E+07
36.60233	2.982897E+07
36.61045	2.982015E+07
36.61857	3.030701E+07
36.62670	3.016447E+07
36.63482	3.139026E+07
36.64295	3.233376E+07
36.65107	3.394238E+07
36.65918	3.410157E+07
36.66732	3.378641E+07
36.67543	3.418763E+07
36.68357	3.509158E+07
36.69168	3.60939E+07
36.69980	3.684112E+07
36.70793	3.702963E+07
36.71605	3.811966E+07
36.72417	3.851312E+07
36.73230	3.7318E+07
36.74042	3.506234E+07
36.74855	3.250614E+07
36.75667	2.886296E+07
36.76478	2.409294E+07
36.77292	1.877273E+07
36.78103	1.435729E+07
36.78917	1.087294E+07
36.79728	8540237
36.80540	6913507
36.81353	5905346
36.82165	5153132
36.82978	4656329
36.83790	4343320
36.84602	4083073
36.85415	3869667
36.86227	3835705
36.87038	3784508
36.87852	3681942
36.88663	3710586
36.89477	3790867
36.90288	3790439
36.91100	3810485
36.91913	3873089
36.92725	3878291
36.93538	3906189
36.94350	3909473
36.95162	3956595
36.95975	3998633
36.96787	4012086
36.97600	3933898
36.98412	4016682
36.99223	4109305
37.00037	4158130
37.00848	4170478
37.01660	4251620
37.02473	4261903
37.03285	4308363
37.04098	4303522
37.04910	4299019
37.05722	4334387
37.06535	4324045
37.07347	4334735
37.08160	4490932
37.08972	4547171
37.09783	4543697
37.10597	4608362
37.11408	4689287
37.12220	4766346
37.13033	4893615
37.13845	5073822
37.14658	5177513
37.15470	5337225
37.16282	5399789
37.17095	5548214
37.17907	5584831
37.18720	5758485
37.19532	5832380
37.20343	5987307
37.21157	6112789
37.21968	6224939
37.22782	6243007
37.23593	6202150
37.24405	6279812
37.25218	6413028
37.26030	6507593
37.26842	6534551
37.27655	6515695
37.28467	6479901
37.29280	6505410
37.30092	6484938
37.30903	6621704
37.31717	6709194
37.32528	7016054
37.33342	7232787
37.34153	7264434
37.34965	7386330
37.35778	7803810
37.36590	7899551
37.37402	8009192
37.38215	8105810
37.39027	8285634
37.39840	8562656
37.40652	8761436
37.41463	8807779
37.42277	8910149
37.43088	9086565
37.43902	9449838
37.44713	9549290
37.45525	9479403
37.46338	9392413
37.47150	9530408
37.47963	9559895
37.48775	9507528
