Z:\data\JTB-E02\BACandBLUE\JTB-E18-007-07.D Fri Apr 12 10:11:23 2019
Start of data points
2.09523	65808
2.10337	64726
2.11148	63796
2.11962	61450
2.12773	56461
2.13585	63432
2.14398	60858
2.15210	61304
2.16023	59656
2.16835	57538
2.17647	58371
2.18460	60950
2.19272	52606
2.20083	50951
2.20897	59541
2.21708	54056
2.22522	50358
2.23333	56855
2.24145	57373
2.24958	53680
2.25770	52656
2.26583	107088
2.27395	659777
2.28207	1503053
2.29020	1138112
2.29832	592774
2.30645	398706
2.31457	337282
2.32268	303477
2.33082	249033
2.33893	242990
2.34705	215153
2.35518	202446
2.36330	178417
2.37143	174460
2.37955	159426
2.38767	157026
2.39580	152136
2.40392	148928
2.41205	146181
2.42017	137229
2.42828	134273
2.43642	132527
2.44453	132621
2.45265	124210
2.46078	122381
2.46890	121936
2.47703	117372
2.48515	118700
2.49327	114119
2.50140	123215
2.50952	124635
2.51765	114473
2.52577	115985
2.53388	116048
2.54202	105041
2.55013	112487
2.55827	147300
2.56638	248002
2.57450	299871
2.58263	251499
2.59075	206123
2.59887	198721
2.60700	445463
2.61512	1577010
2.62325	2176582
2.63137	1437167
2.63948	818499
2.64762	536592
2.65573	389776
2.66387	301882
2.67198	247380
2.68010	212634
2.68823	193053
2.69635	178858
2.70448	166550
2.71260	151629
2.72072	148464
2.72885	141834
2.73697	136569
2.74508	136137
2.75322	129689
2.76133	129236
2.76947	131225
2.77758	123935
2.78570	183483
2.79383	309137
2.80195	332556
2.81008	255468
2.81820	212377
2.82632	202821
2.83445	186862
2.84257	168935
2.85068	155354
2.85882	141743
2.86693	138371
2.87507	130466
2.88318	131059
2.89130	120828
2.89943	118023
2.90755	115715
2.91568	115223
2.92380	112997
2.93192	108727
2.94005	105225
2.94817	108773
2.95630	110396
2.96442	137400
2.97253	177267
2.98067	184786
2.98878	152934
2.99690	151344
3.00503	141788
3.01315	146030
3.02128	135960
3.02940	123169
3.03752	121364
3.04565	118214
3.05377	116070
3.06190	115115
3.07002	129633
3.07813	168982
3.08627	647068
3.09438	3453605
3.10252	9193843
3.11063	1.658759E+07
3.11875	2.329097E+07
3.12688	2.292337E+07
3.13500	1.792302E+07
3.14312	1.352486E+07
3.15125	1.058522E+07
3.15937	8456730
3.16750	6775699
3.17562	5585593
3.18373	4693121
3.19187	4041822
3.19998	3820602
3.20812	3678201
3.21623	3222905
3.22435	2708491
3.23248	2300456
3.24060	2017765
3.24872	1788230
3.25685	1586817
3.26497	1441671
3.27310	1287716
3.28122	1171890
3.28933	1066596
3.29747	1054779
3.30558	1380205
3.31372	2441588
3.32183	3815937
3.32995	4450365
3.33808	4017578
3.34620	3227317
3.35433	2670255
3.36245	2239969
3.37057	1898527
3.37870	1696576
3.38682	1522935
3.39493	1376308
3.40307	1257004
3.41118	1151804
3.41932	1090932
3.42743	1033572
3.43555	988735
3.44368	935304
3.45180	893451
3.45993	849916
3.46805	805414
3.47617	767519
3.48430	741978
3.49242	710174
3.50053	678681
3.50867	633181
3.51678	600180
3.52492	562250
3.53303	541319
3.54115	512024
3.54928	499013
3.55740	485656
3.56553	451226
3.57365	440562
3.58177	504989
3.58990	571240
3.59802	568818
3.60615	522244
3.61427	483191
3.62238	474492
3.63052	482217
3.63863	476837
3.64675	465742
3.65488	456735
3.66300	450790
3.67113	580500
3.67925	1646903
3.68737	4695136
3.69550	7640578
3.70362	7431346
3.71175	5681228
3.71987	4365481
3.72798	3571556
3.73612	3045105
3.74423	2664237
3.75237	2370840
3.76048	2148150
3.76860	1966652
3.77673	1809383
3.78485	1674980
3.79297	1538821
3.80110	1480700
3.80922	1461869
3.81735	1726521
3.82547	2536694
3.83358	3148384
3.84172	3006906
3.84983	2475779
3.85797	2124548
3.86608	1844415
3.87420	1649708
3.88233	1492214
3.89045	1370983
3.89857	1274258
3.90670	1161979
3.91482	1075183
3.92295	1006773
3.93107	1008304
3.93918	1032490
3.94732	1085248
3.95543	1470296
3.96357	3926346
3.97168	1.074966E+07
3.97980	1.864176E+07
3.98793	2.070834E+07
3.99605	1.655764E+07
4.00418	1.183048E+07
4.01230	1.595128E+07
4.02042	3.316082E+07
4.02855	5.26515E+07
4.03667	6.067971E+07
4.04478	5.248862E+07
4.05292	3.391168E+07
4.06103	1.940644E+07
4.06917	1.263298E+07
4.07728	9131276
4.08540	7174364
4.09353	5714143
4.10165	4738858
4.10978	4010687
4.11790	3446589
4.12602	3063151
4.13415	2732081
4.14227	2482704
4.15040	2256602
4.15852	2086744
4.16663	1929331
4.17477	1791851
4.18288	1677708
4.19100	1628063
4.19913	1491028
4.20725	1352314
4.21538	1265073
4.22350	1595750
4.23162	3635569
4.23975	8129628
4.24787	1.255244E+07
4.25600	1.361379E+07
4.26412	1.088863E+07
4.27223	7159113
4.28037	4665540
4.28848	3346741
4.29660	2552959
4.30473	2042789
4.31285	1733055
4.32098	1512374
4.32910	1358822
4.33722	1252899
4.34535	1142976
4.35347	1064154
4.36160	997127
4.36972	934078
4.37783	915935
4.38597	905029
4.39408	863030
4.40222	818119
4.41033	760874
4.41845	716567
4.42658	688339
4.43470	660206
4.44282	620645
4.45095	607676
4.45907	587823
4.46720	573707
4.47532	570395
4.48343	553007
4.49157	536801
4.49968	537933
4.50782	536863
4.51593	520901
4.52405	521650
4.53218	503474
4.54030	492369
4.54842	498106
4.55655	485045
4.56467	488933
4.57280	468042
4.58092	465119
4.58903	448924
4.59717	450944
4.60528	424467
4.61342	419315
4.62153	412593
4.62965	420606
4.63778	438651
4.64590	496856
4.65403	589696
4.66215	651080
4.67027	633004
4.67840	559950
4.68652	502259
4.69463	489052
4.70277	459427
4.71088	453551
4.71902	432019
4.72713	414005
4.73525	410558
4.74338	389219
4.75150	381841
4.75963	372903
4.76775	364309
4.77587	364179
4.78400	353811
4.79212	359142
4.80025	385421
4.80837	506624
4.81648	770334
4.82462	1069148
4.83273	1163325
4.84085	1038489
4.84898	881291
4.85710	789577
4.86523	726448
4.87335	708722
4.88147	663764
4.88960	642414
4.89772	595962
4.90585	558756
4.91397	549551
4.92208	522241
4.93022	492503
4.93833	489881
4.94647	486237
4.95458	555456
4.96270	793810
4.97083	1401447
4.97895	2285431
4.98707	2986621
4.99520	3092988
5.00332	2635987
5.01145	2095342
5.01957	1635954
5.02768	1339226
5.03582	1173728
5.04393	1073940
5.05207	1027909
5.06018	1013623
5.06830	979022
5.07643	916199
5.08455	855489
5.09267	789378
5.10080	726825
5.10892	676849
5.11705	644940
5.12517	599817
5.13328	584297
5.14142	552822
5.14953	554207
5.15767	547404
5.16578	568988
5.17390	591161
5.18203	602025
5.19015	616349
5.19828	597680
5.20640	564373
5.21452	553370
5.22265	553105
5.23077	557968
5.23888	543540
5.24702	531977
5.25513	497392
5.26327	486211
5.27138	456127
5.27950	461601
5.28763	425336
5.29575	398455
5.30388	406493
5.31200	404079
5.32012	389989
5.32825	386789
5.33637	378857
5.34448	408338
5.35262	436226
5.36073	471819
5.36887	465439
5.37698	440418
5.38510	414453
5.39323	395301
5.40135	383277
5.40948	385455
5.41760	382718
5.42572	388722
5.43385	373920
5.44197	355292
5.45010	354377
5.45822	341930
5.46633	343399
5.47447	335189
5.48258	343114
5.49070	346038
5.49883	344263
5.50695	324777
5.51508	315705
5.52320	308843
5.53132	311464
5.53945	314376
5.54757	326025
5.55570	317647
5.56382	308371
5.57193	311334
5.58007	332001
5.58818	359418
5.59632	401521
5.60443	402153
5.61255	371014
5.62068	344527
5.62880	320311
5.63692	313024
5.64505	316455
5.65317	310646
5.66130	314220
5.66942	314998
5.67753	303213
5.68567	302515
5.69378	301649
5.70192	320615
5.71003	330117
5.71815	344894
5.72628	325509
5.73440	314448
5.74252	302828
5.75065	288445
5.75877	295157
5.76690	280422
5.77502	284038
5.78313	272734
5.79127	275328
5.79938	269964
5.80752	270445
5.81563	268790
5.82375	274298
5.83188	266595
5.84000	274260
5.84813	275365
5.85625	290630
5.86437	307493
5.87250	316431
5.88062	298654
5.88873	284895
5.89687	274301
5.90498	260461
5.91312	240748
5.92123	225922
5.92935	199968
5.93748	201967
5.94560	189806
5.95373	202280
5.96185	214438
5.96997	231451
5.97810	261301
5.98622	292627
5.99435	315335
6.00247	334042
6.01058	359161
6.01872	356001
6.02683	371351
6.03495	387748
6.04308	426244
6.05120	414409
6.05933	374577
6.06745	313484
6.07557	261069
6.08370	238457
6.09182	234628
6.09995	219498
6.10807	203563
6.11618	198720
6.12432	204659
6.13243	205461
6.14055	210648
6.14868	234228
6.15680	266353
6.16493	328180
6.17305	364787
6.18117	370465
6.18930	330419
6.19742	299284
6.20555	285462
6.21367	266405
6.22178	260414
6.22992	251459
6.23803	247564
6.24617	242318
6.25428	234776
6.26240	230644
6.27053	227358
6.27865	235523
6.28677	232607
6.29490	231763
6.30302	220574
6.31115	225189
6.31927	217860
6.32738	216920
6.33552	244631
6.34363	278249
6.35177	354592
6.35988	461786
6.36800	487661
6.37613	443345
6.38425	387358
6.39237	326361
6.40050	303007
6.40862	301367
6.41675	277720
6.42487	267374
6.43298	254541
6.44112	258608
6.44923	250928
6.45737	243608
6.46548	234931
6.47360	223403
6.48173	226556
6.48985	218399
6.49798	215904
6.50610	228845
6.51422	217608
6.52235	211963
6.53047	212006
6.53858	217177
6.54672	210842
6.55483	206758
6.56297	210722
6.57108	212135
6.57920	218885
6.58733	237023
6.59545	240711
6.60358	252648
6.61170	251419
6.61982	233113
6.62795	227252
6.63607	209741
6.64420	216065
6.65232	196294
6.66043	199643
6.66857	209332
6.67668	236941
6.68480	283483
6.69293	317487
6.70105	321484
6.70918	289431
6.71730	259027
6.72542	242658
6.73355	229086
6.74167	218832
6.74980	205560
6.75792	206985
6.76603	206460
6.77417	200801
6.78228	190111
6.79040	182784
6.79853	187638
6.80665	189005
6.81478	176178
6.82290	176554
6.83102	178579
6.83915	176350
6.84727	190171
6.85540	208549
6.86352	203092
6.87163	207790
6.87977	209424
6.88788	225150
6.89602	236741
6.90413	229140
6.91225	188638
6.92038	159556
6.92850	150785
6.93662	133356
6.94475	129261
6.95287	122446
6.96100	121635
6.96912	116323
6.97723	122588
6.98537	127537
6.99348	129168
7.00162	136262
7.00973	135423
7.01785	132918
7.02598	130209
7.03410	125436
7.04223	123862
7.05035	120255
7.05847	114925
7.06660	111063
7.07472	106014
7.08283	105894
7.09097	108589
7.09908	110100
7.10722	119381
7.11533	119227
7.12345	113499
7.13158	110735
7.13970	104693
7.14783	106165
7.15595	111422
7.16407	133506
7.17220	165946
7.18032	215102
7.18843	251038
7.19657	278297
7.20468	360398
7.21282	632732
7.22093	1199923
7.22905	1784685
7.23718	1971659
7.24530	1598360
7.25343	1003682
7.26155	596272
7.26967	335734
7.27780	220057
7.28592	173381
7.29405	150069
7.30217	146245
7.31028	143166
7.31842	138302
7.32653	140894
7.33465	133547
7.34278	142186
7.35090	138823
7.35903	139333
7.36715	148548
7.37527	147000
7.38340	147106
7.39152	140160
7.39965	131446
7.40777	127817
7.41588	134406
7.42402	132803
7.43213	138679
7.44025	133861
7.44838	134959
7.45650	125955
7.46463	122715
7.47275	117734
7.48087	117722
7.48900	121855
7.49712	109489
7.50525	111362
7.51337	108015
7.52148	114934
7.52962	109858
7.53773	106243
7.54587	113724
7.55398	121863
7.56210	151041
7.57023	205803
7.57835	290734
7.58647	388038
7.59460	468247
7.60272	494981
7.61085	451852
7.61897	375530
7.62708	298286
7.63522	229120
7.64333	183070
7.65147	146816
7.65958	135863
7.66770	120244
7.67583	114830
7.68395	109631
7.69208	102073
7.70020	101096
7.70832	101896
7.71645	102413
7.72457	94767
7.73268	94253
7.74082	100823
7.74893	96701
7.75707	99562
7.76518	99585
7.77330	105156
7.78143	101635
7.78955	105922
7.79768	108363
7.80580	108378
7.81392	117810
7.82205	119255
7.83017	122924
7.83828	127545
7.84642	122772
7.85453	113610
7.86267	101076
7.87078	104472
7.87890	98177
7.88703	103711
7.89515	100132
7.90328	109669
7.91140	113537
7.91952	118055
7.92765	115895
7.93577	120689
7.94390	120961
7.95202	120833
7.96013	140589
7.96827	156240
7.97638	163378
7.98450	169380
7.99263	176203
8.00075	162718
8.00888	150774
8.01700	138950
8.02512	128807
8.03325	135406
8.04137	128006
8.04950	122388
8.05762	120955
8.06573	115125
8.07387	109391
8.08198	106597
8.09012	104372
8.09823	103826
8.10635	105703
8.11448	107130
8.12260	109196
8.13072	105573
8.13885	100756
8.14697	101289
8.15510	104749
8.16322	107101
8.17133	109645
8.17947	111899
8.18758	123871
8.19572	112162
8.20383	105095
8.21195	108478
8.22008	103122
8.22820	98386
8.23632	100129
8.24445	100396
8.25257	94735
8.26070	94879
8.26882	92568
8.27693	93203
8.28507	96313
8.29318	96094
8.30132	96028
8.30943	92441
8.31755	87449
8.32568	93746
8.33380	90877
8.34193	94170
8.35005	96516
8.35817	91455
8.36630	95613
8.37442	95413
8.38253	99238
8.39067	111638
8.39878	122806
8.40692	137725
8.41503	140673
8.42315	133088
8.43128	117180
8.43940	108356
8.44753	98843
8.45565	95794
8.46377	89474
8.47190	93127
8.48002	91468
8.48815	88422
8.49627	90282
8.50438	87744
8.51252	93386
8.52063	117764
8.52875	223662
8.53688	564514
8.54500	1216315
8.55313	2077661
8.56125	2678307
8.56937	2479037
8.57750	1753310
8.58562	1047421
8.59375	567968
8.60187	355082
8.60998	296217
8.61812	281171
8.62623	297119
8.63435	299946
8.64248	286582
8.65060	264736
8.65873	227211
8.66685	206521
8.67497	177240
8.68310	163245
8.69122	161281
8.69935	155476
8.70747	147989
8.71558	143122
8.72372	139273
8.73183	132259
8.73997	128009
8.74808	133297
8.75620	125895
8.76433	128867
8.77245	133594
8.78057	163871
8.78870	231028
8.79682	383263
8.80495	614594
8.81307	842912
8.82118	924769
8.82932	846611
8.83743	651246
8.84557	495876
8.85368	393473
8.86180	352097
8.86993	315477
8.87805	301543
8.88617	292502
8.89430	271799
8.90242	253216
8.91055	256126
8.91867	235142
8.92678	228476
8.93492	219919
8.94303	232233
8.95117	234365
8.95928	243493
8.96740	242893
8.97553	226033
8.98365	206074
8.99178	199147
8.99990	189511
9.00802	183927
9.01615	176605
9.02427	176741
9.03238	176374
9.04052	168424
9.04863	166005
9.05677	162165
9.06488	153035
9.07300	155714
9.08113	154131
9.08925	151227
9.09738	152599
9.10550	150855
9.11362	145428
9.12175	147263
9.12987	148452
9.13800	167460
9.14612	161274
9.15423	156720
9.16237	152189
9.17048	145648
9.17860	138342
9.18673	149878
9.19485	142969
9.20298	147233
9.21110	140247
9.21922	141426
9.22735	144990
9.23547	142051
9.24360	144907
9.25172	133699
9.25983	129258
9.26797	136847
9.27608	135636
9.28420	133342
9.29233	130031
9.30045	120995
9.30858	118792
9.31670	126320
9.32482	122223
9.33295	117849
9.34107	118356
9.34920	117040
9.35732	118948
9.36543	113426
9.37357	114307
9.38168	111206
9.38982	114364
9.39793	109032
9.40605	113699
9.41418	111723
9.42230	116910
9.43042	116145
9.43855	122085
9.44667	135548
9.45480	143980
9.46292	161801
9.47103	159849
9.47917	157071
9.48728	149767
9.49542	133954
9.50353	125093
9.51165	116616
9.51978	112676
9.52790	119776
9.53603	121357
9.54415	126979
9.55227	135227
9.56040	132486
9.56852	127920
9.57663	128689
9.58477	129245
9.59288	116567
9.60102	112793
9.60913	119028
9.61725	118573
9.62538	120584
9.63350	119483
9.64163	99113
9.64975	89098
9.65787	88561
9.66600	82842
9.67412	82903
9.68223	79135
9.69037	83362
9.69848	82764
9.70662	80409
9.71473	82525
9.72285	78654
9.73098	75087
9.73910	74152
9.74723	75269
9.75535	73997
9.76347	72518
9.77160	73298
9.77972	73780
9.78785	68885
9.79597	74459
9.80408	65688
9.81222	76366
9.82033	71372
9.82845	70594
9.83658	77427
9.84470	68069
9.85283	70629
9.86095	72240
9.86907	78199
9.87720	82519
9.88532	84694
9.89345	82102
9.90157	79812
9.90968	71082
9.91782	75101
9.92593	71003
9.93405	75717
9.94218	74166
9.95030	94264
9.95843	124486
9.96655	169687
9.97467	219042
9.98280	242359
9.99092	237625
9.99905	213977
10.00717	186291
10.01528	175806
10.02342	162182
10.03153	147842
10.03967	134345
10.04778	138635
10.05590	128575
10.06403	125718
10.07215	121335
10.08027	118710
10.08840	110286
10.09652	111027
10.10465	108766
10.11277	107636
10.12088	102048
10.12902	103293
10.13713	101862
10.14527	98467
10.15338	93255
10.16150	93980
10.16963	92091
10.17775	85615
10.18588	84781
10.19400	82482
10.20212	80858
10.21025	79094
10.21837	84783
10.22648	83061
10.23462	79060
10.24273	79326
10.25087	80807
10.25898	86337
10.26710	99244
10.27523	153302
10.28335	301163
10.29148	647508
10.29960	1194431
10.30772	1970827
10.31585	2823384
10.32397	3925022
10.33210	5875998
10.34022	8269163
10.34833	1.001272E+07
10.35647	9865812
10.36458	8120040
10.37270	5524339
10.38083	3735645
10.38895	2891676
10.39708	2417566
10.40520	2011103
10.41332	1652019
10.42145	1307490
10.42957	1074155
10.43770	904841
10.44582	794477
10.45393	755316
10.46207	708629
10.47018	683231
10.47830	627468
10.48643	560789
10.49455	535386
10.50268	509133
10.51080	463492
10.51892	441741
10.52705	420071
10.53517	398717
10.54330	379682
10.55142	363980
10.55953	350133
10.56767	332830
10.57578	318274
10.58392	314749
10.59203	293034
10.60015	284302
10.60828	277659
10.61640	270426
10.62452	255422
10.63265	248660
10.64077	248417
10.64890	226997
10.65702	219764
10.66513	214301
10.67327	214071
10.68138	211241
10.68952	195319
10.69763	195794
10.70575	194443
10.71388	191215
10.72200	177524
10.73012	184619
10.73825	179388
10.74637	175901
10.75450	168582
10.76262	173379
10.77073	162484
10.77887	158886
10.78698	162058
10.79512	154752
10.80323	152599
10.81135	145291
10.81948	150788
10.82760	141892
10.83573	139237
10.84385	135339
10.85197	133024
10.86010	127622
10.86822	128985
10.87633	127387
10.88447	124848
10.89258	126772
10.90072	120298
10.90883	118839
10.91695	112046
10.92508	112652
10.93320	112561
10.94133	111738
10.94945	114227
10.95757	107412
10.96570	114450
10.97382	109018
10.98195	109255
10.99007	105926
10.99818	105608
11.00632	102598
11.01443	101879
11.02255	105335
11.03068	100912
11.03880	102113
11.04693	96730
11.05505	100090
11.06317	91436
11.07130	93996
11.07942	93267
11.08755	93573
11.09567	94537
11.10378	92308
11.11192	85956
11.12003	91461
11.12815	92411
11.13628	92058
11.14440	86201
11.15253	87656
11.16065	88229
11.16877	91117
11.17690	83535
11.18502	83099
11.19315	86636
11.20127	85491
11.20938	89074
11.21752	83825
11.22563	78441
11.23377	83203
11.24188	76576
11.25000	75738
11.25813	75166
11.26625	72358
11.27437	66664
11.28250	66808
11.29062	64726
11.29875	63552
11.30687	67174
11.31498	66612
11.32312	70299
11.33123	80636
11.33937	114002
11.34748	150501
11.35560	192395
11.36373	236780
11.37185	253603
11.37998	237460
11.38810	215726
11.39622	182389
11.40435	167320
11.41247	146007
11.42058	139466
11.42872	133532
11.43683	119320
11.44497	112462
11.45308	102860
11.46120	96680
11.46933	91713
11.47745	86739
11.48558	89354
11.49370	92979
11.50182	103125
11.50995	120470
11.51807	138791
11.52618	145598
11.53432	139954
11.54243	136694
11.55057	130354
11.55868	117196
11.56680	111751
11.57493	99350
11.58305	94805
11.59118	94273
11.59930	96287
11.60742	93490
11.61555	103888
11.62367	130167
11.63180	146402
11.63992	156751
11.64803	153531
11.65617	138148
11.66428	121535
11.67240	113745
11.68053	103215
11.68865	104732
11.69678	102574
11.70490	91351
11.71302	97786
11.72115	89417
11.72927	88941
11.73740	84050
11.74552	85972
11.75363	81455
11.76177	81355
11.76988	86361
11.77800	79789
11.78613	77112
11.79425	81157
11.80238	76389
11.81050	78655
11.81862	79187
11.82675	75878
11.83487	71779
11.84300	82842
11.85112	82764
11.85923	87901
11.86737	84062
11.87548	82999
11.88362	78070
11.89173	75168
11.89985	70823
11.90798	75207
11.91610	86672
11.92422	117404
11.93235	173823
11.94047	242590
11.94860	286876
11.95672	306210
11.96483	271963
11.97297	217852
11.98108	187284
11.98922	213939
11.99733	389934
12.00545	851066
12.01358	1665105
12.02170	2648878
12.02983	3379036
12.03795	3657295
12.04607	3346716
12.05420	2825436
12.06232	2136906
12.07043	1737078
12.07857	1476021
12.08668	1385807
12.09482	1234341
12.10293	1148411
12.11105	1076737
12.11918	1039578
12.12730	988986
12.13543	944253
12.14355	895849
12.15167	901191
12.15980	813210
12.16792	804874
12.17603	781513
12.18417	744976
12.19228	752280
12.20042	739230
12.20853	663673
12.21665	645122
12.22478	616230
12.23290	612357
12.24103	587788
12.24915	588067
12.25727	571014
12.26540	551594
12.27352	531373
12.28165	510837
12.28977	527541
12.29788	494729
12.30602	498395
12.31413	496515
12.32225	452103
12.33038	444648
12.33850	428491
12.34663	431908
12.35475	415578
12.36287	410632
12.37100	420569
12.37912	412827
12.38725	391379
12.39537	411426
12.40348	391387
12.41162	412298
12.41973	454363
12.42787	460089
12.43598	477906
12.44410	452829
12.45223	434098
12.46035	394901
12.46847	379370
12.47660	364734
12.48472	353009
12.49285	349848
12.50097	347326
12.50908	324435
12.51722	318444
12.52533	306727
12.53347	306786
12.54158	295086
12.54970	304177
12.55783	325694
12.56595	343903
12.57407	377566
12.58220	374989
12.59032	372245
12.59845	348284
12.60657	316862
12.61468	297460
12.62282	278280
12.63093	286407
12.63907	267380
12.64718	260605
12.65530	255984
12.66343	245946
12.67155	234472
12.67968	220721
12.68780	184476
12.69592	158619
12.70405	132529
12.71217	117572
12.72028	112197
12.72842	106443
12.73653	102886
12.74467	107794
12.75278	113556
12.76090	115217
12.76903	106451
12.77715	108166
12.78528	108056
12.79340	97927
12.80152	95514
12.80965	94696
12.81777	90905
12.82588	87792
12.83402	86908
12.84213	85279
12.85027	81108
12.85838	77585
12.86650	77307
12.87463	76519
12.88275	74747
12.89088	76658
12.89900	76597
12.90712	76162
12.91525	74545
12.92337	71589
12.93150	72063
12.93962	76754
12.94773	81298
12.95587	114745
12.96398	184044
12.97210	422606
12.98023	909951
12.98835	1576606
12.99648	2129499
13.00460	2199462
13.01272	1875201
13.02085	1334981
13.02897	891423
13.03710	577341
13.04522	408378
13.05333	324442
13.06147	267417
13.06958	228078
13.07772	197959
13.08583	170765
13.09395	159297
13.10208	154681
13.11020	139881
13.11832	136506
13.12645	127188
13.13457	112830
13.14270	111331
13.15082	105235
13.15893	104869
13.16707	100910
13.17518	95900
13.18332	97956
13.19143	95618
13.19955	95888
13.20768	91315
13.21580	92496
13.22392	98370
13.23205	95853
13.24017	92622
13.24830	92043
13.25642	88207
13.26453	83419
13.27267	82404
13.28078	84046
13.28892	88501
13.29703	85779
13.30515	75397
13.31328	69826
13.32140	75642
13.32953	72565
13.33765	72760
13.34577	73910
13.35390	70332
13.36202	67302
13.37013	70609
13.37827	67547
13.38638	69878
13.39452	68324
13.40263	65379
13.41075	66207
13.41888	69267
13.42700	68265
13.43513	66623
13.44325	64332
13.45137	63885
13.45950	59391
13.46762	64982
13.47575	62398
13.48387	65302
13.49198	67942
13.50012	60640
13.50823	65059
13.51635	63949
13.52448	62005
13.53260	63144
13.54073	65468
13.54885	60838
13.55697	58301
13.56510	59091
13.57322	63146
13.58135	62177
13.58947	61978
13.59758	65672
13.60572	64200
13.61383	64567
13.62195	71257
13.63008	68102
13.63820	74202
13.64633	68086
13.65445	67769
13.66257	68083
13.67070	63658
13.67882	56878
13.68695	59331
13.69507	57261
13.70318	55417
13.71132	57640
13.71943	55800
13.72757	56006
13.73568	59426
13.74380	63903
13.75193	89844
13.76005	162593
13.76817	351214
13.77630	662289
13.78442	1143551
13.79255	1632203
13.80067	1889983
13.80878	1954379
13.81692	1676711
13.82503	1366338
13.83317	1107559
13.84128	933794
13.84940	887105
13.85753	814524
13.86565	756774
13.87378	712436
13.88190	683881
13.89002	602948
13.89815	579839
13.90627	500611
13.91438	485430
13.92252	446832
13.93063	451404
13.93877	412368
13.94688	419110
13.95500	397318
13.96313	439236
13.97125	540346
13.97938	766763
13.98750	1019589
13.99562	1278621
14.00375	1548147
14.01187	1443019
14.01998	1361527
14.02812	1054878
14.03623	877596
14.04437	735864
14.05248	653855
14.06060	616475
14.06873	558738
14.07685	550527
14.08498	526580
14.09310	495737
14.10122	512040
14.10935	468055
14.11747	450807
14.12560	447969
14.13372	436484
14.14183	454513
14.14997	482785
14.15808	578044
14.16620	635495
14.17433	668712
14.18245	695831
14.19058	678565
14.19870	655170
14.20682	625571
14.21495	671298
14.22307	730310
14.23120	763441
14.23932	754638
14.24743	689938
14.25557	637626
14.26368	557619
14.27180	510560
14.27993	473855
14.28805	419918
14.29618	397149
14.30430	366244
14.31242	345902
14.32055	324594
14.32867	307001
14.33680	296626
14.34492	291298
14.35303	291652
14.36117	287077
14.36928	265565
14.37742	244927
14.38553	237695
14.39365	228609
14.40178	208804
14.40990	208068
14.41802	209770
14.42615	209804
14.43427	199478
14.44240	199742
14.45052	177663
14.45863	170066
14.46677	156860
14.47488	151056
14.48302	141080
14.49113	133187
14.49925	133451
14.50738	137626
14.51550	144998
14.52363	152887
14.53175	175476
14.53987	195729
14.54800	202095
14.55612	205107
14.56423	197110
14.57237	182031
14.58048	158660
14.58862	148045
14.59673	140113
14.60485	131225
14.61298	122750
14.62110	113838
14.62923	115498
14.63735	110210
14.64547	105582
14.65360	104578
14.66172	102520
14.66983	100114
14.67797	98792
14.68608	102656
14.69422	97884
14.70233	87665
14.71045	87107
14.71858	88761
14.72670	95043
14.73483	89866
14.74295	95104
14.75107	97016
14.75920	93439
14.76732	95630
14.77545	99116
14.78357	100914
14.79168	103429
14.79982	115135
14.80793	158241
14.81605	315685
14.82418	650960
14.83230	1262204
14.84043	2025088
14.84855	2630414
14.85667	2857536
14.86480	2598950
14.87292	2025456
14.88105	1509617
14.88917	1084552
14.89728	836169
14.90542	684061
14.91353	574902
14.92167	491417
14.92978	442462
14.93790	392898
14.94603	360842
14.95415	339048
14.96227	314188
14.97040	286829
14.97852	276838
14.98665	256537
14.99477	247719
15.00288	235190
15.01102	220273
15.01913	207862
15.02727	193249
15.03538	189728
15.04350	186937
15.05163	178105
15.05975	175543
15.06787	165212
15.07600	154329
15.08412	152492
15.09225	156750
15.10037	147945
15.10848	139414
15.11662	130434
15.12473	134750
15.13287	135071
15.14098	125267
15.14910	121899
15.15723	133535
15.16535	126113
15.17348	119406
15.18160	109310
15.18972	106003
15.19785	92263
15.20597	87057
15.21408	81532
15.22222	83692
15.23033	82065
15.23847	78389
15.24658	76964
15.25470	74777
15.26283	74513
15.27095	72169
15.27908	73926
15.28720	72692
15.29532	66221
15.30345	69068
15.31157	72187
15.31968	73512
15.32782	67930
15.33593	71039
15.34407	66867
15.35218	62141
15.36030	68484
15.36843	64764
15.37655	62427
15.38468	62928
15.39280	64648
15.40092	66358
15.40905	63709
15.41717	63597
15.42530	61346
15.43342	63460
15.44153	60879
15.44967	61505
15.45778	61531
15.46590	57858
15.47403	59194
15.48215	58422
15.49028	62746
15.49840	67994
15.50652	70623
15.51465	79702
15.52277	92790
15.53090	91048
15.53902	85935
15.54713	87512
15.55527	86393
15.56338	81675
15.57152	75108
15.57963	67830
15.58775	73335
15.59588	64300
15.60400	65547
15.61212	63886
15.62025	63398
15.62837	66528
15.63650	64889
15.64462	65419
15.65273	64178
15.66087	70165
15.66898	59878
15.67712	63010
15.68523	58714
15.69335	61465
15.70148	59907
15.70960	57098
15.71773	56826
15.72585	55087
15.73397	56427
15.74210	52373
15.75022	55636
15.75833	58259
15.76647	64490
15.77458	81762
15.78272	113633
15.79083	165272
15.79895	227644
15.80708	280360
15.81520	304025
15.82333	291533
15.83145	254879
15.83957	209233
15.84770	171520
15.85582	152710
15.86393	132579
15.87207	122045
15.88018	113887
15.88832	111257
15.89643	106537
15.90455	102105
15.91268	96854
15.92080	95653
15.92893	94293
15.93705	88522
15.94517	84721
15.95330	92222
15.96142	93847
15.96955	106319
15.97767	127776
15.98578	157368
15.99392	181164
16.00203	195919
16.01015	206693
16.01828	202863
16.02640	189585
16.03453	178109
16.04265	170286
16.05077	167361
16.05890	153263
16.06702	145167
16.07515	134686
16.08327	131518
16.09138	118219
16.09952	109209
16.10763	102933
16.11575	102640
16.12388	98515
16.13200	93504
16.14013	92186
16.14825	90044
16.15637	89681
16.16450	93605
16.17262	89653
16.18075	88417
16.18887	87703
16.19698	82427
16.20512	84347
16.21323	81228
16.22137	76133
16.22948	81648
16.23760	74978
16.24573	80670
16.25385	78678
16.26197	74332
16.27010	74786
16.27822	69162
16.28635	69106
16.29447	70751
16.30258	72381
16.31072	76579
16.31883	71919
16.32697	76421
16.33508	70707
16.34320	69170
16.35133	68478
16.35945	75552
16.36758	80089
16.37570	101402
16.38382	136372
16.39195	174275
16.40007	218149
16.40818	239472
16.41632	229669
16.42443	213146
16.43257	185684
16.44068	154177
16.44880	132499
16.45693	124393
16.46505	123990
16.47318	152615
16.48130	214369
16.48942	333963
16.49755	480742
16.50567	615634
16.51378	638267
16.52192	566400
16.53003	455293
16.53817	342831
16.54628	256741
16.55440	211006
16.56253	187629
16.57065	161263
16.57878	151592
16.58690	144445
16.59502	129865
16.60315	125622
16.61127	127303
16.61940	118422
16.62752	111784
16.63563	112913
16.64377	112099
16.65188	108640
16.66000	106400
16.66813	97486
16.67625	97969
16.68438	92269
16.69250	90616
16.70062	88086
16.70875	85913
16.71687	78597
16.72500	79466
16.73312	76475
16.74123	74693
16.74937	70068
16.75748	75839
16.76562	69009
16.77373	67619
16.78185	78097
16.78998	73767
16.79810	74347
16.80622	72556
16.81435	68603
16.82247	63012
16.83060	67327
16.83872	62892
16.84683	63188
16.85497	67425
16.86308	61252
16.87122	61821
16.87933	60044
16.88745	66822
16.89558	69321
16.90370	61156
16.91182	59342
16.91995	61152
16.92807	62380
16.93620	58858
16.94432	53792
16.95243	57557
16.96057	57625
16.96868	52184
16.97682	54668
16.98493	51863
16.99305	53514
17.00118	56154
17.00930	55932
17.01743	51966
17.02555	51257
17.03367	56312
17.04180	54634
17.04992	55980
17.05803	59510
17.06617	58430
17.07428	59779
17.08242	61465
17.09053	59087
17.09865	60369
17.10678	58711
17.11490	58952
17.12303	55232
17.13115	60092
17.13927	61747
17.14740	63294
17.15552	65971
17.16363	61315
17.17177	63368
17.17988	63059
17.18802	59458
17.19613	61531
17.20425	60068
17.21238	58201
17.22050	56273
17.22863	54132
17.23675	56562
17.24487	57706
17.25300	53562
17.26112	54977
17.26925	57061
17.27737	56133
17.28548	54577
17.29362	59595
17.30173	51609
17.30985	56028
17.31798	53434
17.32610	60086
17.33423	70038
17.34235	82678
17.35047	88389
17.35860	109362
17.36672	107794
17.37485	113793
17.38297	107219
17.39108	98744
17.39922	90117
17.40733	90510
17.41547	86193
17.42358	82130
17.43170	79953
17.43983	83142
17.44795	84782
17.45607	78622
17.46420	76152
17.47232	70271
17.48045	70172
17.48857	72497
17.49668	68253
17.50482	64339
17.51293	69792
17.52107	67348
17.52918	65620
17.53730	63536
17.54543	64987
17.55355	62784
17.56167	59380
17.56980	67762
17.57792	66214
17.58605	65851
17.59417	79724
17.60228	96244
17.61042	140601
17.61853	200189
17.62667	405521
17.63478	2893860
17.64290	1.983465E+07
17.65103	2.919609E+07
17.65915	2.893936E+07
17.66728	2.768576E+07
17.67540	2.615724E+07
17.68352	2.459812E+07
17.69165	2.375318E+07
17.69977	2.220385E+07
17.70788	2.080226E+07
17.71602	1.961521E+07
17.72413	1.845091E+07
17.73227	1.707168E+07
17.74038	1.578053E+07
17.74850	1.463577E+07
17.75663	1.370986E+07
17.76475	1.280398E+07
17.77288	1.190931E+07
17.78100	1.092871E+07
17.78912	1.016891E+07
17.79725	9474703
17.80537	8784891
17.81350	8252625
17.82162	7901824
17.82973	7332385
17.83787	6824827
17.84598	6381659
17.85410	6120830
17.86223	5918609
17.87035	5654824
17.87848	5339988
17.88660	5009806
17.89472	4711219
17.90285	4496261
17.91097	4312713
17.91910	4128333
17.92722	3911644
17.93533	3768955
17.94347	3580933
17.95158	3423307
17.95970	3336766
17.96783	3148437
17.97595	3044629
17.98408	2939922
17.99220	2769260
18.00032	2695181
18.00845	2614180
18.01657	2527922
18.02470	2375955
18.03282	2303280
18.04093	2301445
18.04907	2210077
18.05718	2122397
18.06532	2076234
18.07343	2058995
18.08155	2104412
18.08968	2252703
18.09780	2494532
18.10592	2776655
18.11405	2936167
18.12217	2999757
18.13030	2943455
18.13842	2712995
18.14653	2509208
18.15467	2321892
18.16278	2177941
18.17092	2093181
18.17903	2010977
18.18715	1866948
18.19528	1805966
18.20340	1700670
18.21153	1629779
18.21965	1563346
18.22777	1500049
18.23590	1464675
18.24402	1407399
18.25213	1369055
18.26027	1318508
18.26838	1265806
18.27652	1208338
18.28463	1140264
18.29275	1087201
18.30088	1041772
18.30900	985260
18.31713	952686
18.32525	916595
18.33337	888586
18.34150	878382
18.34962	857444
18.35773	830414
18.36587	805734
18.37398	807377
18.38212	803323
18.39023	784302
18.39835	747874
18.40648	747399
18.41460	735493
18.42273	720709
18.43085	700365
18.43897	691244
18.44710	686796
18.45522	679244
18.46335	689039
18.47147	697007
18.47958	728509
18.48772	762725
18.49583	774802
18.50395	783920
18.51208	764452
18.52020	727540
18.52833	679573
18.53645	646658
18.54457	606564
18.55270	584667
18.56082	556314
18.56895	553418
18.57707	539636
18.58518	529497
18.59332	516715
18.60143	516965
18.60955	513297
18.61768	500523
18.62580	489499
18.63393	500919
18.64205	484512
18.65017	472223
18.65830	457840
18.66642	455079
18.67455	457119
18.68267	450166
18.69078	431850
18.69892	427880
18.70703	425286
18.71517	417901
18.72328	425013
18.73140	410198
18.73953	388870
18.74765	388672
18.75577	382327
18.76390	372109
18.77202	387805
18.78015	376233
18.78827	369889
18.79638	374144
18.80452	368371
18.81263	374269
18.82077	359610
18.82888	355710
18.83700	348689
18.84513	350902
18.85325	349605
18.86138	344434
18.86950	333414
18.87762	327841
18.88575	328630
18.89387	324545
18.90198	316359
18.91012	318694
18.91823	321701
18.92637	321572
18.93448	319257
18.94260	321530
18.95073	330727
18.95885	343137
18.96698	370880
18.97510	371665
18.98322	387330
18.99135	375015
18.99947	362349
19.00758	354072
19.01572	334180
19.02383	321359
19.03197	309383
19.04008	297276
19.04820	298912
19.05633	286263
19.06445	297658
19.07258	285971
19.08070	297812
19.08882	300904
19.09695	318278
19.10507	337303
19.11320	370906
19.12132	387380
19.12943	401555
19.13757	387625
19.14568	365023
19.15380	340701
19.16193	319149
19.17005	307078
19.17818	306428
19.18630	291229
19.19442	283277
19.20255	267448
19.21067	271429
19.21880	262529
19.22692	256772
19.23503	253770
19.24317	259548
19.25128	244021
19.25942	242996
19.26753	238106
19.27565	230692
19.28378	229255
19.29190	230976
19.30002	239087
19.30815	239624
19.31627	241229
19.32440	236594
19.33252	238827
19.34063	237173
19.34877	236042
19.35688	239138
19.36502	247679
19.37313	264650
19.38125	278403
19.38938	301940
19.39750	312177
19.40562	311608
19.41375	300149
19.42187	278008
19.43000	268349
19.43812	264840
19.44623	245419
19.45437	239318
19.46248	240835
19.47062	224357
19.47873	224628
19.48685	222523
19.49498	235320
19.50310	250125
19.51123	270168
19.51935	317211
19.52747	343818
19.53560	362391
19.54372	343275
19.55183	301747
19.55997	263833
19.56808	234750
19.57622	219124
19.58433	204346
19.59245	201601
19.60058	199920
19.60870	199616
19.61683	184705
19.62495	188881
19.63307	187364
19.64120	198051
19.64932	220696
19.65743	267997
19.66557	335049
19.67368	420179
19.68182	480027
19.68993	519321
19.69805	514032
19.70618	476351
19.71430	418661
19.72243	359168
19.73055	331812
19.73867	287671
19.74680	273363
19.75492	250224
19.76305	236405
19.77117	224943
19.77928	217889
19.78742	213478
19.79553	197221
19.80365	201712
19.81178	201166
19.81990	198031
19.82803	193818
19.83615	196372
19.84427	194222
19.85240	189712
19.86052	185962
19.86865	217749
19.87677	289936
19.88488	449563
19.89302	764687
19.90113	1233483
19.90927	1731844
19.91738	2137100
19.92550	2260574
19.93363	2208621
19.94175	1965410
19.94987	1668971
19.95800	1420475
19.96612	1237853
19.97425	1094171
19.98237	996279
19.99048	934808
19.99862	881964
20.00673	822369
20.01487	779318
20.02298	735918
20.03110	691844
20.03923	662944
20.04735	605063
20.05547	552972
20.06360	492837
20.07172	418370
20.07985	373791
20.08797	335576
20.09608	309230
20.10422	296919
20.11233	277668
20.12047	271798
20.12858	259067
20.13670	257912
20.14483	247048
20.15295	237211
20.16108	237028
20.16920	233636
20.17732	233874
20.18545	241031
20.19357	253745
20.20168	268782
20.20982	284809
20.21793	282028
20.22607	280783
20.23418	264877
20.24230	245233
20.25043	247975
20.25855	260500
20.26668	269419
20.27480	317238
20.28292	389486
20.29105	432342
20.29917	475437
20.30730	476135
20.31542	445616
20.32353	394790
20.33167	343420
20.33978	296248
20.34790	254808
20.35603	227294
20.36415	204907
20.37228	189491
20.38040	178435
20.38852	173974
20.39665	174450
20.40477	170610
20.41290	162346
20.42102	163339
20.42913	174906
20.43727	175331
20.44538	201236
20.45350	195717
20.46163	206898
20.46975	204663
20.47788	199705
20.48600	181745
20.49412	188980
20.50225	166374
20.51037	171284
20.51850	154201
20.52662	154712
20.53473	149948
20.54287	143111
20.55098	142732
20.55912	145262
20.56723	145130
20.57535	148725
20.58348	143644
20.59160	137049
20.59972	132742
20.60785	133751
20.61597	131837
20.62410	131343
20.63222	129851
20.64033	129840
20.64847	127074
20.65658	126207
20.66472	126889
20.67283	125090
20.68095	128072
20.68908	118507
20.69720	124337
20.70532	124896
20.71345	121878
20.72157	121026
20.72970	117462
20.73782	119535
20.74593	120071
20.75407	118444
20.76218	119740
20.77032	122429
20.77843	124991
20.78655	123758
20.79468	125031
20.80280	146851
20.81093	160052
20.81905	194489
20.82717	225348
20.83530	241791
20.84342	236513
20.85153	215218
20.85967	185921
20.86778	162824
20.87592	149270
20.88403	140104
20.89215	132611
20.90028	129376
20.90840	120283
20.91653	120877
20.92465	122900
20.93277	124554
20.94090	123963
20.94902	125872
20.95715	121521
20.96527	119411
20.97338	119358
20.98152	115457
20.98963	113748
20.99775	112270
21.00588	116733
21.01400	114341
21.02213	111617
21.03025	112702
21.03837	118430
21.04650	112611
21.05462	110515
21.06275	119908
21.07087	114209
21.07898	122252
21.08712	119836
21.09523	122681
21.10337	124430
21.11148	123231
21.11960	110969
21.12773	110426
21.13585	108202
21.14397	113136
21.15210	113591
21.16022	115557
21.16835	124957
21.17647	127750
21.18458	125841
21.19272	125223
21.20083	120044
21.20897	119609
21.21708	116558
21.22520	115422
21.23333	113738
21.24145	111897
21.24957	112281
21.25770	106915
21.26582	101804
21.27395	108317
21.28207	105136
21.29018	108288
21.29832	107435
21.30643	109341
21.31457	103998
21.32268	100233
21.33080	100485
21.33893	94701
21.34705	102645
21.35518	100681
21.36330	98732
21.37142	96678
21.37955	99785
21.38767	100750
21.39578	100403
21.40392	108506
21.41203	116068
21.42017	125092
21.42828	131204
21.43640	133423
21.44453	128956
21.45265	130263
21.46078	116067
21.46890	115968
21.47702	117596
21.48515	119997
21.49327	112875
21.50138	105127
21.50952	108142
21.51763	108377
21.52577	108936
21.53388	103395
21.54200	110560
21.55013	112052
21.55825	103343
21.56638	101313
21.57450	101354
21.58262	96412
21.59075	98895
21.59887	98209
21.60700	101802
21.61512	102643
21.62323	105525
21.63137	112699
21.63948	121949
21.64760	126138
21.65573	141361
21.66385	148884
21.67198	142256
21.68010	133216
21.68822	130126
21.69635	117975
21.70447	115356
21.71260	111281
21.72072	107430
21.72883	102141
21.73697	104246
21.74508	99125
21.75322	99295
21.76133	102276
21.76945	99582
21.77758	109054
21.78570	99461
21.79382	98228
21.80195	106076
21.81007	103967
21.81820	110666
21.82632	112245
21.83443	120066
21.84257	124273
21.85068	132586
21.85882	130698
21.86693	134269
21.87505	120795
21.88318	112548
21.89130	105861
21.89942	97401
21.90755	96075
21.91567	89779
21.92380	92644
21.93192	86589
21.94003	89618
21.94817	83466
21.95628	84111
21.96442	82273
21.97253	82881
21.98065	83345
21.98878	77773
21.99690	72208
22.00503	74126
22.01315	79533
22.02127	78203
22.02940	77156
22.03752	77218
22.04563	75625
22.05377	74665
22.06188	79784
22.07002	80412
22.07813	73023
22.08625	72522
22.09438	71551
22.10250	78227
22.11063	74982
22.11875	77454
22.12687	74601
22.13500	78149
22.14312	79351
22.15125	78091
22.15937	77116
22.16748	73505
22.17562	76264
22.18373	74184
22.19185	73675
22.19998	70987
22.20810	74291
22.21623	74603
22.22435	75884
22.23247	80455
22.24060	82007
22.24872	79741
22.25685	81630
22.26497	78208
22.27308	71940
22.28122	75132
22.28933	74776
22.29745	73352
22.30558	74977
22.31370	80393
22.32183	80627
22.32995	76487
22.33807	81217
22.34620	82272
22.35432	80155
22.36245	79664
22.37057	81133
22.37868	76932
22.38682	80387
22.39493	87011
22.40307	91832
22.41118	106061
22.41930	114951
22.42743	128304
22.43555	136263
22.44367	146424
22.45180	143736
22.45992	148356
22.46805	140103
22.47617	132113
22.48428	123446
22.49242	122453
22.50053	120620
22.50867	124590
22.51678	124234
22.52490	122380
22.53303	124618
22.54115	114947
22.54927	116081
22.55740	121074
22.56552	119101
22.57365	119425
22.58177	110548
22.58988	113088
22.59802	101993
22.60613	108418
22.61427	98728
22.62238	99738
22.63050	98152
22.63863	98386
22.64675	91758
22.65488	96684
22.66300	94912
22.67112	95276
22.67925	96029
22.68737	95828
22.69548	102077
22.70362	98711
22.71173	95264
22.71987	102443
22.72798	96970
22.73610	102743
22.74423	95009
22.75235	88548
22.76048	93039
22.76860	94855
22.77672	88831
22.78485	83841
22.79297	83032
22.80110	90439
22.80922	87295
22.81733	87678
22.82547	95192
22.83358	93933
22.84170	91737
22.84983	87790
22.85795	88810
22.86608	80280
22.87420	80591
22.88232	83497
22.89045	84056
22.89857	89407
22.90670	98426
22.91482	111294
22.92293	128956
22.93107	168299
22.93918	180236
22.94730	201734
22.95543	193389
22.96355	183467
22.97168	157067
22.97980	149201
22.98792	142372
22.99605	129483
23.00417	120195
23.01230	117152
23.02042	116503
23.02853	122814
23.03667	118489
23.04478	122229
23.05292	122687
23.06103	127400
23.06915	124360
23.07728	124561
23.08540	114837
23.09352	122969
23.10165	117963
23.10977	124747
23.11790	128154
23.12602	119574
23.13413	120623
23.14227	120981
23.15038	128302
23.15852	120929
23.16663	124872
23.17475	113263
23.18288	112975
23.19100	122568
23.19913	119057
23.20725	116750
23.21537	111273
23.22350	113980
23.23162	120162
23.23973	121468
23.24787	120096
23.25598	117320
23.26412	121039
23.27223	121088
23.28035	124608
23.28848	123209
23.29660	126241
23.30473	123110
23.31285	125079
23.32097	119123
23.32910	116278
23.33722	116608
23.34533	122678
23.35347	132986
23.36158	149264
23.36972	173699
23.37783	200502
23.38595	229310
23.39408	277227
23.40220	313568
23.41033	352321
23.41845	399607
23.42657	424245
23.43470	449142
23.44282	468536
23.45095	459777
23.45907	461149
23.46718	444399
23.47532	431830
23.48343	413066
23.49155	384526
23.49968	366566
23.50780	348473
23.51593	326341
23.52405	305957
23.53217	289808
23.54030	273692
23.54842	263590
23.55655	249364
23.56467	239212
23.57278	229443
23.58092	224082
23.58903	235815
23.59717	243983
23.60528	262776
23.61340	274841
23.62153	288938
23.62965	278525
23.63777	263960
23.64590	243459
23.65402	226020
23.66215	213325
23.67027	195521
23.67838	189999
23.68652	184883
23.69463	171127
23.70277	171765
23.71088	160737
23.71900	155345
23.72713	155380
23.73525	151762
23.74337	148879
23.75150	162732
23.75962	249514
23.76775	457047
23.77587	923172
23.78398	1694662
23.79212	2601907
23.80023	3336191
23.80837	3618473
23.81648	3366939
23.82460	2777666
23.83273	2098793
23.84085	1562688
23.84898	1208265
23.85710	933901
23.86522	758653
23.87335	629202
23.88147	543387
23.88958	490465
23.89772	433491
23.90583	398682
23.91397	380620
23.92208	343834
23.93020	337382
23.93833	307893
23.94645	292268
23.95458	278511
23.96270	256528
23.97082	249305
23.97895	236321
23.98707	231320
23.99518	243202
24.00332	267706
24.01143	367325
24.01957	637928
24.02768	1133042
24.03580	1727418
24.04393	2275926
24.05205	2394952
24.06018	2133176
24.06830	1638824
24.07642	1088503
24.08455	663031
24.09267	428340
24.10080	300273
24.10892	239304
24.11703	209789
24.12517	193401
24.13328	182327
24.14140	184595
24.14953	176312
24.15765	174116
24.16578	173584
24.17390	161612
24.18202	159064
24.19015	146876
24.19827	147082
24.20640	150984
24.21452	147412
24.22263	144909
24.23077	146633
24.23888	144776
24.24702	144345
24.25513	133993
24.26325	133736
24.27138	124899
24.27950	125894
24.28762	118617
24.29575	122181
24.30387	116104
24.31200	117171
24.32012	114380
24.32823	116814
24.33637	112248
24.34448	118109
24.35262	112777
24.36073	110291
24.36885	104777
24.37698	109107
24.38510	108841
24.39322	120579
24.40135	141156
24.40947	160133
24.41760	170178
24.42572	163534
24.43383	162290
24.44197	140476
24.45008	123621
24.45822	110389
24.46633	113925
24.47445	109746
24.48258	111273
24.49070	115039
24.49883	115365
24.50695	121228
24.51507	123105
24.52320	126976
24.53132	130422
24.53943	127366
24.54757	120543
24.55568	122981
24.56382	115507
24.57193	114509
24.58005	109152
24.58818	107204
24.59630	99806
24.60443	101575
24.61255	100030
24.62067	101260
24.62880	99486
24.63692	99117
24.64505	97858
24.65317	100062
24.66128	96313
24.66942	102485
24.67753	101976
24.68565	96767
24.69378	102101
24.70190	115911
24.71003	118727
24.71815	129747
24.72627	133370
24.73440	139380
24.74252	139628
24.75065	141252
24.75877	145993
24.76688	153324
24.77502	160310
24.78313	155334
24.79125	163503
24.79938	169744
24.80750	166820
24.81563	170643
24.82375	163111
24.83187	163260
24.84000	173319
24.84812	181915
24.85625	201767
24.86437	230680
24.87248	272809
24.88062	355609
24.88873	427526
24.89687	531485
24.90498	561503
24.91310	552873
24.92123	486729
24.92935	419532
24.93747	318060
24.94560	261788
24.95372	224305
24.96185	205614
24.96997	187712
24.97808	176814
24.98622	176365
24.99433	176386
25.00247	182065
25.01058	172590
25.01870	172562
25.02683	168863
25.03495	163780
25.04307	157623
25.05120	162461
25.05932	160439
25.06745	160385
25.07557	166090
25.08368	161310
25.09182	160579
25.09993	167691
25.10807	189271
25.11618	240229
25.12430	375977
25.13243	631533
25.14055	982496
25.14868	1362767
25.15680	1663699
25.16492	1729051
25.17305	1594895
25.18117	1276671
25.18928	929247
25.19742	633672
25.20553	429532
25.21367	316516
25.22178	250073
25.22990	215802
25.23803	198403
25.24615	193225
25.25428	202242
25.26240	215526
25.27052	240275
25.27865	250328
25.28677	250750
25.29490	252128
25.30302	215868
25.31113	207042
25.31927	189359
25.32738	174640
25.33550	164013
25.34363	161592
25.35175	157967
25.35988	158595
25.36800	145464
25.37612	139454
25.38425	148374
25.39237	139044
25.40050	138294
25.40862	139132
25.41673	138356
25.42487	135800
25.43298	134469
25.44112	135505
25.44923	133883
25.45735	131758
25.46548	133514
25.47360	136517
25.48172	138032
25.48985	136696
25.49797	131993
25.50610	131817
25.51422	133070
25.52233	130393
25.53047	127071
25.53858	127218
25.54672	121430
25.55483	115919
25.56295	116494
25.57108	117653
25.57920	118856
25.58732	115288
25.59545	112541
25.60357	112898
25.61170	117155
25.61982	111458
25.62793	109990
25.63607	98074
25.64418	96311
25.65232	98765
25.66043	98816
25.66855	95428
25.67668	87558
25.68480	93124
25.69293	87161
25.70105	84966
25.70917	86107
25.71730	82908
25.72542	83770
25.73353	86818
25.74167	83961
25.74978	82427
25.75792	83059
25.76603	90554
25.77415	112516
25.78228	134785
25.79040	171490
25.79853	191717
25.80665	192971
25.81477	165724
25.82290	149104
25.83102	127768
25.83913	111473
25.84727	107924
25.85538	116970
25.86352	115285
25.87163	117432
25.87975	109422
25.88788	107557
25.89600	99478
25.90413	94475
25.91225	83928
25.92037	79807
25.92850	79521
25.93662	76591
25.94475	77814
25.95287	76373
25.96098	79684
25.96912	77935
25.97723	74343
25.98535	75234
25.99348	71265
26.00160	75434
26.00973	84509
26.01785	89102
26.02597	97858
26.03410	109724
26.04222	116158
26.05035	118546
26.05847	120212
26.06658	126259
26.07472	126146
26.08283	129428
26.09097	131826
26.09908	133601
26.10720	140959
26.11533	139530
26.12345	134495
26.13157	144857
26.13970	142522
26.14782	139095
26.15595	144633
26.16407	139586
26.17218	141629
26.18032	138819
26.18843	137594
26.19657	140312
26.20468	132909
26.21280	135438
26.22093	143028
26.22905	138898
26.23717	137650
26.24530	139010
26.25342	139833
26.26155	135284
26.26967	143143
26.27778	141398
26.28592	129761
26.29403	136668
26.30217	127871
26.31028	130785
26.31840	127879
26.32653	130062
26.33465	123327
26.34278	131809
26.35090	125117
26.35902	129242
26.36715	118920
26.37527	128694
26.38338	129652
26.39152	129559
26.39963	136238
26.40777	131450
26.41588	140613
26.42400	133997
26.43213	136415
26.44025	128087
26.44838	124175
26.45650	125567
26.46462	122334
26.47275	127988
26.48087	125069
26.48900	121855
26.49712	124693
26.50523	121408
26.51337	113439
26.52148	113598
26.52960	115377
26.53773	106687
26.54585	105553
26.55398	104494
26.56210	104412
26.57022	104579
26.57835	106195
26.58647	106561
26.59460	107642
26.60272	103107
26.61083	104509
26.61897	105616
26.62708	106067
26.63520	103865
26.64333	100732
26.65145	99926
26.65958	101280
26.66770	103803
26.67582	109105
26.68395	99747
26.69207	107398
26.70020	101948
26.70832	99536
26.71643	104645
26.72457	94778
26.73268	96779
26.74082	90187
26.74893	91161
26.75705	91775
26.76518	93906
26.77330	86655
26.78142	90262
26.78955	93293
26.79767	94561
26.80580	94896
26.81392	98287
26.82203	99106
26.83017	100528
26.83828	91927
26.84642	90492
26.85453	93515
26.86265	95137
26.87078	92656
26.87890	91502
26.88702	87926
26.89515	82033
26.90327	87306
26.91140	87871
26.91952	86859
26.92763	85983
26.93577	85462
26.94388	82503
26.95202	86183
26.96013	84721
26.96825	90476
26.97638	99270
26.98450	116880
26.99263	148113
27.00075	196991
27.00887	265375
27.01700	359857
27.02512	457336
27.03323	515002
27.04137	531579
27.04948	496436
27.05762	431966
27.06573	380542
27.07385	307220
27.08198	257111
27.09010	228572
27.09823	199075
27.10635	181438
27.11447	173240
27.12260	156311
27.13072	155802
27.13885	138229
27.14697	134975
27.15508	132909
27.16322	122700
27.17133	124346
27.17945	126105
27.18758	119372
27.19570	124697
27.20383	116234
27.21195	116890
27.22007	115043
27.22820	113596
27.23632	108809
27.24445	110999
27.25257	103758
27.26068	101289
27.26882	109972
27.27693	101618
27.28505	99958
27.29318	96098
27.30130	91572
27.30943	87033
27.31755	86483
27.32567	93978
27.33380	93311
27.34192	86657
27.35005	86964
27.35817	91364
27.36628	86649
27.37442	83350
27.38253	89156
27.39067	82035
27.39878	82223
27.40690	86544
27.41503	85905
27.42315	78272
27.43127	80013
27.43940	77400
27.44752	76136
27.45565	80689
27.46377	74663
27.47188	75946
27.48002	75481
27.48813	74907
27.49627	73247
27.50438	77497
27.51250	78665
27.52063	74171
27.52875	74923
27.53688	81936
27.54500	76047
27.55312	77850
27.56125	77691
27.56937	78138
27.57748	77466
27.58562	81536
27.59373	85014
27.60187	88716
27.60998	86065
27.61810	94884
27.62623	94442
27.63435	86454
27.64248	85936
27.65060	72698
27.65872	75799
27.66685	72371
27.67497	71926
27.68308	73376
27.69122	69146
27.69933	64672
27.70747	64479
27.71558	70045
27.72370	64275
27.73183	68025
27.73995	70001
27.74808	69169
27.75620	63656
27.76432	68143
27.77245	70441
27.78057	65053
27.78870	68419
27.79682	68026
27.80493	67875
27.81307	69794
27.82118	64196
27.82930	68043
27.83743	69846
27.84555	71300
27.85368	67180
27.86180	64132
27.86992	68743
27.87805	68361
27.88617	66541
27.89430	63667
27.90242	64555
27.91053	64109
27.91867	64154
27.92678	59300
27.93490	55408
27.94303	62629
27.95115	64045
27.95928	63672
27.96740	63225
27.97552	59843
27.98365	58846
27.99177	63310
27.99990	63755
28.00802	61804
28.01613	64085
28.02427	64493
28.03238	63305
28.04052	66049
28.04863	63315
28.05675	68836
28.06488	68556
28.07300	68544
28.08112	67123
28.08925	67939
28.09737	74374
28.10550	74049
28.11362	70690
28.12173	71443
28.12987	67051
28.13798	67738
28.14612	69177
28.15423	60967
28.16235	62007
28.17048	59216
28.17860	60238
28.18673	64588
28.19485	67458
28.20297	73730
28.21110	82605
28.21922	86723
28.22733	99928
28.23547	92936
28.24358	89820
28.25172	88002
28.25983	81228
28.26795	73874
28.27608	74437
28.28420	69227
28.29233	67484
28.30045	68666
28.30857	62602
28.31670	68468
28.32482	68680
28.33293	68279
28.34107	75760
28.34918	75078
28.35732	80547
28.36543	90790
28.37355	88225
28.38168	94142
28.38980	101849
28.39793	102038
28.40605	105913
28.41417	106589
28.42230	107090
28.43042	102587
28.43855	95954
28.44667	94869
28.45478	90947
28.46292	85243
28.47103	84292
28.47915	84972
28.48728	80345
28.49540	80223
28.50353	84240
28.51165	76163
28.51977	80565
28.52790	79009
28.53602	83287
28.54415	76859
28.55227	76836
28.56038	77520
28.56852	74882
28.57663	74384
28.58477	76053
28.59288	76793
28.60100	76952
28.60913	78230
28.61725	75673
28.62537	79541
28.63350	73388
28.64162	76067
28.64975	77158
28.65787	81338
28.66598	85455
28.67412	82272
28.68223	80040
28.69037	79796
28.69848	79240
28.70660	77959
28.71473	73945
28.72285	73534
28.73097	78591
28.73910	78663
28.74722	73372
28.75535	75115
28.76347	76920
28.77158	87871
28.77972	88882
28.78783	95433
28.79597	94264
28.80408	92514
28.81220	90812
28.82033	87829
28.82845	86151
28.83658	83608
28.84470	75574
28.85282	79215
28.86095	79004
28.86907	79996
28.87718	71961
28.88532	70442
28.89343	74411
28.90157	74578
28.90968	80562
28.91780	76638
28.92593	76936
28.93405	71713
28.94218	70227
28.95030	77871
28.95842	77479
28.96655	72805
28.97467	74005
28.98280	73064
28.99092	73705
28.99903	71257
29.00717	70803
29.01528	68612
29.02340	61746
29.03153	67910
29.03965	66278
29.04778	65419
29.05590	66775
29.06402	64883
29.07215	63632
29.08027	62831
29.08840	68444
29.09652	68129
29.10463	71942
29.11277	66410
29.12088	63249
29.12900	64829
29.13713	67447
29.14525	61522
29.15338	66445
29.16150	60317
29.16962	63276
29.17775	60246
29.18587	66473
29.19400	64199
29.20212	69669
29.21023	77739
29.21837	79458
29.22648	84066
29.23462	78943
29.24273	79691
29.25085	80010
29.25898	80568
29.26710	84216
29.27522	87426
29.28335	86328
29.29147	83946
29.29960	83075
29.30772	78812
29.31583	75840
29.32397	72925
29.33208	67557
29.34022	65169
29.34833	67100
29.35645	58608
29.36458	59730
29.37270	63233
29.38082	59218
29.38895	63417
29.39707	59306
29.40520	62663
29.41332	60737
29.42143	61181
29.42957	63424
29.43768	63631
29.44582	68937
29.45393	61238
29.46205	62674
29.47018	60135
29.47830	60291
29.48643	61400
29.49455	67549
29.50267	62216
29.51080	66954
29.51892	65754
29.52703	65767
29.53517	61992
29.54328	61757
29.55142	62257
29.55953	61439
29.56765	64448
29.57578	62196
29.58390	63764
29.59203	63990
29.60015	60496
29.60827	60515
29.61640	59636
29.62452	61199
29.63265	63034
29.64077	64092
29.64888	59787
29.65702	58227
29.66513	57675
29.67325	60119
29.68138	58846
29.68950	60044
29.69763	58453
29.70575	60451
29.71387	62620
29.72200	61089
29.73012	59598
29.73825	62546
29.74637	58850
29.75448	56982
29.76262	55986
29.77073	54320
29.77885	61284
29.78698	55092
29.79510	53687
29.80323	56254
29.81135	56262
29.81947	56010
29.82760	52919
29.83572	55377
29.84385	54472
29.85197	55639
29.86008	55207
29.86822	58125
29.87633	56647
29.88447	62650
29.89258	73767
29.90070	82255
29.90883	87447
29.91695	87315
29.92507	84357
29.93320	76575
29.94132	75099
29.94945	67772
29.95757	60101
29.96568	66658
29.97382	60671
29.98193	62291
29.99007	65134
29.99818	66636
30.00630	72693
30.01443	73203
30.02255	78843
30.03068	74703
30.03880	80555
30.04692	79711
30.05505	79625
30.06317	80936
30.07128	80843
30.07942	80449
30.08753	80295
30.09567	78676
30.10378	74899
30.11190	74388
30.12003	76661
30.12815	80809
30.13628	75144
30.14440	72904
30.15252	68932
30.16065	69888
30.16877	72197
30.17688	70208
30.18502	66002
30.19313	65324
30.20127	69084
30.20938	70884
30.21750	73903
30.22563	70959
30.23375	68580
30.24188	64739
30.25000	65179
30.25812	59537
30.26625	61905
30.27437	58501
30.28250	59862
30.29062	59357
30.29873	57845
30.30687	59993
30.31498	59679
30.32310	57886
30.33123	59127
30.33935	60898
30.34748	66969
30.35560	64883
30.36372	63260
30.37185	60340
30.37997	60534
30.38810	58689
30.39622	57490
30.40433	54365
30.41247	56096
30.42058	53903
30.42870	55893
30.43683	56115
30.44495	57979
30.45308	56589
30.46120	61647
30.46932	57502
30.47745	59675
30.48557	58971
30.49370	59990
30.50182	59449
30.50993	64167
30.51807	62911
30.52618	61555
30.53432	58308
30.54243	58927
30.55055	54214
30.55868	59081
30.56680	57244
30.57492	58963
30.58305	58753
30.59117	55333
30.59930	58533
30.60742	56396
30.61553	58769
30.62367	57864
30.63178	56759
30.63992	58402
30.64803	60415
30.65615	58430
30.66428	57787
30.67240	55395
30.68053	55528
30.68865	52737
30.69677	54779
30.70490	54888
30.71302	57418
30.72113	57655
30.72927	57480
30.73738	52999
30.74552	57775
30.75363	55123
30.76175	53933
30.76988	56364
30.77800	60001
30.78613	60941
30.79425	64404
30.80237	70246
30.81050	82481
30.81862	82847
30.82675	79986
30.83487	77883
30.84298	79482
30.85112	65823
30.85923	68219
30.86735	60906
30.87548	56324
30.88360	60000
30.89173	55732
30.89985	55935
30.90797	53460
30.91610	60639
30.92422	59329
30.93235	58282
30.94047	57354
30.94858	58820
30.95672	57460
30.96483	51066
30.97295	57004
30.98108	53390
30.98920	52867
30.99733	54396
31.00545	52638
31.01357	52507
31.02170	52714
31.02982	52693
31.03795	60174
31.04607	54846
31.05418	55269
31.06232	61830
31.07043	57336
31.07857	62524
31.08668	62149
31.09480	64609
31.10293	68881
31.11105	74279
31.11917	75653
31.12730	72659
31.13542	72298
31.14355	72204
31.15167	64904
31.15978	64252
31.16792	62833
31.17603	65714
31.18417	67083
31.19228	75778
31.20040	81118
31.20853	93365
31.21665	106447
31.22477	117342
31.23290	120712
31.24102	116156
31.24915	114590
31.25727	109867
31.26538	90892
31.27352	80522
31.28163	72974
31.28977	70958
31.29788	63118
31.30600	62621
31.31413	61248
31.32225	59866
31.33038	62872
31.33850	59446
31.34662	59546
31.35475	55234
31.36287	57153
31.37098	60866
31.37912	58662
31.38723	61967
31.39537	65997
31.40348	61639
31.41160	60808
31.41973	63171
31.42785	63911
31.43598	65639
31.44410	61707
31.45222	68375
31.46035	59719
31.46847	63111
31.47660	65350
31.48472	61288
31.49283	65072
31.50097	64156
31.50908	66722
31.51720	62982
31.52533	67349
31.53345	68044
31.54158	69836
31.54970	62694
31.55782	65990
31.56595	65220
31.57407	62008
31.58220	62202
31.59032	65611
31.59843	62501
31.60657	63351
31.61468	62458
31.62280	61549
31.63093	60167
31.63905	60819
31.64718	61959
31.65530	65066
31.66342	66128
31.67155	63712
31.67967	65922
31.68780	66431
31.69592	61724
31.70403	62272
31.71217	63145
31.72028	59403
31.72842	59062
31.73653	58083
31.74465	60087
31.75278	59192
31.76090	57285
31.76902	58266
31.77715	58138
31.78527	57928
31.79340	56605
31.80152	64728
31.80963	56847
31.81777	64017
31.82588	61245
31.83402	60191
31.84213	57561
31.85025	59942
31.85838	60723
31.86650	61461
31.87463	58419
31.88275	62737
31.89087	62968
31.89900	60322
31.90712	68250
31.91523	63456
31.92337	67517
31.93148	68557
31.93962	68942
31.94773	73248
31.95585	71283
31.96398	74220
31.97210	84456
31.98023	83694
31.98835	87712
31.99647	82983
32.00460	85242
32.01272	87456
32.02083	82897
32.02897	82873
32.03708	80675
32.04522	80110
32.05333	79454
32.06145	77984
32.06958	80996
32.07770	79004
32.08583	78862
32.09395	72406
32.10207	77071
32.11020	75761
32.11832	70794
32.12645	64387
32.13457	62801
32.14268	67679
32.15082	65010
32.15893	63084
32.16705	68136
32.17518	62957
32.18330	60906
32.19143	63247
32.19955	68279
32.20767	68777
32.21580	64727
32.22392	62697
32.23205	61658
32.24017	66600
32.24828	63061
32.25642	63716
32.26453	71011
32.27265	79507
32.28078	81977
32.28890	82523
32.29703	76313
32.30515	69655
32.31327	70247
32.32140	70396
32.32952	66156
32.33765	69091
32.34577	66867
32.35388	64453
32.36202	66651
32.37013	65346
32.37827	60611
32.38638	58881
32.39450	60764
32.40263	59874
32.41075	58709
32.41887	60566
32.42700	61002
32.43512	62007
32.44325	57324
32.45137	58416
32.45948	50127
32.46762	55114
32.47573	59826
32.48387	58172
32.49198	58809
32.50010	58898
32.50823	57019
32.51635	65027
32.52448	56352
32.53260	56574
32.54072	57123
32.54885	57624
32.55697	59407
32.56508	58021
32.57322	58766
32.58133	60235
32.58947	57839
32.59758	60086
32.60570	60440
32.61383	55789
32.62195	55227
32.63008	56024
32.63820	54759
32.64632	55768
32.65445	56602
32.66257	62045
32.67068	69086
32.67882	68118
32.68693	73876
32.69507	67358
32.70318	69288
32.71130	76493
32.71943	66693
32.72755	64525
32.73568	60029
32.74380	61711
32.75192	60905
32.76005	57956
32.76817	63736
32.77630	58646
32.78442	56331
32.79253	59499
32.80067	57873
32.80878	53921
32.81690	55705
32.82503	57727
32.83315	58542
32.84128	58451
32.84940	55069
32.85752	53263
32.86565	57842
32.87377	58303
32.88190	57797
32.89002	57942
32.89813	54931
32.90627	57932
32.91438	54884
32.92252	58282
32.93063	56338
32.93875	57494
32.94688	57848
32.95500	55880
32.96312	50525
32.97125	56198
32.97937	56855
32.98750	61612
32.99562	61914
33.00373	66075
33.01187	62158
33.01998	68313
33.02812	69984
33.03623	62277
33.04435	61222
33.05248	63820
33.06060	60385
33.06872	61382
33.07685	63394
33.08497	65698
33.09310	65800
33.10122	70598
33.10933	73324
33.11747	76161
33.12558	81489
33.13372	80224
33.14183	80278
33.14995	75767
33.15808	69533
33.16620	66329
33.17433	61673
33.18245	65167
33.19057	58774
33.19870	56188
33.20682	61545
33.21493	61766
33.22307	63727
33.23118	60497
33.23932	62831
33.24743	60834
33.25555	61886
33.26368	60308
33.27180	55708
33.27993	56296
33.28805	57833
33.29617	59114
33.30430	59128
33.31242	55281
33.32053	54852
33.32867	59798
33.33678	54229
33.34492	59510
33.35303	57340
33.36115	59385
33.36928	57935
33.37740	57390
33.38553	60877
33.39365	60635
33.40177	62689
33.40990	63624
33.41802	62285
33.42615	70138
33.43427	68276
33.44238	71620
33.45052	72858
33.45863	70402
33.46675	65840
33.47488	61544
33.48300	59688
33.49113	58243
33.49925	61886
33.50737	59765
33.51550	66909
33.52362	60231
33.53175	58663
33.53987	62464
33.54798	59298
33.55612	63161
33.56423	68153
33.57237	65121
33.58048	62099
33.58860	60539
33.59673	62512
33.60485	61260
33.61297	60207
33.62110	59657
33.62922	59826
33.63735	63410
33.64547	58808
33.65358	62232
33.66172	61340
33.66983	70673
33.67797	62212
33.68608	64816
33.69420	62638
33.70233	56313
33.71045	59458
33.71857	64889
33.72670	62825
33.73482	70107
33.74295	70976
33.75107	73367
33.75918	82544
33.76732	81834
33.77543	75590
33.78357	70458
33.79168	67284
33.79980	63854
33.80793	60010
33.81605	58404
33.82418	65784
33.83230	62307
33.84042	64618
33.84855	70243
33.85667	70608
33.86478	71420
33.87292	75634
33.88103	75753
33.88917	78066
33.89728	78074
33.90540	82979
33.91353	79479
33.92165	85051
33.92978	85531
33.93790	78666
33.94602	75427
33.95415	73916
33.96227	65922
33.97040	64978
33.97852	66679
33.98663	60553
33.99477	63897
34.00288	65060
34.01100	60440
34.01913	61794
34.02725	62184
34.03538	61835
34.04350	65519
34.05162	58990
34.05975	65666
34.06787	65740
34.07600	61405
34.08412	62982
34.09223	68915
34.10037	65583
34.10848	65202
34.11660	64458
34.12473	58221
34.13285	59004
34.14098	59184
34.14910	61110
34.15722	65379
34.16535	61340
34.17347	55427
34.18160	62837
34.18972	70217
34.19783	71769
34.20597	75455
34.21408	73771
34.22222	73483
34.23033	74180
34.23845	68369
34.24658	69796
34.25470	65808
34.26282	65339
34.27095	62323
34.27907	65185
34.28720	64234
34.29532	62126
34.30343	61059
34.31157	58489
34.31968	62778
34.32782	62390
34.33593	60242
34.34405	63543
34.35218	60604
34.36030	62721
34.36843	61279
34.37655	60999
34.38467	60825
34.39280	57703
34.40092	59246
34.40903	59859
34.41717	60534
34.42528	59213
34.43342	63032
34.44153	63460
34.44965	61016
34.45778	62218
34.46590	60246
34.47403	61314
34.48215	61341
34.49027	59122
34.49840	59077
34.50652	58534
34.51463	59045
34.52277	63029
34.53088	65192
34.53902	74530
34.54713	71806
34.55525	79854
34.56338	84091
34.57150	85036
34.57963	85092
34.58775	89457
34.59587	81865
34.60400	90000
34.61212	85103
34.62025	84653
34.62837	84207
34.63648	81875
34.64462	80726
34.65273	83322
34.66085	85097
34.66898	78582
34.67710	73369
34.68523	76330
34.69335	74676
34.70147	70152
34.70960	73662
34.71772	72454
34.72585	74170
34.73397	66040
34.74208	68054
34.75022	69025
34.75833	69064
34.76645	71275
34.77458	68188
34.78270	61546
34.79083	63079
34.79895	64148
34.80707	67076
34.81520	64450
34.82332	62906
34.83145	63453
34.83957	63694
34.84768	64294
34.85582	74350
34.86393	70033
34.87207	68447
34.88018	64645
34.88830	71660
34.89643	64754
34.90455	67639
34.91267	66657
34.92080	67062
34.92892	64839
34.93705	66908
34.94517	72845
34.95328	72257
34.96142	69846
34.96953	72137
34.97767	74861
34.98578	72694
34.99390	71697
35.00203	73423
35.01015	77275
35.01828	79139
35.02640	83494
35.03452	84485
35.04265	89599
35.05077	83051
35.05888	87080
35.06702	86109
35.07513	81888
35.08327	75429
35.09138	83445
35.09950	71325
35.10763	67446
35.11575	68545
35.12388	71244
35.13200	64167
35.14012	59316
35.14825	61016
35.15637	67018
35.16448	64013
35.17262	61686
35.18073	65029
35.18887	66179
35.19698	66879
35.20510	66336
35.21323	62111
35.22135	64964
35.22948	61886
35.23760	67036
35.24572	67811
35.25385	68253
35.26197	70633
35.27010	66094
35.27822	70442
35.28633	71849
35.29447	75866
35.30258	72405
35.31070	71403
35.31883	67260
35.32695	70705
35.33508	69956
35.34320	74760
35.35132	66343
35.35945	73702
35.36757	66591
35.37570	75444
35.38382	75506
35.39193	85157
35.40007	84954
35.40818	91334
35.41632	103914
35.42443	105297
35.43255	107335
35.44068	104875
35.44880	104554
35.45692	93382
35.46505	91409
35.47317	86113
35.48130	72989
35.48942	73575
35.49753	72033
35.50567	73419
35.51378	73578
35.52192	68550
35.53003	69801
35.53815	69906
35.54628	74506
35.55440	69139
35.56252	69445
35.57065	67480
35.57877	70382
35.58690	70600
35.59502	65907
35.60313	65422
35.61127	67640
35.61938	68325
35.62752	68909
35.63563	62178
35.64375	65557
35.65188	66553
35.66000	69010
35.66813	70219
35.67625	70156
35.68437	72364
35.69250	75831
35.70062	77967
35.70873	81201
35.71687	79905
35.72498	79803
35.73312	76713
35.74123	79614
35.74935	75984
35.75748	71077
35.76560	74221
35.77373	73489
35.78185	77285
35.78997	74066
35.79810	79553
35.80622	73843
35.81433	79362
35.82247	71188
35.83058	71937
35.83872	74375
35.84683	71490
35.85495	72811
35.86308	73204
35.87120	77198
35.87933	74006
35.88745	72834
35.89557	73502
35.90370	70241
35.91182	75820
35.91995	69451
35.92807	71828
35.93618	71236
35.94432	70114
35.95243	71060
35.96055	68809
35.96868	67920
35.97680	68500
35.98493	73079
35.99305	70962
36.00117	66965
36.00930	70032
36.01742	71547
36.02555	67816
36.03367	71696
36.04178	69787
36.04992	69107
36.05803	73629
36.06617	75575
36.07428	74006
36.08240	73137
36.09053	75427
36.09865	71941
36.10677	72603
36.11490	69058
36.12302	68608
36.13115	68779
36.13927	66964
36.14738	67194
36.15552	70898
36.16363	68203
36.17177	72896
36.17988	66937
36.18800	63416
36.19613	64866
36.20425	66143
36.21238	70504
36.22050	69709
36.22862	70444
36.23675	75294
36.24487	68918
36.25298	72883
36.26112	70451
36.26923	72566
36.27737	78596
36.28548	76721
36.29360	80610
36.30173	79181
36.30985	74292
36.31798	83116
36.32610	81577
36.33422	79692
36.34235	79682
36.35047	77100
36.35858	73778
36.36672	74825
36.37483	72764
36.38297	69477
36.39108	77216
36.39920	67552
36.40733	73390
36.41545	75984
36.42358	80025
36.43170	78928
36.43982	79807
36.44795	85341
36.45607	87229
36.46420	88604
36.47232	86819
36.48043	87210
36.48857	88097
36.49668	86082
36.50480	90646
36.51293	90478
36.52105	92487
36.52918	89229
36.53730	87943
36.54542	90746
36.55355	81441
36.56167	73282
36.56980	74700
36.57792	80852
36.58603	73611
36.59417	74052
36.60228	67270
36.61040	71948
36.61853	71695
36.62665	85884
36.63478	81395
36.64290	84225
36.65102	83627
36.65915	86615
36.66727	88983
36.67540	86327
36.68352	88052
36.69163	83012
36.69977	82748
36.70788	79356
36.71602	77622
36.72413	71926
36.73225	74636
36.74038	75566
36.74850	71765
36.75662	76375
36.76475	67209
36.77287	74805
36.78100	71125
36.78912	73740
36.79723	72646
36.80537	71623
36.81348	72705
36.82162	68024
36.82973	70415
36.83785	70587
36.84598	69310
36.85410	71474
36.86223	76347
36.87035	74306
36.87847	71257
36.88660	74553
36.89472	77813
36.90283	78403
36.91097	74428
36.91908	79185
36.92722	72224
36.93533	71479
36.94345	74156
36.95158	78025
36.95970	78456
36.96783	70404
36.97595	77327
36.98407	78088
36.99220	75726
37.00032	77692
37.00843	77819
37.01657	74079
37.02468	76503
37.03282	76241
37.04093	82064
37.04905	75356
37.05718	81111
37.06530	76479
37.07343	78236
37.08155	76578
37.08967	82611
37.09780	87471
37.10592	84892
37.11405	86943
37.12217	84765
37.13028	95743
37.13842	94880
37.14653	95838
37.15465	94876
37.16278	92416
37.17090	89399
37.17903	85735
37.18715	79011
37.19527	78854
37.20340	77534
37.21152	72135
37.21965	77374
37.22777	76019
37.23588	73395
37.24402	74634
37.25213	72017
37.26027	77969
37.26838	79873
37.27650	78316
37.28463	75780
37.29275	75343
37.30087	78219
37.30900	73186
37.31712	81055
37.32525	78737
37.33337	79244
37.34148	82795
37.34962	83277
37.35773	84499
37.36587	86261
37.37398	88877
37.38210	85865
37.39023	93090
37.39835	92675
37.40647	91683
37.41460	85264
37.42272	88122
37.43085	82479
37.43897	85405
37.44708	85699
37.45522	79608
37.46333	87038
37.47147	82232
37.47958	87449
37.48770	82845
