C:\MassHunter\GCMS\1\data\JTB-E18\JTB-E18-023-05.D Tue Sep 10 12:30:05 2019
Start of data points
2.09518	431137
2.10330	447923
2.11142	445311
2.11955	455481
2.12767	466755
2.13580	460140
2.14392	446011
2.15203	446213
2.16017	428082
2.16828	428557
2.17642	401561
2.18453	384866
2.19265	370228
2.20078	355012
2.20890	345101
2.21702	329513
2.22515	322464
2.23327	303668
2.24140	293191
2.24952	294135
2.25763	295768
2.26577	313459
2.27388	1126252
2.28202	3846036
2.29013	2980636
2.29825	1303026
2.30638	876261
2.31450	718491
2.32263	636631
2.33075	588958
2.33887	558524
2.34700	514739
2.35512	475840
2.36323	466313
2.37137	445632
2.37948	428521
2.38762	446849
2.39573	430877
2.40385	404520
2.41198	398856
2.42010	408857
2.42823	430332
2.43635	397678
2.44447	383467
2.45260	407714
2.46072	390162
2.46883	375637
2.47697	360624
2.48508	365509
2.49322	415386
2.50133	464274
2.50945	410933
2.51758	375709
2.52570	374011
2.53383	356904
2.54195	367696
2.55007	376203
2.55820	378216
2.56632	361981
2.57445	343104
2.58257	346473
2.59068	343918
2.59882	340453
2.60693	342784
2.61505	368631
2.62318	375909
2.63130	357783
2.63943	353178
2.64755	339062
2.65567	353499
2.66380	345879
2.67192	341198
2.68005	353963
2.68817	341688
2.69628	335098
2.70442	328502
2.71253	326744
2.72065	328079
2.72878	322327
2.73690	313612
2.74503	323596
2.75315	318245
2.76127	326648
2.76940	305147
2.77752	317468
2.78565	318352
2.79377	315824
2.80188	318547
2.81002	334999
2.81813	336257
2.82627	408308
2.83438	618859
2.84250	632561
2.85063	440812
2.85875	373276
2.86687	377959
2.87500	377875
2.88312	345308
2.89125	338050
2.89937	326224
2.90748	314553
2.91562	317564
2.92373	305510
2.93187	287822
2.93998	295502
2.94810	291585
2.95623	285531
2.96435	288982
2.97248	288479
2.98060	283101
2.98872	284415
2.99685	283508
3.00497	302714
3.01308	300972
3.02122	314910
3.02933	395959
3.03747	560334
3.04558	713148
3.05370	1767229
3.06183	4241107
3.06995	4777621
3.07808	2781917
3.08620	1410700
3.09432	904590
3.10245	703405
3.11057	625740
3.11870	554555
3.12682	505712
3.13493	456528
3.14307	424703
3.15118	392312
3.15930	388280
3.16743	384380
3.17555	368483
3.18368	353427
3.19180	347572
3.19992	332607
3.20805	327549
3.21617	331855
3.22430	332442
3.23242	337295
3.24053	356201
3.24867	352665
3.25678	334728
3.26490	323225
3.27303	336386
3.28115	392670
3.28928	863701
3.29740	2517487
3.30552	5128112
3.31365	6315645
3.32177	5288939
3.32990	3665366
3.33802	2616876
3.34613	2006266
3.35427	1641921
3.36238	1444888
3.37052	1327010
3.37863	1383158
3.38675	1398868
3.39488	1229078
3.40300	1393357
3.41112	2525467
3.41925	3740175
3.42737	3297758
3.43550	1991329
3.44362	1249011
3.45173	997486
3.45987	859213
3.46798	811461
3.47612	766276
3.48423	727887
3.49235	694180
3.50048	661567
3.50860	628089
3.51672	614508
3.52485	596176
3.53297	594479
3.54110	569990
3.54922	584309
3.55733	562195
3.56547	554330
3.57358	555469
3.58172	539342
3.58983	530797
3.59795	524645
3.60608	519741
3.61420	573617
3.62233	800339
3.63045	1334921
3.63857	1776463
3.64670	1561141
3.65482	1078838
3.66293	746960
3.67107	630747
3.67918	595866
3.68732	581245
3.69543	552635
3.70355	563602
3.71168	563290
3.71980	555784
3.72793	540448
3.73605	548371
3.74417	541646
3.75230	541702
3.76042	534522
3.76855	529411
3.77667	502923
3.78478	495880
3.79292	497115
3.80103	500483
3.80915	484529
3.81728	480329
3.82540	483921
3.83353	472816
3.84165	487549
3.84977	467473
3.85790	456954
3.86602	453740
3.87415	462488
3.88227	460433
3.89038	457094
3.89852	462824
3.90663	447553
3.91475	461860
3.92288	435845
3.93100	445536
3.93913	445477
3.94725	440896
3.95537	438321
3.96350	437745
3.97162	429067
3.97975	437928
3.98787	421590
3.99598	417190
4.00412	431394
4.01223	432024
4.02037	429742
4.02848	428219
4.03660	409917
4.04473	403555
4.05285	426388
4.06097	426030
4.06910	438607
4.07722	426796
4.08535	418573
4.09347	416568
4.10158	425802
4.10972	417315
4.11783	419760
4.12597	437038
4.13408	459779
4.14220	576483
4.15033	787641
4.15845	869950
4.16658	788343
4.17470	641601
4.18282	536819
4.19095	501103
4.19907	468665
4.20718	469628
4.21532	531066
4.22343	839932
4.23157	1514893
4.23968	1956085
4.24780	1713719
4.25593	1252309
4.26405	936676
4.27218	771467
4.28030	674759
4.28842	599591
4.29655	556105
4.30467	522623
4.31278	497554
4.32092	493255
4.32903	465447
4.33717	456590
4.34528	469475
4.35340	440884
4.36153	447151
4.36965	450750
4.37778	433020
4.38590	435140
4.39402	428166
4.40215	413572
4.41027	418260
4.41840	413842
4.42652	411199
4.43463	414717
4.44277	421074
4.45088	428318
4.45900	423384
4.46713	428935
4.47525	420594
4.48338	405100
4.49150	397487
4.49962	395267
4.50775	396940
4.51587	412226
4.52400	391128
4.53212	406738
4.54023	401107
4.54837	393128
4.55648	395388
4.56460	396586
4.57273	396860
4.58085	398690
4.58898	393368
4.59710	391756
4.60522	385636
4.61335	382868
4.62147	382441
4.62960	379865
4.63772	379776
4.64583	380290
4.65397	393414
4.66208	403823
4.67022	398036
4.67833	404848
4.68645	399017
4.69458	391074
4.70270	397970
4.71082	386371
4.71895	385692
4.72707	393099
4.73520	372873
4.74332	372492
4.75143	367391
4.75957	377002
4.76768	367168
4.77582	371489
4.78393	369452
4.79205	360423
4.80018	368238
4.80830	371676
4.81643	380772
4.82455	383620
4.83267	366173
4.84080	376794
4.84892	366642
4.85703	371345
4.86517	387669
4.87328	376293
4.88142	381459
4.88953	372704
4.89765	372452
4.90578	381022
4.91390	393351
4.92203	482336
4.93015	744083
4.93827	1284366
4.94640	1951310
4.95452	2294872
4.96263	2235132
4.97077	1847579
4.97888	1495599
4.98702	1248501
4.99513	1037643
5.00325	914779
5.01138	816713
5.01950	781211
5.02763	729798
5.03575	713813
5.04387	681593
5.05200	649199
5.06012	645990
5.06825	629708
5.07637	623171
5.08448	610115
5.09262	613418
5.10073	661858
5.10885	707372
5.11698	737059
5.12510	747579
5.13323	689874
5.14135	630312
5.14947	599390
5.15760	572054
5.16572	609577
5.17385	648652
5.18197	708509
5.19008	731136
5.19822	704911
5.20633	666839
5.21447	616390
5.22258	577774
5.23070	561607
5.23883	561428
5.24695	558080
5.25507	539456
5.26320	532042
5.27132	494605
5.27945	495344
5.28757	490970
5.29568	493614
5.30382	475575
5.31193	473821
5.32007	457239
5.32818	466294
5.33630	476417
5.34443	481149
5.35255	471799
5.36067	460921
5.36880	456406
5.37692	449800
5.38505	444888
5.39317	437569
5.40128	432813
5.40942	434958
5.41753	425983
5.42567	423050
5.43378	426207
5.44190	426038
5.45003	429374
5.45815	436001
5.46628	426922
5.47440	430073
5.48252	421362
5.49065	425926
5.49877	430411
5.50688	438315
5.51502	434386
5.52313	431177
5.53127	432529
5.53938	425485
5.54750	418376
5.55563	426217
5.56375	419106
5.57188	419360
5.58000	439835
5.58812	440559
5.59625	440445
5.60437	450891
5.61248	447510
5.62062	456657
5.62873	467017
5.63687	491962
5.64498	485612
5.65310	466820
5.66123	440541
5.66935	428412
5.67748	427214
5.68560	433724
5.69372	426292
5.70185	436908
5.70997	443252
5.71810	468766
5.72622	472615
5.73433	497316
5.74247	481029
5.75058	467601
5.75870	479651
5.76683	502945
5.77495	495340
5.78308	483002
5.79120	479571
5.79932	515469
5.80745	662973
5.81557	972893
5.82370	1393460
5.83182	1669751
5.83993	1655963
5.84807	1339165
5.85618	995416
5.86432	744415
5.87243	593365
5.88055	518914
5.88868	480722
5.89680	485152
5.90492	529340
5.91305	597830
5.92117	753949
5.92930	900027
5.93742	943879
5.94553	831145
5.95367	680173
5.96178	536243
5.96992	472577
5.97803	459912
5.98615	435893
5.99428	429628
6.00240	419153
6.01052	387513
6.01865	386797
6.02677	375893
6.03490	367389
6.04302	362672
6.05113	363211
6.05927	356319
6.06738	357139
6.07552	355209
6.08363	351356
6.09175	361218
6.09988	349664
6.10800	342673
6.11613	340827
6.12425	325979
6.13237	339947
6.14050	339684
6.14862	340257
6.15673	351569
6.16487	350698
6.17298	356919
6.18112	366107
6.18923	379952
6.19735	398735
6.20548	400935
6.21360	404508
6.22173	374315
6.22985	364856
6.23797	351145
6.24610	363470
6.25422	358817
6.26235	366611
6.27047	368777
6.27858	372150
6.28672	373028
6.29483	378783
6.30295	383979
6.31108	384896
6.31920	382246
6.32733	386840
6.33545	391511
6.34357	394625
6.35170	384754
6.35982	394177
6.36795	394265
6.37607	399080
6.38418	393438
6.39232	388290
6.40043	393770
6.40855	394698
6.41668	402381
6.42480	395644
6.43293	404280
6.44105	403513
6.44917	407128
6.45730	407286
6.46542	411765
6.47355	424761
6.48167	424050
6.48978	416361
6.49792	421865
6.50603	409522
6.51417	414056
6.52228	420013
6.53040	409893
6.53853	419989
6.54665	418518
6.55477	424277
6.56290	424308
6.57102	419580
6.57915	416296
6.58727	434158
6.59538	418915
6.60352	427034
6.61163	423019
6.61977	381901
6.62788	361878
6.63600	354700
6.64413	346299
6.65225	346603
6.66038	338971
6.66850	339918
6.67662	348582
6.68475	346676
6.69287	366271
6.70098	398263
6.70912	441122
6.71723	469032
6.72537	472573
6.73348	434523
6.74160	390089
6.74973	352221
6.75785	329699
6.76598	315925
6.77410	312298
6.78222	303008
6.79035	302133
6.79847	306098
6.80658	311848
6.81472	335856
6.82283	433945
6.83097	597745
6.83908	835647
6.84720	1098209
6.85533	1204437
6.86345	1142528
6.87158	915159
6.87970	652744
6.88782	467654
6.89595	349965
6.90407	293338
6.91220	262499
6.92032	237639
6.92843	225961
6.93657	229433
6.94468	221749
6.95280	217943
6.96093	228166
6.96905	226377
6.97718	265265
6.98530	330705
6.99342	434429
7.00155	549619
7.00967	602491
7.01780	581141
7.02592	509528
7.03403	415666
7.04217	341288
7.05028	275735
7.05840	246369
7.06653	235367
7.07465	221950
7.08278	224402
7.09090	231282
7.09902	228180
7.10715	235495
7.11527	236293
7.12340	238715
7.13152	229670
7.13963	228352
7.14777	229750
7.15588	225671
7.16402	226337
7.17213	227233
7.18025	230411
7.18838	225336
7.19650	231189
7.20462	233199
7.21275	233331
7.22087	252880
7.22900	256993
7.23712	294944
7.24523	314873
7.25337	322318
7.26148	320000
7.26962	306943
7.27773	283545
7.28585	273392
7.29398	273459
7.30210	280150
7.31023	286460
7.31835	281169
7.32647	272509
7.33460	256671
7.34272	250594
7.35083	271206
7.35897	318137
7.36708	400431
7.37522	434987
7.38333	463963
7.39145	417842
7.39958	366229
7.40770	312352
7.41583	281874
7.42395	255886
7.43207	236681
7.44020	243452
7.44832	240492
7.45643	251064
7.46457	276342
7.47268	301851
7.48082	347521
7.48893	358365
7.49705	340211
7.50518	304861
7.51330	271073
7.52143	244484
7.52955	224821
7.53767	210726
7.54580	209185
7.55392	209218
7.56205	207520
7.57017	213755
7.57828	207254
7.58642	210550
7.59453	207018
7.60265	202564
7.61078	207243
7.61890	198278
7.62703	202922
7.63515	208431
7.64327	200507
7.65140	207978
7.65952	201577
7.66765	195630
7.67577	195237
7.68388	203369
7.69202	193026
7.70013	196366
7.70827	200943
7.71638	191132
7.72450	191850
7.73263	199531
7.74075	182299
7.74887	177203
7.75700	174370
7.76512	168880
7.77325	164849
7.78137	174884
7.78948	168024
7.79762	170005
7.80573	169151
7.81387	166114
7.82198	168111
7.83010	157404
7.83823	157885
7.84635	159679
7.85447	161003
7.86260	159783
7.87072	152665
7.87885	158700
7.88697	162700
7.89508	172268
7.90322	169886
7.91133	170213
7.91947	178253
7.92758	168875
7.93570	166104
7.94383	168648
7.95195	171261
7.96008	169098
7.96820	177455
7.97632	180495
7.98445	177510
7.99257	172653
8.00068	171327
8.00882	168998
8.01693	163791
8.02507	165192
8.03318	172698
8.04130	172104
8.04943	169179
8.05755	165596
8.06568	169959
8.07380	173349
8.08192	168789
8.09005	173152
8.09817	164995
8.10628	168500
8.11442	172717
8.12253	169336
8.13067	164321
8.13878	171277
8.14690	170828
8.15503	165740
8.16315	175021
8.17128	171384
8.17940	174404
8.18752	178064
8.19565	168937
8.20377	165261
8.21190	167842
8.22002	160615
8.22813	168157
8.23627	160803
8.24438	162786
8.25250	159818
8.26063	161464
8.26875	158013
8.27688	165648
8.28500	158797
8.29312	155579
8.30125	150753
8.30937	161603
8.31750	160893
8.32562	170490
8.33373	177824
8.34187	177757
8.34998	176914
8.35812	174955
8.36623	168920
8.37435	164553
8.38248	164408
8.39060	158637
8.39872	155699
8.40685	150816
8.41497	157060
8.42310	151714
8.43122	153891
8.43933	154590
8.44747	160986
8.45558	152271
8.46372	156909
8.47183	151333
8.47995	158190
8.48808	156429
8.49620	154712
8.50433	155349
8.51245	171122
8.52057	175092
8.52870	186898
8.53682	186900
8.54493	178575
8.55307	181305
8.56118	165586
8.56932	167795
8.57743	165504
8.58555	164146
8.59368	155151
8.60180	159349
8.60993	152245
8.61805	160167
8.62617	159635
8.63430	159600
8.64242	148894
8.65053	154157
8.65867	160045
8.66678	156418
8.67492	153016
8.68303	158154
8.69115	154772
8.69928	155633
8.70740	159831
8.71553	167641
8.72365	220420
8.73177	401097
8.73990	877513
8.74802	1690875
8.75615	2644801
8.76427	3156356
8.77238	2869530
8.78052	2144197
8.78863	1357455
8.79675	882804
8.80488	646220
8.81300	553144
8.82113	495283
8.82925	443844
8.83737	405236
8.84550	378248
8.85362	353149
8.86175	334250
8.86987	324700
8.87798	305029
8.88612	292843
8.89423	290491
8.90235	281924
8.91048	277957
8.91860	275713
8.92673	255770
8.93485	265087
8.94297	247587
8.95110	251148
8.95922	249636
8.96735	248640
8.97547	253004
8.98358	257015
8.99172	258287
8.99983	259886
9.00797	263595
9.01608	268715
9.02420	263918
9.03233	256294
9.04045	264567
9.04857	264560
9.05670	267688
9.06482	259975
9.07295	260682
9.08107	258593
9.08918	257895
9.09732	254162
9.10543	250856
9.11357	260733
9.12168	253868
9.12980	248064
9.13793	260266
9.14605	250826
9.15418	249395
9.16230	241636
9.17042	245277
9.17855	236467
9.18667	235072
9.19478	230871
9.20292	238944
9.21103	228885
9.21917	233368
9.22728	236331
9.23540	228903
9.24353	228552
9.25165	229962
9.25978	211067
9.26790	220002
9.27602	217968
9.28415	209492
9.29227	215795
9.30038	214321
9.30852	216054
9.31663	208880
9.32477	205766
9.33288	207705
9.34100	213075
9.34913	215500
9.35725	212781
9.36538	208821
9.37350	203461
9.38162	199772
9.38975	202198
9.39787	198603
9.40600	198799
9.41412	195034
9.42223	192263
9.43037	202322
9.43848	198843
9.44660	196952
9.45473	195163
9.46285	201790
9.47098	194785
9.47910	195560
9.48722	198208
9.49535	187372
9.50347	192357
9.51160	191654
9.51972	196665
9.52783	182195
9.53597	171673
9.54408	163425
9.55222	159350
9.56033	146942
9.56845	144524
9.57658	140318
9.58470	145189
9.59282	143763
9.60095	148578
9.60907	146351
9.61720	149936
9.62532	139889
9.63343	133403
9.64157	141385
9.64968	135572
9.65782	137429
9.66593	139776
9.67405	141891
9.68218	142498
9.69030	145644
9.69842	153536
9.70655	142801
9.71467	145908
9.72280	146233
9.73092	148608
9.73903	153495
9.74717	158417
9.75528	154187
9.76342	152346
9.77153	152716
9.77965	158243
9.78778	151992
9.79590	151093
9.80403	156357
9.81215	154744
9.82027	150988
9.82840	154204
9.83652	160393
9.84463	164510
9.85277	164252
9.86088	164751
9.86902	165539
9.87713	164477
9.88525	155891
9.89338	156618
9.90150	151962
9.90963	155399
9.91775	155379
9.92587	149919
9.93400	153193
9.94212	155249
9.95023	152959
9.95837	164041
9.96648	171663
9.97462	174929
9.98273	184376
9.99085	174146
9.99898	174692
10.00710	166777
10.01523	160135
10.02335	163618
10.03147	144786
10.03960	150681
10.04772	152605
10.05585	147064
10.06397	149786
10.07208	150221
10.08022	148083
10.08833	144803
10.09645	141239
10.10458	137697
10.11270	136376
10.12083	135097
10.12895	123470
10.13707	121363
10.14520	125042
10.15332	124512
10.16145	128476
10.16957	119833
10.17768	118169
10.18582	119800
10.19393	125095
10.20207	119217
10.21018	123472
10.21830	122596
10.22643	121738
10.23455	128137
10.24267	135740
10.25080	120707
10.25892	124878
10.26705	132643
10.27517	127737
10.28328	129866
10.29142	127304
10.29953	125534
10.30767	126228
10.31578	125344
10.32390	121887
10.33203	118830
10.34015	118414
10.34827	123604
10.35640	124117
10.36452	119161
10.37265	116723
10.38077	124098
10.38888	122934
10.39702	125389
10.40513	122477
10.41327	128411
10.42138	114709
10.42950	118117
10.43763	112858
10.44575	116052
10.45388	113164
10.46200	112916
10.47012	112565
10.47825	108759
10.48637	112634
10.49448	110820
10.50262	121810
10.51073	123826
10.51887	127820
10.52698	127634
10.53510	125203
10.54323	125244
10.55135	121617
10.55948	116814
10.56760	114523
10.57572	116794
10.58385	109202
10.59197	109305
10.60010	114992
10.60822	109847
10.61633	111900
10.62447	111713
10.63258	112070
10.64070	114499
10.64883	111046
10.65695	110003
10.66508	101214
10.67320	101172
10.68132	99466
10.68945	103286
10.69757	105911
10.70570	112149
10.71382	108690
10.72193	107448
10.73007	106905
10.73818	107292
10.74630	104719
10.75443	104386
10.76255	101821
10.77068	102094
10.77880	99076
10.78692	104014
10.79505	97827
10.80317	99099
10.81130	92368
10.81942	96111
10.82753	85280
10.83567	95672
10.84378	90076
10.85192	90007
10.86003	93688
10.86815	90572
10.87628	91815
10.88440	87611
10.89252	92483
10.90065	83817
10.90877	91695
10.91690	88610
10.92502	90404
10.93313	90387
10.94127	89865
10.94938	84940
10.95752	87574
10.96563	88671
10.97375	83596
10.98188	91013
10.99000	94346
10.99813	82485
11.00625	90769
11.01437	84439
11.02250	86017
11.03062	88374
11.03873	86956
11.04687	90755
11.05498	96945
11.06312	114814
11.07123	132227
11.07935	166243
11.08748	195503
11.09560	210498
11.10373	226083
11.11185	259746
11.11997	290753
11.12810	321236
11.13622	343240
11.14433	352691
11.15247	363698
11.16058	350531
11.16872	365719
11.17683	362079
11.18495	366574
11.19308	359068
11.20120	357006
11.20933	367138
11.21745	360634
11.22557	356615
11.23370	347162
11.24182	346275
11.24995	352364
11.25807	337358
11.26618	355234
11.27432	383824
11.28243	408821
11.29055	473618
11.29868	511702
11.30680	527001
11.31493	512672
11.32305	474135
11.33117	429135
11.33930	405716
11.34742	377834
11.35555	377729
11.36367	376452
11.37178	364342
11.37992	353780
11.38803	343683
11.39615	324399
11.40428	323915
11.41240	317431
11.42053	320909
11.42865	308563
11.43677	303435
11.44490	296514
11.45302	293010
11.46115	285209
11.46927	285276
11.47738	288931
11.48552	290472
11.49363	282029
11.50177	284377
11.50988	280456
11.51800	291570
11.52613	299673
11.53425	309262
11.54237	306464
11.55050	332559
11.55862	320866
11.56675	308120
11.57487	295410
11.58298	287386
11.59112	279732
11.59923	272631
11.60737	281418
11.61548	274642
11.62360	278191
11.63173	268694
11.63985	271130
11.64798	263165
11.65610	247734
11.66422	256423
11.67235	251829
11.68047	265457
11.68858	259879
11.69672	273515
11.70483	294064
11.71297	312645
11.72108	325998
11.72920	330487
11.73733	342115
11.74545	360728
11.75358	367803
11.76170	359325
11.76982	347163
11.77795	339226
11.78607	343314
11.79418	333267
11.80232	324360
11.81043	312313
11.81857	305049
11.82668	284713
11.83480	258220
11.84293	234682
11.85105	218280
11.85918	206840
11.86730	197079
11.87542	191165
11.88355	195310
11.89167	194051
11.89980	188291
11.90792	194223
11.91603	187261
11.92417	194108
11.93228	206354
11.94040	221398
11.94853	229158
11.95665	222637
11.96478	212918
11.97290	205822
11.98102	191767
11.98915	188763
11.99727	190873
12.00540	190179
12.01352	183905
12.02163	178522
12.02977	173681
12.03788	170886
12.04602	166324
12.05413	166005
12.06225	171645
12.07038	163298
12.07850	162053
12.08662	167273
12.09475	163011
12.10287	165885
12.11100	159815
12.11912	159931
12.12723	166039
12.13537	162286
12.14348	162242
12.15162	172285
12.15973	161641
12.16785	165957
12.17598	159596
12.18410	156194
12.19222	157185
12.20035	154061
12.20847	160759
12.21660	155276
12.22472	158293
12.23283	152053
12.24097	157321
12.24908	154825
12.25722	154526
12.26533	167991
12.27345	178220
12.28158	187096
12.28970	202762
12.29783	218618
12.30595	249020
12.31407	267838
12.32220	264074
12.33032	242037
12.33843	233803
12.34657	218609
12.35468	210406
12.36282	208660
12.37093	204677
12.37905	202519
12.38718	200396
12.39530	208047
12.40343	209815
12.41155	210409
12.41967	207981
12.42780	196759
12.43592	188845
12.44403	183249
12.45217	183357
12.46028	171720
12.46842	172245
12.47653	163405
12.48465	164728
12.49278	162910
12.50090	161332
12.50903	158124
12.51715	162691
12.52527	154675
12.53340	150764
12.54152	153779
12.54965	155410
12.55777	146712
12.56588	155068
12.57402	153508
12.58213	147834
12.59025	147402
12.59838	153235
12.60650	136728
12.61463	148463
12.62275	143249
12.63087	142769
12.63900	140440
12.64712	137282
12.65525	140856
12.66337	141598
12.67148	148828
12.67962	141376
12.68773	137962
12.69587	132862
12.70398	133157
12.71210	140971
12.72023	148997
12.72835	147930
12.73647	150046
12.74460	146050
12.75272	145253
12.76085	144493
12.76897	150416
12.77708	149060
12.78522	160932
12.79333	164403
12.80147	169961
12.80958	173612
12.81770	170780
12.82583	164313
12.83395	165030
12.84207	149525
12.85020	150643
12.85832	148709
12.86645	135951
12.87457	131344
12.88268	120043
12.89082	118743
12.89893	122614
12.90707	117707
12.91518	116826
12.92330	112163
12.93143	115562
12.93955	126773
12.94768	149880
12.95580	192068
12.96392	243162
12.97205	277662
12.98017	299258
12.98828	293170
12.99642	268907
13.00453	241629
13.01267	219348
13.02078	205070
13.02890	179739
13.03703	171124
13.04515	159478
13.05328	145700
13.06140	136955
13.06952	127245
13.07765	125762
13.08577	116873
13.09390	110295
13.10202	113159
13.11013	110783
13.11827	106785
13.12638	104882
13.13450	106480
13.14263	110472
13.15075	102246
13.15888	114181
13.16700	113472
13.17512	110540
13.18325	110384
13.19137	110743
13.19950	115777
13.20762	111991
13.21573	112462
13.22387	110405
13.23198	114183
13.24010	116051
13.24823	120233
13.25635	130823
13.26448	147210
13.27260	149308
13.28072	153711
13.28885	153464
13.29697	153357
13.30510	147219
13.31322	150240
13.32133	152544
13.32947	150325
13.33758	145254
13.34572	150144
13.35383	136804
13.36195	132351
13.37008	123001
13.37820	126303
13.38632	113550
13.39445	113828
13.40257	108695
13.41070	105268
13.41882	106520
13.42693	102215
13.43507	95034
13.44318	100072
13.45132	97556
13.45943	91460
13.46755	93514
13.47568	96611
13.48380	95950
13.49192	91221
13.50005	91154
13.50817	93205
13.51630	92542
13.52442	92942
13.53253	99298
13.54067	107115
13.54878	110011
13.55692	113334
13.56503	124698
13.57315	120696
13.58128	125183
13.58940	127398
13.59753	130827
13.60565	136816
13.61377	140863
13.62190	146017
13.63002	148684
13.63813	145790
13.64627	161281
13.65438	156438
13.66252	149075
13.67063	139749
13.67875	132440
13.68688	136622
13.69500	123994
13.70313	121536
13.71125	117489
13.71937	117222
13.72750	116629
13.73562	115424
13.74375	118658
13.75187	111710
13.75998	108513
13.76812	111422
13.77623	108102
13.78435	98232
13.79248	104289
13.80060	99316
13.80873	96775
13.81685	96624
13.82497	96562
13.83310	96415
13.84122	97792
13.84935	96233
13.85747	99428
13.86558	100209
13.87372	95764
13.88183	108213
13.88997	113649
13.89808	123277
13.90620	129512
13.91433	138234
13.92245	145692
13.93057	153786
13.93870	145401
13.94682	140634
13.95495	140196
13.96307	142644
13.97118	142552
13.97932	138197
13.98743	143458
13.99557	135780
14.00368	141325
14.01180	141781
14.01993	140412
14.02805	139415
14.03617	146486
14.04430	140124
14.05242	139642
14.06055	139365
14.06867	133393
14.07678	128564
14.08492	129077
14.09303	131494
14.10117	120861
14.10928	122475
14.11740	126875
14.12553	134120
14.13365	173833
14.14178	270159
14.14990	453981
14.15802	712347
14.16615	897776
14.17427	944041
14.18238	841817
14.19052	676133
14.19863	518310
14.20677	417849
14.21488	353424
14.22300	316703
14.23113	298105
14.23925	276869
14.24738	260259
14.25550	260254
14.26362	246314
14.27175	236912
14.27987	216425
14.28798	208410
14.29612	194424
14.30423	183853
14.31237	168655
14.32048	156215
14.32860	129725
14.33673	120602
14.34485	109696
14.35298	100640
14.36110	99441
14.36922	94611
14.37735	99484
14.38547	91110
14.39360	93185
14.40172	91711
14.40983	93488
14.41797	91475
14.42608	94436
14.43420	93940
14.44233	95864
14.45045	100211
14.45858	89785
14.46670	94522
14.47482	94911
14.48295	90896
14.49107	90724
14.49920	93024
14.50732	90821
14.51543	90669
14.52357	91774
14.53168	94363
14.53982	101716
14.54793	96475
14.55605	107254
14.56418	101287
14.57230	99872
14.58042	111303
14.58855	101401
14.59667	97910
14.60480	97808
14.61292	94770
14.62103	96330
14.62917	98924
14.63728	94838
14.64542	97976
14.65353	100879
14.66165	94566
14.66978	97808
14.67790	93146
14.68602	95556
14.69415	95579
14.70227	95615
14.71040	94179
14.71852	91883
14.72663	96694
14.73477	90128
14.74288	93779
14.75102	87290
14.75913	91402
14.76725	90126
14.77538	92477
14.78350	85211
14.79163	86595
14.79975	95532
14.80787	87950
14.81600	93387
14.82412	91869
14.83223	97255
14.84037	106143
14.84848	99525
14.85662	105060
14.86473	102924
14.87285	102242
14.88098	98319
14.88910	94218
14.89723	93449
14.90535	97943
14.91347	86987
14.92160	91706
14.92972	90729
14.93785	84572
14.94597	82863
14.95408	87088
14.96222	88865
14.97033	89253
14.97845	87617
14.98658	85957
14.99470	85454
15.00283	84380
15.01095	85408
15.01907	91573
15.02720	86138
15.03532	86653
15.04345	84121
15.05157	84474
15.05968	83154
15.06782	85964
15.07593	81105
15.08405	82972
15.09218	77791
15.10030	81957
15.10843	83546
15.11655	83438
15.12467	81795
15.13280	88260
15.14092	84130
15.14905	77039
15.15717	76383
15.16528	81185
15.17342	79895
15.18153	79419
15.18967	76079
15.19778	74682
15.20590	79516
15.21403	75644
15.22215	77858
15.23027	78087
15.23840	74348
15.24652	77858
15.25465	78106
15.26277	75415
15.27088	82431
15.27902	74035
15.28713	76848
15.29527	73749
15.30338	78262
15.31150	71080
15.31963	75341
15.32775	73402
15.33587	75551
15.34400	70278
15.35212	73029
15.36025	74285
15.36837	73911
15.37648	69919
15.38462	73750
15.39273	70051
15.40087	71076
15.40898	73239
15.41710	72248
15.42523	69315
15.43335	73210
15.44148	72250
15.44960	74517
15.45772	73978
15.46585	76264
15.47397	74138
15.48208	77214
15.49022	75211
15.49833	76059
15.50647	76145
15.51458	74223
15.52270	75523
15.53083	72724
15.53895	72286
15.54708	71250
15.55520	73486
15.56332	80171
15.57145	70809
15.57957	70240
15.58770	76920
15.59582	72728
15.60393	74787
15.61207	68331
15.62018	69622
15.62830	69490
15.63643	63670
15.64455	64848
15.65268	68904
15.66080	72898
15.66892	74721
15.67705	71663
15.68517	73174
15.69330	69493
15.70142	71245
15.70953	75089
15.71767	68536
15.72578	71779
15.73390	71353
15.74203	76823
15.75015	76355
15.75828	75439
15.76640	76336
15.77452	75272
15.78265	74633
15.79077	79814
15.79890	75976
15.80702	78564
15.81513	77135
15.82327	80034
15.83138	77355
15.83952	73086
15.84763	76001
15.85575	76891
15.86388	80499
15.87200	75319
15.88012	77131
15.88825	74451
15.89637	74535
15.90450	72850
15.91262	75929
15.92073	73035
15.92887	78147
15.93698	80611
15.94512	80533
15.95323	78952
15.96135	75243
15.96948	79919
15.97760	82993
15.98573	80841
15.99385	85390
16.00197	95097
16.01010	108872
16.01822	117951
16.02633	141090
16.03447	149466
16.04258	160834
16.05072	171610
16.05883	170613
16.06695	168040
16.07508	169155
16.08320	167759
16.09133	161865
16.09945	163721
16.10757	155137
16.11570	154917
16.12382	148220
16.13193	145128
16.14007	147878
16.14818	138942
16.15632	144397
16.16443	144087
16.17255	135502
16.18068	140894
16.18880	136835
16.19693	132443
16.20505	131288
16.21317	129864
16.22130	130215
16.22942	134630
16.23755	131995
16.24567	135511
16.25378	129010
16.26192	130866
16.27003	127373
16.27815	129459
16.28628	127204
16.29440	123409
16.30253	128723
16.31065	122212
16.31877	113777
16.32690	115409
16.33502	118835
16.34315	111704
16.35127	111432
16.35938	109664
16.36752	104586
16.37563	97562
16.38377	95986
16.39188	107389
16.40000	91772
16.40813	88224
16.41625	97076
16.42437	95458
16.43250	95413
16.44062	95793
16.44875	93130
16.45687	96836
16.46498	88947
16.47312	92058
16.48123	90370
16.48937	89276
16.49748	93708
16.50560	93806
16.51373	87627
16.52185	86957
16.52997	86605
16.53810	90935
16.54622	88634
16.55435	92410
16.56247	90391
16.57058	89109
16.57872	95019
16.58683	90312
16.59497	87312
16.60308	93869
16.61120	87857
16.61933	89370
16.62745	89335
16.63558	83746
16.64370	85856
16.65182	82324
16.65995	82659
16.66807	83540
16.67618	86852
16.68432	84564
16.69243	83099
16.70057	81491
16.70868	82742
16.71680	81900
16.72493	80775
16.73305	83211
16.74118	83992
16.74930	81827
16.75742	82085
16.76555	81490
16.77367	84277
16.78178	88238
16.78992	87230
16.79803	87149
16.80617	89469
16.81428	89791
16.82240	88478
16.83053	92941
16.83865	92495
16.84678	91532
16.85490	89674
16.86302	96373
16.87115	93121
16.87927	91138
16.88740	92793
16.89552	86617
16.90363	92069
16.91177	94046
16.91988	94375
16.92800	89658
16.93613	88124
16.94425	89390
16.95238	88608
16.96050	92606
16.96862	87351
16.97675	87608
16.98487	88780
16.99300	84460
17.00112	86317
17.00923	88374
17.01737	82275
17.02548	79625
17.03362	86872
17.04173	84152
17.04985	88365
17.05798	82980
17.06610	81525
17.07422	86392
17.08235	88039
17.09047	86779
17.09860	85574
17.10672	89695
17.11483	90761
17.12297	87932
17.13108	89014
17.13922	94161
17.14733	93107
17.15545	93289
17.16358	94876
17.17170	91398
17.17982	91501
17.18795	90240
17.19607	84081
17.20420	84437
17.21232	87434
17.22043	84372
17.22857	83274
17.23668	80848
17.24482	79634
17.25293	76045
17.26105	87235
17.26918	90775
17.27730	88098
17.28543	86753
17.29355	88201
17.30167	82171
17.30980	87152
17.31792	85908
17.32603	88262
17.33417	92773
17.34228	90483
17.35042	95356
17.35853	102425
17.36665	106123
17.37478	113389
17.38290	115847
17.39103	117589
17.39915	120692
17.40727	114183
17.41540	113603
17.42352	118322
17.43165	117091
17.43977	113201
17.44788	106404
17.45602	109714
17.46413	104487
17.47225	104839
17.48038	101585
17.48850	100320
17.49663	105915
17.50475	104915
17.51287	112758
17.52100	115281
17.52912	129389
17.53725	144090
17.54537	146788
17.55348	158168
17.56162	159752
17.56973	153553
17.57785	138405
17.58598	130903
17.59410	121390
17.60223	103762
17.61035	98317
17.61847	98000
17.62660	96113
17.63472	93307
17.64285	93369
17.65097	95281
17.65908	96582
17.66722	101806
17.67533	106323
17.68347	109940
17.69158	106539
17.69970	108493
17.70783	103757
17.71595	105700
17.72407	100408
17.73220	99586
17.74032	102284
17.74845	103695
17.75657	99259
17.76468	96473
17.77282	98704
17.78093	99945
17.78907	97265
17.79718	96457
17.80530	94423
17.81343	92717
17.82155	99767
17.82967	97869
17.83780	96398
17.84592	99560
17.85405	104816
17.86217	99106
17.87028	105763
17.87842	96532
17.88653	100580
17.89467	93038
17.90278	94944
17.91090	87948
17.91903	87637
17.92715	90899
17.93528	88487
17.94340	93320
17.95152	87219
17.95965	89004
17.96777	93187
17.97588	90186
17.98402	91017
17.99213	91977
18.00027	90796
18.00838	86080
18.01650	93218
18.02463	101056
18.03275	100758
18.04088	102908
18.04900	106805
18.05712	108566
18.06525	110496
18.07337	100757
18.08150	98663
18.08962	104787
18.09773	105473
18.10587	103680
18.11398	108849
18.12210	103071
18.13023	101320
18.13835	102600
18.14648	103096
18.15460	96975
18.16272	96322
18.17085	99255
18.17897	101560
18.18710	100735
18.19522	103007
18.20333	102636
18.21147	114504
18.21958	125399
18.22770	148498
18.23583	145343
18.24395	153682
18.25208	158584
18.26020	163299
18.26832	162497
18.27645	160625
18.28457	153876
18.29270	163806
18.30082	154279
18.30893	153787
18.31707	149552
18.32518	152777
18.33332	154433
18.34143	145857
18.34955	149094
18.35768	151365
18.36580	148529
18.37392	154773
18.38205	144631
18.39017	148920
18.39830	141463
18.40642	145182
18.41453	140208
18.42267	140730
18.43078	142849
18.43892	136267
18.44703	146073
18.45515	141371
18.46328	134962
18.47140	133538
18.47953	126816
18.48765	123695
18.49577	132404
18.50390	122670
18.51202	122723
18.52013	122111
18.52827	118853
18.53638	118755
18.54452	118635
18.55263	115159
18.56075	114978
18.56888	113269
18.57700	118745
18.58513	111014
18.59325	116606
18.60137	121293
18.60950	120181
18.61762	129639
18.62573	131919
18.63387	128525
18.64198	127184
18.65012	124473
18.65823	125551
18.66635	123768
18.67448	127659
18.68260	128018
18.69073	119524
18.69885	121835
18.70697	118737
18.71510	114763
18.72322	118418
18.73135	118269
18.73947	111482
18.74758	119174
18.75572	109692
18.76383	111331
18.77195	111579
18.78008	108711
18.78820	102303
18.79633	108383
18.80445	101800
18.81257	102444
18.82070	100152
18.82882	100544
18.83695	107402
18.84507	99615
18.85318	108408
18.86132	104783
18.86943	107524
18.87755	103930
18.88568	108980
18.89380	102720
18.90193	113358
18.91005	113675
18.91817	108369
18.92630	102918
18.93442	105899
18.94255	106437
18.95067	108813
18.95878	107834
18.96692	98007
18.97503	97720
18.98317	102136
18.99128	105673
18.99940	101754
19.00753	104929
19.01565	107245
19.02377	103761
19.03190	109274
19.04002	108722
19.04815	107837
19.05627	112796
19.06438	109958
19.07252	117175
19.08063	128910
19.08877	141883
19.09688	167894
19.10500	199486
19.11313	215216
19.12125	218136
19.12938	223613
19.13750	225272
19.14562	220031
19.15375	221739
19.16187	223319
19.16998	211308
19.17812	202616
19.18623	184172
19.19437	176173
19.20248	166174
19.21060	154317
19.21873	143141
19.22685	132212
19.23498	131157
19.24310	124287
19.25122	115194
19.25935	114073
19.26747	123755
19.27560	122100
19.28372	128256
19.29183	133193
19.29997	133025
19.30808	152734
19.31620	143950
19.32433	145340
19.33245	147763
19.34058	144461
19.34870	141192
19.35682	143865
19.36495	133108
19.37307	144883
19.38120	136236
19.38932	132678
19.39743	133890
19.40557	132272
19.41368	136021
19.42180	154466
19.42993	177135
19.43805	248346
19.44618	358399
19.45430	527918
19.46242	673488
19.47055	746334
19.47867	701237
19.48680	566094
19.49492	392349
19.50303	269824
19.51117	190828
19.51928	158637
19.52742	137870
19.53553	130497
19.54365	133995
19.55178	137967
19.55990	132911
19.56802	133310
19.57615	125971
19.58427	121896
19.59240	127372
19.60052	132005
19.60863	137026
19.61677	140558
19.62488	150646
19.63302	178769
19.64113	225533
19.64925	265214
19.65738	323308
19.66550	355498
19.67362	352670
19.68175	322642
19.68987	283419
19.69800	261171
19.70612	233968
19.71423	209880
19.72237	190874
19.73048	172441
19.73862	167755
19.74673	154653
19.75485	143817
19.76298	136143
19.77110	132575
19.77923	129987
19.78735	129987
19.79547	122935
19.80360	123141
19.81172	122724
19.81983	128890
19.82797	122874
19.83608	123309
19.84422	124740
19.85233	126085
19.86045	136520
19.86858	138576
19.87670	154359
19.88483	166621
19.89295	192956
19.90107	218081
19.90920	235455
19.91732	240456
19.92545	252888
19.93357	238806
19.94168	238045
19.94982	233123
19.95793	227446
19.96605	218326
19.97418	214853
19.98230	202338
19.99043	205935
19.99855	204610
20.00667	204449
20.01480	196751
20.02292	196595
20.03105	182737
20.03917	178837
20.04728	171804
20.05542	161371
20.06353	159084
20.07165	160626
20.07978	145413
20.08790	156362
20.09603	153642
20.10415	150446
20.11227	148385
20.12040	158471
20.12852	155378
20.13665	163357
20.14477	165409
20.15288	159603
20.16102	163856
20.16913	166209
20.17727	174150
20.18538	183595
20.19350	186997
20.20163	199347
20.20975	199954
20.21787	213332
20.22600	222414
20.23412	250540
20.24225	288281
20.25037	328511
20.25848	394641
20.26662	426575
20.27473	446568
20.28287	419210
20.29098	398192
20.29910	353814
20.30723	311691
20.31535	281181
20.32348	279798
20.33160	246827
20.33972	237177
20.34785	239312
20.35597	231147
20.36408	236989
20.37222	241010
20.38033	239110
20.38847	242454
20.39658	245181
20.40470	269706
20.41283	279947
20.42095	294158
20.42908	300915
20.43720	301169
20.44532	305539
20.45345	295197
20.46157	284255
20.46968	290231
20.47782	279934
20.48593	264836
20.49407	268228
20.50218	269420
20.51030	269849
20.51843	274729
20.52655	277918
20.53468	275563
20.54280	276807
20.55092	278110
20.55905	281687
20.56717	280275
20.57530	286062
20.58342	291480
20.59153	302663
20.59967	303818
20.60778	297978
20.61590	308267
20.62403	307175
20.63215	297948
20.64028	302556
20.64840	311542
20.65652	310784
20.66465	323866
20.67277	326422
20.68090	320742
20.68902	333719
20.69713	317271
20.70527	331514
20.71338	329328
20.72150	339843
20.72963	343525
20.73775	348573
20.74588	355559
20.75400	369103
20.76212	368445
20.77025	370572
20.77837	383780
20.78650	392507
20.79462	389919
20.80273	397022
20.81087	403353
20.81898	414738
20.82712	411445
20.83523	420041
20.84335	421202
20.85148	440816
20.85960	445741
20.86772	452617
20.87585	457175
20.88397	468333
20.89210	474649
20.90022	458991
20.90833	463029
20.91647	469935
20.92458	495738
20.93272	490061
20.94083	498070
20.94895	506302
20.95708	507416
20.96520	510661
20.97333	517870
20.98145	518166
20.98957	514773
20.99770	498105
21.00582	511568
21.01393	507243
21.02207	499281
21.03018	511307
21.03832	504266
21.04643	492452
21.05455	501887
21.06268	490221
21.07080	490504
21.07893	487792
21.08705	484300
21.09517	483025
21.10330	469450
21.11142	463885
21.11953	460425
21.12767	465689
21.13578	467521
21.14392	470978
21.15203	472837
21.16015	467240
21.16828	464320
21.17640	452774
21.18453	449593
21.19265	443479
21.20077	445456
21.20890	441369
21.21702	436095
21.22515	435663
21.23327	428964
21.24138	428256
21.24952	419836
21.25763	431834
21.26575	420063
21.27388	418519
21.28200	416092
21.29013	409889
21.29825	401794
21.30637	388661
21.31450	378656
21.32262	384673
21.33075	380305
21.33887	375285
21.34698	381114
21.35512	372916
21.36323	362298
21.37137	353207
21.37948	354467
21.38760	356319
21.39573	347121
21.40385	343963
21.41197	348997
21.42010	343400
21.42822	343376
21.43635	336546
21.44447	334743
21.45258	335134
21.46072	338169
21.46883	336527
21.47697	331189
21.48508	332832
21.49320	332681
21.50133	325210
21.50945	331496
21.51757	326610
21.52570	325969
21.53382	315356
21.54195	317418
21.55007	311107
21.55818	314680
21.56632	315481
21.57443	312325
21.58257	330256
21.59068	334936
21.59880	354690
21.60693	367646
21.61505	374349
21.62318	367960
21.63130	358002
21.63942	327228
21.64755	304827
21.65567	283168
21.66378	287475
21.67192	260942
21.68003	248539
21.68817	242129
21.69628	241653
21.70440	239857
21.71253	227501
21.72065	224751
21.72878	220345
21.73690	222286
21.74502	215175
21.75315	218142
21.76127	221169
21.76940	217948
21.77752	235918
21.78563	241012
21.79377	244189
21.80188	263422
21.81000	261893
21.81813	259457
21.82625	248123
21.83438	230327
21.84250	214122
21.85062	201804
21.85875	192452
21.86687	181455
21.87500	177997
21.88312	177279
21.89123	173654
21.89937	174400
21.90748	172988
21.91560	169491
21.92373	167728
21.93185	161099
21.93998	172382
21.94810	164767
21.95622	160849
21.96435	156497
21.97247	157898
21.98060	152325
21.98872	152542
21.99683	156659
22.00497	150919
22.01308	154168
22.02122	152204
22.02933	151144
22.03745	153864
22.04558	160826
22.05370	164821
22.06182	172338
22.06995	172033
22.07807	175935
22.08620	185093
22.09432	168583
22.10243	183378
22.11057	177986
22.11868	174135
22.12682	170601
22.13493	162123
22.14305	169638
22.15118	156748
22.15930	161588
22.16742	164432
22.17555	158622
22.18367	162324
22.19180	168898
22.19992	173159
22.20803	162840
22.21617	160305
22.22428	160151
22.23242	160346
22.24053	149600
22.24865	144370
22.25678	146100
22.26490	144780
22.27303	153853
22.28115	144517
22.28927	144339
22.29740	150487
22.30552	151244
22.31363	151603
22.32177	153382
22.32988	154053
22.33802	158027
22.34613	163726
22.35425	152917
22.36238	155365
22.37050	160918
22.37863	164118
22.38675	155788
22.39487	145794
22.40300	162562
22.41112	156643
22.41925	153787
22.42737	164101
22.43548	162277
22.44362	169337
22.45173	170094
22.45985	181479
22.46798	171357
22.47610	182372
22.48423	180685
22.49235	182377
22.50047	175942
22.50860	174838
22.51672	176640
22.52485	170437
22.53297	170007
22.54108	172509
22.54922	166680
22.55733	161295
22.56545	168840
22.57358	166729
22.58170	161126
22.58983	166503
22.59795	160927
22.60607	156658
22.61420	157626
22.62232	156910
22.63045	156498
22.63857	155492
22.64668	159321
22.65482	158688
22.66293	166678
22.67107	167561
22.67918	163487
22.68730	167540
22.69543	167721
22.70355	173724
22.71167	161766
22.71980	167027
22.72792	175762
22.73605	172840
22.74417	172076
22.75228	169634
22.76042	169777
22.76853	167237
22.77667	164912
22.78478	167590
22.79290	164416
22.80103	177184
22.80915	168611
22.81728	164450
22.82540	170599
22.83352	164724
22.84165	169689
22.84977	169347
22.85788	168785
22.86602	185037
22.87413	183358
22.88227	190556
22.89038	192095
22.89850	199151
22.90663	210440
22.91475	229139
22.92288	238040
22.93100	248823
22.93912	270771
22.94725	263633
22.95537	263687
22.96348	260455
22.97162	255178
22.97973	248965
22.98787	248162
22.99598	237651
23.00410	233964
23.01223	229295
23.02035	228914
23.02848	224319
23.03660	212755
23.04472	210679
23.05285	217235
23.06097	196872
23.06910	191697
23.07722	196190
23.08533	196000
23.09347	195455
23.10158	198441
23.10970	197406
23.11783	199124
23.12595	200128
23.13408	195955
23.14220	195437
23.15032	198954
23.15845	189553
23.16657	190126
23.17470	186326
23.18282	193483
23.19093	184140
23.19907	200453
23.20718	204046
23.21530	192221
23.22343	193535
23.23155	198066
23.23968	190379
23.24780	201394
23.25592	186420
23.26405	192123
23.27217	192410
23.28030	189788
23.28842	193144
23.29653	191505
23.30467	193719
23.31278	193337
23.32092	186035
23.32903	181319
23.33715	186028
23.34528	184125
23.35340	180433
23.36152	175988
23.36965	197992
23.37777	188891
23.38590	182988
23.39402	189237
23.40213	191613
23.41027	184642
23.41838	189329
23.42652	182115
23.43463	190074
23.44275	186633
23.45088	190620
23.45900	184811
23.46713	189391
23.47525	190343
23.48337	190575
23.49150	190475
23.49962	187325
23.50773	189934
23.51587	192920
23.52398	195098
23.53212	195814
23.54023	197274
23.54835	193930
23.55648	209978
23.56460	202572
23.57273	207948
23.58085	215074
23.58897	219118
23.59710	214741
23.60522	219660
23.61333	223332
23.62147	237637
23.62958	228486
23.63772	231492
23.64583	240626
23.65395	247469
23.66208	259904
23.67020	267866
23.67833	263117
23.68645	279124
23.69457	269787
23.70270	268593
23.71082	260330
23.71895	269370
23.72707	282214
23.73518	335720
23.74332	499786
23.75143	891860
23.75955	1644100
23.76768	2723922
23.77580	3822033
23.78393	4578857
23.79205	4552585
23.80017	4024383
23.80830	3248987
23.81642	2444640
23.82455	1803191
23.83267	1331734
23.84078	1019568
23.84892	838577
23.85703	719727
23.86517	636023
23.87328	546971
23.88140	493447
23.88953	468892
23.89765	426660
23.90577	402703
23.91390	390407
23.92202	369877
23.93015	349096
23.93827	349996
23.94638	337872
23.95452	327459
23.96263	311499
23.97077	305853
23.97888	305484
23.98700	297194
23.99513	289595
24.00325	277947
24.01137	284037
24.01950	281366
24.02762	276453
24.03575	266028
24.04387	270171
24.05198	267953
24.06012	260783
24.06823	259137
24.07637	271978
24.08448	282788
24.09260	276882
24.10073	278811
24.10885	279601
24.11698	269961
24.12510	261353
24.13322	261712
24.14135	257758
24.14947	257852
24.15758	260062
24.16572	279381
24.17383	303725
24.18197	310408
24.19008	334139
24.19820	344524
24.20633	357216
24.21445	349473
24.22258	337877
24.23070	324335
24.23882	314340
24.24695	297786
24.25507	269654
24.26318	264299
24.27132	255501
24.27943	238668
24.28757	234662
24.29568	237704
24.30380	246115
24.31193	249676
24.32005	286981
24.32818	356220
24.33630	476749
24.34442	632977
24.35255	759270
24.36067	794953
24.36880	677762
24.37692	523542
24.38503	372206
24.39317	292068
24.40128	250148
24.40940	223653
24.41753	221782
24.42565	229562
24.43378	228844
24.44190	233568
24.45002	261742
24.45815	269574
24.46627	266228
24.47440	270553
24.48252	267997
24.49063	257239
24.49877	244798
24.50688	232343
24.51502	224768
24.52313	219978
24.53125	214061
24.53938	221161
24.54750	219449
24.55562	221821
24.56375	220578
24.57187	217028
24.58000	214630
24.58812	231207
24.59623	215335
24.60437	221096
24.61248	219592
24.62062	213942
24.62873	213273
24.63685	225349
24.64498	210595
24.65310	219226
24.66123	223291
24.66935	219164
24.67747	226203
24.68560	222956
24.69372	210963
24.70183	216020
24.70997	208818
24.71808	206020
24.72622	212251
24.73433	202133
24.74245	202533
24.75058	198995
24.75870	195304
24.76683	198912
24.77495	198883
24.78307	198560
24.79120	204563
24.79932	200398
24.80743	202044
24.81557	191680
24.82368	184844
24.83182	195214
24.83993	198876
24.84805	203030
24.85618	188872
24.86430	194234
24.87243	189647
24.88055	189895
24.88867	196033
24.89680	188948
24.90492	196401
24.91305	185996
24.92117	190766
24.92928	188146
24.93742	186652
24.94553	187094
24.95365	186334
24.96178	186734
24.96990	195433
24.97803	183392
24.98615	181582
24.99427	185210
25.00240	183236
25.01052	189854
25.01865	192143
25.02677	189246
25.03488	179731
25.04302	189320
25.05113	192677
25.05925	179865
25.06738	175494
25.07550	189246
25.08363	185163
25.09175	182112
25.09987	183430
25.10800	181486
25.11612	186350
25.12425	187349
25.13237	186308
25.14048	193057
25.14862	183030
25.15673	192043
25.16487	197424
25.17298	192451
25.18110	190694
25.18923	183991
25.19735	192123
25.20547	183996
25.21360	188697
25.22172	183012
25.22985	182289
25.23797	176847
25.24608	180635
25.25422	171189
25.26233	181961
25.27047	173389
25.27858	188957
25.28670	185130
25.29483	202920
25.30295	209484
25.31108	216362
25.31920	215035
25.32732	223246
25.33545	217284
25.34357	204170
25.35168	199828
25.35982	191854
25.36793	182611
25.37607	182710
25.38418	176482
25.39230	181730
25.40043	170236
25.40855	176083
25.41668	177366
25.42480	183554
25.43292	187571
25.44105	188094
25.44917	187830
25.45728	187884
25.46542	191247
25.47353	192408
25.48167	208817
25.48978	224936
25.49790	222491
25.50603	216878
25.51415	217994
25.52228	214884
25.53040	210641
25.53852	205913
25.54665	193808
25.55477	185398
25.56290	181297
25.57102	183900
25.57913	182238
25.58727	172934
25.59538	179868
25.60350	178859
25.61163	171517
25.61975	172528
25.62788	176203
25.63600	175595
25.64412	168322
25.65225	169296
25.66037	175258
25.66850	171953
25.67662	169446
25.68473	168180
25.69287	174446
25.70098	177285
25.70912	169636
25.71723	166767
25.72535	173921
25.73348	171067
25.74160	176498
25.74972	182475
25.75785	180780
25.76597	182505
25.77410	177294
25.78222	185895
25.79033	177837
25.79847	176647
25.80658	180185
25.81472	183145
25.82283	191792
25.83095	180741
25.83908	187679
25.84720	177939
25.85532	183749
25.86345	185448
25.87157	186888
25.87970	196591
25.88782	188593
25.89593	193640
25.90407	201263
25.91218	206568
25.92032	207773
25.92843	211600
25.93655	202113
25.94468	206797
25.95280	205532
25.96093	202178
25.96905	195735
25.97717	188348
25.98530	188693
25.99342	194801
26.00153	189629
26.00967	187685
26.01778	187164
26.02592	186478
26.03403	182388
26.04215	178284
26.05028	178988
26.05840	180868
26.06653	186259
26.07465	184541
26.08277	183656
26.09090	188878
26.09902	188775
26.10713	202192
26.11527	199271
26.12338	216181
26.13152	221880
26.13963	224564
26.14775	227724
26.15588	233943
26.16400	228257
26.17213	229591
26.18025	222710
26.18837	223168
26.19650	220066
26.20462	215815
26.21275	206541
26.22087	203251
26.22898	202291
26.23712	190718
26.24523	191970
26.25335	189128
26.26148	180263
26.26960	184777
26.27773	185839
26.28585	181589
26.29397	173424
26.30210	177934
26.31022	183596
26.31835	174663
26.32647	173997
26.33458	166763
26.34272	182363
26.35083	174877
26.35897	176674
26.36708	173025
26.37520	175784
26.38333	172470
26.39145	169975
26.39957	174701
26.40770	177688
26.41582	173344
26.42395	176072
26.43207	167265
26.44018	175410
26.44832	179817
26.45643	171332
26.46457	170153
26.47268	175079
26.48080	168079
26.48893	173749
26.49705	173341
26.50517	169751
26.51330	173084
26.52142	174245
26.52955	167804
26.53767	174325
26.54578	177562
26.55392	172539
26.56203	174363
26.57017	180943
26.57828	172405
26.58640	174416
26.59453	176922
26.60265	175514
26.61078	175821
26.61890	172203
26.62702	168605
26.63515	173732
26.64327	173378
26.65138	177063
26.65952	179498
26.66763	180979
26.67577	181578
26.68388	181279
26.69200	178922
26.70013	173832
26.70825	179467
26.71638	187157
26.72450	176759
26.73262	185016
26.74075	188086
26.74887	184226
26.75700	184251
26.76512	184420
26.77323	188400
26.78137	191827
26.78948	200913
26.79760	204222
26.80573	217236
26.81385	217692
26.82198	221861
26.83010	209473
26.83822	207908
26.84635	195301
26.85447	193201
26.86260	190156
26.87072	190623
26.87883	191188
26.88697	195393
26.89508	192517
26.90320	195867
26.91133	193087
26.91945	197016
26.92758	200607
26.93570	206784
26.94382	242560
26.95195	285692
26.96007	405046
26.96820	642393
26.97632	1053409
26.98443	1612496
26.99257	2218404
27.00068	2656391
27.00882	2689742
27.01693	2421581
27.02505	2066544
27.03318	1641739
27.04130	1240733
27.04942	961712
27.05755	725108
27.06567	602160
27.07380	509205
27.08192	433835
27.09003	397851
27.09817	353289
27.10628	339499
27.11442	319602
27.12253	307172
27.13065	297761
27.13878	290326
27.14690	287118
27.15502	283979
27.16315	294055
27.17127	305606
27.17940	298534
27.18752	292155
27.19563	292162
27.20377	288643
27.21188	274940
27.22002	272116
27.22813	264775
27.23625	258141
27.24438	262524
27.25250	251386
27.26063	259314
27.26875	255926
27.27687	259458
27.28500	254179
27.29312	260075
27.30123	258498
27.30937	261471
27.31748	264035
27.32562	259909
27.33373	261922
27.34185	273362
27.34998	278282
27.35810	283215
27.36623	281659
27.37435	285216
27.38247	295628
27.39060	287390
27.39872	290308
27.40685	291762
27.41497	294995
27.42308	285550
27.43122	288215
27.43933	280222
27.44745	286243
27.45558	291706
27.46370	283100
27.47183	283548
27.47995	285128
27.48807	285122
27.49620	279967
27.50432	273602
27.51245	279252
27.52057	287015
27.52868	279784
27.53682	283637
27.54493	271839
27.55305	274252
27.56118	274727
27.56930	267056
27.57743	279196
27.58555	270810
27.59367	266297
27.60180	256776
27.60992	267698
27.61805	262483
27.62617	258944
27.63428	253194
27.64242	261551
27.65053	246944
27.65867	246511
27.66678	242112
27.67490	239859
27.68303	241540
27.69115	239691
27.69927	237830
27.70740	231776
27.71552	247719
27.72365	242593
27.73177	245075
27.73988	244494
27.74802	240106
27.75613	243951
27.76427	243595
27.77238	229062
27.78050	224946
27.78863	219363
27.79675	223599
27.80488	235170
27.81300	222212
27.82112	215817
27.82925	226960
27.83737	223477
27.84548	223990
27.85362	225439
27.86173	223828
27.86987	220128
27.87798	214745
27.88610	212839
27.89423	214223
27.90235	208741
27.91048	216351
27.91860	210836
27.92672	211065
27.93485	207199
27.94297	212095
27.95108	209211
27.95922	222847
27.96733	220364
27.97547	228196
27.98358	229245
27.99170	216035
27.99983	222278
28.00795	224007
28.01608	217941
28.02420	211806
28.03232	202186
28.04045	202881
28.04857	208380
28.05670	198273
28.06482	205343
28.07293	222703
28.08107	241526
28.08918	281562
28.09730	333467
28.10543	357829
28.11355	380912
28.12168	376396
28.12980	347449
28.13792	316766
28.14605	275570
28.15417	250048
28.16230	240753
28.17042	230363
28.17853	222774
28.18667	209620
28.19478	205279
28.20292	203849
28.21103	196278
28.21915	208121
28.22728	213721
28.23540	200067
28.24352	210182
28.25165	216245
28.25977	220638
28.26790	269638
28.27602	304388
28.28413	372057
28.29227	436355
28.30038	510909
28.30852	588529
28.31663	663339
28.32475	711218
28.33288	681639
28.34100	666241
28.34912	633654
28.35725	600702
28.36537	561040
28.37350	512601
28.38162	469667
28.38973	435130
28.39787	420264
28.40598	378846
28.41412	353487
28.42223	333679
28.43035	307607
28.43848	299989
28.44660	292678
28.45473	280561
28.46285	266070
28.47097	265228
28.47910	267008
28.48722	259867
28.49533	256131
28.50347	246850
28.51158	253952
28.51972	251486
28.52783	246503
28.53595	241623
28.54408	255590
28.55220	245131
28.56033	240599
28.56845	238003
28.57657	240544
28.58470	250397
28.59282	237600
28.60093	240321
28.60907	236479
28.61718	238172
28.62532	252603
28.63343	254402
28.64155	273402
28.64968	272619
28.65780	280089
28.66593	289762
28.67405	288113
28.68217	288710
28.69030	308279
28.69842	352494
28.70655	407977
28.71467	501278
28.72278	562508
28.73092	562367
28.73903	493135
28.74715	405648
28.75528	340449
28.76340	299641
28.77153	284481
28.77965	269054
28.78777	261824
28.79590	266729
28.80402	267278
28.81215	268539
28.82027	268227
28.82838	268665
28.83652	267686
28.84463	275568
28.85277	275611
28.86088	291875
28.86900	277803
28.87713	281544
28.88525	286905
28.89337	285404
28.90150	294903
28.90962	289420
28.91775	297802
28.92587	282541
28.93398	295634
28.94212	302533
28.95023	296487
28.95837	297554
28.96648	304043
28.97460	308421
28.98273	311655
28.99085	307032
28.99897	295846
29.00710	300802
29.01522	301346
29.02335	301755
29.03147	300517
29.03958	302214
29.04772	303898
29.05583	296515
29.06397	303454
29.07208	313729
29.08020	308615
29.08833	304736
29.09645	309339
29.10458	312459
29.11270	316816
29.12082	312540
29.12895	322136
29.13707	311153
29.14518	318016
29.15332	320897
29.16143	320413
29.16957	322701
29.17768	323965
29.18580	317310
29.19393	318824
29.20205	311920
29.21018	322427
29.21830	317941
29.22642	324288
29.23455	311733
29.24267	321060
29.25080	313151
29.25892	309154
29.26703	312697
29.27517	300558
29.28328	301778
29.29140	294780
29.29953	309958
29.30765	300445
29.31578	303306
29.32390	302255
29.33202	297656
29.34015	288113
29.34827	294251
29.35640	285483
29.36452	287233
29.37263	289313
29.38077	280264
29.38888	285104
29.39700	288157
29.40513	295781
29.41325	286174
29.42138	288344
29.42950	292054
29.43762	306027
29.44575	291225
29.45387	296670
29.46200	287315
29.47012	289483
29.47823	287833
29.48637	289112
29.49448	297302
29.50262	307363
29.51073	307466
29.51885	299209
29.52698	295372
29.53510	282439
29.54322	280185
29.55135	282897
29.55947	272963
29.56760	277379
29.57572	287973
29.58383	298470
29.59197	314134
29.60008	308453
29.60822	311770
29.61633	300737
29.62445	296018
29.63258	295191
29.64070	301251
29.64882	303328
29.65695	292885
29.66507	292192
29.67320	298990
29.68132	294356
29.68943	291764
29.69757	291393
29.70568	298975
29.71382	287903
29.72193	290649
29.73005	295586
29.73818	293952
29.74630	285411
29.75443	285954
29.76255	284844
29.77067	285994
29.77880	285289
29.78692	275468
29.79503	278565
29.80317	268656
29.81128	267772
29.81942	258919
29.82753	267556
29.83565	270452
29.84378	263991
29.85190	262694
29.86003	261577
29.86815	268837
29.87627	269595
29.88440	284075
29.89252	305378
29.90065	325793
29.90877	343593
29.91688	375100
29.92502	392822
29.93313	412664
29.94125	457007
29.94938	492505
29.95750	512600
29.96563	529404
29.97375	533628
29.98187	519791
29.99000	508081
29.99812	477767
30.00625	442225
30.01437	419548
30.02248	393630
30.03062	378346
30.03873	374772
30.04685	353192
30.05498	332332
30.06310	341778
30.07123	331162
30.07935	316744
30.08747	320810
30.09560	321817
30.10372	308070
30.11185	305016
30.11997	302591
30.12808	298208
30.13622	295299
30.14433	289427
30.15247	294219
30.16058	285585
30.16870	285531
30.17683	287480
30.18495	289764
30.19307	290839
30.20120	293977
30.20932	297667
30.21745	304669
30.22557	302618
30.23368	324095
30.24182	321660
30.24993	331902
30.25807	341087
30.26618	363977
30.27430	375081
30.28243	396659
30.29055	404599
30.29868	418824
30.30680	443479
30.31492	451490
30.32305	471592
30.33117	494683
30.33928	498777
30.34742	506248
30.35553	512128
30.36367	515860
30.37178	530294
30.37990	532928
30.38803	545487
30.39615	556377
30.40428	555705
30.41240	569773
30.42052	560191
30.42865	557199
30.43677	569963
30.44488	573187
30.45302	566274
30.46113	585692
30.46927	587078
30.47738	573312
30.48550	587196
30.49363	570981
30.50175	575818
30.50988	573770
30.51800	573711
30.52612	565390
30.53425	568696
30.54237	553834
30.55050	543845
30.55862	541453
30.56673	520770
30.57487	518487
30.58298	503757
30.59110	498344
30.59923	496378
30.60735	476932
30.61548	453898
30.62360	444012
30.63172	449296
30.63985	443993
30.64797	443899
30.65610	424327
30.66422	415413
30.67233	426412
30.68047	408798
30.68858	409419
30.69670	408767
30.70483	399600
30.71295	406877
30.72108	391195
30.72920	389967
30.73732	398059
30.74545	378489
30.75357	383484
30.76170	386440
30.76982	376027
30.77793	379941
30.78607	381962
30.79418	395206
30.80232	395189
30.81043	394141
30.81855	403001
30.82668	399559
30.83480	390908
30.84292	369046
30.85105	360488
30.85917	366191
30.86730	351327
30.87542	351716
30.88353	352740
30.89167	352614
30.89978	350159
30.90792	344830
30.91603	343444
30.92415	338736
30.93228	345498
30.94040	342625
30.94853	337410
30.95665	333824
30.96477	330023
30.97290	325004
30.98102	334417
30.98913	322442
30.99727	330366
31.00538	328248
31.01352	311509
31.02163	326709
31.02975	327234
31.03788	315750
31.04600	325696
31.05413	328414
31.06225	313868
31.07037	314174
31.07850	331812
31.08662	339596
31.09475	363611
31.10287	369379
31.11098	371052
31.11912	359009
31.12723	349663
31.13535	345680
31.14348	349316
31.15160	362237
31.15973	361392
31.16785	369560
31.17597	404689
31.18410	438744
31.19222	510664
31.20035	577679
31.20847	639645
31.21658	618675
31.22472	575225
31.23283	518703
31.24095	453008
31.24908	383882
31.25720	338150
31.26533	321432
31.27345	302647
31.28157	298139
31.28970	305476
31.29782	289680
31.30595	299374
31.31407	290694
31.32218	296138
31.33032	307447
31.33843	299792
31.34657	305230
31.35468	314106
31.36280	314217
31.37093	331262
31.37905	336566
31.38717	330084
31.39530	323735
31.40342	321640
31.41155	321798
31.41967	334658
31.42778	326271
31.43592	331767
31.44403	337498
31.45217	334151
31.46028	331632
31.46840	327339
31.47653	332892
31.48465	332921
31.49277	326090
31.50090	322012
31.50902	329325
31.51715	328964
31.52527	320267
31.53338	326732
31.54152	316757
31.54963	326479
31.55777	325804
31.56588	318607
31.57400	315618
31.58213	313098
31.59025	313007
31.59838	303610
31.60650	300516
31.61462	305996
31.62275	311080
31.63087	304016
31.63898	309237
31.64712	303957
31.65523	299407
31.66337	308652
31.67148	312036
31.67960	310492
31.68773	327302
31.69585	315478
31.70398	320093
31.71210	310431
31.72022	290699
31.72835	289776
31.73647	287797
31.74460	299282
31.75272	288558
31.76083	289543
31.76897	292334
31.77708	294795
31.78520	303073
31.79333	307200
31.80145	304139
31.80958	308243
31.81770	299784
31.82582	309439
31.83395	313888
31.84207	337468
31.85020	345461
31.85832	365247
31.86643	398404
31.87457	418282
31.88268	418885
31.89080	436344
31.89893	434564
31.90705	419142
31.91518	422793
31.92330	420077
31.93142	409438
31.93955	394029
31.94767	388288
31.95580	387345
31.96392	361399
31.97203	359895
31.98017	361186
31.98828	345729
31.99642	357182
32.00453	350243
32.01265	349433
32.02078	351659
32.02890	346259
32.03702	351765
32.04515	343750
32.05327	338660
32.06140	336224
32.06952	322119
32.07763	325158
32.08577	328450
32.09388	337802
32.10202	336323
32.11013	348066
32.11825	347014
32.12638	357045
32.13450	367531
32.14263	371156
32.15075	386827
32.15887	405975
32.16700	412874
32.17512	433198
32.18323	444532
32.19137	474612
32.19948	507157
32.20762	507599
32.21573	534999
32.22385	578137
32.23198	606671
32.24010	620356
32.24823	644675
32.25635	676168
32.26447	715635
32.27260	736380
32.28072	765985
32.28883	808484
32.29697	844595
32.30508	860577
32.31322	877773
32.32133	911964
32.32945	927104
32.33758	961476
32.34570	942413
32.35383	939139
32.36195	910949
32.37007	887824
32.37820	864380
32.38632	811536
32.39445	771038
32.40257	704663
32.41068	658792
32.41882	615423
32.42693	593613
32.43505	553515
32.44318	527413
32.45130	513186
32.45943	495688
32.46755	465464
32.47567	451673
32.48380	433575
32.49192	420783
32.50005	414727
32.50817	401935
32.51628	385417
32.52442	378019
32.53253	383743
32.54065	375806
32.54878	381903
32.55690	366191
32.56503	367290
32.57315	371835
32.58127	384108
32.58940	421511
32.59752	490853
32.60565	568412
32.61377	612773
32.62188	617718
32.63002	570181
32.63813	478835
32.64627	425434
32.65438	390832
32.66250	361274
32.67063	349979
32.67875	355040
32.68687	346728
32.69500	343892
32.70312	350228
32.71125	349328
32.71937	359905
32.72748	348689
32.73562	349746
32.74373	335826
32.75187	343053
32.75998	326554
32.76810	330746
32.77623	321189
32.78435	323817
32.79248	328741
32.80060	330756
32.80872	323597
32.81685	333989
32.82497	329236
32.83308	334368
32.84122	337349
32.84933	337922
32.85747	336101
32.86558	353847
32.87370	342482
32.88183	354744
32.88995	354041
32.89808	350291
32.90620	347828
32.91432	362959
32.92245	360919
32.93057	359633
32.93868	359010
32.94682	355792
32.95493	348230
32.96307	365624
32.97118	363835
32.97930	360444
32.98743	361285
32.99555	353202
33.00368	354518
33.01180	349837
33.01992	352979
33.02805	348299
33.03617	363780
33.04430	366764
33.05242	359636
33.06053	363192
33.06867	373477
33.07678	371042
33.08490	387435
33.09303	404103
33.10115	423793
33.10928	449962
33.11740	464139
33.12552	480005
33.13365	452397
33.14177	416435
33.14990	420916
33.15802	381875
33.16613	381024
33.17427	372151
33.18238	377246
33.19052	375202
33.19863	381230
33.20675	382584
33.21488	402700
33.22300	424017
33.23112	491190
33.23925	604888
33.24737	757716
33.25550	930008
33.26362	1067744
33.27173	1169641
33.27987	1245392
33.28798	1317270
33.29612	1360794
33.30423	1389850
33.31235	1400370
33.32048	1395988
33.32860	1395817
33.33672	1399785
33.34485	1397456
33.35297	1417488
33.36110	1469276
33.36922	1455358
33.37733	1480704
33.38547	1508286
33.39358	1525982
33.40172	1568303
33.40983	1592812
33.41795	1627701
33.42608	1676245
33.43420	1689074
33.44233	1701449
33.45045	1711299
33.45857	1737731
33.46670	1734483
33.47482	1695835
33.48293	1717780
33.49107	1739389
33.49918	1714107
33.50732	1708790
33.51543	1671369
33.52355	1635138
33.53168	1616193
33.53980	1584310
33.54793	1577308
33.55605	1547135
33.56417	1549068
33.57230	1563733
33.58042	1580528
33.58855	1552410
33.59667	1562395
33.60478	1575192
33.61292	1582927
33.62103	1566578
33.62915	1559525
33.63728	1578448
33.64540	1576908
33.65353	1582705
33.66165	1593608
33.66977	1547966
33.67790	1530711
33.68602	1498422
33.69415	1460902
33.70227	1456082
33.71038	1446606
33.71852	1409772
33.72663	1378687
33.73475	1340239
33.74288	1300447
33.75100	1297475
33.75913	1280305
33.76725	1251036
33.77537	1257458
33.78350	1280543
33.79162	1286731
33.79975	1283938
33.80787	1308135
33.81598	1364071
33.82412	1433600
33.83223	1568269
33.84037	1680861
33.84848	1819894
33.85660	1985729
33.86473	2195983
33.87285	2369889
33.88097	2596091
33.88910	2777499
33.89722	3051324
33.90535	3295019
33.91347	3513260
33.92158	3762564
33.92972	4046004
33.93783	4174190
33.94597	4225205
33.95408	4275273
33.96220	4312141
33.97033	4399249
33.97845	4347203
33.98657	4377264
33.99470	4247732
34.00282	4154658
34.01095	4072037
34.01907	3968520
34.02718	3900610
34.03532	3803547
34.04343	3703314
34.05157	3628496
34.05968	3565048
34.06780	3434294
34.07593	3352654
34.08405	3277121
34.09218	3145334
34.10030	3042119
34.10842	2895343
34.11655	2839450
34.12467	2788077
34.13278	2705105
34.14092	2671012
34.14903	2655886
34.15717	2652530
34.16528	2672730
34.17340	2654992
34.18153	2657193
34.18965	2706804
34.19778	2716344
34.20590	2684372
34.21402	2632900
34.22215	2569949
34.23027	2513860
34.23840	2449118
34.24652	2363171
34.25463	2297118
34.26277	2230717
34.27088	2212800
34.27900	2171822
34.28713	2120608
34.29525	2055674
34.30338	2003708
34.31150	1951031
34.31962	1899057
34.32775	1832278
34.33587	1766310
34.34400	1753035
34.35212	1709756
34.36023	1693273
34.36837	1643209
34.37648	1638938
34.38460	1581214
34.39273	1545127
34.40085	1503777
34.40898	1453197
34.41710	1441323
34.42522	1416726
34.43335	1409916
34.44147	1388288
34.44960	1388837
34.45772	1348758
34.46583	1368622
34.47397	1361419
34.48208	1367625
34.49022	1345387
34.49833	1349393
34.50645	1320565
34.51458	1274612
34.52270	1212465
34.53082	1131934
34.53895	1078334
34.54707	1021741
34.55520	972826
34.56332	921111
34.57143	871855
34.57957	833060
34.58768	788326
34.59582	777787
34.60393	770824
34.61205	742597
34.62018	717675
34.62830	698621
34.63643	681465
34.64455	671084
34.65267	660583
34.66080	648166
34.66892	637344
34.67703	599016
34.68517	609212
34.69328	592904
34.70142	580670
34.70953	580130
34.71765	565198
34.72578	565997
34.73390	542254
34.74203	551409
34.75015	540520
34.75827	541000
34.76640	535057
34.77452	545379
34.78263	539562
34.79077	527782
34.79888	536702
34.80702	538264
34.81513	535085
34.82325	549445
34.83138	527172
34.83950	533539
34.84763	532643
34.85575	561894
34.86387	559713
34.87200	572501
34.88012	574508
34.88825	594095
34.89637	587349
34.90448	585564
34.91262	601970
34.92073	627574
34.92885	611492
34.93698	611066
34.94510	611980
34.95323	622487
34.96135	617222
34.96947	616632
34.97760	602112
34.98572	589103
34.99385	572556
35.00197	569944
35.01008	566697
35.01822	575305
35.02633	560275
35.03445	549877
35.04258	543553
35.05070	548094
35.05883	556770
35.06695	545705
35.07507	557874
35.08320	567800
35.09132	578159
35.09945	574611
35.10757	591171
35.11568	596133
35.12382	598190
35.13193	600841
35.14007	614126
35.14818	614599
35.15630	596610
35.16443	592050
35.17255	595877
35.18067	591342
35.18880	592704
35.19692	580421
35.20505	577075
35.21317	573544
35.22128	572189
35.22942	582166
35.23753	593151
35.24567	596908
35.25378	587473
35.26190	605238
35.27003	616351
35.27815	613342
35.28628	611962
35.29440	621038
35.30252	620082
35.31065	612420
35.31877	625101
35.32688	609873
35.33502	645150
35.34313	639173
35.35127	631833
35.35938	649547
35.36750	641859
35.37563	656124
35.38375	645857
35.39188	637937
35.40000	636292
35.40812	643481
35.41625	635541
35.42437	636126
35.43250	645650
35.44062	658059
35.44873	651920
35.45687	650294
35.46498	628615
35.47310	616168
35.48123	597825
35.48935	597108
35.49748	582304
35.50560	568280
35.51372	554183
35.52185	540314
35.52997	525217
35.53810	536794
35.54622	529448
35.55433	526580
35.56247	532457
35.57058	521443
35.57870	525345
35.58683	531965
35.59495	533592
35.60308	543889
35.61120	541037
35.61932	529143
35.62745	539125
35.63557	536746
35.64370	524159
35.65182	514513
35.65993	493983
35.66807	502739
35.67618	494843
35.68432	504271
35.69243	489614
35.70055	498676
35.70868	510114
35.71680	490916
35.72492	507090
35.73305	496453
35.74117	516421
35.74930	516522
35.75742	502250
35.76553	510964
35.77367	517810
35.78178	504650
35.78992	511547
35.79803	511159
35.80615	507888
35.81428	516716
35.82240	511100
35.83052	535155
35.83865	529434
35.84677	516540
35.85490	520754
35.86302	537356
35.87113	515993
35.87927	522115
35.88738	530905
35.89552	539228
35.90363	536415
35.91175	540173
35.91988	540405
35.92800	533893
35.93613	540910
35.94425	537938
35.95237	529929
35.96050	535689
35.96862	533260
35.97673	526361
35.98487	521879
35.99298	526283
36.00112	528913
36.00923	525826
36.01735	536383
36.02548	540715
36.03360	539396
36.04173	547315
36.04985	549570
36.05797	545442
36.06610	549663
36.07422	546025
36.08233	540212
36.09047	522481
36.09858	518478
36.10672	518226
36.11483	528924
36.12295	526586
36.13108	522437
36.13920	523180
36.14733	540083
36.15545	531040
36.16357	523056
36.17170	526028
36.17982	520045
36.18795	506713
36.19607	510583
36.20418	494981
36.21232	504721
36.22043	512633
36.22855	553390
36.23668	601877
36.24480	707786
36.25293	802354
36.26105	860275
36.26917	866350
36.27730	797821
36.28542	732014
36.29355	654572
36.30167	615860
36.30978	592006
36.31792	585469
36.32603	556837
36.33417	539527
36.34228	527936
36.35040	534595
36.35853	525139
36.36665	525854
36.37477	513398
36.38290	512149
36.39102	526815
36.39915	532717
36.40727	523827
36.41538	521717
36.42352	502654
36.43163	497209
36.43977	482756
36.44788	497811
36.45600	504179
36.46413	480119
36.47225	486694
36.48038	486796
36.48850	478013
36.49662	472871
36.50475	466898
36.51287	484441
36.52098	482760
36.52912	473236
36.53723	488405
36.54537	488850
36.55348	478979
36.56160	474037
36.56973	479984
36.57785	502402
36.58598	492228
36.59410	511047
36.60222	519533
36.61035	524523
36.61847	523156
36.62658	539476
36.63472	528998
36.64283	543380
36.65097	527052
36.65908	553678
36.66720	557245
36.67533	575079
36.68345	584652
36.69158	600383
36.69970	588849
36.70782	614643
36.71595	607525
36.72407	609287
36.73220	623972
36.74032	614441
36.74843	608107
36.75657	592994
36.76468	595969
36.77280	598120
36.78093	584823
36.78905	574388
36.79718	573091
36.80530	563131
36.81342	559683
36.82155	559835
36.82967	550724
36.83780	548844
36.84592	537489
36.85403	557280
36.86217	565829
36.87028	572621
36.87840	570316
36.88653	582774
36.89465	593647
36.90278	582656
36.91090	605878
36.91902	624631
36.92715	629379
36.93527	630397
36.94340	628192
36.95152	637758
36.95963	642528
36.96777	629595
36.97588	647032
36.98402	659811
36.99213	682195
37.00025	713196
37.00838	727684
37.01650	741605
37.02462	759596
37.03275	768338
37.04087	741915
37.04900	725882
37.05712	709146
37.06523	690211
37.07337	681356
37.08148	671407
37.08962	665177
37.09773	663203
37.10585	669939
37.11398	672446
37.12210	668207
37.13023	688143
37.13835	689627
37.14647	705867
37.15460	707645
37.16272	705193
37.17083	714521
37.17897	718476
37.18708	700676
37.19522	706849
37.20333	694346
37.21145	692237
37.21958	697041
37.22770	707240
37.23583	715351
37.24395	714369
37.25207	728224
37.26020	751254
37.26832	796107
37.27643	826077
37.28457	867007
37.29268	903357
37.30082	935990
37.30893	929443
37.31705	919449
37.32518	890897
37.33330	859130
37.34143	840240
37.34955	790528
37.35767	783420
37.36580	772338
37.37392	763691
37.38205	744059
37.39017	738439
37.39828	745646
37.40642	741853
37.41453	756404
37.42265	757353
37.43078	764088
37.43890	772286
37.44703	765792
37.45515	786329
37.46327	806375
37.47140	863721
37.47952	885800
37.48765	902639
