Z:\data\JTB-E02\BACandBLUE\JTB-E02-200-12.D Thu Feb 28 11:19:23 2019
Start of data points
2.09532	77476
2.10345	75890
2.11157	79483
2.11970	76729
2.12782	75196
2.13593	81708
2.14407	79179
2.15218	78238
2.16032	72677
2.16843	74006
2.17655	70594
2.18468	67893
2.19280	66929
2.20092	62711
2.20905	59704
2.21717	68288
2.22530	62047
2.23342	62454
2.24153	63640
2.24967	67423
2.25778	237795
2.26592	834379
2.27403	1377236
2.28215	1030251
2.29028	567945
2.29840	423656
2.30652	733776
2.31465	2072846
2.32277	2939831
2.33090	1710188
2.33902	987645
2.34713	695216
2.35527	516407
2.36338	417841
2.37152	363481
2.37963	320346
2.38775	282661
2.39588	252861
2.40400	236200
2.41213	226335
2.42025	214125
2.42837	190661
2.43650	185362
2.44462	173145
2.45273	172004
2.46087	164684
2.46898	146523
2.47712	138509
2.48523	148631
2.49335	145264
2.50148	142992
2.50960	142063
2.51773	143375
2.52585	134170
2.53397	139037
2.54210	146760
2.55022	195339
2.55835	286796
2.56647	277114
2.57458	221874
2.58272	198734
2.59083	227825
2.59895	543476
2.60708	1146381
2.61520	1196289
2.62333	767801
2.63145	499179
2.63957	383508
2.64770	302245
2.65582	254373
2.66395	217847
2.67207	198685
2.68018	182236
2.68832	165610
2.69643	162502
2.70455	145853
2.71268	143419
2.72080	140184
2.72893	133093
2.73705	130102
2.74517	130785
2.75330	123240
2.76142	134665
2.76955	341501
2.77767	1009565
2.78578	1585714
2.79392	1279358
2.80203	796620
2.81017	593627
2.81828	500479
2.82640	420446
2.83453	358306
2.84265	319690
2.85077	282806
2.85890	265058
2.86702	233889
2.87515	221327
2.88327	209590
2.89138	201877
2.89952	186639
2.90763	166687
2.91577	162004
2.92388	153082
2.93200	142384
2.94013	144588
2.94825	148089
2.95638	165468
2.96450	176273
2.97262	164722
2.98075	152336
2.98887	150327
2.99698	163670
3.00512	198944
3.01323	184831
3.02137	158299
3.02948	142350
3.03760	135315
3.04573	133945
3.05385	127977
3.06198	137444
3.07010	198162
3.07822	705763
3.08635	2219406
3.09447	4096072
3.10258	5648250
3.11072	6479889
3.11883	5502861
3.12697	3827038
3.13508	2757823
3.14320	2196312
3.15133	1757974
3.15945	1436961
3.16758	1256894
3.17570	1185140
3.18382	1383035
3.19195	1886850
3.20007	2045050
3.20820	1644543
3.21632	1284818
3.22443	1056055
3.23257	899952
3.24068	798675
3.24880	701287
3.25693	620998
3.26505	557597
3.27318	521887
3.28130	591542
3.28942	1292263
3.29755	3598856
3.30567	7135614
3.31380	8997480
3.32192	7757052
3.33003	5293866
3.33817	3491468
3.34628	2460577
3.35440	1914135
3.36253	1557086
3.37065	1321717
3.37878	1151916
3.38690	1036482
3.39502	924488
3.40315	816334
3.41127	762727
3.41940	700061
3.42752	631626
3.43563	591805
3.44377	558057
3.45188	524853
3.46002	501834
3.46813	504479
3.47625	506286
3.48438	487201
3.49250	458343
3.50062	454456
3.50875	425069
3.51687	415851
3.52500	405333
3.53312	412971
3.54123	401653
3.54937	382815
3.55748	383779
3.56562	441135
3.57373	573749
3.58185	675938
3.58998	589153
3.59810	499095
3.60623	431091
3.61435	402946
3.62247	391296
3.63060	375292
3.63872	350309
3.64683	337269
3.65497	467462
3.66308	1651755
3.67122	6160850
3.67933	1.285543E+07
3.68745	1.537315E+07
3.69558	1.212471E+07
3.70370	8338638
3.71183	6198398
3.71995	5029563
3.72807	4259498
3.73620	3679672
3.74432	3252038
3.75243	2923883
3.76057	2591503
3.76868	2375104
3.77682	2158488
3.78493	1975807
3.79305	1881034
3.80118	2010152
3.80930	2822868
3.81743	4008042
3.82555	4306946
3.83367	3582324
3.84180	2798951
3.84992	2366580
3.85805	2096076
3.86617	1888144
3.87428	1730340
3.88242	1600901
3.89053	1507501
3.89865	1394231
3.90678	1306952
3.91490	1287888
3.92303	1332203
3.93115	1408996
3.93927	1425138
3.94740	1697241
3.95552	3090439
3.96365	5607051
3.97177	7217435
3.97988	6458890
3.98802	4790079
3.99613	5509919
4.00427	1.244098E+07
4.01238	2.478951E+07
4.02050	3.263935E+07
4.02863	2.918835E+07
4.03675	1.935338E+07
4.04487	1.138952E+07
4.05300	7544672
4.06112	5426732
4.06925	4200509
4.07737	3484395
4.08548	2896228
4.09362	2486592
4.10173	2135829
4.10987	1864638
4.11798	1633525
4.12610	1498068
4.13423	1369232
4.14235	1259660
4.15047	1243543
4.15860	1189502
4.16672	1157037
4.17485	1126062
4.18297	1064989
4.19108	1013149
4.19922	944582
4.20733	1045575
4.21547	2020792
4.22358	5157222
4.23170	1.042409E+07
4.23983	1.499924E+07
4.24795	1.5721E+07
4.25608	1.247138E+07
4.26420	8342863
4.27232	5685959
4.28045	4123802
4.28857	3183914
4.29668	2525921
4.30482	2116665
4.31293	1750354
4.32107	1517371
4.32918	1339133
4.33730	1190263
4.34543	1068136
4.35355	994092
4.36168	988952
4.36980	1000246
4.37792	935032
4.38605	851438
4.39417	767760
4.40228	687486
4.41042	667586
4.41853	625922
4.42667	607238
4.43478	577716
4.44290	557137
4.45103	543736
4.45915	539106
4.46728	520825
4.47540	486686
4.48352	481633
4.49165	465878
4.49977	461705
4.50790	434929
4.51602	441100
4.52413	423250
4.53227	427207
4.54038	423324
4.54850	426879
4.55663	419525
4.56475	423356
4.57288	408815
4.58100	390196
4.58912	387544
4.59725	377681
4.60537	362701
4.61350	371861
4.62162	377411
4.62973	474843
4.63787	646724
4.64598	820333
4.65412	849374
4.66223	732571
4.67035	600867
4.67848	520346
4.68660	464474
4.69472	438041
4.70285	408550
4.71097	376565
4.71910	355609
4.72722	338542
4.73533	325728
4.74347	321338
4.75158	311709
4.75972	303850
4.76783	309198
4.77595	297379
4.78408	284490
4.79220	304390
4.80033	355646
4.80845	421490
4.81657	500924
4.82470	473612
4.83282	410124
4.84093	408169
4.84907	412949
4.85718	426738
4.86532	413630
4.87343	402921
4.88155	364029
4.88968	339783
4.89780	310044
4.90593	307506
4.91405	296898
4.92217	279985
4.93030	278180
4.93842	283358
4.94653	399452
4.95467	744430
4.96278	1372387
4.97092	2150461
4.97903	2510471
4.98715	2269429
4.99528	1806702
5.00340	1350768
5.01153	1030419
5.01965	835911
5.02777	718042
5.03590	700521
5.04402	758184
5.05215	797583
5.06027	756770
5.06838	673598
5.07652	606218
5.08463	560903
5.09275	531829
5.10088	498582
5.10900	459074
5.11713	448412
5.12525	424772
5.13337	406863
5.14150	389129
5.14962	399765
5.15775	426631
5.16587	496990
5.17398	556818
5.18212	550825
5.19023	526087
5.19835	497825
5.20648	502193
5.21460	540686
5.22273	531436
5.23085	504891
5.23897	464413
5.24710	417059
5.25522	402232
5.26335	360446
5.27147	333214
5.27958	316039
5.28772	290678
5.29583	281524
5.30397	280255
5.31208	269224
5.32020	262066
5.32833	278835
5.33645	297954
5.34457	331814
5.35270	347811
5.36082	337917
5.36895	307335
5.37707	287705
5.38518	290005
5.39332	305698
5.40143	311698
5.40957	308783
5.41768	302876
5.42580	289354
5.43393	259596
5.44205	242715
5.45018	264250
5.45830	273593
5.46642	294859
5.47455	288198
5.48267	274673
5.49078	252467
5.49892	228603
5.50703	223704
5.51517	229792
5.52328	233597
5.53140	238040
5.53953	239527
5.54765	234116
5.55578	237562
5.56390	304067
5.57202	417335
5.58015	565827
5.58827	619177
5.59638	535075
5.60452	424033
5.61263	331584
5.62077	280328
5.62888	262665
5.63700	263586
5.64513	271575
5.65325	261871
5.66138	246441
5.66950	237244
5.67762	228718
5.68575	237278
5.69387	277373
5.70200	327610
5.71012	347962
5.71823	336532
5.72637	310523
5.73448	271609
5.74260	243500
5.75073	229748
5.75885	213058
5.76698	213705
5.77510	203290
5.78322	204624
5.79135	188782
5.79947	192653
5.80760	191164
5.81572	187887
5.82383	181842
5.83197	188472
5.84008	194602
5.84822	183883
5.85633	180048
5.86445	180964
5.87258	183396
5.88070	177459
5.88882	175917
5.89695	177210
5.90507	171070
5.91320	164867
5.92132	165095
5.92943	166219
5.93757	171733
5.94568	169963
5.95382	165073
5.96193	189123
5.97005	232262
5.97818	350732
5.98630	510108
5.99442	647391
6.00255	696945
6.01067	608065
6.01880	486308
6.02692	389297
6.03503	323432
6.04317	267210
6.05128	231940
6.05942	217623
6.06753	207327
6.07565	193671
6.08378	186012
6.09190	185770
6.10003	183454
6.10815	171155
6.11627	174109
6.12440	170875
6.13252	204007
6.14063	284924
6.14877	397567
6.15688	533427
6.16502	530938
6.17313	459130
6.18125	365114
6.18938	315713
6.19750	264167
6.20563	256756
6.21375	239946
6.22187	219238
6.23000	218419
6.23812	218695
6.24623	212714
6.25437	223293
6.26248	237052
6.27062	248271
6.27873	255810
6.28685	236169
6.29498	232056
6.30310	218570
6.31123	209589
6.31935	207705
6.32747	202484
6.33560	210798
6.34372	210756
6.35185	218867
6.35997	220628
6.36808	214895
6.37622	217177
6.38433	218013
6.39245	217519
6.40058	222788
6.40870	210119
6.41683	199047
6.42495	213192
6.43307	209601
6.44120	210729
6.44932	211698
6.45745	208318
6.46557	211261
6.47368	215883
6.48182	214344
6.48993	223051
6.49807	214512
6.50618	218383
6.51430	220107
6.52243	222068
6.53055	225221
6.53867	225910
6.54680	222598
6.55492	218596
6.56305	241949
6.57117	265392
6.57928	331062
6.58742	428279
6.59553	496981
6.60367	484917
6.61178	393285
6.61990	315161
6.62803	281308
6.63615	264363
6.64427	254547
6.65240	279674
6.66052	406876
6.66865	717563
6.67677	1253784
6.68488	1558957
6.69302	1402831
6.70113	983419
6.70927	618945
6.71738	432141
6.72550	327157
6.73363	272190
6.74175	242147
6.74988	230842
6.75800	218679
6.76612	199930
6.77425	193461
6.78237	186052
6.79048	176933
6.79862	173101
6.80673	161939
6.81487	158781
6.82298	154604
6.83110	154360
6.83923	145725
6.84735	150239
6.85548	161755
6.86360	177097
6.87172	198774
6.87985	220964
6.88797	233409
6.89610	210130
6.90422	179884
6.91233	150317
6.92047	133155
6.92858	119643
6.93670	108325
6.94483	110904
6.95295	104912
6.96108	102739
6.96920	120116
6.97732	149672
6.98545	186628
6.99357	217614
7.00170	217699
7.00982	189703
7.01793	162550
7.02607	140660
7.03418	131129
7.04230	121356
7.05043	112232
7.05855	109012
7.06668	119263
7.07480	126374
7.08292	146660
7.09105	149119
7.09917	148817
7.10730	133432
7.11542	121790
7.12353	121582
7.13167	109681
7.13978	110061
7.14792	118863
7.15603	143323
7.16415	185597
7.17228	224859
7.18040	254850
7.18852	244585
7.19665	249033
7.20477	416910
7.21290	868332
7.22102	1644032
7.22913	2284347
7.23727	2357908
7.24538	1870666
7.25352	1155608
7.26163	633330
7.26975	333341
7.27788	205448
7.28600	141048
7.29413	125806
7.30225	121394
7.31037	115256
7.31850	116589
7.32662	116982
7.33473	118300
7.34287	122780
7.35098	132831
7.35912	129020
7.36723	131065
7.37535	124388
7.38348	121372
7.39160	116685
7.39973	108569
7.40785	109410
7.41597	113127
7.42410	116018
7.43222	112440
7.44033	107071
7.44847	110996
7.45658	107099
7.46472	94224
7.47283	103623
7.48095	95574
7.48908	98657
7.49720	95573
7.50533	95712
7.51345	94337
7.52157	90462
7.52970	98099
7.53782	123489
7.54595	184203
7.55407	317486
7.56218	583945
7.57032	930121
7.57843	1255354
7.58655	1454638
7.59468	1415159
7.60280	1153635
7.61093	836500
7.61905	546072
7.62717	381603
7.63530	263908
7.64342	202785
7.65155	169817
7.65967	148665
7.66778	132030
7.67592	128361
7.68403	109976
7.69215	106243
7.70028	94568
7.70840	90953
7.71653	89954
7.72465	91497
7.73277	95441
7.74090	107811
7.74902	113891
7.75715	117804
7.76527	120557
7.77338	123834
7.78152	118828
7.78963	119573
7.79777	121883
7.80588	121261
7.81400	119587
7.82213	133141
7.83025	137961
7.83837	133793
7.84650	126663
7.85462	106172
7.86275	102550
7.87087	97814
7.87898	112292
7.88712	109350
7.89523	123062
7.90337	140764
7.91148	149525
7.91960	146379
7.92773	141188
7.93585	159154
7.94398	221337
7.95210	318738
7.96022	382489
7.96835	410013
7.97647	338219
7.98458	254445
7.99272	180150
8.00083	138916
8.00897	117934
8.01708	103304
8.02520	99281
8.03333	92782
8.04145	99991
8.04958	89999
8.05770	84034
8.06582	84779
8.07395	89658
8.08207	88552
8.09018	90101
8.09832	87920
8.10643	80842
8.11457	79490
8.12268	80158
8.13080	77568
8.13893	80261
8.14705	84915
8.15518	100847
8.16330	115844
8.17142	119936
8.17955	116508
8.18767	109414
8.19580	101542
8.20392	93175
8.21203	90250
8.22017	79936
8.22828	76517
8.23640	73916
8.24453	71469
8.25265	76497
8.26078	70892
8.26890	74468
8.27702	76042
8.28515	65659
8.29327	68456
8.30140	68930
8.30952	72126
8.31763	75448
8.32577	78067
8.33388	77890
8.34202	87542
8.35013	88294
8.35825	85225
8.36638	84364
8.37450	81005
8.38262	78666
8.39075	79254
8.39887	79539
8.40700	76682
8.41512	73217
8.42323	73643
8.43137	65691
8.43948	67706
8.44762	64764
8.45573	69906
8.46385	67418
8.47198	66744
8.48010	70081
8.48822	70532
8.49635	67129
8.50447	70932
8.51260	68071
8.52072	75813
8.52883	99991
8.53697	170785
8.54508	277850
8.55322	398264
8.56133	433415
8.56945	362568
8.57758	253597
8.58570	176499
8.59383	128177
8.60195	114646
8.61007	110763
8.61820	108802
8.62632	105819
8.63443	107209
8.64257	97346
8.65068	93909
8.65882	91275
8.66693	85279
8.67505	85105
8.68318	79993
8.69130	77379
8.69943	78356
8.70755	79335
8.71567	80765
8.72380	80371
8.73192	76376
8.74003	76198
8.74817	73767
8.75628	72477
8.76442	80134
8.77253	87896
8.78065	131228
8.78878	268297
8.79690	512566
8.80503	820320
8.81315	1080185
8.82127	1088773
8.82940	896576
8.83752	625763
8.84565	410984
8.85377	301228
8.86188	266468
8.87002	241738
8.87813	222751
8.88625	193430
8.89438	180084
8.90250	174415
8.91063	162195
8.91875	146765
8.92687	145659
8.93500	149658
8.94312	161174
8.95125	176050
8.95937	176018
8.96748	169386
8.97562	165936
8.98373	140445
8.99187	149126
8.99998	146582
9.00810	142863
9.01623	148896
9.02435	144478
9.03247	128841
9.04060	113588
9.04872	108556
9.05685	103033
9.06497	102143
9.07308	99991
9.08122	102056
9.08933	105536
9.09747	96080
9.10558	109688
9.11370	115360
9.12183	140151
9.12995	159611
9.13807	179051
9.14620	170905
9.15432	147314
9.16245	131045
9.17057	121414
9.17868	112672
9.18682	102303
9.19493	105096
9.20307	100910
9.21118	98566
9.21930	91438
9.22743	97689
9.23555	94665
9.24368	96540
9.25180	93360
9.25992	94590
9.26805	95472
9.27617	92720
9.28428	95509
9.29242	87657
9.30053	81644
9.30867	91115
9.31678	91045
9.32490	86757
9.33303	83137
9.34115	79413
9.34928	81352
9.35740	84174
9.36552	88217
9.37365	79722
9.38177	78792
9.38990	79278
9.39802	80208
9.40613	89389
9.41427	82871
9.42238	90715
9.43050	96170
9.43863	115303
9.44675	138391
9.45488	156667
9.46300	166816
9.47112	158651
9.47925	135758
9.48737	111351
9.49550	104566
9.50362	96696
9.51173	80731
9.51987	92930
9.52798	99410
9.53610	111631
9.54423	116152
9.55235	127115
9.56048	120503
9.56860	111323
9.57672	99237
9.58485	90245
9.59297	90584
9.60110	87891
9.60922	88089
9.61733	88997
9.62547	85521
9.63358	77139
9.64172	71044
9.64983	72795
9.65795	61224
9.66608	61147
9.67420	63331
9.68232	58175
9.69045	59014
9.69857	62069
9.70670	60855
9.71482	58025
9.72293	56503
9.73107	57559
9.73918	57320
9.74732	56608
9.75543	57215
9.76355	57390
9.77168	60540
9.77980	54024
9.78792	56763
9.79605	53073
9.80417	57487
9.81230	57163
9.82042	56957
9.82853	57327
9.83667	53122
9.84478	55344
9.85292	56896
9.86103	63583
9.86915	61439
9.87728	61949
9.88540	57190
9.89353	60692
9.90165	55681
9.90977	53655
9.91790	54908
9.92602	56389
9.93413	59454
9.94227	64451
9.95038	75940
9.95852	100964
9.96663	125922
9.97475	147724
9.98288	152947
9.99100	148958
9.99913	126776
10.00725	106470
10.01537	87642
10.02350	82402
10.03162	81512
10.03975	80937
10.04787	77988
10.05598	73991
10.06412	73338
10.07223	78080
10.08035	69840
10.08848	71810
10.09660	74923
10.10473	73421
10.11285	75957
10.12097	77082
10.12910	69074
10.13722	72486
10.14535	70405
10.15347	64168
10.16158	64193
10.16972	60614
10.17783	62246
10.18597	60789
10.19408	56527
10.20220	52158
10.21033	58517
10.21845	55206
10.22657	65885
10.23470	57908
10.24282	59507
10.25095	61015
10.25907	64204
10.26718	87362
10.27532	155188
10.28343	368891
10.29157	803223
10.29968	1566045
10.30780	2518736
10.31593	3620206
10.32405	5157201
10.33217	7505671
10.34030	1.040962E+07
10.34842	1.250937E+07
10.35655	1.240266E+07
10.36467	9484548
10.37278	5934572
10.38092	3514989
10.38903	2288519
10.39717	1736315
10.40528	1384875
10.41340	1019475
10.42153	737895
10.42965	526232
10.43778	417391
10.44590	366084
10.45402	334687
10.46215	315037
10.47027	300071
10.47838	274316
10.48652	263143
10.49463	231048
10.50277	216950
10.51088	193811
10.51900	183290
10.52713	186428
10.53525	172670
10.54338	162921
10.55150	154998
10.55962	157361
10.56775	160208
10.57587	152144
10.58398	136406
10.59212	147722
10.60023	146015
10.60837	138981
10.61648	127346
10.62460	125324
10.63273	116848
10.64085	111598
10.64898	109986
10.65710	110023
10.66522	100243
10.67335	98601
10.68147	93274
10.68960	94175
10.69772	103651
10.70583	104304
10.71397	105112
10.72208	102359
10.73020	100736
10.73833	99611
10.74645	95437
10.75458	97858
10.76270	96499
10.77082	98230
10.77895	92581
10.78707	96082
10.79520	91938
10.80332	93048
10.81143	95436
10.81957	92644
10.82768	99772
10.83582	97924
10.84393	86838
10.85205	89740
10.86018	87058
10.86830	87110
10.87642	77539
10.88455	72801
10.89267	76550
10.90080	71291
10.90892	72317
10.91703	69135
10.92517	69983
10.93328	71621
10.94142	72085
10.94953	66516
10.95765	65858
10.96578	64694
10.97390	63980
10.98202	66744
10.99015	68726
10.99827	69516
11.00640	72500
11.01452	73262
11.02263	70030
11.03077	70342
11.03888	65782
11.04702	68410
11.05513	68586
11.06325	63226
11.07138	63783
11.07950	63130
11.08763	63618
11.09575	70638
11.10387	67538
11.11200	72153
11.12012	69873
11.12823	65785
11.13637	65297
11.14448	61153
11.15262	60499
11.16073	54747
11.16885	59824
11.17698	61030
11.18510	57125
11.19323	62175
11.20135	63940
11.20947	61925
11.21760	64286
11.22572	59807
11.23385	59825
11.24197	58158
11.25008	52998
11.25822	55068
11.26633	52086
11.27445	53194
11.28258	49058
11.29070	49620
11.29883	51460
11.30695	55528
11.31507	64427
11.32320	91462
11.33132	164901
11.33945	294352
11.34757	488064
11.35568	714941
11.36382	842515
11.37193	849666
11.38005	704679
11.38818	522537
11.39630	372934
11.40443	279924
11.41255	223269
11.42067	202199
11.42880	176103
11.43692	151751
11.44505	135383
11.45317	121240
11.46128	113976
11.46942	113905
11.47753	101655
11.48567	108428
11.49378	124011
11.50190	149689
11.51003	175308
11.51815	194935
11.52627	195966
11.53440	174171
11.54252	155583
11.55065	130303
11.55877	119678
11.56688	113844
11.57502	107438
11.58313	106910
11.59127	94013
11.59938	97703
11.60750	98566
11.61563	117804
11.62375	156206
11.63187	172658
11.64000	182331
11.64812	168995
11.65625	142683
11.66437	115424
11.67248	97961
11.68062	87095
11.68873	75727
11.69687	76797
11.70498	74195
11.71310	80691
11.72123	81412
11.72935	82866
11.73748	79865
11.74560	79081
11.75372	74486
11.76185	70515
11.76997	65135
11.77808	72069
11.78622	61226
11.79433	64293
11.80247	60702
11.81058	60176
11.81870	59894
11.82683	59988
11.83495	68375
11.84308	63677
11.85120	74837
11.85932	81218
11.86745	89243
11.87557	102087
11.88370	93190
11.89182	90887
11.89993	74527
11.90807	66554
11.91618	61361
11.92430	61174
11.93243	59701
11.94055	63586
11.94868	60593
11.95680	63966
11.96492	59454
11.97305	55996
11.98117	54040
11.98930	56024
11.99742	54317
12.00553	59772
12.01367	74708
12.02178	86566
12.02990	89733
12.03803	93709
12.04615	80123
12.05428	71904
12.06240	65811
12.07052	61842
12.07865	56391
12.08677	55856
12.09490	56393
12.10302	58698
12.11113	57641
12.11927	74215
12.12738	92455
12.13552	134705
12.14363	185890
12.15175	236045
12.15988	252839
12.16800	231720
12.17612	185664
12.18425	141918
12.19237	107113
12.20050	95593
12.20862	90343
12.21673	83937
12.22487	78709
12.23298	77754
12.24112	76042
12.24923	73503
12.25735	73888
12.26548	69669
12.27360	67112
12.28173	61813
12.28985	58917
12.29797	62721
12.30610	62094
12.31422	61600
12.32233	58423
12.33047	60511
12.33858	61984
12.34672	57485
12.35483	59789
12.36295	61094
12.37108	60421
12.37920	61022
12.38733	60515
12.39545	65952
12.40357	61338
12.41170	69758
12.41982	77710
12.42793	102354
12.43607	119096
12.44418	130475
12.45232	130793
12.46043	120001
12.46855	108559
12.47668	88490
12.48480	80419
12.49293	74550
12.50105	69934
12.50917	69306
12.51730	66871
12.52542	63657
12.53355	64638
12.54167	67404
12.54978	66825
12.55792	71592
12.56603	73682
12.57415	87294
12.58228	94618
12.59040	87819
12.59853	80974
12.60665	69441
12.61477	68804
12.62290	65509
12.63102	54180
12.63915	59836
12.64727	60196
12.65538	57990
12.66352	54308
12.67163	57609
12.67977	53966
12.68788	51119
12.69600	51774
12.70413	48619
12.71225	51348
12.72037	52162
12.72850	51934
12.73662	55034
12.74475	57708
12.75287	66093
12.76098	64982
12.76912	61376
12.77723	61037
12.78537	56605
12.79348	53408
12.80160	50128
12.80973	50501
12.81785	48521
12.82597	45606
12.83410	46601
12.84222	48462
12.85035	44976
12.85847	48665
12.86658	43528
12.87472	44863
12.88283	42218
12.89097	37460
12.89908	42785
12.90720	41563
12.91533	38848
12.92345	39996
12.93158	42876
12.93970	37577
12.94782	36057
12.95595	40148
12.96407	38376
12.97218	43832
12.98032	44279
12.98843	46488
12.99657	47932
13.00468	49468
13.01280	50379
13.02093	45129
13.02905	44803
13.03718	44136
13.04530	44098
13.05342	40739
13.06155	46263
13.06967	39705
13.07778	39548
13.08592	42867
13.09403	48735
13.10217	45297
13.11028	42310
13.11840	41444
13.12653	43197
13.13465	43594
13.14278	39003
13.15090	37715
13.15902	39853
13.16715	37900
13.17527	39508
13.18340	40689
13.19152	45472
13.19963	42046
13.20777	45891
13.21588	43733
13.22400	47596
13.23213	50193
13.24025	48516
13.24838	50814
13.25650	52090
13.26462	47678
13.27275	45774
13.28087	45104
13.28900	45649
13.29712	42753
13.30523	39431
13.31337	40107
13.32148	45121
13.32962	36873
13.33773	38338
13.34585	35629
13.35398	34723
13.36210	39455
13.37022	38465
13.37835	41812
13.38647	40248
13.39460	38432
13.40272	34922
13.41083	37441
13.41897	38489
13.42708	37599
13.43522	36989
13.44333	32809
13.45145	34527
13.45958	33197
13.46770	37140
13.47582	40168
13.48395	44643
13.49207	38744
13.50020	39759
13.50832	43627
13.51643	37632
13.52457	39290
13.53268	39091
13.54082	40257
13.54893	42090
13.55705	37532
13.56518	43742
13.57330	40453
13.58143	40315
13.58955	43415
13.59767	49102
13.60580	47644
13.61392	51055
13.62203	51526
13.63017	56038
13.63828	57625
13.64642	57043
13.65453	50803
13.66265	46833
13.67078	49587
13.67890	41440
13.68703	39242
13.69515	40272
13.70327	39246
13.71140	37955
13.71952	37091
13.72765	40393
13.73577	41560
13.74388	42305
13.75202	44596
13.76013	48535
13.76825	65926
13.77638	88706
13.78450	129812
13.79263	155163
13.80075	186029
13.80887	206356
13.81700	203988
13.82512	206006
13.83325	208943
13.84137	222016
13.84948	249039
13.85762	277524
13.86573	263106
13.87385	238760
13.88198	196911
13.89010	159988
13.89823	127901
13.90635	105387
13.91447	83828
13.92260	79060
13.93072	69047
13.93885	70198
13.94697	61231
13.95508	65923
13.96322	65285
13.97133	71655
13.97947	92533
13.98758	113774
13.99570	152410
14.00383	158908
14.01195	158053
14.02007	146243
14.02820	110416
14.03632	90155
14.04445	73435
14.05257	70110
14.06068	65966
14.06882	64640
14.07693	66564
14.08507	59576
14.09318	59298
14.10130	63117
14.10943	64468
14.11755	59053
14.12567	55275
14.13380	51932
14.14192	51856
14.15005	48838
14.15817	61271
14.16628	57400
14.17442	65384
14.18253	64084
14.19067	62620
14.19878	59420
14.20690	70604
14.21503	91552
14.22315	110538
14.23128	132940
14.23940	141929
14.24752	146318
14.25565	146164
14.26377	141323
14.27188	140482
14.28002	132965
14.28813	126997
14.29627	109864
14.30438	102474
14.31250	92263
14.32063	87101
14.32875	76146
14.33688	74597
14.34500	73423
14.35312	72304
14.36125	68592
14.36937	64393
14.37750	59631
14.38562	59226
14.39373	55263
14.40187	51960
14.40998	50616
14.41810	56391
14.42623	66675
14.43435	69081
14.44248	71700
14.45060	68580
14.45872	62440
14.46685	59965
14.47497	58366
14.48310	51207
14.49122	50564
14.49933	50782
14.50747	52418
14.51558	56560
14.52372	52997
14.53183	56130
14.53995	55377
14.54808	56287
14.55620	51611
14.56432	53426
14.57245	50359
14.58057	44417
14.58870	47439
14.59682	42816
14.60493	37990
14.61307	42808
14.62118	43602
14.62932	38937
14.63743	43759
14.64555	43361
14.65368	40224
14.66180	37590
14.66992	36050
14.67805	41253
14.68617	41240
14.69430	37293
14.70242	36040
14.71053	38931
14.71867	41588
14.72678	42105
14.73492	37108
14.74303	42465
14.75115	38951
14.75928	41939
14.76740	41574
14.77553	48284
14.78365	45438
14.79177	48477
14.79990	55564
14.80802	116467
14.81613	297812
14.82427	769062
14.83238	1704128
14.84052	3117393
14.84863	4332843
14.85675	4822848
14.86488	4318613
14.87300	3144328
14.88113	1989474
14.88925	1196041
14.89737	742203
14.90550	533393
14.91362	399602
14.92173	340003
14.92987	295221
14.93798	262427
14.94612	247781
14.95423	234722
14.96235	209874
14.97048	187706
14.97860	175468
14.98673	170129
14.99485	159328
15.00297	157038
15.01110	145841
15.01922	147039
15.02735	135936
15.03547	127841
15.04358	114081
15.05172	122383
15.05983	111055
15.06795	114380
15.07608	101693
15.08420	97789
15.09233	96800
15.10045	100945
15.10857	98002
15.11670	94874
15.12482	89690
15.13295	90314
15.14107	96383
15.14918	99806
15.15732	109555
15.16543	110778
15.17357	103146
15.18168	98303
15.18980	88598
15.19793	71314
15.20605	66120
15.21417	63053
15.22230	58831
15.23042	58595
15.23855	56941
15.24667	58457
15.25478	59329
15.26292	54407
15.27103	54534
15.27917	54020
15.28728	50669
15.29540	45616
15.30353	48218
15.31165	47459
15.31977	49717
15.32790	43721
15.33602	47732
15.34415	49188
15.35227	44093
15.36038	47307
15.36852	44772
15.37663	43626
15.38477	49547
15.39288	44898
15.40100	47814
15.40913	43572
15.41725	45022
15.42538	48272
15.43350	46549
15.44162	39847
15.44975	40785
15.45787	44573
15.46598	44383
15.47412	49055
15.48223	48998
15.49037	62588
15.49848	71788
15.50660	102443
15.51473	116695
15.52285	132793
15.53098	142858
15.53910	134469
15.54722	116318
15.55535	105267
15.56347	94359
15.57160	84656
15.57972	72084
15.58783	62706
15.59597	62499
15.60408	56519
15.61220	53985
15.62033	53948
15.62845	54731
15.63658	49090
15.64470	51614
15.65282	46296
15.66095	50686
15.66907	48995
15.67720	44126
15.68532	48645
15.69343	43660
15.70157	48473
15.70968	46841
15.71780	41258
15.72593	39048
15.73405	37821
15.74218	44347
15.75030	46709
15.75842	47595
15.76655	55556
15.77467	70946
15.78280	110588
15.79092	175385
15.79903	257541
15.80717	314225
15.81528	333795
15.82342	276907
15.83153	212904
15.83965	155431
15.84778	115536
15.85590	93816
15.86402	80930
15.87215	73105
15.88027	69419
15.88840	63192
15.89652	65195
15.90463	67132
15.91277	56115
15.92088	61077
15.92902	54395
15.93713	60803
15.94525	55936
15.95338	53838
15.96150	55256
15.96962	60215
15.97775	59721
15.98587	68181
15.99400	68739
16.00212	77840
16.01023	74722
16.01837	80084
16.02648	73930
16.03462	75297
16.04273	78064
16.05085	74845
16.05898	76803
16.06710	63257
16.07523	64514
16.08335	57824
16.09147	55280
16.09960	50621
16.10772	50381
16.11583	48085
16.12397	49442
16.13208	51438
16.14022	49624
16.14833	54221
16.15645	57073
16.16458	60156
16.17270	64671
16.18083	58745
16.18895	50109
16.19707	52377
16.20520	45854
16.21332	45951
16.22145	48278
16.22957	49942
16.23768	51426
16.24582	47041
16.25393	45491
16.26205	45271
16.27018	45136
16.27830	50272
16.28643	47237
16.29455	45328
16.30267	50827
16.31080	52204
16.31892	55591
16.32705	54580
16.33517	55455
16.34328	55103
16.35142	52680
16.35953	56758
16.36765	59366
16.37578	67684
16.38390	83240
16.39203	94436
16.40015	96560
16.40827	96821
16.41640	82502
16.42452	72920
16.43265	63845
16.44077	56686
16.44888	56582
16.45702	66902
16.46513	93577
16.47327	185243
16.48138	368069
16.48950	626393
16.49763	884319
16.50575	983634
16.51387	906983
16.52200	697038
16.53012	468417
16.53825	292636
16.54637	197479
16.55448	157772
16.56262	122381
16.57073	108070
16.57887	98743
16.58698	93972
16.59510	87257
16.60323	89243
16.61135	87260
16.61948	89824
16.62760	87487
16.63572	95142
16.64385	89333
16.65197	77162
16.66008	76407
16.66822	74745
16.67633	71221
16.68447	61408
16.69258	58675
16.70070	61130
16.70883	59634
16.71695	58654
16.72508	50659
16.73320	51122
16.74132	47991
16.74945	50939
16.75757	49239
16.76568	55403
16.77382	60027
16.78193	59121
16.79007	62309
16.79818	61432
16.80630	56817
16.81443	56048
16.82255	47734
16.83068	46801
16.83880	45868
16.84692	43071
16.85505	45045
16.86317	39901
16.87130	42647
16.87942	41147
16.88753	43738
16.89567	44021
16.90378	39934
16.91190	44483
16.92003	39494
16.92815	43408
16.93628	43826
16.94440	43188
16.95252	47423
16.96065	42386
16.96877	41878
16.97690	40238
16.98502	41421
16.99313	41889
17.00127	43194
17.00938	40669
17.01750	44221
17.02563	42345
17.03375	40505
17.04188	43170
17.05000	44278
17.05812	45591
17.06625	50104
17.07437	51154
17.08250	48796
17.09062	51537
17.09873	48764
17.10687	44744
17.11498	44328
17.12312	42671
17.13123	45022
17.13935	45874
17.14748	44540
17.15560	49396
17.16372	46512
17.17185	45704
17.17997	42185
17.18810	45338
17.19622	44516
17.20433	40216
17.21247	35467
17.22058	40936
17.22872	41366
17.23683	42511
17.24495	41209
17.25308	35942
17.26120	41195
17.26933	35666
17.27745	41035
17.28557	44373
17.29370	40907
17.30182	43158
17.30993	42276
17.31807	40433
17.32618	39097
17.33432	39815
17.34243	42232
17.35055	49449
17.35868	53625
17.36680	61754
17.37493	64197
17.38305	63504
17.39117	65467
17.39930	59560
17.40742	61351
17.41553	61107
17.42367	54623
17.43178	54768
17.43992	57538
17.44803	57376
17.45615	58147
17.46428	53265
17.47240	52090
17.48053	48481
17.48865	51572
17.49677	47929
17.50490	48643
17.51302	46551
17.52115	46012
17.52927	39422
17.53738	46547
17.54552	45959
17.55363	42066
17.56175	56277
17.56988	51078
17.57800	65048
17.58613	96031
17.59425	150322
17.60237	229740
17.61050	351428
17.61862	466237
17.62675	554953
17.63487	554091
17.64298	495130
17.65112	382492
17.65923	312006
17.66737	271957
17.67548	267542
17.68360	288248
17.69173	280662
17.69985	269703
17.70797	214134
17.71610	178913
17.72422	146229
17.73235	113336
17.74047	103009
17.74858	97420
17.75672	84996
17.76483	82741
17.77297	82298
17.78108	71270
17.78920	66833
17.79733	64718
17.80545	66530
17.81357	72305
17.82170	77304
17.82982	97131
17.83795	111807
17.84607	124493
17.85418	130809
17.86232	129277
17.87043	122638
17.87857	111445
17.88668	101817
17.89480	96310
17.90293	89135
17.91105	81910
17.91918	67645
17.92730	63260
17.93542	62732
17.94355	59587
17.95167	50840
17.95978	53236
17.96792	51710
17.97603	53105
17.98417	46275
17.99228	48609
18.00040	45591
18.00853	47105
18.01665	50517
18.02478	57086
18.03290	55702
18.04102	69703
18.04915	87348
18.05727	96453
18.06540	114440
18.07352	159219
18.08163	278562
18.08977	542675
18.09788	1003719
18.10600	1462490
18.11413	1831743
18.12225	1851055
18.13038	1625159
18.13850	1276595
18.14662	905758
18.15475	636500
18.16287	527112
18.17100	450667
18.17912	382832
18.18723	341442
18.19537	317808
18.20348	272735
18.21160	249629
18.21973	224734
18.22785	213081
18.23598	193382
18.24410	169521
18.25222	166500
18.26035	157520
18.26847	148425
18.27660	128618
18.28472	126756
18.29283	110708
18.30097	92333
18.30908	82887
18.31722	69014
18.32533	64006
18.33345	58696
18.34158	56859
18.34970	55176
18.35782	55929
18.36595	51519
18.37407	55151
18.38220	50518
18.39032	54623
18.39843	50217
18.40657	49076
18.41468	53139
18.42282	49484
18.43093	56271
18.43905	55610
18.44718	61898
18.45530	70709
18.46342	86205
18.47155	97847
18.47967	129695
18.48780	164805
18.49592	201829
18.50403	213717
18.51217	207998
18.52028	179053
18.52842	145658
18.53653	116343
18.54465	90408
18.55278	76078
18.56090	76484
18.56903	62351
18.57715	58086
18.58527	57362
18.59340	58768
18.60152	55708
18.60963	59425
18.61777	58447
18.62588	62827
18.63402	61275
18.64213	60732
18.65025	58577
18.65838	55697
18.66650	55462
18.67463	54509
18.68275	52890
18.69087	50818
18.69900	46934
18.70712	46022
18.71525	46075
18.72337	45758
18.73148	43466
18.73962	42715
18.74773	46593
18.75585	46141
18.76398	41767
18.77210	41279
18.78023	41553
18.78835	42016
18.79647	43139
18.80460	42284
18.81272	42536
18.82085	50054
18.82897	57196
18.83708	80606
18.84522	115828
18.85333	145491
18.86145	155968
18.86958	187378
18.87770	180217
18.88583	189385
18.89395	195384
18.90207	194134
18.91020	209527
18.91832	205254
18.92645	200827
18.93457	211029
18.94268	209126
18.95082	214624
18.95893	212210
18.96707	214512
18.97518	229970
18.98330	224872
18.99143	224779
18.99955	220796
19.00767	216214
19.01580	205001
19.02392	207005
19.03205	209716
19.04017	204644
19.04828	192639
19.05642	193565
19.06453	198196
19.07267	197681
19.08078	205281
19.08890	208948
19.09703	204004
19.10515	220750
19.11328	232993
19.12140	261455
19.12952	256288
19.13765	262711
19.14577	242439
19.15388	239080
19.16202	227299
19.17013	217596
19.17827	218991
19.18638	209548
19.19450	215353
19.20263	209187
19.21075	217128
19.21888	213239
19.22700	207387
19.23512	207613
19.24325	197312
19.25137	192599
19.25948	186197
19.26762	189651
19.27573	181064
19.28387	172361
19.29198	186775
19.30010	186129
19.30823	177362
19.31635	183088
19.32448	181655
19.33260	177828
19.34072	186949
19.34885	181620
19.35697	170460
19.36510	183628
19.37322	188510
19.38133	206902
19.38947	221433
19.39758	236402
19.40570	219934
19.41383	211208
19.42195	194235
19.43008	186424
19.43820	178264
19.44632	166776
19.45445	164331
19.46257	163739
19.47070	156424
19.47882	162720
19.48693	155136
19.49507	158404
19.50318	159522
19.51130	162297
19.51943	187381
19.52755	198248
19.53568	221975
19.54380	229111
19.55192	212970
19.56005	203003
19.56817	178974
19.57630	169067
19.58442	156743
19.59253	148561
19.60067	141798
19.60878	145825
19.61692	136988
19.62503	136698
19.63315	140215
19.64128	148753
19.64940	156611
19.65752	193913
19.66565	247465
19.67377	361030
19.68190	464851
19.69002	559782
19.69813	588110
19.70627	573108
19.71438	489130
19.72252	405407
19.73063	337452
19.73875	288393
19.74688	242671
19.75500	220298
19.76313	203873
19.77125	195358
19.77937	174682
19.78750	177468
19.79562	179724
19.80373	174436
19.81187	181235
19.81998	187696
19.82812	184000
19.83623	179235
19.84435	172454
19.85248	184282
19.86060	261193
19.86873	574074
19.87685	1610012
19.88497	4252831
19.89310	9405169
19.90122	1.741583E+07
19.90935	2.679622E+07
19.91747	3.397541E+07
19.92558	3.638501E+07
19.93372	3.463223E+07
19.94183	2.878058E+07
19.94995	2.084612E+07
19.95808	1.426382E+07
19.96620	9862367
19.97433	7247827
19.98245	5889641
19.99057	5260639
19.99870	4610537
20.00682	4203624
20.01495	3805611
20.02307	3446742
20.03118	3241098
20.03932	3015624
20.04743	2744709
20.05555	2384043
20.06368	2061214
20.07180	1654566
20.07993	1250777
20.08805	956350
20.09617	751852
20.10430	610777
20.11242	567788
20.12055	517341
20.12867	492402
20.13678	453974
20.14492	432139
20.15303	414923
20.16117	402908
20.16928	407605
20.17740	422955
20.18553	426113
20.19365	454392
20.20177	461937
20.20990	474632
20.21802	473918
20.22615	454221
20.23427	426123
20.24238	389147
20.25052	375047
20.25863	359777
20.26677	380468
20.27488	422437
20.28300	475428
20.29113	564390
20.29925	620559
20.30737	656023
20.31550	623065
20.32362	542478
20.33175	473198
20.33987	392771
20.34798	333519
20.35612	272515
20.36423	233495
20.37237	195155
20.38048	170588
20.38860	149416
20.39673	140030
20.40485	138691
20.41298	136932
20.42110	130293
20.42922	138273
20.43735	136609
20.44547	150475
20.45358	161259
20.46172	170773
20.46983	171341
20.47797	177474
20.48608	161960
20.49420	156471
20.50233	148228
20.51045	132170
20.51858	121807
20.52670	117857
20.53482	108161
20.54295	112147
20.55107	112193
20.55920	106219
20.56732	105918
20.57543	106726
20.58357	106547
20.59168	106603
20.59980	101251
20.60793	97179
20.61605	100829
20.62418	96270
20.63230	92399
20.64042	96185
20.64855	90011
20.65667	94639
20.66480	97954
20.67292	95189
20.68103	97190
20.68917	97136
20.69728	91048
20.70540	91689
20.71353	93499
20.72165	93716
20.72978	86363
20.73790	90079
20.74602	87550
20.75415	88291
20.76227	93885
20.77040	91561
20.77852	94770
20.78663	93536
20.79477	105834
20.80288	117153
20.81102	150149
20.81913	204633
20.82725	269258
20.83538	318323
20.84350	309735
20.85162	287985
20.85975	236066
20.86787	186572
20.87600	141813
20.88412	121203
20.89223	101447
20.90037	104643
20.90848	93231
20.91662	91860
20.92473	89526
20.93285	89987
20.94098	90894
20.94910	94238
20.95723	85627
20.96535	89064
20.97347	86967
20.98160	81973
20.98972	81345
20.99783	77578
21.00597	80789
21.01408	77838
21.02222	78251
21.03033	82289
21.03845	77124
21.04658	81676
21.05470	83281
21.06283	86710
21.07095	88749
21.07907	80188
21.08720	83813
21.09532	82930
21.10343	82090
21.11157	84359
21.11968	80546
21.12782	80659
21.13593	85301
21.14405	87716
21.15218	100590
21.16030	105949
21.16843	122694
21.17655	129414
21.18467	140368
21.19280	140454
21.20092	133350
21.20905	119211
21.21717	111205
21.22528	89909
21.23342	92246
21.24153	96096
21.24965	97200
21.25778	83221
21.26590	82191
21.27403	81457
21.28215	84238
21.29027	82019
21.29840	83227
21.30652	77676
21.31465	79963
21.32277	81845
21.33088	77203
21.33902	79108
21.34713	78496
21.35525	77365
21.36338	76994
21.37150	71076
21.37963	75719
21.38775	75980
21.39587	79561
21.40400	82191
21.41212	94919
21.42025	103113
21.42837	120143
21.43648	133781
21.44462	139427
21.45273	130958
21.46087	122327
21.46898	108042
21.47710	99728
21.48523	86479
21.49335	82422
21.50147	80216
21.50960	74839
21.51772	73163
21.52585	69490
21.53397	71481
21.54208	72978
21.55022	69794
21.55833	67156
21.56647	66383
21.57458	67695
21.58270	74811
21.59083	73033
21.59895	75587
21.60708	77603
21.61520	84599
21.62332	79213
21.63145	82434
21.63957	84762
21.64768	88768
21.65582	106890
21.66393	107716
21.67207	117095
21.68018	113297
21.68830	116034
21.69643	111418
21.70455	104203
21.71268	91516
21.72080	86226
21.72892	75611
21.73705	67860
21.74517	64046
21.75328	65657
21.76142	63800
21.76953	59090
21.77767	61781
21.78578	60837
21.79390	56932
21.80203	55678
21.81015	59822
21.81828	56108
21.82640	58560
21.83452	62559
21.84265	70726
21.85077	82208
21.85890	92080
21.86702	93291
21.87513	104692
21.88327	92945
21.89138	86846
21.89950	78653
21.90763	72052
21.91575	69935
21.92388	65798
21.93200	61159
21.94012	56109
21.94825	59271
21.95637	55507
21.96450	53742
21.97262	52519
21.98073	49294
21.98887	51489
21.99698	47149
22.00512	50704
22.01323	49117
22.02135	45561
22.02948	42364
22.03760	48067
22.04572	51773
22.05385	54727
22.06197	52331
22.07010	52329
22.07822	52056
22.08633	53219
22.09447	51575
22.10258	51578
22.11072	52540
22.11883	52090
22.12695	50779
22.13508	54147
22.14320	48487
22.15132	49746
22.15945	49102
22.16757	52060
22.17570	48171
22.18382	48260
22.19193	46134
22.20007	45528
22.20818	44349
22.21632	44886
22.22443	49176
22.23255	46339
22.24068	52065
22.24880	53229
22.25693	53891
22.26505	56514
22.27317	51881
22.28130	50462
22.28942	52485
22.29753	56848
22.30567	54818
22.31378	63687
22.32192	72229
22.33003	83808
22.33815	109265
22.34628	134065
22.35440	154564
22.36253	148956
22.37065	131802
22.37877	113933
22.38690	98355
22.39502	87179
22.40315	83929
22.41127	91641
22.41938	110884
22.42752	136105
22.43563	158477
22.44375	173424
22.45188	167301
22.46000	150553
22.46813	144839
22.47625	124404
22.48437	120449
22.49250	115233
22.50062	115573
22.50875	130836
22.51687	124966
22.52498	132766
22.53312	134368
22.54123	136508
22.54935	125879
22.55748	126040
22.56560	118638
22.57373	120419
22.58185	115143
22.58997	114710
22.59810	106046
22.60622	105895
22.61435	101456
22.62247	100060
22.63058	98832
22.63872	103967
22.64683	100660
22.65497	101079
22.66308	97535
22.67120	108498
22.67933	113763
22.68745	108083
22.69557	114125
22.70370	118184
22.71182	125547
22.71995	129049
22.72807	129011
22.73618	135106
22.74432	128816
22.75243	117800
22.76057	118778
22.76868	110591
22.77680	105980
22.78493	107176
22.79305	113687
22.80117	116437
22.80930	117907
22.81742	121742
22.82555	133486
22.83367	132362
22.84178	136824
22.84992	121130
22.85803	124301
22.86617	106635
22.87428	112611
22.88240	108441
22.89053	116035
22.89865	121912
22.90678	121714
22.91490	128520
22.92302	126882
22.93115	144956
22.93927	148745
22.94738	163146
22.95552	166949
22.96363	166012
22.97177	142122
22.97988	122745
22.98800	108297
22.99613	92682
23.00425	93006
23.01238	90342
23.02050	78114
23.02862	80423
23.03675	70708
23.04487	64864
23.05300	63474
23.06112	61198
23.06923	58774
23.07737	60697
23.08548	61250
23.09360	65740
23.10173	62756
23.10985	57625
23.11798	62148
23.12610	61274
23.13422	56624
23.14235	55483
23.15047	53774
23.15860	54744
23.16672	51714
23.17483	53865
23.18297	52969
23.19108	59460
23.19920	73182
23.20733	90217
23.21545	101373
23.22358	109622
23.23170	118327
23.23982	124460
23.24795	124039
23.25607	143937
23.26420	156353
23.27232	160063
23.28043	172753
23.28857	166074
23.29668	175191
23.30482	158899
23.31293	144585
23.32105	141585
23.32918	134505
23.33730	142389
23.34542	140657
23.35355	149643
23.36167	171335
23.36980	198091
23.37792	237556
23.38603	300601
23.39417	344966
23.40228	409494
23.41042	494363
23.41853	573003
23.42665	629404
23.43478	670314
23.44290	675165
23.45103	672488
23.45915	659724
23.46727	625306
23.47540	592246
23.48352	565375
23.49163	531102
23.49977	498550
23.50788	447199
23.51602	403571
23.52413	390040
23.53225	372022
23.54038	348738
23.54850	330751
23.55663	313452
23.56475	299227
23.57287	295164
23.58100	295565
23.58912	278730
23.59723	295541
23.60537	310479
23.61348	302207
23.62162	314435
23.62973	312226
23.63785	309019
23.64598	299063
23.65410	331281
23.66223	422179
23.67035	541254
23.67847	687160
23.68660	741627
23.69472	723512
23.70285	625870
23.71097	494386
23.71908	384419
23.72722	295568
23.73533	259091
23.74345	220801
23.75158	203664
23.75970	207591
23.76783	252210
23.77595	398227
23.78407	714064
23.79220	1225254
23.80032	1889006
23.80845	2499875
23.81657	2727226
23.82468	2532598
23.83282	2109028
23.84093	1641412
23.84905	1218476
23.85718	900111
23.86530	744359
23.87343	608820
23.88155	515594
23.88967	458946
23.89780	411241
23.90592	361944
23.91405	340363
23.92217	334858
23.93028	323894
23.93842	299276
23.94653	282528
23.95467	268368
23.96278	249154
23.97090	241426
23.97903	229682
23.98715	213831
23.99527	214497
24.00340	207989
24.01152	203744
24.01965	195720
24.02777	194548
24.03588	204056
24.04402	200608
24.05213	205856
24.06027	210247
24.06838	210343
24.07650	211182
24.08463	196300
24.09275	190054
24.10088	181415
24.10900	168153
24.11712	168099
24.12525	159861
24.13337	157965
24.14148	155412
24.14962	159063
24.15773	159307
24.16587	165179
24.17398	165226
24.18210	168685
24.19023	160174
24.19835	159667
24.20648	145783
24.21460	150476
24.22272	154461
24.23085	154940
24.23897	151721
24.24708	140921
24.25522	143936
24.26333	139201
24.27147	130477
24.27958	139884
24.28770	124389
24.29583	122560
24.30395	118174
24.31208	122448
24.32020	116649
24.32832	120972
24.33645	116058
24.34457	111841
24.35270	105832
24.36082	99999
24.36893	92649
24.37707	89919
24.38518	87074
24.39330	97838
24.40143	96652
24.40955	102916
24.41768	106386
24.42580	116688
24.43392	115999
24.44205	112604
24.45017	102908
24.45830	96312
24.46642	91688
24.47453	86487
24.48267	88738
24.49078	99182
24.49892	104348
24.50703	109594
24.51515	118184
24.52328	129917
24.53140	150692
24.53952	183629
24.54765	222382
24.55577	247888
24.56390	276062
24.57202	270103
24.58013	259549
24.58827	232714
24.59638	192312
24.60452	169378
24.61263	146014
24.62075	127931
24.62888	109939
24.63700	108687
24.64512	103331
24.65325	97138
24.66137	91865
24.66950	87532
24.67762	85357
24.68573	86969
24.69387	81386
24.70198	80952
24.71012	75084
24.71823	78365
24.72635	79734
24.73448	81770
24.74260	76912
24.75073	74006
24.75885	75103
24.76697	72100
24.77510	71276
24.78322	73807
24.79133	73108
24.79947	80758
24.80758	75715
24.81572	77867
24.82383	72112
24.83195	77126
24.84008	77674
24.84820	89773
24.85633	120108
24.86445	167725
24.87257	244463
24.88070	318695
24.88882	417673
24.89695	522745
24.90507	603292
24.91318	670862
24.92132	658855
24.92943	562778
24.93755	463284
24.94568	398427
24.95380	339349
24.96193	299639
24.97005	284094
24.97817	269560
24.98630	258518
24.99442	262695
25.00255	264372
25.01067	256187
25.01878	250710
25.02692	251801
25.03503	246844
25.04315	254459
25.05128	250486
25.05940	246836
25.06753	246332
25.07565	236334
25.08377	242324
25.09190	246071
25.10002	251042
25.10815	250942
25.11627	306016
25.12438	422165
25.13252	682526
25.14063	1129631
25.14877	1754146
25.15688	2305536
25.16500	2722007
25.17313	2620408
25.18125	2197814
25.18937	1654340
25.19750	1102164
25.20562	701495
25.21375	495472
25.22187	360036
25.22998	300709
25.23812	274708
25.24623	271109
25.25437	270788
25.26248	280486
25.27060	293723
25.27873	312216
25.28685	327322
25.29498	324118
25.30310	306761
25.31122	289647
25.31935	257304
25.32747	240554
25.33558	224975
25.34372	214032
25.35183	205752
25.35997	199636
25.36808	193029
25.37620	187930
25.38433	185594
25.39245	188970
25.40058	175403
25.40870	176694
25.41682	175629
25.42495	169435
25.43307	160989
25.44118	156323
25.44932	147209
25.45743	130483
25.46557	112662
25.47368	100048
25.48180	91196
25.48993	91054
25.49805	87246
25.50618	89440
25.51430	89775
25.52242	84674
25.53055	82873
25.53867	83383
25.54680	77604
25.55492	70555
25.56303	67686
25.57117	67386
25.57928	68853
25.58740	72129
25.59553	70554
25.60365	70833
25.61178	72776
25.61990	67909
25.62802	69717
25.63615	69595
25.64427	73140
25.65240	66144
25.66052	73137
25.66863	74036
25.67677	77513
25.68488	77853
25.69300	75100
25.70113	70790
25.70925	73760
25.71738	73213
25.72550	63646
25.73362	71237
25.74175	66149
25.74987	68258
25.75800	70392
25.76612	65397
25.77423	63214
25.78237	67084
25.79048	64462
25.79862	59157
25.80673	57314
25.81485	62718
25.82298	62972
25.83110	71685
25.83922	80804
25.84735	105302
25.85547	135104
25.86360	190261
25.87172	226333
25.87983	248928
25.88797	267218
25.89608	271691
25.90422	267548
25.91233	284226
25.92045	273527
25.92858	272833
25.93670	286732
25.94483	283737
25.95295	293385
25.96107	288495
25.96920	282441
25.97732	284291
25.98543	277710
25.99357	280853
26.00168	284677
26.00982	274309
26.01793	268614
26.02605	275834
26.03418	267574
26.04230	272804
26.05043	281088
26.05855	264448
26.06667	256953
26.07480	261420
26.08292	262985
26.09103	270277
26.09917	260440
26.10728	271745
26.11542	256317
26.12353	260912
26.13165	252779
26.13978	261126
26.14790	265813
26.15603	267847
26.16415	268908
26.17227	272808
26.18040	259372
26.18852	261400
26.19665	255959
26.20477	248571
26.21288	247360
26.22102	240625
26.22913	233403
26.23725	227766
26.24538	226204
26.25350	227909
26.26163	222993
26.26975	227850
26.27787	218299
26.28600	212820
26.29412	219790
26.30225	212527
26.31037	210236
26.31848	207752
26.32662	199398
26.33473	200409
26.34287	203771
26.35098	202797
26.35910	204023
26.36723	193049
26.37535	201832
26.38347	205768
26.39160	213225
26.39972	227529
26.40785	244074
26.41597	245756
26.42408	252841
26.43222	251584
26.44033	245775
26.44847	225602
26.45658	210369
26.46470	202879
26.47283	189038
26.48095	179679
26.48907	183491
26.49720	175318
26.50532	178253
26.51345	171393
26.52157	172993
26.52968	166389
26.53782	158490
26.54593	158023
26.55407	165010
26.56218	158982
26.57030	154219
26.57843	150629
26.58655	150737
26.59468	157922
26.60280	148104
26.61092	146942
26.61905	148684
26.62717	135960
26.63528	143321
26.64342	143808
26.65153	142417
26.65967	148094
26.66778	147472
26.67590	144301
26.68403	150119
26.69215	149825
26.70028	154322
26.70840	141391
26.71652	146675
26.72465	134361
26.73277	136134
26.74088	137719
26.74902	132131
26.75713	131484
26.76527	124394
26.77338	126492
26.78150	125739
26.78963	129373
26.79775	127476
26.80588	124005
26.81400	126497
26.82212	130768
26.83025	128231
26.83837	121376
26.84650	123298
26.85462	124516
26.86273	125889
26.87087	117024
26.87898	119990
26.88710	121606
26.89523	118599
26.90335	110122
26.91148	110197
26.91960	108727
26.92772	110913
26.93585	103739
26.94397	104868
26.95210	108809
26.96022	112038
26.96833	111172
26.97647	107684
26.98458	125263
26.99272	156067
27.00083	224676
27.00895	331350
27.01708	515888
27.02520	698228
27.03332	870503
27.04145	976193
27.04957	1004588
27.05770	864236
27.06582	709702
27.07393	576887
27.08207	434739
27.09018	370540
27.09832	312579
27.10643	269693
27.11455	248764
27.12268	224218
27.13080	205859
27.13892	199494
27.14705	182663
27.15517	180470
27.16330	171633
27.17142	174724
27.17953	174153
27.18767	171946
27.19578	171770
27.20392	173638
27.21203	160417
27.22015	151924
27.22828	158082
27.23640	146663
27.24453	138840
27.25265	132162
27.26077	130338
27.26890	121623
27.27702	129422
27.28513	120374
27.29327	114531
27.30138	110528
27.30952	111347
27.31763	103040
27.32575	109445
27.33388	106902
27.34200	93282
27.35013	103504
27.35825	99572
27.36637	93494
27.37450	100834
27.38262	98204
27.39075	99952
27.39887	101176
27.40698	94450
27.41512	94134
27.42323	96474
27.43135	93476
27.43948	88554
27.44760	86581
27.45573	86737
27.46385	89024
27.47197	81789
27.48010	82876
27.48822	88919
27.49635	85135
27.50447	86223
27.51258	86866
27.52072	78908
27.52883	87076
27.53695	85128
27.54508	85649
27.55320	86517
27.56133	78937
27.56945	80291
27.57757	86872
27.58570	89107
27.59382	87442
27.60195	99288
27.61007	99654
27.61818	101191
27.62632	101319
27.63443	95339
27.64257	93754
27.65068	81995
27.65880	82401
27.66693	71779
27.67505	78085
27.68317	74555
27.69130	75056
27.69942	77301
27.70755	75831
27.71567	72807
27.72378	70664
27.73192	71331
27.74003	72383
27.74817	67840
27.75628	64246
27.76440	66838
27.77253	68948
27.78065	70207
27.78878	65180
27.79690	71162
27.80502	65390
27.81315	71562
27.82127	73602
27.82938	71229
27.83752	69293
27.84563	69951
27.85377	63408
27.86188	79815
27.87000	78626
27.87813	65001
27.88625	62823
27.89438	64250
27.90250	69243
27.91062	66205
27.91875	66116
27.92687	63109
27.93498	68415
27.94312	62855
27.95123	67610
27.95937	65793
27.96748	58543
27.97560	58107
27.98373	64959
27.99185	60675
27.99998	62648
28.00810	66045
28.01622	64007
28.02435	70159
28.03247	68254
28.04060	67873
28.04872	72635
28.05683	71746
28.06497	77300
28.07308	76256
28.08120	77292
28.08933	72152
28.09745	74598
28.10558	72451
28.11370	72623
28.12182	68548
28.12995	73725
28.13807	62729
28.14620	62098
28.15432	58449
28.16243	62892
28.17057	55291
28.17868	57104
28.18680	61548
28.19493	57150
28.20305	64401
28.21118	80513
28.21930	79571
28.22742	81169
28.23555	91668
28.24367	96806
28.25180	94838
28.25992	91120
28.26803	79089
28.27617	76791
28.28428	66024
28.29242	63436
28.30053	66040
28.30865	71763
28.31678	71020
28.32490	81768
28.33302	79439
28.34115	102295
28.34927	105577
28.35740	110571
28.36552	129410
28.37363	144073
28.38177	149504
28.38988	154163
28.39802	163494
28.40613	165263
28.41425	157010
28.42238	146190
28.43050	136125
28.43863	127127
28.44675	125597
28.45487	105116
28.46300	100711
28.47112	103024
28.47923	91125
28.48737	93011
28.49548	92659
28.50362	85029
28.51173	86033
28.51985	81116
28.52798	80358
28.53610	79937
28.54423	74410
28.55235	74648
28.56047	67497
28.56860	75675
28.57672	72131
28.58483	71139
28.59297	63780
28.60108	68229
28.60922	67209
28.61733	66707
28.62545	63729
28.63358	64521
28.64170	66300
28.64983	69933
28.65795	67311
28.66607	72990
28.67420	71683
28.68232	76966
28.69045	78042
28.69857	78247
28.70668	77580
28.71482	65593
28.72293	68177
28.73105	61190
28.73918	60617
28.74730	59341
28.75543	57148
28.76355	62355
28.77167	59637
28.77980	59490
28.78792	62090
28.79605	71087
28.80417	73287
28.81228	74915
28.82042	76226
28.82853	65372
28.83667	65475
28.84478	72221
28.85290	64074
28.86103	55229
28.86915	55917
28.87727	60913
28.88540	59332
28.89352	61826
28.90165	69139
28.90977	72537
28.91788	72157
28.92602	64890
28.93413	70209
28.94227	67154
28.95038	63872
28.95850	65541
28.96663	69931
28.97475	76787
28.98287	72342
28.99100	76065
28.99912	68767
29.00725	64244
29.01537	58094
29.02348	60202
29.03162	62697
29.03973	56680
29.04787	56132
29.05598	57586
29.06410	50780
29.07223	50997
29.08035	59734
29.08848	54983
29.09660	61746
29.10472	62594
29.11285	63932
29.12097	67283
29.12908	65650
29.13722	61177
29.14533	56274
29.15347	56343
29.16158	56676
29.16970	62940
29.17783	63051
29.18595	62271
29.19408	63402
29.20220	83527
29.21032	79162
29.21845	95021
29.22657	98773
29.23470	110146
29.24282	106999
29.25093	93976
29.25907	85025
29.26718	82931
29.27530	75089
29.28343	71809
29.29155	66175
29.29968	63055
29.30780	61077
29.31592	56681
29.32405	56304
29.33217	55139
29.34030	54596
29.34842	58092
29.35653	51439
29.36467	57541
29.37278	53908
29.38090	54138
29.38903	57166
29.39715	56329
29.40528	58742
29.41340	54167
29.42152	56028
29.42965	55917
29.43777	56137
29.44590	59519
29.45402	55277
29.46213	56775
29.47027	54026
29.47838	50893
29.48652	52023
29.49463	54204
29.50275	55053
29.51088	59998
29.51900	60086
29.52712	60599
29.53525	55667
29.54337	59065
29.55150	52114
29.55962	49268
29.56773	53717
29.57587	46577
29.58398	52612
29.59212	48669
29.60023	51034
29.60835	52198
29.61648	48483
29.62460	50494
29.63273	47069
29.64085	48994
29.64897	49886
29.65710	50745
29.66522	55010
29.67333	47946
29.68147	51270
29.68958	50142
29.69772	52177
29.70583	58732
29.71395	57078
29.72208	56882
29.73020	52400
29.73833	55377
29.74645	54532
29.75457	50916
29.76270	57087
29.77082	50620
29.77893	47113
29.78707	49539
29.79518	47643
29.80332	46049
29.81143	51391
29.81955	45542
29.82768	47033
29.83580	48348
29.84393	48457
29.85205	51081
29.86017	49603
29.86830	51950
29.87642	57945
29.88455	62740
29.89267	84758
29.90078	101871
29.90892	138951
29.91703	156868
29.92515	165075
29.93328	139526
29.94140	112027
29.94953	87835
29.95765	71201
29.96577	59548
29.97390	62880
29.98202	63466
29.99015	65093
29.99827	69441
30.00638	81835
30.01452	82130
30.02263	89610
30.03075	88716
30.03888	94257
30.04700	97964
30.05513	99361
30.06325	88282
30.07137	92312
30.07950	89500
30.08762	86038
30.09575	84357
30.10387	79805
30.11198	84311
30.12012	81083
30.12823	72312
30.13637	76163
30.14448	77244
30.15260	67803
30.16073	63834
30.16885	63748
30.17697	68202
30.18510	64375
30.19322	69515
30.20135	61856
30.20947	68662
30.21758	63522
30.22572	60791
30.23383	63555
30.24197	60963
30.25008	58305
30.25820	55686
30.26633	56207
30.27445	52376
30.28258	55194
30.29070	58032
30.29882	53165
30.30695	53766
30.31507	53979
30.32318	55656
30.33132	54397
30.33943	55294
30.34757	59565
30.35568	54152
30.36380	60366
30.37193	57108
30.38005	57242
30.38818	54696
30.39630	59728
30.40442	54035
30.41255	58358
30.42067	55122
30.42878	52716
30.43692	56497
30.44503	55825
30.45317	54814
30.46128	54200
30.46940	51596
30.47753	51726
30.48565	49880
30.49378	51811
30.50190	55036
30.51002	54037
30.51815	51803
30.52627	53385
30.53440	44429
30.54252	48169
30.55063	48020
30.55877	52534
30.56688	48653
30.57500	53247
30.58313	45216
30.59125	48782
30.59938	47106
30.60750	50540
30.61562	50980
30.62375	46029
30.63187	46830
30.64000	49115
30.64812	49273
30.65623	48477
30.66437	49360
30.67248	45728
30.68062	49462
30.68873	41951
30.69685	50197
30.70498	49686
30.71310	48593
30.72122	50251
30.72935	49282
30.73747	51763
30.74560	52035
30.75372	54563
30.76183	52143
30.76997	59012
30.77808	60217
30.78622	58033
30.79433	59966
30.80245	68103
30.81058	79548
30.81870	85409
30.82682	91033
30.83495	97817
30.84307	86120
30.85120	80354
30.85932	66555
30.86743	60199
30.87557	61514
30.88368	60147
30.89182	56273
30.89993	59187
30.90805	56595
30.91618	52652
30.92430	52086
30.93243	51378
30.94055	54708
30.94867	56165
30.95680	55795
30.96492	58780
30.97303	56151
30.98117	59221
30.98928	52840
30.99742	53869
31.00553	56953
31.01365	56686
31.02178	58138
31.02990	56436
31.03803	59911
31.04615	61497
31.05427	67219
31.06240	60766
31.07052	58997
31.07863	64078
31.08677	68436
31.09488	89618
31.10302	122121
31.11113	162846
31.11925	211413
31.12738	220310
31.13550	206513
31.14363	175525
31.15175	141834
31.15987	98514
31.16800	82668
31.17612	72907
31.18425	65015
31.19237	71353
31.20048	73874
31.20862	87598
31.21673	96090
31.22485	114998
31.23298	136239
31.24110	136226
31.24923	133380
31.25735	102820
31.26547	93908
31.27360	79747
31.28172	66770
31.28985	57506
31.29797	55127
31.30608	50124
31.31422	49911
31.32233	52561
31.33047	50194
31.33858	53628
31.34670	48403
31.35483	51250
31.36295	53044
31.37107	55320
31.37920	59354
31.38732	65722
31.39545	69789
31.40357	66488
31.41168	71326
31.41982	71328
31.42793	62574
31.43607	57028
31.44418	58247
31.45230	52157
31.46043	50782
31.46855	50577
31.47667	50887
31.48480	51325
31.49292	49374
31.50105	51273
31.50917	55967
31.51728	55371
31.52542	57537
31.53353	50634
31.54167	52423
31.54978	49987
31.55790	53613
31.56603	55563
31.57415	59236
31.58228	63494
31.59040	57529
31.59852	60217
31.60665	66938
31.61477	69920
31.62288	65706
31.63102	64190
31.63913	68380
31.64727	72650
31.65538	72135
31.66350	74834
31.67163	74550
31.67975	79018
31.68788	83417
31.69600	80290
31.70412	82518
31.71225	78513
31.72037	76331
31.72850	79831
31.73662	71065
31.74473	77462
31.75287	68819
31.76098	68871
31.76910	76687
31.77723	67521
31.78535	74746
31.79348	69664
31.80160	74309
31.80972	75926
31.81785	76833
31.82597	76665
31.83410	73756
31.84222	75720
31.85033	77186
31.85847	75893
31.86658	78532
31.87470	84645
31.88283	83768
31.89095	83186
31.89908	82174
31.90720	86136
31.91532	90598
31.92345	89341
31.93157	95871
31.93970	94425
31.94782	95234
31.95593	96216
31.96407	95144
31.97218	100740
31.98032	100456
31.98843	98419
31.99655	103439
32.00468	102154
32.01280	92854
32.02092	95396
32.02905	89571
32.03717	91047
32.04530	87885
32.05342	82615
32.06153	79132
32.06967	80340
32.07778	81095
32.08592	81834
32.09403	80270
32.10215	76499
32.11028	75798
32.11840	69577
32.12653	70898
32.13465	71083
32.14277	62331
32.15090	65569
32.15902	59818
32.16713	58737
32.17527	59612
32.18338	61669
32.19152	59955
32.19963	61767
32.20775	63713
32.21588	62152
32.22400	57621
32.23213	62983
32.24025	56377
32.24837	61345
32.25650	65991
32.26462	60884
32.27273	65269
32.28087	62136
32.28898	64925
32.29712	59014
32.30523	59559
32.31335	62648
32.32148	59780
32.32960	58419
32.33773	57605
32.34585	57604
32.35397	61499
32.36210	63859
32.37022	71707
32.37835	65314
32.38647	65888
32.39458	68764
32.40272	58588
32.41083	54114
32.41895	54682
32.42708	51482
32.43520	55649
32.44333	56221
32.45145	55652
32.45957	50197
32.46770	53533
32.47582	50628
32.48395	55496
32.49207	54248
32.50018	50174
32.50832	49835
32.51643	47601
32.52455	48413
32.53268	52588
32.54080	50169
32.54893	49976
32.55705	49808
32.56517	51195
32.57330	51464
32.58142	51730
32.58955	50512
32.59767	48924
32.60578	48483
32.61392	48569
32.62203	47386
32.63017	54547
32.63828	50343
32.64640	50176
32.65453	54599
32.66265	47293
32.67077	51441
32.67890	52777
32.68702	66352
32.69515	60920
32.70327	60067
32.71138	56004
32.71952	62107
32.72763	54646
32.73577	51166
32.74388	55093
32.75200	48732
32.76013	52931
32.76825	49846
32.77638	47951
32.78450	48305
32.79262	48782
32.80075	46918
32.80887	48127
32.81698	48868
32.82512	47214
32.83323	49319
32.84137	50147
32.84948	47225
32.85760	47917
32.86573	46670
32.87385	46985
32.88198	48967
32.89010	46846
32.89822	51921
32.90635	49509
32.91447	54407
32.92258	52007
32.93072	48032
32.93883	48304
32.94697	54798
32.95508	44410
32.96320	43297
32.97133	51736
32.97945	48971
32.98758	53681
32.99570	53124
33.00382	57579
33.01195	62925
33.02007	67555
33.02820	68576
33.03632	64476
33.04443	59446
33.05257	57162
33.06068	59253
33.06880	55676
33.07693	60217
33.08505	66788
33.09318	71100
33.10130	71897
33.10942	73814
33.11755	86387
33.12567	103655
33.13380	101153
33.14192	100896
33.15003	103464
33.15817	82723
33.16628	70762
33.17442	60656
33.18253	61820
33.19065	56492
33.19878	58538
33.20690	53414
33.21502	52477
33.22315	58992
33.23127	53608
33.23940	49397
33.24752	49157
33.25563	50644
33.26377	48187
33.27188	51693
33.28002	47979
33.28813	49065
33.29625	49567
33.30438	48333
33.31250	48447
33.32062	45383
33.32875	48217
33.33687	51134
33.34500	47714
33.35312	51152
33.36123	48821
33.36937	50054
33.37748	52170
33.38562	52700
33.39373	52288
33.40185	50816
33.40998	49494
33.41810	51603
33.42623	44072
33.43435	49643
33.44247	46661
33.45060	42701
33.45872	43357
33.46683	46758
33.47497	47383
33.48308	43660
33.49122	45574
33.49933	41993
33.50745	47674
33.51558	49128
33.52370	49636
33.53183	52136
33.53995	46941
33.54807	53694
33.55620	53463
33.56432	52515
33.57243	57212
33.58057	61963
33.58868	56120
33.59682	51777
33.60493	50589
33.61305	51044
33.62118	44775
33.62930	49465
33.63743	53273
33.64555	50814
33.65367	49023
33.66180	51903
33.66992	52790
33.67805	52174
33.68617	47954
33.69428	49585
33.70242	46872
33.71053	45332
33.71865	45712
33.72678	43749
33.73490	49235
33.74303	47226
33.75115	46654
33.75927	41511
33.76740	47486
33.77552	48174
33.78365	45576
33.79177	45966
33.79988	42241
33.80802	42260
33.81613	43682
33.82427	47257
33.83238	50573
33.84050	46336
33.84863	51474
33.85675	47656
33.86487	48828
33.87300	50754
33.88112	50923
33.88925	51104
33.89737	54070
33.90548	58120
33.91362	49653
33.92173	48044
33.92987	45805
33.93798	48193
33.94610	54215
33.95423	44792
33.96235	51805
33.97048	47314
33.97860	48455
33.98672	44974
33.99485	48642
34.00297	49074
34.01108	46514
34.01922	45892
34.02733	45146
34.03547	47418
34.04358	48791
34.05170	51921
34.05983	45507
34.06795	50606
34.07608	48330
34.08420	47371
34.09232	46511
34.10045	53621
34.10857	46452
34.11668	45246
34.12482	48166
34.13293	49763
34.14107	48308
34.14918	46793
34.15730	45925
34.16543	47218
34.17355	47801
34.18168	49975
34.18980	54712
34.19792	51480
34.20605	46332
34.21417	50409
34.22230	50293
34.23042	46748
34.23853	46760
34.24667	44306
34.25478	46528
34.26290	48023
34.27103	47645
34.27915	48318
34.28728	48573
34.29540	49892
34.30352	55199
34.31165	48189
34.31977	45738
34.32790	46812
34.33602	48237
34.34413	46010
34.35227	50377
34.36038	48757
34.36850	50964
34.37663	53638
34.38475	46298
34.39288	48033
34.40100	52781
34.40912	50065
34.41725	46549
34.42537	46833
34.43350	46869
34.44162	44617
34.44973	49211
34.45787	46884
34.46598	44400
34.47412	44038
34.48223	43309
34.49035	45843
34.49848	48053
34.50660	47467
34.51472	46806
34.52285	51366
34.53097	47725
34.53910	51925
34.54722	54715
34.55533	62310
34.56347	64659
34.57158	66472
34.57972	65714
34.58783	63836
34.59595	67800
34.60408	63800
34.61220	62182
34.62033	56114
34.62845	57069
34.63657	59326
34.64470	52836
34.65282	57965
34.66093	57071
34.66907	56379
34.67718	57140
34.68532	52061
34.69343	56754
34.70155	55069
34.70968	52068
34.71780	53148
34.72593	56401
34.73405	54167
34.74217	49377
34.75030	48246
34.75842	54642
34.76653	52484
34.77467	60507
34.78278	51089
34.79092	51292
34.79903	51156
34.80715	50798
34.81528	52940
34.82340	53842
34.83153	55934
34.83965	56253
34.84777	54073
34.85590	51889
34.86402	50882
34.87215	56292
34.88027	51575
34.88838	51327
34.89652	48026
34.90463	54772
34.91275	49872
34.92088	50673
34.92900	51716
34.93713	50608
34.94525	62673
34.95337	72981
34.96150	92501
34.96962	136159
34.97775	195234
34.98587	278158
34.99398	334267
35.00212	308420
35.01023	264897
35.01837	195785
35.02648	128454
35.03460	93843
35.04273	79967
35.05085	71714
35.05897	62750
35.06710	61300
35.07522	66819
35.08335	60842
35.09147	62334
35.09958	53344
35.10772	63336
35.11583	60844
35.12397	60957
35.13208	54802
35.14020	56343
35.14833	53608
35.15645	60125
35.16457	59211
35.17270	59723
35.18082	64982
35.18895	59465
35.19707	55909
35.20518	60420
35.21332	54149
35.22143	53157
35.22957	57123
35.23768	54075
35.24580	52968
35.25393	48911
35.26205	55808
35.27018	55357
35.27830	52489
35.28642	53348
35.29455	58338
35.30267	58489
35.31078	52914
35.31892	56503
35.32703	54309
35.33517	52326
35.34328	51207
35.35140	52632
35.35953	49262
35.36765	53086
35.37578	51830
35.38390	54651
35.39202	51087
35.40015	49568
35.40827	49170
35.41638	55087
35.42452	55404
35.43263	55551
35.44077	56058
35.44888	53707
35.45700	56095
35.46513	59773
35.47325	56975
35.48138	54893
35.48950	53819
35.49762	57293
35.50575	58016
35.51387	55292
35.52200	57520
35.53012	53603
35.53823	52643
35.54637	56055
35.55448	52636
35.56260	57688
35.57073	58571
35.57885	57396
35.58698	50198
35.59510	54073
35.60322	56672
35.61135	51234
35.61947	52957
35.62760	50283
35.63572	53193
35.64383	55832
35.65197	55171
35.66008	56188
35.66822	57037
35.67633	56117
35.68445	53169
35.69258	56824
35.70070	54738
35.70882	61379
35.71695	59001
35.72507	57069
35.73320	57979
35.74132	51570
35.74943	53923
35.75757	56721
35.76568	62346
35.77382	57890
35.78193	65227
35.79005	61801
35.79818	59892
35.80630	61145
35.81442	54742
35.82255	54304
35.83067	52901
35.83880	55374
35.84692	53668
35.85503	56689
35.86317	56808
35.87128	55707
35.87942	50434
35.88753	53643
35.89565	53547
35.90378	54931
35.91190	52891
35.92003	55741
35.92815	56290
35.93627	52655
35.94440	55132
35.95252	56514
35.96063	51760
35.96877	56644
35.97688	51585
35.98502	55365
35.99313	53287
36.00125	50869
36.00938	59871
36.01750	54606
36.02563	55424
36.03375	57388
36.04187	62758
36.05000	61639
36.05812	56056
36.06625	55088
36.07437	57787
36.08248	57467
36.09062	54675
36.09873	62341
36.10685	53561
36.11498	54297
36.12310	53720
36.13123	57000
36.13935	51119
36.14747	58405
36.15560	66239
36.16372	59917
36.17185	52222
36.17997	59406
36.18808	59252
36.19622	60810
36.20433	55426
36.21245	55598
36.22058	55341
36.22870	50729
36.23683	55944
36.24495	54810
36.25307	56377
36.26120	61598
36.26932	58573
36.27745	54089
36.28557	57565
36.29368	53022
36.30182	51916
36.30993	59456
36.31807	58461
36.32618	60152
36.33430	60407
36.34243	61495
36.35055	57449
36.35867	60372
36.36680	56540
36.37492	59671
36.38305	56747
36.39117	56777
36.39928	56468
36.40742	58218
36.41553	62263
36.42367	59991
36.43178	58433
36.43990	58158
36.44803	57068
36.45615	61111
36.46428	61163
36.47240	52368
36.48052	60484
36.48865	57051
36.49677	61714
36.50488	55418
36.51302	55624
36.52113	59057
36.52927	58227
36.53738	57683
36.54550	54074
36.55363	57565
36.56175	56519
36.56988	57409
36.57800	58893
36.58612	54906
36.59425	57551
36.60237	54263
36.61048	56029
36.61862	52913
36.62673	58522
36.63487	61743
36.64298	55491
36.65110	57025
36.65923	58452
36.66735	56364
36.67548	55601
36.68360	53331
36.69172	55902
36.69985	59015
36.70797	57803
36.71610	60951
36.72422	55885
36.73233	55226
36.74047	55663
36.74858	57483
36.75670	58381
36.76483	54358
36.77295	56301
36.78108	59404
36.78920	59094
36.79732	59849
36.80545	60125
36.81357	58422
36.82170	57132
36.82982	52739
36.83793	52729
36.84607	58445
36.85418	53270
36.86230	56817
36.87043	56082
36.87855	56025
36.88668	56626
36.89480	55982
36.90292	55712
36.91105	55766
36.91917	56244
36.92730	56934
36.93542	61143
36.94353	63051
36.95167	64162
36.95978	62189
36.96792	70229
36.97603	73960
36.98415	71345
36.99228	77013
37.00040	75611
37.00852	70344
37.01665	69633
37.02477	65909
37.03290	68398
37.04102	74502
37.04913	76410
37.05727	67929
37.06538	69371
37.07352	69603
37.08163	75004
37.08975	74086
37.09788	75060
37.10600	72509
37.11413	76285
37.12225	78509
37.13037	75951
37.13850	74338
37.14662	75756
37.15473	76579
37.16287	74282
37.17098	74612
37.17912	77468
37.18723	76260
37.19535	75587
37.20348	76095
37.21160	73943
37.21973	79248
37.22785	79165
37.23597	83087
37.24410	81981
37.25222	75415
37.26033	71476
37.26847	79616
37.27658	79091
37.28472	73485
37.29283	69863
37.30095	71863
37.30908	73988
37.31720	76979
37.32533	72715
37.33345	76249
37.34157	78968
37.34970	77745
37.35782	79049
37.36595	83447
37.37407	79795
37.38218	81206
37.39032	80841
37.39843	85192
37.40655	83283
37.41468	81611
37.42280	77780
37.43093	75016
37.43905	79297
37.44717	76251
37.45530	78458
37.46342	78329
37.47155	77437
37.47967	72883
37.48778	76590
