Z:\data\JTB-E02\BACandBLUE\JTB-E02-191-10.D Wed Dec 12 12:43:13 2018
Start of data points
2.09515	84097
2.10328	91613
2.11140	82136
2.11953	80883
2.12765	81991
2.13577	79675
2.14390	84294
2.15202	80396
2.16013	82095
2.16827	81545
2.17638	86958
2.18452	78010
2.19263	78857
2.20075	73448
2.20888	72493
2.21700	76628
2.22513	70504
2.23325	73660
2.24137	67802
2.24950	72543
2.25762	71716
2.26573	188686
2.27387	1011892
2.28198	1624054
2.29012	1427333
2.29823	787001
2.30635	447094
2.31448	312836
2.32260	270794
2.33073	234775
2.33885	211975
2.34697	195711
2.35510	180272
2.36322	168026
2.37135	155255
2.37947	150418
2.38758	143790
2.39572	133893
2.40383	134881
2.41195	127914
2.42008	125261
2.42820	131043
2.43633	126043
2.44445	118123
2.45257	117245
2.46070	117427
2.46882	119024
2.47695	111979
2.48507	105647
2.49318	110681
2.50132	111918
2.50943	109564
2.51757	107827
2.52568	103208
2.53380	109433
2.54193	102544
2.55005	102085
2.55817	104017
2.56630	105979
2.57442	101914
2.58255	102260
2.59067	101412
2.59878	95274
2.60692	97400
2.61503	104080
2.62317	108108
2.63128	106830
2.63940	104421
2.64753	92906
2.65565	100004
2.66377	96462
2.67190	96666
2.68002	96170
2.68815	96390
2.69627	94826
2.70438	94415
2.71252	92550
2.72063	95963
2.72877	93992
2.73688	85986
2.74500	92094
2.75313	88188
2.76125	91918
2.76938	87922
2.77750	88284
2.78562	89868
2.79375	91092
2.80187	84338
2.80998	96142
2.81812	92015
2.82623	92790
2.83437	88620
2.84248	84630
2.85060	85616
2.85873	85186
2.86685	88201
2.87498	88928
2.88310	85047
2.89122	86747
2.89935	88593
2.90747	89965
2.91558	86459
2.92372	86431
2.93183	85139
2.93997	86617
2.94808	84115
2.95620	81832
2.96433	82062
2.97245	87257
2.98058	81646
2.98870	84777
2.99682	87254
3.00495	82279
3.01307	87350
3.02120	88278
3.02932	84292
3.03743	84730
3.04557	81406
3.05368	81441
3.06180	80242
3.06993	77261
3.07805	84003
3.08618	82942
3.09430	85907
3.10242	84684
3.11055	91774
3.11867	96441
3.12680	96909
3.13492	92997
3.14303	86523
3.15117	84826
3.15928	83787
3.16742	83774
3.17553	80876
3.18365	86511
3.19178	82913
3.19990	81918
3.20802	80635
3.21615	84053
3.22427	84875
3.23240	83882
3.24052	83577
3.24863	77194
3.25677	84378
3.26488	84117
3.27302	79050
3.28113	86157
3.28925	124606
3.29738	368055
3.30550	996183
3.31363	1836305
3.32175	2193995
3.32987	1820546
3.33800	1211848
3.34612	811758
3.35423	605104
3.36237	472628
3.37048	393114
3.37862	347365
3.38673	310588
3.39485	281270
3.40298	269204
3.41110	260235
3.41923	232776
3.42735	226523
3.43547	213717
3.44360	200683
3.45172	197939
3.45983	185169
3.46797	175406
3.47608	180056
3.48422	176620
3.49233	172536
3.50045	168132
3.50858	169954
3.51670	161633
3.52483	158963
3.53295	157582
3.54107	155175
3.54920	148162
3.55732	143222
3.56545	150112
3.57357	146410
3.58168	148647
3.58982	146270
3.59793	139406
3.60605	145529
3.61418	141775
3.62230	142157
3.63043	140257
3.63855	147242
3.64667	137519
3.65480	139576
3.66292	134235
3.67105	129101
3.67917	140316
3.68728	153127
3.69542	153990
3.70353	157244
3.71165	149536
3.71978	147270
3.72790	140629
3.73603	139529
3.74415	138367
3.75227	138401
3.76040	141381
3.76852	147698
3.77665	147423
3.78477	143634
3.79288	144569
3.80102	139866
3.80913	143845
3.81727	143167
3.82538	142312
3.83350	143413
3.84163	136501
3.84975	137403
3.85787	137304
3.86600	134570
3.87412	130399
3.88225	135525
3.89037	134394
3.89848	137396
3.90662	135238
3.91473	131481
3.92287	137214
3.93098	132094
3.93910	132649
3.94723	133699
3.95535	133135
3.96348	125816
3.97160	131988
3.97972	130349
3.98785	133520
3.99597	128236
4.00408	132281
4.01222	125697
4.02033	129907
4.02847	124784
4.03658	131716
4.04470	131688
4.05283	128905
4.06095	130711
4.06908	129969
4.07720	129920
4.08532	126078
4.09345	123865
4.10157	127633
4.10968	130874
4.11782	125578
4.12593	125315
4.13407	120623
4.14218	132532
4.15030	143883
4.15843	156624
4.16655	157654
4.17468	141761
4.18280	135362
4.19092	132820
4.19905	130685
4.20717	127429
4.21530	128540
4.22342	149019
4.23153	195918
4.23967	249909
4.24778	246030
4.25590	213726
4.26403	192082
4.27215	162576
4.28028	152821
4.28840	150044
4.29652	143738
4.30465	142370
4.31277	130361
4.32090	135465
4.32902	144762
4.33713	142172
4.34527	137777
4.35338	138105
4.36152	130210
4.36963	130681
4.37775	139461
4.38588	125989
4.39400	125680
4.40212	129916
4.41025	123521
4.41837	123743
4.42650	117747
4.43462	128522
4.44273	123282
4.45087	123427
4.45898	128862
4.46712	125333
4.47523	119241
4.48335	123063
4.49148	128498
4.49960	126818
4.50772	129848
4.51585	124127
4.52397	130437
4.53210	121320
4.54022	121434
4.54833	114248
4.55647	122655
4.56458	121895
4.57272	118379
4.58083	118800
4.58895	117592
4.59708	116998
4.60520	119073
4.61333	123785
4.62145	118292
4.62957	119126
4.63770	118939
4.64582	114728
4.65393	122328
4.66207	114904
4.67018	117778
4.67832	117748
4.68643	123153
4.69455	125511
4.70268	117551
4.71080	114318
4.71893	116880
4.72705	116799
4.73517	119658
4.74330	112595
4.75142	114614
4.75953	117371
4.76767	115375
4.77578	119690
4.78392	119357
4.79203	125139
4.80015	117841
4.80828	115441
4.81640	118774
4.82453	116883
4.83265	112690
4.84077	111132
4.84890	123213
4.85702	113516
4.86515	116718
4.87327	116627
4.88138	114517
4.88952	145161
4.89763	117489
4.90575	117453
4.91388	120053
4.92200	115912
4.93013	118307
4.93825	127505
4.94637	192355
4.95450	359268
4.96262	663045
4.97075	983856
4.97887	1100923
4.98698	983413
4.99512	739092
5.00323	536065
5.01137	420811
5.01948	348010
5.02760	294346
5.03573	266102
5.04385	250056
5.05197	240185
5.06010	216146
5.06822	213453
5.07635	213971
5.08447	204221
5.09258	200717
5.10072	188423
5.10883	196620
5.11697	194063
5.12508	189059
5.13320	187057
5.14133	180765
5.14945	174015
5.15757	175790
5.16570	177954
5.17382	185352
5.18195	176498
5.19007	177865
5.19818	186032
5.20632	184989
5.21443	178885
5.22257	173307
5.23068	166873
5.23880	184399
5.24693	194111
5.25505	187075
5.26318	193383
5.27130	171795
5.27942	160225
5.28755	155808
5.29567	160851
5.30378	148991
5.31192	154472
5.32003	151172
5.32817	164390
5.33628	158245
5.34440	156934
5.35253	153237
5.36065	148753
5.36878	146182
5.37690	150835
5.38502	152054
5.39315	151211
5.40127	152686
5.40940	147866
5.41752	139935
5.42563	144191
5.43377	144916
5.44188	142865
5.45000	140509
5.45813	143065
5.46625	134587
5.47438	141326
5.48250	137112
5.49062	138782
5.49875	151352
5.50687	144173
5.51500	145443
5.52312	140623
5.53123	145576
5.53937	145564
5.54748	143712
5.55560	140916
5.56373	139262
5.57185	140118
5.57998	149320
5.58810	147412
5.59622	141341
5.60435	140452
5.61247	140837
5.62060	138091
5.62872	147629
5.63683	157516
5.64497	159690
5.65308	159760
5.66122	147390
5.66933	149876
5.67745	152548
5.68558	147305
5.69370	142783
5.70182	143312
5.70995	142472
5.71807	146901
5.72620	142968
5.73432	134097
5.74243	138898
5.75057	136011
5.75868	139725
5.76682	139838
5.77493	135031
5.78305	130895
5.79118	142875
5.79930	132129
5.80743	135592
5.81555	137379
5.82367	136751
5.83180	130694
5.83992	127772
5.84803	138452
5.85617	138690
5.86428	131114
5.87242	139456
5.88053	131601
5.88865	133104
5.89678	128701
5.90490	125896
5.91303	125950
5.92115	111058
5.92927	109259
5.93740	98989
5.94552	104621
5.95363	107655
5.96177	109905
5.96988	110738
5.97802	116985
5.98613	128677
5.99425	129340
6.00238	131475
6.01050	121501
6.01863	121078
6.02675	105059
6.03487	109670
6.04300	103855
6.05112	109097
6.05925	108415
6.06737	101226
6.07548	105695
6.08362	102776
6.09173	110586
6.09985	109373
6.10798	103362
6.11610	108181
6.12423	100695
6.13235	101107
6.14047	101780
6.14860	99065
6.15672	107334
6.16485	114288
6.17297	114517
6.18108	119125
6.18922	123223
6.19733	124588
6.20545	120234
6.21358	119036
6.22170	119416
6.22983	119651
6.23795	119426
6.24607	129340
6.25420	134265
6.26232	132845
6.27045	136880
6.27857	141604
6.28668	144518
6.29482	143216
6.30293	121893
6.31107	112371
6.31918	111419
6.32730	109146
6.33543	104835
6.34355	108108
6.35167	107444
6.35980	101289
6.36792	102867
6.37605	106550
6.38417	107394
6.39228	106443
6.40042	105675
6.40853	106943
6.41667	101915
6.42478	110305
6.43290	98118
6.44103	98799
6.44915	106978
6.45728	99282
6.46540	94375
6.47352	99418
6.48165	100468
6.48977	95323
6.49788	104981
6.50602	103509
6.51413	110800
6.52227	100152
6.53038	99008
6.53850	100444
6.54663	96470
6.55475	96110
6.56288	89512
6.57100	94177
6.57912	92760
6.58725	92866
6.59537	98397
6.60348	99402
6.61162	90894
6.61973	91940
6.62787	91466
6.63598	90244
6.64410	100627
6.65223	94058
6.66035	93402
6.66848	91388
6.67660	95999
6.68472	91946
6.69285	92279
6.70097	90432
6.70910	93444
6.71722	98805
6.72533	91886
6.73347	91874
6.74158	90516
6.74970	85966
6.75783	88170
6.76595	92122
6.77408	89710
6.78220	87262
6.79032	94726
6.79845	95831
6.80657	89103
6.81470	91221
6.82282	101223
6.83093	99126
6.83907	86991
6.84718	92543
6.85532	86199
6.86343	80121
6.87155	76457
6.87968	67775
6.88780	70080
6.89592	67909
6.90405	70165
6.91217	74293
6.92030	72019
6.92842	70211
6.93653	68808
6.94467	68452
6.95278	64219
6.96092	65181
6.96903	65429
6.97715	65348
6.98528	63475
6.99340	66653
7.00152	61932
7.00965	63990
7.01777	62245
7.02590	60353
7.03402	61627
7.04213	62007
7.05027	69183
7.05838	64262
7.06652	59655
7.07463	64695
7.08275	67904
7.09088	65562
7.09900	63334
7.10713	63112
7.11525	62897
7.12337	67935
7.13150	65492
7.13962	72229
7.14773	67748
7.15587	71366
7.16398	64783
7.17212	66015
7.18023	65256
7.18835	65880
7.19648	65986
7.20460	66379
7.21273	65121
7.22085	67622
7.22897	66235
7.23710	64286
7.24522	62433
7.25333	60432
7.26147	68687
7.26958	61138
7.27772	63029
7.28583	67732
7.29395	71188
7.30208	73335
7.31020	75547
7.31833	78764
7.32645	79479
7.33457	70762
7.34270	73759
7.35082	64962
7.35895	69968
7.36707	67838
7.37518	66917
7.38332	64892
7.39143	67495
7.39955	67918
7.40768	65242
7.41580	63314
7.42393	65001
7.43205	62642
7.44017	63081
7.44830	61774
7.45642	62369
7.46455	64135
7.47267	64579
7.48078	66181
7.48892	62313
7.49703	62962
7.50517	64549
7.51328	63502
7.52140	65500
7.52953	66178
7.53765	61170
7.54577	67331
7.55390	60026
7.56202	61755
7.57015	60850
7.57827	61930
7.58638	61834
7.59452	62779
7.60263	59661
7.61077	64596
7.61888	64386
7.62700	63252
7.63513	66681
7.64325	62429
7.65137	67640
7.65950	63902
7.66762	67681
7.67575	66641
7.68387	60730
7.69198	61806
7.70012	60271
7.70823	62266
7.71637	57405
7.72448	56094
7.73260	58016
7.74073	60950
7.74885	60310
7.75698	58386
7.76510	59862
7.77322	60215
7.78135	60826
7.78947	51775
7.79758	57762
7.80572	56334
7.81383	56650
7.82197	54085
7.83008	55592
7.83820	55653
7.84633	54297
7.85445	56629
7.86258	62431
7.87070	58118
7.87882	57528
7.88695	55209
7.89507	55610
7.90320	55011
7.91132	57197
7.91943	53540
7.92757	50610
7.93568	53986
7.94380	50863
7.95193	53118
7.96005	54641
7.96818	57995
7.97630	51783
7.98442	49037
7.99255	50871
8.00067	56088
8.00880	59613
8.01692	62047
8.02503	63623
8.03317	57344
8.04128	57348
8.04940	51460
8.05753	51950
8.06565	56127
8.07378	50836
8.08190	54014
8.09002	53974
8.09815	47581
8.10627	51998
8.11440	50914
8.12252	53799
8.13063	51852
8.13877	53134
8.14688	54698
8.15502	58979
8.16313	56751
8.17125	56239
8.17938	53735
8.18750	54682
8.19562	54828
8.20375	58577
8.21187	55599
8.22000	59116
8.22812	58405
8.23623	57478
8.24437	52473
8.25248	53750
8.26062	50339
8.26873	56759
8.27685	50960
8.28498	51570
8.29310	53075
8.30122	54332
8.30935	50319
8.31747	57389
8.32560	55721
8.33372	54268
8.34183	57161
8.34997	47576
8.35808	53400
8.36622	58383
8.37433	62374
8.38245	68129
8.39058	68466
8.39870	66401
8.40683	57094
8.41495	56475
8.42307	51992
8.43120	48024
8.43932	51007
8.44743	47383
8.45557	47506
8.46368	51006
8.47182	49695
8.47993	47005
8.48805	48190
8.49618	51957
8.50430	53212
8.51243	52027
8.52055	52636
8.52867	49912
8.53680	52735
8.54492	52517
8.55305	50335
8.56117	50165
8.56928	48471
8.57742	49671
8.58553	48358
8.59365	48800
8.60178	49385
8.60990	56196
8.61803	50363
8.62615	52235
8.63427	52902
8.64240	51493
8.65052	48213
8.65865	52777
8.66677	48580
8.67488	44620
8.68302	42019
8.69113	49088
8.69927	52431
8.70738	42077
8.71550	48137
8.72363	50808
8.73175	46887
8.73987	48680
8.74800	46673
8.75612	47567
8.76425	45306
8.77237	56217
8.78048	64103
8.78862	98770
8.79673	182745
8.80487	337388
8.81298	525038
8.82110	654589
8.82923	655029
8.83735	527294
8.84547	390485
8.85360	270549
8.86172	205782
8.86985	165871
8.87797	152221
8.88608	135778
8.89422	126035
8.90233	114049
8.91047	106000
8.91858	108300
8.92670	109444
8.93483	99999
8.94295	97859
8.95108	91967
8.95920	94376
8.96732	91326
8.97545	93062
8.98357	84276
8.99168	83136
8.99982	93250
9.00793	88060
9.01607	86546
9.02418	86880
9.03230	89246
9.04043	90812
9.04855	90901
9.05668	81747
9.06480	84998
9.07292	80013
9.08105	80319
9.08917	77762
9.09728	82578
9.10542	80118
9.11353	76410
9.12167	82731
9.12978	74805
9.13790	85209
9.14603	83263
9.15415	81464
9.16228	78682
9.17040	81132
9.17852	80367
9.18665	80383
9.19477	74409
9.20290	74162
9.21102	72838
9.21913	71366
9.22727	69568
9.23538	79449
9.24350	78043
9.25163	76518
9.25975	75794
9.26788	74984
9.27600	77123
9.28412	73368
9.29225	71394
9.30037	76885
9.30850	70924
9.31662	78846
9.32473	68369
9.33287	74266
9.34098	72826
9.34912	72466
9.35723	71990
9.36535	69469
9.37348	67160
9.38160	67124
9.38972	77877
9.39785	67223
9.40597	64994
9.41410	65708
9.42222	69532
9.43033	67817
9.43847	69205
9.44658	67715
9.45472	62478
9.46283	62431
9.47095	69704
9.47908	67889
9.48720	64084
9.49532	66963
9.50345	61810
9.51157	65961
9.51970	71983
9.52782	70696
9.53593	70367
9.54407	65817
9.55218	68999
9.56032	70111
9.56843	70816
9.57655	64253
9.58468	57501
9.59280	57062
9.60093	58109
9.60905	52201
9.61717	51863
9.62530	51395
9.63342	55253
9.64153	50846
9.64967	48917
9.65778	49898
9.66592	52306
9.67403	44653
9.68215	46938
9.69028	46868
9.69840	44993
9.70653	45513
9.71465	44568
9.72277	50582
9.73090	44613
9.73902	55291
9.74715	45355
9.75527	46435
9.76338	42682
9.77152	46033
9.77963	45773
9.78775	48416
9.79588	52483
9.80400	49545
9.81213	51011
9.82025	46021
9.82837	44840
9.83650	47332
9.84462	46854
9.85275	49437
9.86087	49939
9.86898	47788
9.87712	47829
9.88523	41504
9.89335	44528
9.90148	47217
9.90960	48008
9.91773	45221
9.92585	45126
9.93397	47057
9.94210	47107
9.95022	52035
9.95835	48116
9.96647	42777
9.97458	43794
9.98272	43449
9.99083	51393
9.99897	57677
10.00708	65173
10.01520	76236
10.02333	89051
10.03145	97575
10.03957	89918
10.04770	84839
10.05582	79184
10.06395	74703
10.07207	69118
10.08018	61345
10.08832	62074
10.09643	60114
10.10457	58219
10.11268	54549
10.12080	54290
10.12893	54051
10.13705	52059
10.14517	49030
10.15330	51936
10.16142	54628
10.16955	48702
10.17767	53098
10.18578	47929
10.19392	50575
10.20203	51268
10.21017	53638
10.21828	53156
10.22640	51623
10.23453	51718
10.24265	54590
10.25078	55719
10.25890	58388
10.26702	56468
10.27515	55254
10.28327	58756
10.29138	61356
10.29952	64129
10.30763	68203
10.31577	78986
10.32388	83907
10.33200	80123
10.34013	80736
10.34825	81225
10.35638	75720
10.36450	69508
10.37262	65333
10.38075	66054
10.38887	66276
10.39700	68588
10.40512	68097
10.41323	66539
10.42137	66845
10.42948	63610
10.43760	56020
10.44573	57163
10.45385	62006
10.46198	62745
10.47010	57984
10.47822	57395
10.48635	58577
10.49447	60901
10.50260	59472
10.51072	56006
10.51883	58590
10.52697	57510
10.53508	56493
10.54320	60363
10.55133	59790
10.55945	62987
10.56758	60842
10.57570	66450
10.58382	62566
10.59195	65569
10.60007	66957
10.60820	64759
10.61632	60611
10.62443	64129
10.63257	64773
10.64068	69145
10.64882	68481
10.65693	64408
10.66505	69078
10.67318	64520
10.68130	60623
10.68942	58020
10.69755	65473
10.70567	66681
10.71380	68292
10.72192	67223
10.73003	70509
10.73817	69465
10.74628	66829
10.75442	71350
10.76253	66688
10.77065	69763
10.77878	71590
10.78690	70866
10.79503	70825
10.80315	75188
10.81127	72735
10.81940	65639
10.82752	66941
10.83563	61492
10.84377	67171
10.85188	60184
10.86002	60815
10.86813	60554
10.87625	64072
10.88438	58972
10.89250	61768
10.90063	60604
10.90875	64242
10.91687	60177
10.92500	57398
10.93312	60454
10.94123	62067
10.94937	54916
10.95748	63206
10.96562	60740
10.97373	65012
10.98185	61196
10.98998	60250
10.99810	57463
11.00623	58249
11.01435	60929
11.02247	58311
11.03060	52777
11.03872	55750
11.04685	57106
11.05497	54315
11.06308	52560
11.07122	54276
11.07933	52068
11.08745	54991
11.09558	48738
11.10370	50824
11.11183	51053
11.11995	54016
11.12807	50563
11.13620	49738
11.14432	46980
11.15245	49582
11.16057	48615
11.16868	45614
11.17682	49872
11.18493	48283
11.19307	53515
11.20118	45683
11.20930	48953
11.21743	46982
11.22555	49465
11.23367	46773
11.24180	48802
11.24992	45863
11.25805	51616
11.26617	48390
11.27428	47112
11.28242	44650
11.29053	45382
11.29867	42768
11.30678	43011
11.31490	48182
11.32303	44878
11.33115	45485
11.33927	46924
11.34740	47413
11.35552	48242
11.36365	50613
11.37177	49575
11.37988	49203
11.38802	55419
11.39613	49757
11.40427	45885
11.41238	43558
11.42050	49470
11.42863	47043
11.43675	46242
11.44488	45868
11.45300	49239
11.46112	44927
11.46925	46518
11.47737	47698
11.48548	43230
11.49362	44797
11.50173	41934
11.50987	39883
11.51798	41813
11.52610	48066
11.53423	47548
11.54235	41077
11.55048	44448
11.55860	46271
11.56672	43947
11.57485	43296
11.58297	41853
11.59108	40926
11.59922	42141
11.60733	42895
11.61547	43572
11.62358	41850
11.63170	43765
11.63983	46587
11.64795	42295
11.65608	41249
11.66420	43140
11.67232	46263
11.68045	44341
11.68857	43074
11.69670	41662
11.70482	43129
11.71293	46399
11.72107	49294
11.72918	51413
11.73730	53068
11.74543	47176
11.75355	47859
11.76168	51689
11.76980	50692
11.77792	44350
11.78605	44330
11.79417	44904
11.80230	45153
11.81042	44231
11.81853	45869
11.82667	44862
11.83478	47957
11.84292	44260
11.85103	45569
11.85915	39237
11.86728	45377
11.87540	46406
11.88352	48207
11.89165	44987
11.89977	47478
11.90790	41356
11.91602	41509
11.92413	44439
11.93227	45845
11.94038	41767
11.94852	41968
11.95663	41908
11.96475	43125
11.97288	43925
11.98100	41763
11.98912	41493
11.99725	42319
12.00537	42129
12.01350	47292
12.02162	40424
12.02973	42496
12.03787	45413
12.04598	40687
12.05412	44027
12.06223	40439
12.07035	39242
12.07848	41138
12.08660	40495
12.09473	43051
12.10285	40864
12.11097	38608
12.11910	40693
12.12722	44668
12.13533	40001
12.14347	46291
12.15158	43633
12.15972	52936
12.16783	53159
12.17595	59776
12.18408	61634
12.19220	62167
12.20033	58084
12.20845	55035
12.21657	57294
12.22470	55148
12.23282	58524
12.24095	61241
12.24907	56039
12.25718	52403
12.26532	59815
12.27343	56217
12.28155	52432
12.28968	53710
12.29780	55536
12.30593	57327
12.31405	50066
12.32217	52385
12.33030	55149
12.33842	50827
12.34655	54089
12.35467	56248
12.36278	50507
12.37092	50746
12.37903	56323
12.38715	48593
12.39528	54868
12.40340	44609
12.41153	51851
12.41965	60800
12.42777	53698
12.43590	46920
12.44402	52578
12.45215	56572
12.46027	51896
12.46838	56274
12.47652	57708
12.48463	62415
12.49277	58794
12.50088	60449
12.50900	55570
12.51713	52827
12.52525	49441
12.53337	45081
12.54150	52414
12.54962	52262
12.55775	51295
12.56587	51074
12.57398	47026
12.58212	48916
12.59023	48005
12.59837	48476
12.60648	53398
12.61460	51197
12.62273	50799
12.63085	51866
12.63897	46406
12.64710	45885
12.65522	52440
12.66335	48418
12.67147	46485
12.67958	47433
12.68772	48688
12.69583	47741
12.70397	51559
12.71208	47391
12.72020	45400
12.72833	45823
12.73645	44816
12.74458	48520
12.75270	54235
12.76082	52958
12.76895	50844
12.77707	50738
12.78518	50489
12.79332	47723
12.80143	47552
12.80957	46268
12.81768	46713
12.82580	43494
12.83393	45409
12.84205	39002
12.85018	41662
12.85830	38609
12.86642	38893
12.87455	39577
12.88267	37496
12.89080	40706
12.89892	40636
12.90703	41248
12.91517	38077
12.92328	41683
12.93140	41846
12.93953	38429
12.94765	37510
12.95578	38374
12.96390	37992
12.97202	42097
12.98015	39847
12.98827	39412
12.99640	39365
13.00452	38672
13.01263	38087
13.02077	38360
13.02888	39795
13.03700	36868
13.04513	36091
13.05325	39469
13.06138	37198
13.06950	42458
13.07762	38196
13.08575	37657
13.09387	39874
13.10200	39720
13.11012	39779
13.11823	35983
13.12637	39449
13.13448	44191
13.14262	39864
13.15073	43492
13.15885	38180
13.16698	39480
13.17510	33146
13.18322	39562
13.19135	37570
13.19947	39305
13.20760	41269
13.21572	40810
13.22383	45985
13.23197	36803
13.24008	41453
13.24822	38690
13.25633	42546
13.26445	35606
13.27258	37943
13.28070	35350
13.28883	38375
13.29695	43554
13.30507	36118
13.31320	39644
13.32132	35184
13.32943	36261
13.33757	41384
13.34568	42472
13.35382	40238
13.36193	36901
13.37005	37613
13.37818	41254
13.38630	37907
13.39443	37801
13.40255	39190
13.41067	38569
13.41880	39684
13.42692	39842
13.43503	37497
13.44317	37393
13.45128	39761
13.45942	43344
13.46753	38202
13.47565	37422
13.48378	34747
13.49190	35921
13.50003	38086
13.50815	35124
13.51627	36162
13.52440	36686
13.53252	35643
13.54065	37819
13.54877	41453
13.55688	36291
13.56502	39578
13.57313	36649
13.58125	35820
13.58938	35110
13.59750	38174
13.60563	32751
13.61375	41680
13.62187	35102
13.63000	34202
13.63812	36798
13.64625	33756
13.65437	36838
13.66248	34983
13.67062	40265
13.67873	37924
13.68685	38105
13.69498	34350
13.70310	35022
13.71123	32434
13.71935	37427
13.72747	34266
13.73560	39711
13.74372	37715
13.75185	33670
13.75997	33143
13.76808	36501
13.77622	36461
13.78433	33272
13.79247	33734
13.80058	40097
13.80870	37672
13.81683	38084
13.82495	41217
13.83307	38862
13.84120	37081
13.84932	36859
13.85745	42211
13.86557	39650
13.87368	41214
13.88182	40353
13.88993	41291
13.89807	39032
13.90618	36846
13.91430	43715
13.92243	36841
13.93055	38248
13.93868	38641
13.94680	39844
13.95492	39333
13.96305	40293
13.97117	36917
13.97928	37613
13.98742	40312
13.99553	42482
14.00367	36425
14.01178	37429
14.01990	36488
14.02803	37908
14.03615	35605
14.04428	44815
14.05240	40045
14.06052	36625
14.06865	38208
14.07677	41016
14.08490	37042
14.09302	37631
14.10113	39156
14.10927	35223
14.11738	39927
14.12550	37781
14.13363	39026
14.14175	37219
14.14988	35488
14.15800	40675
14.16612	35681
14.17425	41205
14.18237	41183
14.19050	44095
14.19862	43725
14.20673	48867
14.21487	50841
14.22298	70355
14.23110	78735
14.23923	88791
14.24735	90847
14.25548	90737
14.26360	83963
14.27172	86793
14.27985	81753
14.28797	75734
14.29610	72041
14.30422	73033
14.31233	71835
14.32047	68728
14.32858	68322
14.33672	61287
14.34483	61204
14.35295	65314
14.36108	61662
14.36920	61603
14.37732	53782
14.38545	50630
14.39357	42544
14.40170	45126
14.40982	45534
14.41793	41414
14.42607	41130
14.43418	44503
14.44232	39265
14.45043	40859
14.45855	43417
14.46668	43523
14.47480	41267
14.48292	40859
14.49105	45694
14.49917	38517
14.50730	39470
14.51542	42452
14.52353	38421
14.53167	37102
14.53978	44357
14.54792	40885
14.55603	40012
14.56415	44431
14.57228	45192
14.58040	43046
14.58853	41240
14.59665	47750
14.60477	42407
14.61290	37225
14.62102	38926
14.62913	36382
14.63727	33303
14.64538	37120
14.65352	38920
14.66163	40127
14.66975	37734
14.67788	34676
14.68600	35920
14.69413	37858
14.70225	34201
14.71037	38000
14.71850	39228
14.72662	41013
14.73475	41067
14.74287	36171
14.75098	39127
14.75912	37973
14.76723	35339
14.77535	39653
14.78348	36615
14.79160	34957
14.79973	36880
14.80785	36933
14.81597	45641
14.82410	55696
14.83222	73098
14.84035	98309
14.84847	122802
14.85658	148401
14.86472	164435
14.87283	173671
14.88095	170842
14.88908	166788
14.89720	170540
14.90533	165330
14.91345	159214
14.92157	156075
14.92970	151350
14.93782	150281
14.94595	151041
14.95407	147849
14.96218	135296
14.97032	136906
14.97843	130376
14.98657	132113
14.99468	132472
15.00280	132678
15.01093	132918
15.01905	130670
15.02717	119080
15.03530	115178
15.04342	117576
15.05155	118794
15.05967	115315
15.06778	117413
15.07592	109475
15.08403	105960
15.09217	110614
15.10028	103734
15.10840	104005
15.11653	96196
15.12465	101245
15.13278	101654
15.14090	98511
15.14902	94283
15.15715	89722
15.16527	79757
15.17338	78149
15.18152	64583
15.18963	56666
15.19777	63423
15.20588	57192
15.21400	51295
15.22213	51365
15.23025	54417
15.23838	46870
15.24650	53679
15.25462	51881
15.26275	45669
15.27087	46028
15.27898	50416
15.28712	51688
15.29523	45235
15.30337	46754
15.31148	47867
15.31960	42820
15.32773	46150
15.33585	44843
15.34398	40904
15.35210	45202
15.36022	44433
15.36835	43521
15.37647	44015
15.38460	43298
15.39272	45995
15.40083	46232
15.40897	40890
15.41708	42902
15.42520	45184
15.43333	45718
15.44145	43762
15.44958	43650
15.45770	43415
15.46582	42515
15.47395	45882
15.48207	45326
15.49020	43038
15.49832	40673
15.50643	46071
15.51457	45112
15.52268	41377
15.53080	38783
15.53893	36444
15.54705	41655
15.55518	39422
15.56330	37035
15.57142	36523
15.57955	38825
15.58767	36810
15.59580	37094
15.60392	38430
15.61203	36663
15.62017	37366
15.62828	34344
15.63642	37372
15.64453	38817
15.65265	35443
15.66078	38633
15.66890	39822
15.67702	36456
15.68515	39019
15.69327	37853
15.70140	36151
15.70952	38220
15.71763	38148
15.72577	37261
15.73388	37861
15.74202	35674
15.75013	40517
15.75825	41108
15.76638	32620
15.77450	36568
15.78263	39751
15.79075	39267
15.79887	40983
15.80700	46263
15.81512	44618
15.82323	47861
15.83137	45412
15.83948	48489
15.84762	47710
15.85573	47700
15.86385	45695
15.87198	47438
15.88010	46826
15.88823	44058
15.89635	45686
15.90447	46894
15.91260	44843
15.92072	42910
15.92883	46773
15.93697	46187
15.94508	46323
15.95322	43058
15.96133	45365
15.96945	41600
15.97758	42610
15.98570	44106
15.99383	40294
16.00195	44691
16.01007	42339
16.01820	47250
16.02632	44916
16.03445	41747
16.04257	44803
16.05068	48593
16.05882	44117
16.06693	43882
16.07505	48851
16.08318	44160
16.09130	43329
16.09943	42730
16.10755	40744
16.11567	40385
16.12380	40745
16.13192	39538
16.14005	39660
16.14817	37607
16.15628	47201
16.16442	40309
16.17253	40750
16.18067	38508
16.18878	39526
16.19690	40937
16.20503	42242
16.21315	35142
16.22127	38395
16.22940	36496
16.23752	38701
16.24565	38215
16.25377	45120
16.26188	38840
16.27002	38509
16.27813	38592
16.28627	42226
16.29438	38222
16.30250	39803
16.31063	36091
16.31875	41371
16.32687	40630
16.33500	42832
16.34312	45672
16.35125	47173
16.35937	41689
16.36748	44570
16.37562	47074
16.38373	51020
16.39187	43306
16.39998	38638
16.40810	40025
16.41623	38391
16.42435	37681
16.43248	42651
16.44060	39473
16.44872	36976
16.45685	37815
16.46497	35689
16.47308	38887
16.48122	45830
16.48933	51466
16.49747	58951
16.50558	70443
16.51370	67763
16.52183	68513
16.52995	74311
16.53808	72075
16.54620	65811
16.55432	62467
16.56245	61991
16.57057	68436
16.57870	65132
16.58682	66399
16.59493	62917
16.60307	57976
16.61118	60345
16.61930	57382
16.62743	54151
16.63555	59023
16.64368	60584
16.65180	54036
16.65992	54018
16.66805	55370
16.67617	54477
16.68430	52106
16.69242	57962
16.70053	58070
16.70867	52236
16.71678	48635
16.72490	44663
16.73303	43893
16.74115	39398
16.74928	43384
16.75740	43270
16.76552	39014
16.77365	41023
16.78177	42125
16.78990	38072
16.79802	37284
16.80613	38026
16.81427	39091
16.82238	44822
16.83052	39648
16.83863	40919
16.84675	39461
16.85488	39264
16.86300	38111
16.87112	41551
16.87925	39097
16.88737	40620
16.89550	37808
16.90362	41483
16.91173	36174
16.91987	35475
16.92798	40486
16.93612	38378
16.94423	36070
16.95235	37377
16.96048	36896
16.96860	37606
16.97672	35500
16.98485	36042
16.99297	39154
17.00110	37554
17.00922	36464
17.01733	38409
17.02547	34044
17.03358	38007
17.04172	37210
17.04983	35610
17.05795	38934
17.06608	35529
17.07420	35902
17.08233	35935
17.09045	43863
17.09857	36190
17.10670	36299
17.11482	41960
17.12293	38762
17.13107	37122
17.13918	40614
17.14732	39563
17.15543	38721
17.16355	39220
17.17168	37032
17.17980	34782
17.18793	37648
17.19605	38842
17.20417	38172
17.21230	32406
17.22042	39937
17.22855	39102
17.23667	37331
17.24478	37380
17.25292	34045
17.26103	36079
17.26915	38808
17.27728	39074
17.28540	38295
17.29353	37543
17.30165	40719
17.30977	38139
17.31790	36142
17.32602	34363
17.33415	39029
17.34227	37460
17.35038	44081
17.35852	49604
17.36663	49153
17.37475	56037
17.38288	60205
17.39100	67098
17.39913	69211
17.40725	68853
17.41537	64360
17.42350	60910
17.43162	62851
17.43975	62127
17.44787	63693
17.45598	64784
17.46412	58510
17.47223	57115
17.48037	61106
17.48848	58414
17.49660	56130
17.50473	57781
17.51285	53617
17.52097	59546
17.52910	60679
17.53722	58219
17.54535	55261
17.55347	58673
17.56158	51223
17.56972	56012
17.57783	59675
17.58597	49949
17.59408	57030
17.60220	51381
17.61033	49586
17.61845	54313
17.62658	50073
17.63470	54728
17.64282	46396
17.65095	49369
17.65907	46608
17.66718	47979
17.67532	49572
17.68343	47051
17.69157	50407
17.69968	50509
17.70780	47252
17.71593	51671
17.72405	46836
17.73218	45615
17.74030	42828
17.74842	45756
17.75655	50501
17.76467	46565
17.77278	45267
17.78092	49554
17.78903	44064
17.79717	39502
17.80528	42320
17.81340	43582
17.82153	42681
17.82965	40238
17.83778	40452
17.84590	42079
17.85402	41252
17.86215	41733
17.87027	43867
17.87840	42852
17.88652	41011
17.89463	39748
17.90277	40861
17.91088	40869
17.91900	42583
17.92713	42876
17.93525	38569
17.94338	39143
17.95150	36214
17.95962	37389
17.96775	36336
17.97587	38773
17.98400	39231
17.99212	38651
18.00023	37045
18.00837	35713
18.01648	37078
18.02460	38629
18.03273	36750
18.04085	37720
18.04898	43710
18.05710	41295
18.06522	43793
18.07335	45779
18.08147	55830
18.08960	77836
18.09772	123255
18.10583	177661
18.11397	247411
18.12208	299607
18.13022	324570
18.13833	329061
18.14645	328660
18.15458	324286
18.16270	311598
18.17082	292670
18.17895	290862
18.18707	267195
18.19520	274809
18.20332	244776
18.21143	238359
18.21957	234830
18.22768	230088
18.23582	216622
18.24393	206294
18.25205	197242
18.26018	189411
18.26830	189245
18.27643	173875
18.28455	156811
18.29267	144614
18.30080	112650
18.30892	96710
18.31703	82125
18.32517	74214
18.33328	67597
18.34142	61832
18.34953	62589
18.35765	57013
18.36578	59914
18.37390	57849
18.38203	59335
18.39015	53799
18.39827	55702
18.40640	54773
18.41452	52372
18.42265	52757
18.43077	54054
18.43888	49734
18.44702	49698
18.45513	51747
18.46325	51703
18.47138	52628
18.47950	56436
18.48763	55481
18.49575	54634
18.50387	53224
18.51200	53148
18.52012	44119
18.52825	41191
18.53637	42858
18.54448	45322
18.55262	42932
18.56073	41017
18.56885	46912
18.57698	37918
18.58510	42392
18.59323	37914
18.60135	38099
18.60947	41125
18.61760	42753
18.62572	41482
18.63385	40033
18.64197	40143
18.65008	38023
18.65822	33244
18.66633	36633
18.67447	38532
18.68258	34255
18.69070	38166
18.69883	37562
18.70695	39343
18.71507	41666
18.72320	40243
18.73132	36486
18.73945	38064
18.74757	39355
18.75568	35112
18.76382	35083
18.77193	41676
18.78007	41060
18.78818	40356
18.79630	41236
18.80443	39268
18.81255	37498
18.82067	41821
18.82880	34558
18.83692	37467
18.84505	37163
18.85317	38414
18.86128	38246
18.86942	41563
18.87753	39108
18.88567	37977
18.89378	38850
18.90190	41512
18.91003	39477
18.91815	40632
18.92628	39792
18.93440	39823
18.94252	38119
18.95065	41110
18.95877	36670
18.96688	35742
18.97502	41644
18.98313	39417
18.99127	38615
18.99938	36574
19.00750	39266
19.01563	35436
19.02375	36516
19.03188	38067
19.04000	36542
19.04812	40475
19.05625	40057
19.06437	34992
19.07250	35414
19.08062	36065
19.08873	38613
19.09687	40307
19.10498	38280
19.11310	42784
19.12123	41295
19.12935	43824
19.13748	40801
19.14560	44040
19.15372	42164
19.16185	43363
19.16997	41260
19.17810	33823
19.18622	42796
19.19433	37942
19.20247	43086
19.21058	40648
19.21870	38160
19.22683	38775
19.23495	37133
19.24308	39172
19.25120	38207
19.25932	39230
19.26745	37806
19.27557	37747
19.28370	38194
19.29182	39081
19.29993	40889
19.30807	42319
19.31618	41391
19.32432	42830
19.33243	44265
19.34055	41782
19.34868	40450
19.35680	42049
19.36492	41637
19.37305	47305
19.38117	48545
19.38930	45476
19.39742	52312
19.40553	53017
19.41367	52266
19.42178	53515
19.42992	56946
19.43803	53190
19.44615	55171
19.45428	60972
19.46240	47045
19.47053	52844
19.47865	51781
19.48677	50130
19.49490	48593
19.50302	54626
19.51113	59060
19.51927	59105
19.52738	67404
19.53552	81760
19.54363	83010
19.55175	81491
19.55988	73358
19.56800	65870
19.57613	58320
19.58425	53582
19.59237	49526
19.60050	43995
19.60862	44433
19.61673	43689
19.62487	42376
19.63298	43036
19.64112	40262
19.64923	50055
19.65735	48746
19.66548	50467
19.67360	64954
19.68173	71720
19.68985	86285
19.69797	85909
19.70610	83015
19.71422	88805
19.72235	75629
19.73047	68292
19.73858	60243
19.74672	60273
19.75483	60079
19.76295	55974
19.77108	55092
19.77920	46724
19.78733	47820
19.79545	43509
19.80357	46446
19.81170	45281
19.81982	47149
19.82795	47138
19.83607	44786
19.84418	44925
19.85232	42143
19.86043	40207
19.86855	41141
19.87668	42233
19.88480	42776
19.89293	50725
19.90105	56586
19.90917	69139
19.91730	82362
19.92542	96294
19.93355	109915
19.94167	113019
19.94978	108325
19.95792	104073
19.96603	105577
19.97417	103861
19.98228	94131
19.99040	95563
19.99853	92752
20.00665	91963
20.01477	88268
20.02290	88622
20.03102	81012
20.03915	85610
20.04727	78325
20.05538	69953
20.06352	69390
20.07163	66355
20.07977	59093
20.08788	54711
20.09600	50721
20.10413	53589
20.11225	49576
20.12038	52620
20.12850	46433
20.13662	44796
20.14475	48156
20.15287	51236
20.16098	45021
20.16912	47603
20.17723	47742
20.18537	45700
20.19348	49706
20.20160	52405
20.20973	51297
20.21785	52937
20.22598	52374
20.23410	51894
20.24222	50418
20.25035	52308
20.25847	47135
20.26658	50911
20.27472	52502
20.28283	62744
20.29097	71800
20.29908	80085
20.30720	95145
20.31533	98360
20.32345	97697
20.33158	93969
20.33970	86197
20.34782	78474
20.35595	66099
20.36407	62079
20.37220	54227
20.38032	54185
20.38843	50197
20.39657	45143
20.40468	54418
20.41280	47312
20.42093	51159
20.42905	47119
20.43718	50653
20.44530	45601
20.45342	47744
20.46155	53510
20.46967	54209
20.47780	55562
20.48592	52558
20.49403	56606
20.50217	55981
20.51028	53960
20.51842	49986
20.52653	47628
20.53465	50501
20.54278	49500
20.55090	45188
20.55902	46439
20.56715	49576
20.57527	47395
20.58340	43750
20.59152	44997
20.59963	41623
20.60777	44646
20.61588	42973
20.62402	40270
20.63213	41904
20.64025	44737
20.64838	43182
20.65650	41567
20.66462	40817
20.67275	45012
20.68087	48184
20.68900	45143
20.69712	41951
20.70523	44326
20.71337	46100
20.72148	44631
20.72962	43043
20.73773	41458
20.74585	42558
20.75398	42771
20.76210	44371
20.77023	47173
20.77835	42712
20.78647	46770
20.79460	43251
20.80272	41201
20.81083	43253
20.81897	50173
20.82708	44244
20.83522	47342
20.84333	48497
20.85145	54095
20.85958	53051
20.86770	51452
20.87583	52698
20.88395	54284
20.89207	50332
20.90020	48771
20.90832	44775
20.91645	47514
20.92457	48070
20.93268	42887
20.94082	44126
20.94893	40174
20.95705	46735
20.96518	44680
20.97330	39144
20.98143	42426
20.98955	41874
20.99767	39365
21.00580	40117
21.01392	42123
21.02205	43165
21.03017	39529
21.03828	36623
21.04642	38810
21.05453	37199
21.06265	40727
21.07078	39661
21.07890	40096
21.08703	37696
21.09515	41437
21.10327	38032
21.11140	44030
21.11952	39752
21.12765	41445
21.13577	40333
21.14388	39782
21.15202	43072
21.16013	45617
21.16827	47432
21.17638	55063
21.18450	52516
21.19263	52423
21.20075	61072
21.20887	55412
21.21700	51560
21.22512	52783
21.23325	53017
21.24137	50338
21.24948	47804
21.25762	55147
21.26573	51350
21.27387	49400
21.28198	50669
21.29010	49493
21.29823	45410
21.30635	44405
21.31447	44793
21.32260	44347
21.33072	46025
21.33885	41176
21.34697	41083
21.35508	41553
21.36322	43557
21.37133	40697
21.37947	41005
21.38758	42999
21.39570	38468
21.40383	44295
21.41195	37342
21.42008	43371
21.42820	46603
21.43632	48564
21.44445	52997
21.45257	51308
21.46068	56649
21.46882	50106
21.47693	53119
21.48507	51694
21.49318	48451
21.50130	52525
21.50943	50955
21.51755	46634
21.52568	42723
21.53380	44795
21.54192	41451
21.55005	41989
21.55817	41233
21.56630	45183
21.57442	39682
21.58253	38920
21.59067	39863
21.59878	39729
21.60690	46861
21.61503	40651
21.62315	43584
21.63128	49993
21.63940	47546
21.64752	51009
21.65565	52451
21.66377	55932
21.67190	55858
21.68002	62353
21.68813	59769
21.69627	51330
21.70438	54230
21.71250	49215
21.72063	50361
21.72875	43645
21.73688	42925
21.74500	42681
21.75312	38426
21.76125	41804
21.76937	44036
21.77750	45864
21.78562	46243
21.79373	43563
21.80187	50186
21.80998	46321
21.81812	40230
21.82623	48167
21.83435	43584
21.84248	41718
21.85060	50304
21.85872	50890
21.86685	50724
21.87497	54735
21.88310	56544
21.89122	54493
21.89933	51330
21.90747	42163
21.91558	38262
21.92372	41680
21.93183	42969
21.93995	43756
21.94808	41245
21.95620	40274
21.96433	36080
21.97245	37703
21.98057	36853
21.98870	37619
21.99682	43479
22.00493	38802
22.01307	40400
22.02118	40051
22.02932	40521
22.03743	33915
22.04555	39580
22.05368	41315
22.06180	41374
22.06993	40522
22.07805	39996
22.08617	42155
22.09430	41251
22.10242	40373
22.11053	40440
22.11867	48044
22.12678	41469
22.13492	39773
22.14303	37961
22.15115	43129
22.15928	40413
22.16740	42308
22.17553	44624
22.18365	46482
22.19177	45397
22.19990	47277
22.20802	42707
22.21615	42048
22.22427	44175
22.23238	47211
22.24052	42587
22.24863	47674
22.25675	46561
22.26488	50548
22.27300	45705
22.28113	49260
22.28925	40481
22.29737	47235
22.30550	46132
22.31362	44221
22.32175	45573
22.32987	47151
22.33798	46768
22.34612	44978
22.35423	44168
22.36235	45326
22.37048	47762
22.37860	43437
22.38673	45794
22.39485	46830
22.40297	46445
22.41110	40372
22.41922	43949
22.42735	48782
22.43547	46523
22.44358	51570
22.45172	49693
22.45983	54784
22.46797	54348
22.47608	49566
22.48420	53243
22.49233	53004
22.50045	46636
22.50857	47906
22.51670	50685
22.52482	49957
22.53295	54686
22.54107	51327
22.54918	55651
22.55732	53584
22.56543	51124
22.57357	46643
22.58168	51959
22.58980	50861
22.59793	51515
22.60605	51823
22.61418	50822
22.62230	47201
22.63042	45027
22.63855	45998
22.64667	41722
22.65478	43422
22.66292	47584
22.67103	49180
22.67917	42604
22.68728	42696
22.69540	49489
22.70353	44770
22.71165	43723
22.71978	53413
22.72790	48386
22.73602	53395
22.74415	54078
22.75227	54881
22.76040	56821
22.76852	55142
22.77663	56505
22.78477	54977
22.79288	57422
22.80100	52384
22.80913	56815
22.81725	59671
22.82538	58182
22.83350	61526
22.84162	64509
22.84975	65084
22.85787	67746
22.86600	71244
22.87412	67967
22.88223	68316
22.89037	67350
22.89848	67040
22.90660	63164
22.91473	72783
22.92285	69413
22.93098	71801
22.93910	74182
22.94722	79382
22.95535	85623
22.96347	82202
22.97160	84292
22.97972	77158
22.98783	76163
22.99597	72525
23.00408	67987
23.01222	58030
23.02033	61092
23.02845	61709
23.03658	53731
23.04470	51962
23.05282	49804
23.06095	50563
23.06907	45269
23.07720	45931
23.08532	48196
23.09343	47918
23.10157	46313
23.10968	45137
23.11782	48251
23.12593	45131
23.13405	41532
23.14218	42368
23.15030	42438
23.15842	40647
23.16655	39706
23.17467	40256
23.18280	39536
23.19092	43480
23.19903	44074
23.20717	39404
23.21528	43017
23.22342	37291
23.23153	34536
23.23965	42301
23.24778	43625
23.25590	42468
23.26403	44206
23.27215	38850
23.28027	39441
23.28840	41098
23.29652	42730
23.30463	44023
23.31277	46171
23.32088	41094
23.32902	42584
23.33713	44930
23.34525	39633
23.35338	40375
23.36150	44289
23.36963	40558
23.37775	41227
23.38587	46128
23.39400	46701
23.40212	48329
23.41025	48335
23.41837	48495
23.42648	47915
23.43462	40880
23.44273	47621
23.45085	44613
23.45898	46025
23.46710	45312
23.47523	41619
23.48335	45022
23.49147	42558
23.49960	44237
23.50772	41697
23.51585	48157
23.52397	38520
23.53208	44853
23.54022	43705
23.54833	40625
23.55645	41395
23.56458	41620
23.57270	42832
23.58083	42468
23.58895	45718
23.59707	47300
23.60520	45377
23.61332	44608
23.62145	43013
23.62957	43755
23.63768	42775
23.64582	43032
23.65393	42783
23.66207	42211
23.67018	51745
23.67830	44986
23.68643	43383
23.69455	50077
23.70267	51566
23.71080	48416
23.71892	45164
23.72705	50605
23.73517	49437
23.74328	44809
23.75142	44456
23.75953	51872
23.76767	60953
23.77578	88670
23.78390	148733
23.79203	249493
23.80015	361175
23.80828	476352
23.81640	558821
23.82452	551258
23.83265	461198
23.84077	379458
23.84888	303124
23.85702	241784
23.86513	209212
23.87327	165260
23.88138	134195
23.88950	124738
23.89763	108838
23.90575	104102
23.91388	101963
23.92200	92017
23.93012	89267
23.93825	88716
23.94637	83498
23.95448	79932
23.96262	72653
23.97073	72899
23.97887	68008
23.98698	70568
23.99510	65646
24.00323	66687
24.01135	63203
24.01948	60732
24.02760	62049
24.03572	63253
24.04385	61363
24.05197	59822
24.06010	59032
24.06822	58671
24.07633	55734
24.08447	56579
24.09258	51993
24.10070	54234
24.10883	51445
24.11695	47260
24.12508	52548
24.13320	56508
24.14132	58785
24.14945	51443
24.15757	59817
24.16570	56873
24.17382	59592
24.18193	62458
24.19007	58574
24.19818	63224
24.20630	68980
24.21443	60323
24.22255	61634
24.23068	66545
24.23880	72673
24.24692	67486
24.25505	65435
24.26317	61860
24.27130	62006
24.27942	61167
24.28753	57934
24.29567	53924
24.30378	51310
24.31192	46638
24.32003	45622
24.32815	48514
24.33628	46150
24.34440	47034
24.35252	44444
24.36065	48282
24.36877	46810
24.37690	44261
24.38502	47650
24.39313	47368
24.40127	51833
24.40938	53587
24.41752	62445
24.42563	63722
24.43375	69882
24.44188	68917
24.45000	62010
24.45813	54872
24.46625	49097
24.47437	47986
24.48250	45457
24.49062	46629
24.49873	46577
24.50687	52907
24.51498	48581
24.52312	52468
24.53123	52590
24.53935	51597
24.54748	52705
24.55560	62143
24.56373	58164
24.57185	56106
24.57997	54340
24.58810	58823
24.59622	54638
24.60433	54529
24.61247	57994
24.62058	55182
24.62872	55348
24.63683	53394
24.64495	53957
24.65308	49226
24.66120	52076
24.66933	50610
24.67745	49121
24.68557	56195
24.69370	47797
24.70182	48509
24.70995	49631
24.71807	47694
24.72618	45404
24.73432	44147
24.74243	40304
24.75055	42048
24.75868	43898
24.76680	45471
24.77493	45599
24.78305	43234
24.79117	46401
24.79930	41570
24.80742	46820
24.81555	42829
24.82367	42863
24.83178	40674
24.83992	43878
24.84803	43472
24.85617	44182
24.86428	44538
24.87240	49734
24.88053	50894
24.88865	57841
24.89677	61023
24.90490	63190
24.91302	64105
24.92115	68058
24.92927	66592
24.93738	63403
24.94552	57156
24.95363	53050
24.96177	52910
24.96988	45967
24.97800	43831
24.98613	44109
24.99425	46539
25.00237	46283
25.01050	41780
25.01862	43109
25.02675	42898
25.03487	43391
25.04298	44860
25.05112	42924
25.05923	40406
25.06737	47744
25.07548	45552
25.08360	43230
25.09173	46929
25.09985	41470
25.10798	39292
25.11610	45360
25.12422	54482
25.13235	72549
25.14047	104423
25.14858	156206
25.15672	225830
25.16483	319583
25.17297	394241
25.18108	423644
25.18920	389747
25.19733	320336
25.20545	244365
25.21358	177531
25.22170	138418
25.22982	106436
25.23795	80036
25.24607	77699
25.25418	65760
25.26232	62116
25.27043	61315
25.27857	61849
25.28668	55121
25.29480	60771
25.30293	58762
25.31105	64125
25.31918	60752
25.32730	59720
25.33542	59546
25.34355	61804
25.35167	60619
25.35980	59695
25.36792	55382
25.37603	47513
25.38417	48107
25.39228	47763
25.40040	44058
25.40853	44589
25.41665	44252
25.42478	45392
25.43290	41525
25.44102	40653
25.44915	43917
25.45727	45430
25.46540	39152
25.47352	45107
25.48163	40375
25.48977	45630
25.49788	43128
25.50602	47165
25.51413	41512
25.52225	44830
25.53038	46854
25.53850	44899
25.54662	45362
25.55475	47059
25.56287	43106
25.57100	42829
25.57912	39153
25.58723	40853
25.59537	46862
25.60348	43922
25.61162	39550
25.61973	41008
25.62785	39776
25.63598	38079
25.64410	44390
25.65222	41205
25.66035	40402
25.66847	39317
25.67660	38513
25.68472	42985
25.69283	40089
25.70097	40091
25.70908	41628
25.71722	42156
25.72533	42093
25.73345	42007
25.74158	45472
25.74970	43679
25.75783	42039
25.76595	43344
25.77407	43424
25.78220	41135
25.79032	43755
25.79843	45035
25.80657	41464
25.81468	41383
25.82282	45182
25.83093	48694
25.83905	47793
25.84718	41645
25.85530	38040
25.86343	43477
25.87155	41525
25.87967	41041
25.88780	42117
25.89592	41725
25.90405	40464
25.91217	38463
25.92028	41968
25.92842	39889
25.93653	41946
25.94465	43657
25.95278	39641
25.96090	40052
25.96903	44465
25.97715	41903
25.98527	39031
25.99340	40860
26.00152	44216
26.00965	39116
26.01777	38478
26.02588	43923
26.03402	39231
26.04213	41232
26.05025	42578
26.05838	40508
26.06650	41811
26.07463	39663
26.08275	44193
26.09087	44148
26.09900	43600
26.10712	36680
26.11525	43124
26.12337	45251
26.13148	45535
26.13962	53319
26.14773	55333
26.15587	54487
26.16398	59004
26.17210	57368
26.18023	56155
26.18835	58933
26.19647	55420
26.20460	52480
26.21272	50275
26.22085	50276
26.22897	48447
26.23708	46742
26.24522	46020
26.25333	39049
26.26147	40490
26.26958	36606
26.27770	40574
26.28583	47108
26.29395	44479
26.30208	48285
26.31020	41462
26.31832	43332
26.32645	40737
26.33457	39786
26.34268	37979
26.35082	38698
26.35893	40720
26.36707	43531
26.37518	42373
26.38330	49276
26.39143	53355
26.39955	68928
26.40768	76230
26.41580	96789
26.42392	109951
26.43205	110556
26.44017	111192
26.44828	94239
26.45642	88182
26.46453	79848
26.47267	68542
26.48078	61413
26.48890	48824
26.49703	46778
26.50515	44983
26.51328	41871
26.52140	40410
26.52952	40264
26.53765	38980
26.54577	42548
26.55390	35357
26.56202	37019
26.57013	39241
26.57827	39108
26.58638	40320
26.59450	40398
26.60263	41968
26.61075	39426
26.61888	41227
26.62700	39263
26.63512	37761
26.64325	37120
26.65137	37293
26.65950	36821
26.66762	42702
26.67573	39185
26.68387	40285
26.69198	38816
26.70010	40214
26.70823	40204
26.71635	43322
26.72448	37114
26.73260	37773
26.74072	34425
26.74885	39948
26.75697	35025
26.76510	39176
26.77322	42846
26.78133	41555
26.78947	44213
26.79758	39057
26.80572	39480
26.81383	40956
26.82195	39733
26.83008	39028
26.83820	41223
26.84632	37809
26.85445	37170
26.86257	35342
26.87070	38780
26.87882	39932
26.88693	45494
26.89507	39361
26.90318	37089
26.91132	39444
26.91943	41785
26.92755	35719
26.93568	38927
26.94380	39584
26.95193	39462
26.96005	38392
26.96817	36493
26.97630	37462
26.98442	37780
26.99253	39383
27.00067	40652
27.00878	50386
27.01692	58262
27.02503	70432
27.03315	85076
27.04128	94362
27.04940	99156
27.05753	98929
27.06565	96410
27.07377	83534
27.08190	72489
27.09002	60029
27.09813	59252
27.10627	60804
27.11438	61277
27.12252	58396
27.13063	55173
27.13875	55843
27.14688	54929
27.15500	57127
27.16313	54525
27.17125	54732
27.17937	50483
27.18750	53394
27.19562	54064
27.20375	58430
27.21187	61722
27.21998	68756
27.22812	67975
27.23623	75648
27.24435	67593
27.25248	67442
27.26060	61000
27.26873	58105
27.27685	56840
27.28497	48398
27.29310	49405
27.30122	48610
27.30935	49398
27.31747	41852
27.32558	44597
27.33372	42194
27.34183	43061
27.34997	48210
27.35808	55527
27.36620	48044
27.37433	47209
27.38245	45904
27.39057	43443
27.39870	45940
27.40682	46302
27.41495	45738
27.42307	42243
27.43118	44814
27.43932	42173
27.44743	43025
27.45557	41080
27.46368	42133
27.47180	40184
27.47993	44868
27.48805	43778
27.49617	41986
27.50430	44586
27.51242	43984
27.52055	41945
27.52867	46605
27.53678	40940
27.54492	41771
27.55303	46047
27.56117	42267
27.56928	42291
27.57740	40736
27.58553	41864
27.59365	41437
27.60178	44327
27.60990	43374
27.61802	41299
27.62615	44993
27.63427	41190
27.64238	40473
27.65052	42091
27.65863	43551
27.66677	41603
27.67488	41619
27.68300	47036
27.69113	44010
27.69925	44929
27.70738	45232
27.71550	40645
27.72362	44591
27.73175	41310
27.73987	45351
27.74798	45327
27.75612	43250
27.76423	45841
27.77237	41393
27.78048	38345
27.78860	38154
27.79673	40625
27.80485	37876
27.81298	38941
27.82110	40667
27.82922	38727
27.83735	39636
27.84547	40483
27.85360	40204
27.86172	43478
27.86983	36582
27.87797	41368
27.88608	41749
27.89420	47225
27.90233	42573
27.91045	42064
27.91858	40228
27.92670	40781
27.93482	41711
27.94295	40707
27.95107	38438
27.95920	39008
27.96732	41836
27.97543	37801
27.98357	40314
27.99168	39298
27.99982	41787
28.00793	44011
28.01605	40810
28.02418	41821
28.03230	40371
28.04042	43895
28.04855	49611
28.05667	48282
28.06480	57804
28.07292	56437
28.08103	54399
28.08917	57981
28.09728	53687
28.10542	50954
28.11353	48165
28.12165	50425
28.12978	44636
28.13790	40739
28.14603	48270
28.15415	43778
28.16227	39314
28.17040	42488
28.17852	40957
28.18663	42058
28.19477	41658
28.20288	47599
28.21102	43383
28.21913	45152
28.22725	49278
28.23538	48200
28.24350	45557
28.25163	48687
28.25975	50834
28.26787	48631
28.27600	46590
28.28412	45208
28.29223	45367
28.30037	46975
28.30848	49607
28.31662	46250
28.32473	57304
28.33285	55391
28.34098	56458
28.34910	62059
28.35723	64115
28.36535	59817
28.37347	60506
28.38160	58532
28.38972	58080
28.39785	59453
28.40597	58871
28.41408	57218
28.42222	54874
28.43033	61786
28.43845	58256
28.44658	54106
28.45470	55348
28.46283	54136
28.47095	52815
28.47907	53148
28.48720	53571
28.49532	49946
28.50345	48047
28.51157	52547
28.51968	50351
28.52782	54405
28.53593	50722
28.54405	47998
28.55218	50194
28.56030	45437
28.56843	45201
28.57655	46784
28.58467	45761
28.59280	44315
28.60092	46201
28.60905	43815
28.61717	44811
28.62528	45795
28.63342	45280
28.64153	45177
28.64967	50987
28.65778	50628
28.66590	51415
28.67403	55548
28.68215	55223
28.69027	55072
28.69840	55065
28.70652	56391
28.71465	50254
28.72277	51837
28.73088	50028
28.73902	47327
28.74713	44904
28.75527	44267
28.76338	45993
28.77150	44395
28.77963	47247
28.78775	46944
28.79588	47309
28.80400	51336
28.81212	54599
28.82025	57959
28.82837	52226
28.83648	46483
28.84462	45212
28.85273	44364
28.86087	45462
28.86898	41255
28.87710	40321
28.88523	43621
28.89335	43128
28.90148	46779
28.90960	50573
28.91772	48146
28.92585	49673
28.93397	48462
28.94208	45037
28.95022	47380
28.95833	50388
28.96647	47337
28.97458	56547
28.98270	42962
28.99083	45766
28.99895	44755
29.00708	46031
29.01520	41379
29.02332	41930
29.03145	43710
29.03957	43653
29.04770	41282
29.05582	42334
29.06393	44422
29.07207	43641
29.08018	42337
29.08830	41714
29.09643	46297
29.10455	45356
29.11268	42467
29.12080	39315
29.12892	42155
29.13705	43388
29.14517	45483
29.15330	42287
29.16142	42210
29.16953	49431
29.17767	45409
29.18578	46213
29.19392	44047
29.20203	46146
29.21015	46666
29.21828	52120
29.22640	52023
29.23452	56182
29.24265	54654
29.25077	54448
29.25890	55735
29.26702	47752
29.27513	47904
29.28327	47175
29.29138	47882
29.29952	45268
29.30763	47260
29.31575	44150
29.32388	49170
29.33200	42912
29.34012	48040
29.34825	43581
29.35637	43697
29.36450	43133
29.37262	46009
29.38073	44018
29.38887	43869
29.39698	42032
29.40512	45107
29.41323	40190
29.42135	43013
29.42948	43950
29.43760	46427
29.44573	42192
29.45385	42987
29.46197	45244
29.47010	45944
29.47822	41346
29.48633	48208
29.49447	44819
29.50258	48257
29.51072	48974
29.51883	51629
29.52695	46725
29.53508	51512
29.54320	49237
29.55133	51312
29.55945	50307
29.56757	52839
29.57570	46235
29.58382	46164
29.59193	48260
29.60007	46042
29.60818	42227
29.61632	41730
29.62443	47442
29.63255	47317
29.64068	43363
29.64880	43183
29.65693	45529
29.66505	45734
29.67317	41269
29.68130	37903
29.68942	44484
29.69755	42423
29.70567	43576
29.71378	43664
29.72192	46669
29.73003	47312
29.73815	42597
29.74628	41857
29.75440	42571
29.76253	44832
29.77065	48395
29.77877	40703
29.78690	38100
29.79502	49975
29.80315	46458
29.81127	43612
29.81938	41362
29.82752	38803
29.83563	41781
29.84377	44156
29.85188	43765
29.86000	40620
29.86813	40382
29.87625	44362
29.88437	43455
29.89250	45273
29.90062	45565
29.90875	47697
29.91687	51428
29.92498	59817
29.93312	58605
29.94123	52219
29.94937	49590
29.95748	47712
29.96560	50334
29.97373	44873
29.98185	41354
29.98997	45217
29.99810	47438
30.00622	48098
30.01435	51858
30.02247	50931
30.03058	50644
30.03872	55465
30.04683	53510
30.05497	51553
30.06308	55037
30.07120	53378
30.07933	53593
30.08745	55005
30.09558	55215
30.10370	53288
30.11182	54372
30.11995	50647
30.12807	49524
30.13618	52274
30.14432	48049
30.15243	43802
30.16057	47681
30.16868	49765
30.17680	50745
30.18493	45800
30.19305	49764
30.20118	46969
30.20930	47049
30.21742	50098
30.22555	48040
30.23367	48561
30.24180	54428
30.24992	48781
30.25803	47193
30.26617	45305
30.27428	46333
30.28240	43670
30.29053	49609
30.29865	45610
30.30678	42479
30.31490	44707
30.32302	45558
30.33115	46356
30.33927	43488
30.34740	46407
30.35552	39598
30.36363	47829
30.37177	47449
30.37988	42213
30.38800	43733
30.39613	45966
30.40425	44756
30.41238	47041
30.42050	43728
30.42862	42987
30.43675	48675
30.44487	42240
30.45300	48914
30.46112	44798
30.46923	46023
30.47737	45995
30.48548	47886
30.49362	42417
30.50173	44238
30.50985	45632
30.51798	46818
30.52610	44107
30.53422	48119
30.54235	43916
30.55047	44842
30.55860	48128
30.56672	43260
30.57483	41428
30.58297	42835
30.59108	47081
30.59922	45574
30.60733	43705
30.61545	41034
30.62358	44403
30.63170	46615
30.63983	43698
30.64795	46789
30.65607	44038
30.66420	43148
30.67232	51190
30.68043	47877
30.68857	45691
30.69668	47637
30.70482	45037
30.71293	42451
30.72105	49498
30.72918	42686
30.73730	47996
30.74543	41141
30.75355	41750
30.76167	41179
30.76980	45491
30.77792	47591
30.78603	48273
30.79417	46448
30.80228	47570
30.81042	56988
30.81853	67516
30.82665	71552
30.83478	73116
30.84290	74590
30.85103	72868
30.85915	68057
30.86727	55579
30.87540	46305
30.88352	47484
30.89165	53499
30.89977	47471
30.90788	40409
30.91602	48998
30.92413	43016
30.93225	44766
30.94038	41023
30.94850	52021
30.95663	45338
30.96475	43088
30.97287	39923
30.98100	43628
30.98912	42714
30.99725	40082
31.00537	42789
31.01348	45287
31.02162	44485
31.02973	40753
31.03785	44909
31.04598	43278
31.05410	45023
31.06223	50809
31.07035	49667
31.07847	47103
31.08660	46172
31.09472	49068
31.10285	47856
31.11097	50794
31.11908	54013
31.12722	61426
31.13533	57420
31.14347	62613
31.15158	55082
31.15970	51234
31.16783	50366
31.17595	48406
31.18407	51924
31.19220	57923
31.20032	67281
31.20845	85729
31.21657	114309
31.22468	143371
31.23282	168886
31.24093	205713
31.24907	211833
31.25718	190111
31.26530	156532
31.27343	117333
31.28155	96869
31.28968	71499
31.29780	62629
31.30592	58091
31.31405	54683
31.32217	48502
31.33028	47513
31.33842	49789
31.34653	50890
31.35467	49233
31.36278	50469
31.37090	48846
31.37903	49950
31.38715	51876
31.39528	47760
31.40340	50037
31.41152	50449
31.41965	46922
31.42777	44551
31.43588	44444
31.44402	46894
31.45213	49950
31.46027	45921
31.46838	50890
31.47650	48141
31.48463	47639
31.49275	51390
31.50088	53042
31.50900	51294
31.51712	53627
31.52525	49310
31.53337	50065
31.54150	47392
31.54962	48226
31.55773	50271
31.56587	48865
31.57398	46282
31.58210	47526
31.59023	50648
31.59835	55017
31.60648	49256
31.61460	45597
31.62272	44918
31.63085	48698
31.63897	47311
31.64710	52311
31.65522	49523
31.66333	48432
31.67147	47781
31.67958	48420
31.68772	51953
31.69583	54088
31.70395	47084
31.71208	53060
31.72020	50243
31.72832	48660
31.73645	50652
31.74457	45659
31.75270	48833
31.76082	47856
31.76893	49690
31.77707	48713
31.78518	47672
31.79332	46980
31.80143	45437
31.80955	51589
31.81768	51110
31.82580	49738
31.83392	58071
31.84205	50736
31.85017	49915
31.85830	53208
31.86642	55500
31.87453	52864
31.88267	57272
31.89078	54367
31.89892	51514
31.90703	55292
31.91515	51180
31.92328	49168
31.93140	48721
31.93953	48190
31.94765	50111
31.95577	48167
31.96390	49362
31.97202	53939
31.98013	53212
31.98827	54869
31.99638	58991
32.00452	56555
32.01263	61835
32.02075	60223
32.02888	59306
32.03700	62039
32.04513	60927
32.05325	60191
32.06137	62258
32.06950	54253
32.07762	56550
32.08573	57314
32.09387	56340
32.10198	53661
32.11012	56523
32.11823	54900
32.12635	55868
32.13448	59615
32.14260	56103
32.15073	53814
32.15885	48410
32.16697	53490
32.17510	48408
32.18322	47970
32.19135	47690
32.19947	51934
32.20758	47850
32.21572	46928
32.22383	49835
32.23195	49916
32.24008	50702
32.24820	45278
32.25633	48376
32.26445	48691
32.27257	53803
32.28070	49940
32.28882	48757
32.29695	52835
32.30507	47025
32.31318	50234
32.32132	52431
32.32943	50904
32.33757	46227
32.34568	46751
32.35380	50211
32.36193	52664
32.37005	53692
32.37817	53926
32.38630	51888
32.39442	48788
32.40255	52295
32.41067	50816
32.41878	48037
32.42692	46309
32.43503	48693
32.44317	48587
32.45128	49853
32.45940	49935
32.46753	47043
32.47565	46168
32.48378	50189
32.49190	51992
32.50002	50030
32.50815	52487
32.51627	49565
32.52438	49414
32.53252	50171
32.54063	51401
32.54877	53001
32.55688	50810
32.56500	50229
32.57313	48051
32.58125	48604
32.58938	50333
32.59750	51196
32.60562	50337
32.61375	51270
32.62187	50123
32.62998	47274
32.63812	48749
32.64623	50293
32.65437	48435
32.66248	51519
32.67060	49833
32.67873	53436
32.68685	56401
32.69498	57859
32.70310	60033
32.71122	63616
32.71935	63487
32.72747	58871
32.73560	62629
32.74372	57936
32.75183	53759
32.75997	54703
32.76808	59855
32.77620	52375
32.78433	50319
32.79245	45692
32.80058	50180
32.80870	51780
32.81682	50623
32.82495	48778
32.83307	50827
32.84120	54543
32.84932	51241
32.85743	49160
32.86557	48909
32.87368	52666
32.88180	51298
32.88993	50586
32.89805	50219
32.90618	52520
32.91430	57819
32.92242	60683
32.93055	60786
32.93867	55301
32.94680	54464
32.95492	52622
32.96303	54555
32.97117	51349
32.97928	57399
32.98742	53074
32.99553	49569
33.00365	57381
33.01178	59427
33.01990	64145
33.02802	65733
33.03615	63817
33.04427	63142
33.05240	62427
33.06052	51854
33.06863	55122
33.07677	55461
33.08488	55663
33.09302	51782
33.10113	54383
33.10925	59188
33.11738	61135
33.12550	70726
33.13363	73809
33.14175	69768
33.14987	67963
33.15800	68576
33.16612	57915
33.17423	56282
33.18237	59210
33.19048	52260
33.19862	58393
33.20673	56394
33.21485	51518
33.22298	53192
33.23110	52986
33.23923	55906
33.24735	53916
33.25547	49899
33.26360	52928
33.27172	55433
33.27983	53397
33.28797	55587
33.29608	54124
33.30422	52665
33.31233	51016
33.32045	57851
33.32858	54067
33.33670	50809
33.34483	54000
33.35295	57415
33.36107	59210
33.36920	55199
33.37732	58727
33.38545	54397
33.39357	54194
33.40168	55508
33.40982	55802
33.41793	49250
33.42605	55435
33.43418	52743
33.44230	55870
33.45043	53918
33.45855	54493
33.46667	48299
33.47480	53882
33.48292	53932
33.49105	51588
33.49917	54319
33.50728	50954
33.51542	56148
33.52353	63046
33.53167	62683
33.53978	54998
33.54790	55576
33.55603	62899
33.56415	61385
33.57227	60472
33.58040	57321
33.58852	64779
33.59665	58845
33.60477	56174
33.61288	54566
33.62102	51563
33.62913	56739
33.63727	56650
33.64538	54393
33.65350	57892
33.66163	56540
33.66975	51259
33.67787	50907
33.68600	57086
33.69412	55028
33.70225	55495
33.71037	54778
33.71848	54129
33.72662	54498
33.73473	49732
33.74287	55699
33.75098	51750
33.75910	55242
33.76723	55129
33.77535	58062
33.78348	58659
33.79160	52160
33.79972	53553
33.80785	56176
33.81597	55348
33.82408	53459
33.83222	52774
33.84033	58866
33.84847	55728
33.85658	52359
33.86470	55490
33.87283	57853
33.88095	54848
33.88908	58510
33.89720	52812
33.90532	57398
33.91345	57980
33.92157	60017
33.92968	57267
33.93782	58580
33.94593	55694
33.95407	57280
33.96218	53011
33.97030	54947
33.97843	57341
33.98655	57390
33.99468	58265
34.00280	58714
34.01092	53059
34.01905	57233
34.02717	56872
34.03530	52861
34.04342	54082
34.05153	58362
34.05967	59430
34.06778	57558
34.07590	58318
34.08403	55955
34.09215	59701
34.10028	58630
34.10840	55227
34.11652	58115
34.12465	58335
34.13277	53191
34.14090	57434
34.14902	58566
34.15713	55765
34.16527	58556
34.17338	57422
34.18152	55508
34.18963	58187
34.19775	56479
34.20588	60042
34.21400	53974
34.22212	59854
34.23025	61153
34.23837	57675
34.24650	57881
34.25462	57092
34.26273	51006
34.27087	58454
34.27898	56573
34.28712	58439
34.29523	54524
34.30335	58943
34.31148	59371
34.31960	61689
34.32772	54652
34.33585	58608
34.34397	57869
34.35210	59513
34.36022	55926
34.36833	58351
34.37647	57824
34.38458	57553
34.39272	54276
34.40083	55070
34.40895	55976
34.41708	55580
34.42520	55671
34.43333	52792
34.44145	56184
34.44957	57456
34.45770	55656
34.46582	59968
34.47393	61680
34.48207	61556
34.49018	61902
34.49832	62491
34.50643	58113
34.51455	57197
34.52268	53001
34.53080	58756
34.53893	60517
34.54705	58727
34.55517	58511
34.56330	67177
34.57142	67265
34.57955	65712
34.58767	63247
34.59578	68138
34.60392	67505
34.61203	66640
34.62015	66860
34.62828	63240
34.63640	63334
34.64453	58267
34.65265	60574
34.66077	65597
34.66890	60411
34.67702	64168
34.68515	66152
34.69327	62512
34.70138	62771
34.70952	64700
34.71763	62257
34.72575	63287
34.73388	60673
34.74200	58105
34.75013	63210
34.75825	60244
34.76637	60437
34.77450	60663
34.78262	65404
34.79075	63614
34.79887	63717
34.80698	65323
34.81512	62993
34.82323	63245
34.83137	62305
34.83948	57705
34.84760	58617
34.85573	62049
34.86385	57359
34.87197	63579
34.88010	61310
34.88822	59794
34.89635	60019
34.90447	62421
34.91258	59380
34.92072	66698
34.92883	61152
34.93697	60287
34.94508	64877
34.95320	61723
34.96133	66035
34.96945	65150
34.97757	75954
34.98570	67759
34.99382	64234
35.00195	69236
35.01007	67911
35.01818	64889
35.02632	65184
35.03443	68092
35.04257	66092
35.05068	65109
35.05880	67674
35.06693	59240
35.07505	69485
35.08318	64036
35.09130	64476
35.09942	64532
35.10755	66462
35.11567	68543
35.12378	64871
35.13192	61152
35.14003	67429
35.14817	64367
35.15628	67375
35.16440	67287
35.17253	62866
35.18065	69298
35.18878	71850
35.19690	69571
35.20502	65850
35.21315	68098
35.22127	62309
35.22940	65142
35.23752	65581
35.24563	65346
35.25377	68347
35.26188	61419
35.27000	68307
35.27813	67869
35.28625	69558
35.29438	67653
35.30250	64237
35.31062	63754
35.31875	63280
35.32687	63449
35.33500	60235
35.34312	69760
35.35123	64943
35.35937	59356
35.36748	65469
35.37560	68239
35.38373	65616
35.39185	63924
35.39998	63651
35.40810	62421
35.41622	66533
35.42435	70631
35.43247	69371
35.44060	71915
35.44872	73727
35.45683	74629
35.46497	75708
35.47308	72854
35.48122	71224
35.48933	70357
35.49745	69226
35.50558	78196
35.51370	69708
35.52182	68853
35.52995	72548
35.53807	70569
35.54620	67297
35.55432	68029
35.56243	68466
35.57057	68703
35.57868	68340
35.58682	67842
35.59493	64660
35.60305	66416
35.61118	66233
35.61930	67361
35.62743	63732
35.63555	69987
35.64367	61874
35.65180	65522
35.65992	62275
35.66803	66825
35.67617	63981
35.68428	67635
35.69242	73208
35.70053	65189
35.70865	66836
35.71678	65530
35.72490	62755
35.73303	71874
35.74115	72743
35.74927	72571
35.75740	73498
35.76552	74058
35.77363	80230
35.78177	80732
35.78988	79388
35.79802	83331
35.80613	81580
35.81425	82726
35.82238	73612
35.83050	74312
35.83863	71074
35.84675	70124
35.85487	72030
35.86300	67355
35.87112	69934
35.87925	69804
35.88737	70941
35.89548	72859
35.90362	73839
35.91173	75369
35.91985	70927
35.92798	73257
35.93610	71630
35.94423	65993
35.95235	74189
35.96047	70012
35.96860	68836
35.97672	71825
35.98485	67572
35.99297	71054
36.00108	66714
36.00922	70890
36.01733	71460
36.02547	74941
36.03358	69363
36.04170	71849
36.04983	74387
36.05795	77072
36.06607	71271
36.07420	72734
36.08232	72962
36.09045	68965
36.09857	72229
36.10668	69970
36.11482	68102
36.12293	71875
36.13107	68821
36.13918	75663
36.14730	73527
36.15543	76303
36.16355	76652
36.17167	75606
36.17980	74338
36.18792	71763
36.19605	68246
36.20417	70635
36.21228	74544
36.22042	73862
36.22853	61029
36.23667	64973
36.24478	68030
36.25290	71744
36.26103	69541
36.26915	68080
36.27728	70336
36.28540	68357
36.29352	65667
36.30165	69801
36.30977	65272
36.31788	69305
36.32602	66187
36.33413	70145
36.34227	70796
36.35038	79902
36.35850	76648
36.36663	81207
36.37475	79399
36.38288	79294
36.39100	71059
36.39912	72877
36.40725	76198
36.41537	75553
36.42348	77184
36.43162	76483
36.43973	78001
36.44787	75750
36.45598	74778
36.46410	76577
36.47223	73728
36.48035	71181
36.48848	68355
36.49660	71771
36.50472	70262
36.51285	71978
36.52097	67201
36.52910	69944
36.53722	74486
36.54533	75894
36.55347	68780
36.56158	68531
36.56970	70127
36.57783	72002
36.58595	70149
36.59408	68010
36.60220	68793
36.61032	69207
36.61845	67426
36.62657	68490
36.63470	68091
36.64282	72537
36.65093	72715
36.65907	73137
36.66718	76847
36.67532	70900
36.68343	66017
36.69155	71160
36.69968	73653
36.70780	70235
36.71592	73356
36.72405	72665
36.73217	73699
36.74030	73873
36.74842	80473
36.75653	76982
36.76467	73849
36.77278	81548
36.78092	73175
36.78903	70739
36.79715	74259
36.80528	68104
36.81340	74940
36.82152	68185
36.82965	69435
36.83777	69251
36.84590	70021
36.85402	67898
36.86213	66229
36.87027	69080
36.87838	71087
36.88652	70514
36.89463	66843
36.90275	75207
36.91088	68149
36.91900	67585
36.92713	71005
36.93525	73021
36.94337	69467
36.95150	69931
36.95962	67820
36.96773	74025
36.97587	73241
36.98398	75683
36.99212	74052
37.00023	78664
37.00835	70618
37.01648	70937
37.02460	72882
37.03273	73625
37.04085	69768
37.04897	72117
37.05710	70464
37.06522	76274
37.07335	78663
37.08147	73183
37.08958	80193
37.09772	83588
37.10583	79287
37.11395	77407
37.12208	79906
37.13020	82613
37.13833	77810
37.14645	80054
37.15457	74615
37.16270	69947
37.17082	80471
37.17895	76762
37.18707	74256
37.19518	75385
37.20332	71487
37.21143	75013
37.21955	74082
37.22768	75006
37.23580	72736
37.24393	77837
37.25205	70172
37.26017	70906
37.26830	70027
37.27642	76334
37.28455	73136
37.29267	75063
37.30078	75315
37.30892	70739
37.31703	73129
37.32517	77786
37.33328	74753
37.34140	77895
37.34953	75418
37.35765	79295
37.36577	80720
37.37390	82988
37.38202	83738
37.39015	82910
37.39827	80700
37.40638	80835
37.41452	77774
37.42263	80079
37.43077	84273
37.43888	77974
37.44700	82019
37.45513	86444
37.46325	85945
37.47137	78098
37.47950	83672
37.48762	80920
