C:\MassHunter\GCMS\1\data\JTB-E02\BACandBLUE\JTB-E18-022-09.D Thu Jul 11 11:21:26 2019
Start of data points
2.09527,76049
2.10338,68954
2.11152,71974
2.11963,71568
2.12775,70522
2.13588,75450
2.14400,75379
2.15213,73717
2.16025,71755
2.16837,70106
2.17650,69075
2.18462,65108
2.19273,67042
2.20087,68821
2.20898,65525
2.21712,66988
2.22523,63683
2.23335,65407
2.24148,63282
2.24960,64297
2.25773,66401
2.26585,62506
2.27397,101849
2.28210,613482
2.29022,1219531
2.29835,642386
2.30647,302665
2.31458,228087
2.32272,195693
2.33083,182959
2.33895,160737
2.34708,163958
2.35520,144415
2.36333,130801
2.37145,127195
2.37957,125430
2.38770,122195
2.39582,118161
2.40395,113966
2.41207,111520
2.42018,110115
2.42832,109626
2.43643,111565
2.44457,103014
2.45268,114011
2.46080,108897
2.46893,105542
2.47705,106188
2.48517,104393
2.49330,108409
2.50142,147871
2.50955,133014
2.51767,112399
2.52578,107049
2.53392,103343
2.54203,104235
2.55017,109088
2.55828,109360
2.56640,135616
2.57453,153655
2.58265,127877
2.59077,118424
2.59890,111883
2.60702,138811
2.61515,503534
2.62327,1027601
2.63138,703092
2.63952,379339
2.64763,273871
2.65577,223262
2.66388,191219
2.67200,169462
2.68013,150807
2.68825,140963
2.69638,131911
2.70450,134895
2.71262,131069
2.72075,129153
2.72887,117874
2.73698,111239
2.74512,108428
2.75323,112419
2.76137,108459
2.76948,110840
2.77760,110323
2.78573,130952
2.79385,199369
2.80198,207537
2.81010,152930
2.81822,136528
2.82635,142228
2.83447,139797
2.84258,120906
2.85072,119236
2.85883,110697
2.86697,115812
2.87508,110645
2.88320,106685
2.89133,104377
2.89945,99685
2.90758,103422
2.91570,98617
2.92382,105303
2.93195,99718
2.94007,95502
2.94820,93178
2.95632,98186
2.96443,104387
2.97257,123037
2.98068,114400
2.98880,110841
2.99693,106521
3.00505,103276
3.01318,99184
3.02130,101509
3.02942,97405
3.03755,98513
3.04567,97206
3.05380,92225
3.06192,100135
3.07003,91709
3.07817,98426
3.08628,183124
3.09442,792931
3.10253,1984511
3.11065,3071326
3.11878,4168505
3.12690,3305489
3.13502,1947537
3.14315,1321923
3.15127,1039274
3.15940,837520
3.16752,698992
3.17563,624818
3.18377,574694
3.19188,694492
3.20002,1219070
3.20813,1381738
3.21625,985252
3.22438,716128
3.23250,591186
3.24063,519095
3.24875,460500
3.25687,415045
3.26500,371684
3.27312,341561
3.28123,323895
3.28937,346421
3.29748,639653
3.30562,1782358
3.31373,3594434
3.32185,4304191
3.32998,3515927
3.33810,2388241
3.34623,1695148
3.35435,1329109
3.36247,1113694
3.37060,966635
3.37872,830158
3.38683,746356
3.39497,676193
3.40308,608391
3.41122,560451
3.41933,534858
3.42745,509439
3.43558,473897
3.44370,454936
3.45183,450321
3.45995,425432
3.46807,405799
3.47620,395626
3.48432,396168
3.49245,392409
3.50057,355853
3.50868,350003
3.51682,344535
3.52493,327965
3.53305,337356
3.54118,339589
3.54930,346163
3.55743,343282
3.56555,328128
3.57367,373389
3.58180,476098
3.58992,498198
3.59805,418884
3.60617,366705
3.61428,356958
3.62242,338365
3.63053,337453
3.63865,316667
3.64678,315988
3.65490,305748
3.66303,323496
3.67115,664381
3.67927,2247804
3.68740,4471605
3.69552,4432144
3.70365,2701564
3.71177,1624010
3.71988,1222046
3.72802,1013451
3.73613,881777
3.74427,776345
3.75238,710667
3.76050,664202
3.76863,628775
3.77675,588057
3.78487,555618
3.79300,532596
3.80112,529887
3.80925,706409
3.81737,1285610
3.82548,1853007
3.83362,1609955
3.84173,1111061
3.84987,840123
3.85798,715523
3.86610,638501
3.87423,588600
3.88235,546552
3.89048,518262
3.89860,483690
3.90672,459207
3.91485,459955
3.92297,488947
3.93108,604067
3.93922,680062
3.94733,666404
3.95547,866263
3.96358,1880886
3.97170,3421543
3.97983,3814245
3.98795,2741203
3.99608,1905416
4.00420,3430223
4.01232,9957558
4.02045,1.873754E+07
4.02857,2.068055E+07
4.03668,1.417312E+07
4.04482,7409046
4.05293,4195847
4.06107,2945090
4.06918,2263861
4.07730,1827768
4.08543,1530163
4.09355,1317975
4.10168,1150747
4.10980,1020884
4.11792,951518
4.12605,857835
4.13417,808859
4.14230,794065
4.15042,860947
4.15853,891584
4.16667,840182
4.17478,735103
4.18290,671284
4.19103,620061
4.19915,594252
4.20728,613516
4.21540,1236965
4.22352,4089230
4.23165,1.013441E+07
4.23977,1.555501E+07
4.24790,1.641333E+07
4.25602,1.204752E+07
4.26413,7196018
4.27227,4771504
4.28038,3525747
4.28852,2764297
4.29663,2231657
4.30475,1898295
4.31288,1643101
4.32100,1436861
4.32912,1276548
4.33725,1171945
4.34537,1094969
4.35350,1041481
4.36162,1008729
4.36973,969490
4.37787,915103
4.38598,848901
4.39412,814891
4.40223,766723
4.41035,721141
4.41848,691922
4.42660,674777
4.43472,645359
4.44285,630418
4.45097,591306
4.45910,572772
4.46722,558641
4.47533,542665
4.48347,536012
4.49158,513341
4.49972,507442
4.50783,491545
4.51595,470201
4.52408,470972
4.53220,453127
4.54033,457076
4.54845,450121
4.55657,433244
4.56470,415922
4.57282,411013
4.58093,400221
4.58907,387572
4.59718,386044
4.60532,382060
4.61343,376036
4.62155,376287
4.62968,404861
4.63780,518332
4.64593,652154
4.65405,715374
4.66217,624068
4.67030,497024
4.67842,431377
4.68653,393076
4.69467,383165
4.70278,359886
4.71092,344735
4.71903,338017
4.72715,326632
4.73528,319875
4.74340,312186
4.75153,309965
4.75965,306932
4.76777,300318
4.77590,289571
4.78402,290143
4.79215,289787
4.80027,344149
4.80838,417757
4.81652,458879
4.82463,432301
4.83275,374766
4.84088,347695
4.84900,351314
4.85713,359143
4.86525,355017
4.87337,338584
4.88150,327674
4.88962,308941
4.89775,300397
4.90587,283133
4.91398,278088
4.92212,279189
4.93023,305012
4.93837,476499
4.94648,960132
4.95460,1828880
4.96273,2748879
4.97085,3091291
4.97897,2676769
4.98710,1972780
4.99522,1407182
5.00335,1047288
5.01147,834823
5.01958,717932
5.02772,712167
5.03583,883600
5.04397,1150949
5.05208,1285635
5.06020,1132581
5.06833,904354
5.07645,746640
5.08457,655618
5.09270,600244
5.10082,549050
5.10895,514810
5.11707,490498
5.12518,482795
5.13332,439921
5.14143,448006
5.14957,434473
5.15768,425178
5.16580,455526
5.17393,468742
5.18205,459720
5.19018,445092
5.19830,417777
5.20642,434934
5.21455,439607
5.22267,438759
5.23078,415684
5.23892,414345
5.24703,393169
5.25517,379510
5.26328,365860
5.27140,334395
5.27953,320466
5.28765,308328
5.29578,303627
5.30390,298151
5.31202,299684
5.32015,291389
5.32827,292369
5.33640,295681
5.34452,311864
5.35263,311242
5.36077,302343
5.36888,290709
5.37700,279689
5.38513,279593
5.39325,269964
5.40138,271587
5.40950,277420
5.41762,274213
5.42575,268039
5.43387,254672
5.44200,267844
5.45012,262466
5.45823,265902
5.46637,263787
5.47448,259204
5.48260,259058
5.49073,245589
5.49885,243110
5.50698,240663
5.51510,241529
5.52322,238951
5.53135,241023
5.53947,231765
5.54760,230718
5.55572,228635
5.56383,235577
5.57197,243861
5.58008,256809
5.58822,260273
5.59633,246716
5.60445,239067
5.61258,242369
5.62070,230826
5.62882,232699
5.63695,241686
5.64507,246270
5.65320,249402
5.66132,240184
5.66943,245152
5.67757,240307
5.68568,275142
5.69382,308568
5.70193,309232
5.71005,301417
5.71818,264887
5.72630,247133
5.73442,234708
5.74255,222871
5.75067,220914
5.75880,216117
5.76692,207516
5.77503,210242
5.78317,209012
5.79128,206930
5.79942,209454
5.80753,202446
5.81565,200083
5.82378,198022
5.83190,205947
5.84003,212819
5.84815,198231
5.85627,201354
5.86440,191874
5.87252,195369
5.88063,190556
5.88877,198325
5.89688,189703
5.90502,171741
5.91313,159625
5.92125,136933
5.92938,139586
5.93750,141945
5.94563,146236
5.95375,164907
5.96187,187754
5.97000,210708
5.97812,241737
5.98625,272705
5.99437,295179
6.00248,299439
6.01062,254993
6.01873,214228
6.02685,188488
6.03498,168834
6.04310,156184
6.05123,157599
6.05935,147530
6.06747,145559
6.07560,138998
6.08372,140759
6.09185,142497
6.09997,129056
6.10808,148841
6.11622,135232
6.12433,158053
6.13245,198157
6.14058,298939
6.14870,412093
6.15683,442299
6.16495,400306
6.17307,311071
6.18120,236905
6.18932,204207
6.19745,191984
6.20557,186001
6.21368,184252
6.22182,179255
6.22993,180296
6.23807,177507
6.24618,174534
6.25430,172468
6.26243,176323
6.27055,180524
6.27867,176579
6.28680,171272
6.29492,176349
6.30305,172695
6.31117,171826
6.31928,182211
6.32742,175020
6.33553,183656
6.34367,180832
6.35178,188391
6.35990,185867
6.36803,183402
6.37615,180618
6.38428,184236
6.39240,180883
6.40052,181799
6.40865,181784
6.41677,174875
6.42488,176008
6.43302,182342
6.44113,182358
6.44927,177878
6.45738,177084
6.46550,174325
6.47363,182346
6.48175,183995
6.48988,179853
6.49800,187942
6.50612,194655
6.51425,191645
6.52237,193922
6.53048,193524
6.53862,190445
6.54673,189320
6.55487,189201
6.56298,189870
6.57110,189683
6.57923,205817
6.58735,212727
6.59548,212547
6.60360,203277
6.61172,194977
6.61985,190752
6.62797,197161
6.63610,195000
6.64422,191937
6.65233,201630
6.66047,226970
6.66858,260232
6.67670,273984
6.68483,277375
6.69295,264334
6.70108,230130
6.70920,224871
6.71732,214506
6.72545,212566
6.73357,215281
6.74170,210805
6.74982,216002
6.75793,218216
6.76607,214879
6.77418,216902
6.78232,218877
6.79043,213981
6.79855,196861
6.80668,181071
6.81480,163004
6.82292,151471
6.83105,148110
6.83917,147436
6.84730,162618
6.85542,176125
6.86353,206394
6.87167,200806
6.87978,177391
6.88792,148218
6.89603,124257
6.90415,102955
6.91228,100821
6.92040,93155
6.92852,90862
6.93665,89316
6.94477,92117
6.95290,91222
6.96102,94589
6.96913,97157
6.97727,107000
6.98538,122295
6.99352,115090
7.00163,105663
7.00975,97577
7.01788,94153
7.02600,86766
7.03413,90958
7.04225,84031
7.05037,85338
7.05850,82955
7.06662,76781
7.07473,81948
7.08287,84107
7.09098,80174
7.09912,81344
7.10723,78505
7.11535,76928
7.12348,77425
7.13160,74869
7.13973,81368
7.14785,89552
7.15597,121212
7.16410,157625
7.17222,175335
7.18033,160519
7.18847,135791
7.19658,108750
7.20472,93941
7.21283,93549
7.22095,110999
7.22908,190716
7.23720,450756
7.24533,924709
7.25345,1351617
7.26157,1445213
7.26970,1116461
7.27782,703129
7.28595,439515
7.29407,306770
7.30218,269476
7.31032,235912
7.31843,184418
7.32655,142878
7.33468,119105
7.34280,98462
7.35093,95668
7.35905,92659
7.36717,91257
7.37530,96812
7.38342,97453
7.39155,92547
7.39967,94857
7.40778,88664
7.41592,85177
7.42403,81059
7.43217,79316
7.44028,78048
7.44840,78732
7.45653,86197
7.46465,83406
7.47277,78048
7.48090,77198
7.48902,73754
7.49715,76266
7.50527,76664
7.51338,84536
7.52152,95809
7.52963,119793
7.53777,154562
7.54588,184379
7.55400,202015
7.56213,199416
7.57025,167720
7.57837,145154
7.58650,118820
7.59462,99026
7.60275,86407
7.61087,85021
7.61898,78994
7.62712,81853
7.63523,83857
7.64337,76875
7.65148,74081
7.65960,73163
7.66773,71387
7.67585,68493
7.68398,71078
7.69210,68481
7.70022,68528
7.70835,66000
7.71647,66460
7.72458,65815
7.73272,71762
7.74083,70957
7.74897,69596
7.75708,70975
7.76520,67084
7.77333,69970
7.78145,74632
7.78958,76194
7.79770,70397
7.80582,77639
7.81395,78729
7.82207,78641
7.83020,83769
7.83832,73478
7.84643,68882
7.85457,70649
7.86268,71726
7.87080,74978
7.87893,80992
7.88705,83944
7.89518,82339
7.90330,70384
7.91142,71316
7.91955,68798
7.92767,79192
7.93580,93034
7.94392,109564
7.95203,122866
7.96017,117937
7.96828,109612
7.97640,95018
7.98453,81909
7.99265,80482
8.00078,71640
8.00890,67394
8.01702,64903
8.02515,62943
8.03327,65293
8.04140,67349
8.04952,66588
8.05763,63940
8.06577,60973
8.07388,62644
8.08202,57868
8.09013,56666
8.09825,61981
8.10638,56316
8.11450,57144
8.12262,60116
8.13075,66024
8.13887,73069
8.14700,82507
8.15512,91921
8.16323,89952
8.17137,85860
8.17948,79418
8.18762,67051
8.19573,62351
8.20385,63476
8.21198,63087
8.22010,62307
8.22822,62896
8.23635,61275
8.24447,58577
8.25260,58522
8.26072,56713
8.26883,61258
8.27697,56291
8.28508,55640
8.29322,55629
8.30133,60412
8.30945,63729
8.31758,63513
8.32570,62512
8.33383,64735
8.34195,59158
8.35007,54923
8.35820,57072
8.36632,58446
8.37443,50991
8.38257,51392
8.39068,52144
8.39882,56323
8.40693,57333
8.41505,51921
8.42318,52568
8.43130,49422
8.43943,53078
8.44755,53047
8.45567,50946
8.46380,54315
8.47192,53391
8.48005,56134
8.48817,55232
8.49628,53023
8.50442,50082
8.51253,49780
8.52065,53350
8.52878,58107
8.53690,78001
8.54503,126600
8.55315,201218
8.56127,259952
8.56940,266340
8.57752,230712
8.58565,161138
8.59377,110823
8.60188,83456
8.61002,76819
8.61813,69458
8.62627,66288
8.63438,64973
8.64250,62080
8.65063,62489
8.65875,59605
8.66687,57622
8.67500,58933
8.68312,63780
8.69125,65049
8.69937,59459
8.70748,58890
8.71562,59201
8.72373,55340
8.73187,60217
8.73998,95514
8.74810,188076
8.75623,403363
8.76435,761974
8.77247,1134777
8.78060,1277654
8.78872,1163322
8.79685,841479
8.80497,528885
8.81308,328352
8.82122,218166
8.82933,169218
8.83747,155894
8.84558,162996
8.85370,169903
8.86183,164688
8.86995,158593
8.87808,153100
8.88620,141128
8.89432,136083
8.90245,125140
8.91057,123297
8.91868,121341
8.92682,120996
8.93493,124137
8.94307,122066
8.95118,141441
8.95930,139184
8.96743,145754
8.97555,132758
8.98368,123158
8.99180,118911
8.99992,111836
9.00805,109767
9.01617,101277
9.02428,97048
9.03242,90149
9.04053,94439
9.04867,93641
9.05678,91202
9.06490,91399
9.07303,87621
9.08115,84830
9.08928,89163
9.09740,89344
9.10552,105529
9.11365,110754
9.12177,114968
9.12990,109679
9.13802,98491
9.14613,91223
9.15427,90179
9.16238,83802
9.17050,89902
9.17863,79988
9.18675,77204
9.19488,75510
9.20300,74523
9.21112,77275
9.21925,70615
9.22737,72360
9.23550,76558
9.24362,74457
9.25173,75329
9.25987,77222
9.26798,78002
9.27610,78585
9.28423,76166
9.29235,76052
9.30048,74747
9.30860,72086
9.31672,72515
9.32485,67263
9.33297,69473
9.34110,65860
9.34922,68402
9.35733,65706
9.36547,66505
9.37358,64790
9.38172,65174
9.38983,70655
9.39795,70579
9.40608,73553
9.41420,79362
9.42232,85265
9.43045,92084
9.43857,96360
9.44670,93470
9.45482,84349
9.46293,78216
9.47107,66492
9.47918,72613
9.48732,66911
9.49543,63562
9.50355,68124
9.51168,70187
9.51980,80756
9.52793,78669
9.53605,74662
9.54417,68125
9.55230,63089
9.56042,55713
9.56853,55198
9.57667,56463
9.58478,61527
9.59292,69490
9.60103,61311
9.60915,56199
9.61728,50585
9.62540,48263
9.63353,49715
9.64165,42764
9.64977,38633
9.65790,40339
9.66602,36659
9.67415,36237
9.68227,36820
9.69038,37446
9.69852,40763
9.70663,40935
9.71475,36508
9.72288,38443
9.73100,36485
9.73913,39192
9.74725,37193
9.75537,35995
9.76350,36688
9.77162,31513
9.77975,36829
9.78787,36409
9.79598,37035
9.80412,40902
9.81223,40804
9.82035,35708
9.82848,31842
9.83660,35543
9.84473,33415
9.85285,36411
9.86097,41898
9.86910,41136
9.87722,41860
9.88535,40614
9.89347,43294
9.90158,43710
9.90972,41074
9.91783,42568
9.92597,48540
9.93408,59693
9.94220,80533
9.95033,104661
9.95845,122528
9.96657,130104
9.97470,119738
9.98282,95810
9.99095,75093
9.99907,63614
10.00718,60988
10.01532,59239
10.02343,50909
10.03157,50486
10.03968,50919
10.04780,43978
10.05593,43725
10.06405,45999
10.07217,48533
10.08030,46683
10.08842,51040
10.09655,45144
10.10467,46423
10.11278,50698
10.12092,48433
10.12903,42709
10.13717,41728
10.14528,46847
10.15340,44618
10.16153,42553
10.16965,41700
10.17778,42102
10.18590,42364
10.19402,41248
10.20215,44944
10.21027,42160
10.21838,41636
10.22652,44248
10.23463,44014
10.24277,47451
10.25088,47328
10.25900,58798
10.26713,102321
10.27525,220883
10.28338,501705
10.29150,1007123
10.29962,1615528
10.30775,2297707
10.31587,3229146
10.32400,4699161
10.33212,6601782
10.34023,7926798
10.34837,7606869
10.35648,5782297
10.36460,3569641
10.37273,1907607
10.38085,1051880
10.38898,638859
10.39710,459538
10.40522,356058
10.41335,300659
10.42147,262503
10.42960,230398
10.43772,207448
10.44583,185839
10.45397,176521
10.46208,170537
10.47020,166651
10.47833,150812
10.48645,147955
10.49458,141148
10.50270,134183
10.51082,125283
10.51895,121181
10.52707,118310
10.53520,109799
10.54332,112034
10.55143,108181
10.55957,108268
10.56768,108580
10.57582,101141
10.58393,105197
10.59205,97490
10.60018,96425
10.60830,92141
10.61642,87474
10.62455,82190
10.63267,78480
10.64080,75442
10.64892,80765
10.65703,75541
10.66517,71180
10.67328,77458
10.68142,73645
10.68953,73271
10.69765,70678
10.70578,70362
10.71390,66852
10.72203,72034
10.73015,70799
10.73827,75768
10.74640,72263
10.75452,74773
10.76263,68197
10.77077,66696
10.77888,62536
10.78702,56477
10.79513,60429
10.80325,60875
10.81138,59368
10.81950,61109
10.82763,63996
10.83575,55150
10.84387,55733
10.85200,54200
10.86012,50939
10.86823,52215
10.87637,51243
10.88448,51268
10.89262,54773
10.90073,51763
10.90885,51757
10.91698,48244
10.92510,50048
10.93323,49313
10.94135,48430
10.94947,50660
10.95760,49887
10.96572,47398
10.97385,51318
10.98197,49385
10.99008,47655
10.99822,48568
11.00633,48701
11.01445,47290
11.02258,44084
11.03070,43118
11.03883,41735
11.04695,44650
11.05507,45915
11.06320,46171
11.07132,47692
11.07945,49599
11.08757,48060
11.09568,49585
11.10382,47642
11.11193,46049
11.12005,39126
11.12818,39839
11.13630,40370
11.14443,38994
11.15255,38463
11.16067,36257
11.16880,39025
11.17692,40061
11.18505,44280
11.19317,41853
11.20128,44093
11.20942,42434
11.21753,39597
11.22567,40639
11.23378,40182
11.24190,38261
11.25003,35646
11.25815,36781
11.26627,36496
11.27440,35101
11.28252,37640
11.29065,40376
11.29877,45523
11.30688,60739
11.31502,84693
11.32313,125252
11.33127,175243
11.33938,207270
11.34750,220637
11.35563,204228
11.36375,163397
11.37188,119056
11.38000,92692
11.38812,74723
11.39625,63519
11.40437,60860
11.41248,59233
11.42062,56625
11.42873,60256
11.43687,55286
11.44498,51776
11.45310,52590
11.46123,51909
11.46935,57354
11.47748,65497
11.48560,78719
11.49372,103967
11.50185,117978
11.50997,118481
11.51808,106832
11.52622,92339
11.53433,77973
11.54247,72653
11.55058,67035
11.55870,63208
11.56683,63575
11.57495,58789
11.58308,57493
11.59120,57979
11.59932,65309
11.60745,81015
11.61557,102319
11.62370,110519
11.63182,121327
11.63993,99195
11.64807,82532
11.65618,66561
11.66430,55950
11.67243,55289
11.68055,47700
11.68868,50805
11.69680,47656
11.70492,52141
11.71305,52315
11.72117,49518
11.72930,48411
11.73742,49437
11.74553,41820
11.75367,43338
11.76178,43049
11.76992,42274
11.77803,45245
11.78615,44586
11.79428,41668
11.80240,45020
11.81052,41554
11.81865,45219
11.82677,41698
11.83490,43895
11.84302,42129
11.85113,48140
11.85927,48823
11.86738,45785
11.87552,52346
11.88363,45459
11.89175,40168
11.89988,37943
11.90800,43101
11.91612,40397
11.92425,46277
11.93237,45635
11.94050,48824
11.94862,46705
11.95673,43643
11.96487,42073
11.97298,39237
11.98112,45746
11.98923,56966
11.99735,73658
12.00548,110004
12.01360,119497
12.02173,126752
12.02985,114426
12.03797,90618
12.04610,72237
12.05422,56752
12.06233,50297
12.07047,51144
12.07858,48158
12.08672,45370
12.09483,47784
12.10295,48469
12.11108,47528
12.11920,43428
12.12733,46439
12.13545,47953
12.14357,45894
12.15170,44904
12.15982,40276
12.16795,42977
12.17607,44133
12.18418,39362
12.19232,36734
12.20043,37912
12.20855,40180
12.21668,37845
12.22480,39528
12.23293,45863
12.24105,37130
12.24917,39332
12.25730,37053
12.26542,41679
12.27355,37514
12.28167,38575
12.28978,36354
12.29792,34968
12.30603,33440
12.31415,38069
12.32228,36873
12.33040,35339
12.33853,35226
12.34665,32436
12.35477,33846
12.36290,36988
12.37102,35411
12.37915,36391
12.38727,37710
12.39538,38028
12.40352,41153
12.41163,46308
12.41977,58799
12.42788,62685
12.43600,65413
12.44413,60214
12.45225,58392
12.46037,58015
12.46850,53608
12.47662,45500
12.48475,43522
12.49287,42003
12.50098,42096
12.50912,39748
12.51723,40776
12.52537,45558
12.53348,50646
12.54160,54596
12.54973,63784
12.55785,90004
12.56597,109376
12.57410,121431
12.58222,114036
12.59035,98263
12.59847,78029
12.60658,57947
12.61472,56276
12.62283,51082
12.63097,44541
12.63908,46198
12.64720,42617
12.65533,40228
12.66345,43029
12.67158,41588
12.67970,40551
12.68782,36738
12.69595,41520
12.70407,42683
12.71218,38857
12.72032,42336
12.72843,47957
12.73657,46970
12.74468,56687
12.75280,50462
12.76093,47081
12.76905,37842
12.77718,36316
12.78530,35320
12.79342,33287
12.80155,33953
12.80967,36082
12.81780,34309
12.82592,31154
12.83403,31760
12.84217,29803
12.85028,30569
12.85840,34731
12.86653,29407
12.87465,31769
12.88278,34153
12.89090,29697
12.89902,32147
12.90715,28775
12.91527,30162
12.92340,33637
12.93152,29408
12.93963,30437
12.94777,28891
12.95588,36478
12.96400,39477
12.97213,49928
12.98025,59888
12.98838,71337
12.99650,72696
13.00462,64688
13.01275,52938
13.02087,48495
13.02900,39857
13.03712,40444
13.04523,36650
13.05337,38751
13.06148,36105
13.06962,34052
13.07773,36145
13.08585,36468
13.09398,34930
13.10210,37772
13.11022,33914
13.11835,32913
13.12647,33945
13.13460,30962
13.14272,33371
13.15083,31416
13.15897,29435
13.16708,33800
13.17522,35068
13.18333,37942
13.19145,36340
13.19958,41981
13.20770,39120
13.21583,39991
13.22395,38413
13.23207,35442
13.24020,40238
13.24832,35581
13.25643,33443
13.26457,36122
13.27268,34613
13.28082,34177
13.28893,33107
13.29705,29859
13.30518,29679
13.31330,29372
13.32143,29221
13.32955,32388
13.33767,31025
13.34580,28559
13.35392,29256
13.36203,31046
13.37017,31418
13.37828,32098
13.38642,30040
13.39453,31477
13.40265,29115
13.41078,30369
13.41890,29309
13.42703,28232
13.43515,27493
13.44327,29916
13.45140,28490
13.45952,30119
13.46765,29202
13.47577,29748
13.48388,32135
13.49202,33458
13.50013,33225
13.50825,31871
13.51638,32055
13.52450,33246
13.53263,34932
13.54075,30337
13.54887,28907
13.55700,30068
13.56512,30956
13.57325,30563
13.58137,31538
13.58948,39808
13.59762,45375
13.60573,63048
13.61385,87220
13.62198,115710
13.63010,138482
13.63823,130809
13.64635,104008
13.65447,78737
13.66260,60829
13.67072,47474
13.67885,43463
13.68697,40480
13.69508,35438
13.70322,38562
13.71133,39042
13.71947,40787
13.72758,43783
13.73570,58171
13.74383,122909
13.75195,237582
13.76007,492420
13.76820,863419
13.77632,1224399
13.78445,1428974
13.79257,1344376
13.80068,1090748
13.80882,749272
13.81693,543778
13.82507,424930
13.83318,377502
13.84130,354058
13.84943,327707
13.85755,264243
13.86568,228094
13.87380,196648
13.88192,174231
13.89005,160161
13.89817,142829
13.90628,133202
13.91442,123803
13.92253,121886
13.93067,114833
13.93878,108281
13.94690,103799
13.95503,102052
13.96315,101482
13.97128,107388
13.97940,107361
13.98752,104526
13.99565,114966
14.00377,106518
14.01190,101498
14.02002,93090
14.02813,92009
14.03627,89032
14.04438,85634
14.05250,88119
14.06063,84476
14.06875,81512
14.07688,81733
14.08500,82000
14.09312,78156
14.10125,78193
14.10937,77910
14.11750,73535
14.12562,75334
14.13373,74283
14.14187,76678
14.14998,81198
14.15810,91251
14.16623,104399
14.17435,145971
14.18248,196831
14.19060,256805
14.19872,296947
14.20685,279879
14.21497,235753
14.22310,199854
14.23122,167626
14.23933,149996
14.24747,140647
14.25558,134822
14.26372,123513
14.27183,116178
14.27995,99091
14.28808,100169
14.29620,82707
14.30432,78662
14.31245,74583
14.32057,74699
14.32870,68068
14.33682,67408
14.34493,63414
14.35307,59723
14.36118,55279
14.36932,48865
14.37743,48177
14.38555,52203
14.39368,75857
14.40180,120342
14.40992,193882
14.41805,291043
14.42617,372206
14.43430,369794
14.44242,302699
14.45053,211692
14.45867,152225
14.46678,114275
14.47492,87104
14.48303,82780
14.49115,71581
14.49928,67367
14.50740,70094
14.51553,62467
14.52365,62979
14.53177,61576
14.53990,58222
14.54802,54081
14.55613,51641
14.56427,52579
14.57238,50679
14.58052,48457
14.58863,48117
14.59675,47261
14.60488,51219
14.61300,43940
14.62113,45019
14.62925,45087
14.63737,45522
14.64550,43222
14.65362,43340
14.66175,41034
14.66987,43714
14.67798,40902
14.68612,43305
14.69423,41420
14.70235,40962
14.71048,38355
14.71860,38383
14.72673,40660
14.73485,43007
14.74297,42211
14.75110,45757
14.75922,47145
14.76735,41748
14.77547,41779
14.78358,52559
14.79172,80113
14.79983,174835
14.80795,410272
14.81608,834777
14.82420,1476665
14.83233,2010348
14.84045,2122074
14.84857,1864128
14.85670,1338567
14.86482,854216
14.87295,540759
14.88107,364720
14.88918,257702
14.89732,211027
14.90543,177458
14.91357,153065
14.92168,140169
14.92980,128675
14.93793,120372
14.94605,115832
14.95417,103630
14.96230,98973
14.97042,96927
14.97855,90054
14.98667,88416
14.99478,88284
15.00292,90977
15.01103,82234
15.01917,76206
15.02728,76209
15.03540,75868
15.04353,73446
15.05165,69726
15.05978,63711
15.06790,66088
15.07602,63976
15.08415,60773
15.09227,58781
15.10038,59014
15.10852,58475
15.11663,57577
15.12477,60704
15.13288,65940
15.14100,67771
15.14913,72750
15.15725,67336
15.16538,61768
15.17350,59554
15.18162,55298
15.18975,49815
15.19787,48718
15.20598,46242
15.21412,46928
15.22223,44946
15.23037,42368
15.23848,41829
15.24660,39503
15.25473,40005
15.26285,39246
15.27098,36747
15.27910,43518
15.28722,37073
15.29535,36042
15.30347,40348
15.31160,36381
15.31972,35770
15.32783,33515
15.33597,36169
15.34408,35017
15.35220,32371
15.36033,34408
15.36845,35528
15.37658,37570
15.38470,34834
15.39282,40004
15.40095,37069
15.40907,36005
15.41720,35202
15.42532,38764
15.43343,32703
15.44157,35205
15.44968,33402
15.45780,34888
15.46593,44616
15.47405,44142
15.48218,59691
15.49030,62721
15.49842,73075
15.50655,71218
15.51467,69290
15.52280,65837
15.53092,60121
15.53903,54817
15.54717,53664
15.55528,54822
15.56342,50351
15.57153,47308
15.57965,41912
15.58778,39698
15.59590,40788
15.60402,37836
15.61215,34407
15.62027,34264
15.62840,35920
15.63652,39635
15.64463,36892
15.65277,34958
15.66088,34621
15.66902,34844
15.67713,35658
15.68525,34259
15.69338,36685
15.70150,35631
15.70963,35975
15.71775,34244
15.72587,31993
15.73400,34743
15.74212,36287
15.75023,40426
15.75837,54550
15.76648,84959
15.77462,128754
15.78273,187305
15.79085,238007
15.79898,227094
15.80710,194912
15.81523,152084
15.82335,106805
15.83147,86605
15.83960,71175
15.84772,59381
15.85583,53757
15.86397,53491
15.87208,49143
15.88022,51082
15.88833,46610
15.89645,46786
15.90458,47936
15.91270,43279
15.92083,40595
15.92895,44072
15.93707,42033
15.94520,45910
15.95332,52495
15.96145,61846
15.96957,71640
15.97768,84010
15.98582,82733
15.99393,85716
16.00205,75496
16.01018,72255
16.01830,70172
16.02643,72154
16.03455,68035
16.04267,64793
16.05080,58626
16.05892,56138
16.06705,46688
16.07517,47056
16.08328,45552
16.09142,42033
16.09953,43301
16.10767,38922
16.11578,42973
16.12390,43015
16.13203,42053
16.14015,44659
16.14827,47716
16.15640,46338
16.16452,47432
16.17265,45234
16.18077,40435
16.18888,39176
16.19702,36840
16.20513,42720
16.21327,43633
16.22138,40867
16.22950,39952
16.23763,40499
16.24575,36148
16.25387,37824
16.26200,33245
16.27012,36583
16.27825,39207
16.28637,40150
16.29448,40122
16.30262,41024
16.31073,38303
16.31887,41773
16.32698,39041
16.33510,39878
16.34323,39853
16.35135,44768
16.35948,53829
16.36760,61820
16.37572,67417
16.38385,73358
16.39197,75801
16.40008,64993
16.40822,58474
16.41633,59954
16.42447,46470
16.43258,46067
16.44070,54997
16.44883,66342
16.45695,97768
16.46508,152626
16.47320,227388
16.48132,302985
16.48945,337821
16.49757,287063
16.50568,223409
16.51382,157668
16.52193,111579
16.53007,85843
16.53818,71866
16.54630,65977
16.55443,55982
16.56255,56679
16.57068,55583
16.57880,58192
16.58692,59495
16.59505,61703
16.60317,69906
16.61130,71267
16.61942,72521
16.62753,74637
16.63567,66100
16.64378,61196
16.65190,54560
16.66003,47437
16.66815,49023
16.67628,46818
16.68440,45229
16.69252,47455
16.70065,47669
16.70877,45165
16.71690,44162
16.72502,40921
16.73313,40235
16.74127,37416
16.74938,40627
16.75752,44621
16.76563,38594
16.77375,42162
16.78188,41621
16.79000,40334
16.79812,37425
16.80625,37798
16.81437,36603
16.82250,36056
16.83062,40120
16.83873,34166
16.84687,35566
16.85498,35966
16.86312,34205
16.87123,35932
16.87935,32973
16.88748,34515
16.89560,38121
16.90372,36880
16.91185,32678
16.91997,30010
16.92810,32808
16.93622,33660
16.94433,32876
16.95247,34974
16.96058,33165
16.96872,36408
16.97683,39715
16.98495,37596
16.99308,34924
17.00120,35156
17.00933,35613
17.01745,36154
17.02557,35369
17.03370,38368
17.04182,42728
17.04993,41687
17.05807,45706
17.06618,44131
17.07432,43421
17.08243,40563
17.09055,37733
17.09868,37984
17.10680,40323
17.11493,37715
17.12305,40011
17.13117,38100
17.13930,40645
17.14742,39197
17.15555,37957
17.16367,40568
17.17178,39368
17.17992,35205
17.18803,35861
17.19615,35665
17.20428,30980
17.21240,35861
17.22053,33235
17.22865,35731
17.23677,32969
17.24490,32505
17.25302,34816
17.26115,36957
17.26927,35562
17.27738,33725
17.28552,33499
17.29363,40899
17.30175,32232
17.30988,33889
17.31800,39545
17.32613,44126
17.33425,46357
17.34237,50261
17.35050,48742
17.35862,55551
17.36675,46839
17.37487,46360
17.38298,46474
17.39112,46173
17.39923,42428
17.40737,42489
17.41548,41244
17.42360,41817
17.43173,42338
17.43985,42634
17.44797,40712
17.45610,41392
17.46422,40863
17.47235,37629
17.48047,34432
17.48858,35790
17.49672,38045
17.50483,35751
17.51297,38166
17.52108,34969
17.52920,35739
17.53733,37946
17.54545,38923
17.55358,45662
17.56170,55047
17.56982,89276
17.57795,158649
17.58607,265645
17.59418,401735
17.60232,571141
17.61043,693659
17.61857,695699
17.62668,620406
17.63480,459628
17.64293,346386
17.65105,252759
17.65918,199855
17.66730,170667
17.67542,145879
17.68355,126422
17.69167,115865
17.69978,105126
17.70792,96819
17.71603,87875
17.72417,80985
17.73228,76637
17.74040,73320
17.74853,68772
17.75665,67843
17.76478,62276
17.77290,60947
17.78102,62103
17.78915,68210
17.79727,88365
17.80540,134750
17.81352,216642
17.82163,301252
17.82977,355563
17.83788,373823
17.84600,333306
17.85413,256283
17.86225,195271
17.87038,153708
17.87850,127987
17.88662,104506
17.89475,89653
17.90287,80571
17.91100,71840
17.91912,72631
17.92723,69318
17.93537,69091
17.94348,64798
17.95160,60723
17.95973,59065
17.96785,64287
17.97598,57113
17.98410,54528
17.99222,58190
18.00035,55883
18.00847,54418
18.01660,58180
18.02472,66703
18.03283,69943
18.04097,85109
18.04908,111233
18.05722,188005
18.06533,400275
18.07345,832209
18.08158,1461135
18.08970,2085231
18.09782,2461923
18.10595,2322751
18.11407,1902477
18.12220,1352862
18.13032,923770
18.13843,660776
18.14657,527677
18.15468,439945
18.16282,368209
18.17093,337638
18.17905,300703
18.18718,278606
18.19530,253928
18.20343,231125
18.21155,212194
18.21967,205873
18.22780,196750
18.23592,179199
18.24403,162897
18.25217,162098
18.26028,145301
18.26842,128431
18.27653,116792
18.28465,102772
18.29278,87245
18.30090,74218
18.30903,71609
18.31715,60065
18.32527,59237
18.33340,55669
18.34152,53785
18.34963,54699
18.35777,51295
18.36588,52307
18.37402,52670
18.38213,49177
18.39025,45792
18.39838,45831
18.40650,48737
18.41463,51920
18.42275,50679
18.43087,55187
18.43900,62332
18.44712,80135
18.45525,103315
18.46337,135165
18.47148,164884
18.47962,198223
18.48773,217015
18.49585,208117
18.50398,188144
18.51210,152303
18.52023,127968
18.52835,102610
18.53647,82559
18.54460,71898
18.55272,73226
18.56085,67503
18.56897,67469
18.57708,59328
18.58522,60624
18.59333,62062
18.60147,59060
18.60958,61379
18.61770,57412
18.62583,60268
18.63395,57727
18.64207,56754
18.65020,52248
18.65832,52067
18.66645,56315
18.67457,62384
18.68268,89013
18.69082,109021
18.69893,127607
18.70707,128741
18.71518,134102
18.72330,141359
18.73143,148519
18.73955,155355
18.74767,153350
18.75580,152783
18.76392,161014
18.77205,161654
18.78017,162507
18.78828,169098
18.79642,155646
18.80453,166126
18.81267,159639
18.82078,158447
18.82890,160275
18.83703,159285
18.84515,158607
18.85328,157757
18.86140,153456
18.86952,159656
18.87765,160363
18.88577,155042
18.89388,153596
18.90202,155867
18.91013,163725
18.91827,156275
18.92638,154122
18.93450,151495
18.94263,154344
18.95075,151369
18.95888,152762
18.96700,156398
18.97512,156371
18.98325,154452
18.99137,150563
18.99948,145154
19.00762,140943
19.01573,142011
19.02387,145053
19.03198,138254
19.04010,138077
19.04823,139421
19.05635,143687
19.06448,142547
19.07260,154576
19.08072,177582
19.08885,198720
19.09697,231976
19.10510,246695
19.11322,257828
19.12133,243278
19.12947,222448
19.13758,194088
19.14570,171252
19.15383,161435
19.16195,144774
19.17008,143814
19.17820,136893
19.18632,136459
19.19445,131598
19.20257,130760
19.21070,130275
19.21882,131383
19.22693,126992
19.23507,128943
19.24318,125225
19.25132,123329
19.25943,124817
19.26755,122784
19.27568,121953
19.28380,128989
19.29192,134885
19.30005,133662
19.30817,134585
19.31630,136247
19.32442,125262
19.33253,124798
19.34067,123875
19.34878,136276
19.35692,148229
19.36503,167524
19.37315,182487
19.38128,187020
19.38940,173932
19.39753,170131
19.40565,148439
19.41377,136832
19.42190,130381
19.43002,127834
19.43813,128459
19.44627,135721
19.45438,140098
19.46252,149684
19.47063,161617
19.47875,187514
19.48688,230550
19.49500,247883
19.50313,264166
19.51125,246926
19.51937,208323
19.52750,174144
19.53562,143379
19.54373,126891
19.55187,121656
19.55998,117126
19.56812,109464
19.57623,109769
19.58435,105941
19.59248,104048
19.60060,97936
19.60873,102035
19.61685,104089
19.62497,102002
19.63310,107330
19.64122,119070
19.64935,129941
19.65747,155660
19.66558,182914
19.67372,191393
19.68183,212684
19.68995,215388
19.69808,199229
19.70620,194860
19.71433,177551
19.72245,164598
19.73057,147836
19.73870,132551
19.74682,123455
19.75495,114381
19.76307,105019
19.77118,108457
19.77932,101951
19.78743,108606
19.79555,115189
19.80368,113832
19.81180,107193
19.81993,107081
19.82805,100643
19.83617,105407
19.84430,116391
19.85242,194902
19.86055,431246
19.86867,1030883
19.87678,2154368
19.88492,3933692
19.89303,5896184
19.90117,7280570
19.90928,7448416
19.91740,6488245
19.92553,4802755
19.93365,3325180
19.94177,2271049
19.94990,1600371
19.95802,1261100
19.96615,1060524
19.97427,938355
19.98238,822942
19.99052,767919
19.99863,708630
20.00677,645435
20.01488,622168
20.02300,593626
20.03113,542083
20.03925,487099
20.04738,424056
20.05550,356419
20.06362,289123
20.07175,238619
20.07987,211364
20.08798,178391
20.09612,168567
20.10423,149053
20.11237,156438
20.12048,143424
20.12860,143242
20.13673,135039
20.14485,130647
20.15298,127029
20.16110,134322
20.16922,137853
20.17735,145064
20.18547,150686
20.19358,158731
20.20172,157236
20.20983,144558
20.21797,148130
20.22608,142442
20.23420,135734
20.24233,137379
20.25045,148758
20.25858,163936
20.26670,180589
20.27482,197017
20.28295,213253
20.29107,203819
20.29920,192001
20.30732,178465
20.31543,158035
20.32357,145692
20.33168,124266
20.33980,112823
20.34793,101645
20.35605,92328
20.36418,85297
20.37230,82680
20.38042,76532
20.38855,74369
20.39667,76010
20.40480,73281
20.41292,74389
20.42103,78205
20.42917,78591
20.43728,75154
20.44542,76479
20.45353,84463
20.46165,75459
20.46978,77283
20.47790,70819
20.48602,70684
20.49415,74390
20.50227,67070
20.51040,62322
20.51852,67042
20.52663,63919
20.53477,71419
20.54288,66655
20.55102,65649
20.55913,64807
20.56725,63391
20.57538,61249
20.58350,62759
20.59162,61884
20.59975,59226
20.60787,55591
20.61600,65469
20.62412,59980
20.63223,63665
20.64037,60469
20.64848,65688
20.65662,64316
20.66473,64243
20.67285,63263
20.68098,61546
20.68910,58865
20.69723,57599
20.70535,56315
20.71347,57371
20.72160,55953
20.72972,54406
20.73783,55507
20.74597,57129
20.75408,61964
20.76222,61465
20.77033,65584
20.77845,68196
20.78658,80355
20.79470,109956
20.80283,138402
20.81095,181317
20.81907,224171
20.82720,217787
20.83532,191551
20.84343,157600
20.85157,118089
20.85968,95363
20.86782,78672
20.87593,71722
20.88405,72342
20.89218,65704
20.90030,68584
20.90843,64020
20.91655,65310
20.92467,62782
20.93280,60197
20.94092,59460
20.94905,64332
20.95717,62365
20.96528,59422
20.97342,60545
20.98153,56672
20.98965,52531
20.99778,55605
21.00590,54447
21.01403,54810
21.02215,56401
21.03027,56829
21.03840,56075
21.04652,58481
21.05465,59140
21.06277,55518
21.07088,60706
21.07902,56681
21.08713,51229
21.09527,53243
21.10338,50696
21.11150,52710
21.11963,53392
21.12775,55448
21.13587,59795
21.14400,63398
21.15212,71356
21.16025,76009
21.16837,74070
21.17648,75414
21.18462,68430
21.19273,63622
21.20087,62999
21.20898,59710
21.21710,58923
21.22523,56126
21.23335,55933
21.24147,56992
21.24960,53517
21.25772,50427
21.26585,53379
21.27397,53044
21.28208,52688
21.29022,53042
21.29833,51776
21.30647,49147
21.31458,51638
21.32270,53117
21.33083,49700
21.33895,52699
21.34708,51569
21.35520,48047
21.36332,47490
21.37145,56164
21.37957,57401
21.38768,62752
21.39582,68082
21.40393,83751
21.41207,87825
21.42018,83330
21.42830,76183
21.43643,75656
21.44455,62579
21.45268,58521
21.46080,55040
21.46892,52014
21.47705,52797
21.48517,51089
21.49330,48365
21.50142,44348
21.50953,44115
21.51767,45593
21.52578,46923
21.53390,45398
21.54203,47106
21.55015,50377
21.55828,46264
21.56640,49979
21.57452,53735
21.58265,57053
21.59077,64226
21.59890,67910
21.60702,69034
21.61513,69301
21.62327,70638
21.63138,71833
21.63950,68962
21.64763,76512
21.65575,65886
21.66388,72497
21.67200,70622
21.68012,72788
21.68825,73868
21.69637,70402
21.70450,61337
21.71262,57563
21.72073,56575
21.72887,51940
21.73698,56230
21.74512,51015
21.75323,53532
21.76135,50608
21.76948,46328
21.77760,52289
21.78572,51452
21.79385,51607
21.80197,51840
21.81010,54328
21.81822,56848
21.82633,59231
21.83447,60007
21.84258,63481
21.85072,60942
21.85883,60077
21.86695,52395
21.87508,51454
21.88320,47530
21.89133,48899
21.89945,47664
21.90757,50464
21.91570,47298
21.92382,44340
21.93193,43827
21.94007,43653
21.94818,41731
21.95632,41515
21.96443,41540
21.97255,38561
21.98068,41856
21.98880,36510
21.99693,38830
22.00505,39410
22.01317,40755
22.02130,42758
22.02942,39468
22.03753,44753
22.04567,40321
22.05378,42587
22.06192,43463
22.07003,37546
22.07815,38749
22.08628,40013
22.09440,41998
22.10253,39131
22.11065,39752
22.11877,41679
22.12690,44939
22.13502,40523
22.14315,45133
22.15127,39180
22.15938,38710
22.16752,40999
22.17563,40616
22.18375,44427
22.19188,47305
22.20000,52145
22.20813,57046
22.21625,59449
22.22437,58600
22.23250,63895
22.24062,65856
22.24875,66819
22.25687,64814
22.26498,69686
22.27312,65415
22.28123,72229
22.28935,70669
22.29748,73711
22.30560,73643
22.31373,74759
22.32185,74162
22.32997,77432
22.33810,79388
22.34622,78730
22.35435,73235
22.36247,70978
22.37058,65038
22.37872,71770
22.38683,78732
22.39497,83025
22.40308,97528
22.41120,103393
22.41933,114377
22.42745,104776
22.43557,104266
22.44370,93224
22.45182,78499
22.45995,68329
22.46807,69274
22.47618,68446
22.48432,83308
22.49243,83707
22.50057,90043
22.50868,90473
22.51680,82049
22.52493,83152
22.53305,71330
22.54118,64221
22.54930,68987
22.55742,66381
22.56555,54788
22.57367,53784
22.58178,47888
22.58992,46551
22.59803,45318
22.60617,44856
22.61428,44249
22.62240,42938
22.63053,45554
22.63865,45968
22.64678,45349
22.65490,44411
22.66302,42979
22.67115,44049
22.67927,47766
22.68738,50319
22.69552,59179
22.70363,71700
22.71177,88474
22.71988,100300
22.72800,108995
22.73613,107907
22.74425,108536
22.75238,107844
22.76050,109575
22.76862,112272
22.77675,119068
22.78487,123344
22.79300,146232
22.80112,157643
22.80923,174827
22.81737,181896
22.82548,167890
22.83360,163372
22.84173,146858
22.84985,130982
22.85798,130574
22.86610,127962
22.87422,128257
22.88235,136807
22.89047,141271
22.89860,162003
22.90672,185300
22.91483,211128
22.92297,237251
22.93108,246334
22.93922,228326
22.94733,198771
22.95545,176270
22.96358,153683
22.97170,142671
22.97982,130618
22.98795,116093
22.99607,115217
23.00420,119308
23.01232,115306
23.02043,109855
23.02857,104607
23.03668,104137
23.04482,104831
23.05293,100760
23.06105,99510
23.06918,101186
23.07730,103722
23.08542,96552
23.09355,93049
23.10167,95289
23.10980,100699
23.11792,95385
23.12603,92445
23.13417,91906
23.14228,93674
23.15042,94617
23.15853,94985
23.16665,91733
23.17478,92888
23.18290,87665
23.19103,85954
23.19915,84776
23.20727,86748
23.21540,85351
23.22352,89573
23.23163,85039
23.23977,89848
23.24788,87826
23.25602,96171
23.26413,88726
23.27225,93069
23.28038,94025
23.28850,91959
23.29663,85633
23.30475,83689
23.31287,85455
23.32100,90256
23.32912,94417
23.33723,103254
23.34537,122780
23.35348,162859
23.36162,223529
23.36973,319960
23.37785,432531
23.38598,546378
23.39410,659125
23.40223,772322
23.41035,839382
23.41847,845363
23.42660,869416
23.43472,827025
23.44285,800624
23.45097,768972
23.45908,725134
23.46722,662597
23.47533,626034
23.48345,584172
23.49158,531916
23.49970,482451
23.50783,445240
23.51595,415002
23.52407,377928
23.53220,350072
23.54032,331253
23.54845,321959
23.55657,302590
23.56468,292552
23.57282,298179
23.58093,309346
23.58907,316866
23.59718,338518
23.60530,347653
23.61343,338517
23.62155,313730
23.62967,280816
23.63780,255589
23.64592,226744
23.65405,218024
23.66217,221156
23.67028,213634
23.67842,199414
23.68653,198094
23.69467,179585
23.70278,156220
23.71090,153402
23.71903,146702
23.72715,143778
23.73527,140394
23.74340,158176
23.75152,206826
23.75965,323881
23.76777,555613
23.77588,868048
23.78402,1306934
23.79213,1696108
23.80027,1844936
23.80838,1723659
23.81650,1492964
23.82463,1240745
23.83275,994536
23.84088,775535
23.84900,620491
23.85712,526013
23.86525,445654
23.87337,374901
23.88148,332625
23.88962,303448
23.89773,275713
23.90587,261344
23.91398,250226
23.92210,237801
23.93023,219363
23.93835,205693
23.94648,188630
23.95460,179391
23.96272,173174
23.97085,169523
23.97897,158941
23.98710,149645
23.99522,139337
24.00333,146457
24.01147,140883
24.01958,149402
24.02770,152552
24.03583,162648
24.04395,156115
24.05208,145077
24.06020,132351
24.06832,122917
24.07645,114868
24.08457,106932
24.09270,103641
24.10082,104542
24.10893,100382
24.11707,98869
24.12518,104302
24.13330,104811
24.14143,97191
24.14955,102193
24.15768,97269
24.16580,99785
24.17392,105897
24.18205,103896
24.19017,99560
24.19830,96849
24.20642,99624
24.21453,89251
24.22267,91143
24.23078,88410
24.23892,82478
24.24703,79611
24.25515,78414
24.26328,81012
24.27140,79511
24.27952,76196
24.28765,74444
24.29577,70140
24.30390,71837
24.31202,73563
24.32013,74862
24.32827,68833
24.33638,72325
24.34452,73116
24.35263,75195
24.36075,89427
24.36888,103445
24.37700,123586
24.38512,140515
24.39325,139226
24.40137,121909
24.40950,105770
24.41762,90916
24.42573,77263
24.43387,79274
24.44198,89623
24.45012,111806
24.45823,129665
24.46635,149837
24.47448,167199
24.48260,181197
24.49073,208033
24.49885,198536
24.50697,205407
24.51510,201041
24.52322,205532
24.53133,202340
24.53947,222539
24.54758,220879
24.55572,218898
24.56383,221360
24.57195,206190
24.58008,203026
24.58820,194293
24.59633,183970
24.60445,178705
24.61257,174784
24.62070,168334
24.62882,163867
24.63695,163565
24.64507,163212
24.65318,163816
24.66132,166913
24.66943,160461
24.67755,162829
24.68568,165095
24.69380,160229
24.70193,162979
24.71005,165744
24.71817,159762
24.72630,161770
24.73442,164435
24.74255,156971
24.75067,156308
24.75878,161150
24.76692,170229
24.77503,161969
24.78317,164374
24.79128,168107
24.79940,167631
24.80753,172716
24.81565,173169
24.82377,174204
24.83190,191517
24.84002,202701
24.84815,241883
24.85627,280440
24.86438,356066
24.87252,433402
24.88063,533062
24.88877,597764
24.89688,615877
24.90500,575419
24.91313,505170
24.92125,411119
24.92937,308705
24.93750,256481
24.94562,215095
24.95375,197189
24.96187,177179
24.96998,167209
24.97812,166502
24.98623,159582
24.99437,161519
25.00248,146991
25.01060,151898
25.01873,147096
25.02685,145640
25.03498,142875
25.04310,139829
25.05122,135756
25.05935,137548
25.06747,139150
25.07558,136333
25.08372,138289
25.09183,156546
25.09997,194964
25.10808,298094
25.11620,542271
25.12433,941328
25.13245,1493161
25.14058,2020660
25.14870,2343607
25.15682,2278606
25.16495,1863884
25.17307,1257743
25.18118,844947
25.18932,530789
25.19743,335620
25.20557,226174
25.21368,168853
25.22180,146103
25.22993,129353
25.23805,140105
25.24618,153958
25.25430,181097
25.26242,222838
25.27055,231669
25.27867,234586
25.28680,221889
25.29492,198684
25.30303,157340
25.31117,129642
25.31928,109672
25.32740,93015
25.33553,91825
25.34365,81527
25.35178,83461
25.35990,77162
25.36802,69001
25.37615,73174
25.38427,68976
25.39240,65359
25.40052,63234
25.40863,65740
25.41677,61974
25.42488,64087
25.43302,61212
25.44113,62463
25.44925,67502
25.45738,59347
25.46550,60079
25.47362,57388
25.48175,61899
25.48987,57337
25.49800,56258
25.50612,56681
25.51423,52620
25.52237,54518
25.53048,55298
25.53862,54457
25.54673,53119
25.55485,53158
25.56298,54031
25.57110,54107
25.57922,55783
25.58735,62323
25.59547,78676
25.60360,92940
25.61172,112542
25.61983,132383
25.62797,148236
25.63608,156590
25.64422,166916
25.65233,172530
25.66045,174740
25.66858,182928
25.67670,184004
25.68483,185010
25.69295,179293
25.70107,181275
25.70920,184587
25.71732,194668
25.72543,188803
25.73357,185087
25.74168,190472
25.74982,187404
25.75793,195539
25.76605,193335
25.77418,194531
25.78230,188778
25.79043,193388
25.79855,182279
25.80667,192759
25.81480,177025
25.82292,178747
25.83105,188614
25.83917,185970
25.84728,187184
25.85542,186231
25.86353,184919
25.87165,179838
25.87978,184580
25.88790,179864
25.89603,169734
25.90415,167068
25.91227,162824
25.92040,163503
25.92852,167574
25.93665,162264
25.94477,159016
25.95288,151490
25.96102,156079
25.96913,158879
25.97725,148643
25.98538,147408
25.99350,149735
26.00163,141685
26.00975,146335
26.01787,144112
26.02600,141480
26.03412,137790
26.04225,144020
26.05037,141417
26.05848,137511
26.06662,139006
26.07473,139143
26.08287,128419
26.09098,134424
26.09910,131193
26.10723,133563
26.11535,137184
26.12347,132820
26.13160,137073
26.13972,128108
26.14785,133743
26.15597,131885
26.16408,128797
26.17222,126229
26.18033,127629
26.18847,123060
26.19658,127776
26.20470,120393
26.21283,115656
26.22095,113802
26.22907,113569
26.23720,114606
26.24532,111600
26.25345,109587
26.26157,107071
26.26968,105632
26.27782,98795
26.28593,103034
26.29407,103020
26.30218,98020
26.31030,98162
26.31843,99030
26.32655,96895
26.33468,90256
26.34280,89072
26.35092,92555
26.35905,90244
26.36717,96028
26.37528,92913
26.38342,101407
26.39153,96680
26.39967,91820
26.40778,94439
26.41590,89991
26.42403,95665
26.43215,90948
26.44028,91229
26.44840,84938
26.45652,85648
26.46465,86825
26.47277,85740
26.48090,83010
26.48902,83700
26.49713,78962
26.50527,82377
26.51338,81481
26.52150,81667
26.52963,74266
26.53775,74744
26.54588,73185
26.55400,72809
26.56212,69837
26.57025,72277
26.57837,66206
26.58650,68052
26.59462,70806
26.60273,70544
26.61087,68133
26.61898,67731
26.62710,64480
26.63523,67497
26.64335,65137
26.65148,68161
26.65960,69472
26.66772,65778
26.67585,64890
26.68397,64732
26.69210,72093
26.70022,64677
26.70833,63793
26.71647,62173
26.72458,62891
26.73272,55122
26.74083,61100
26.74895,62064
26.75708,63840
26.76520,63647
26.77332,64727
26.78145,64913
26.78957,65100
26.79770,67815
26.80582,63421
26.81393,62850
26.82207,66290
26.83018,64571
26.83832,63190
26.84643,62120
26.85455,60892
26.86268,57947
26.87080,58518
26.87893,55294
26.88705,56340
26.89517,55270
26.90330,58434
26.91142,56057
26.91953,56189
26.92767,52801
26.93578,62104
26.94392,54227
26.95203,56897
26.96015,58042
26.96828,60203
26.97640,73944
26.98453,85720
26.99265,114855
27.00077,148603
27.00890,185453
27.01702,231593
27.02513,258088
27.03327,274351
27.04138,265710
27.04952,242760
27.05763,207166
27.06575,188107
27.07388,168715
27.08200,151978
27.09013,130480
27.09825,122043
27.10637,111049
27.11450,112101
27.12262,103356
27.13075,102286
27.13887,101209
27.14698,89862
27.15512,86120
27.16323,82996
27.17135,83879
27.17948,88014
27.18760,82793
27.19573,80013
27.20385,81969
27.21197,80354
27.22010,76260
27.22822,75993
27.23635,73410
27.24447,72040
27.25258,67839
27.26072,68843
27.26883,68464
27.27697,62897
27.28508,60943
27.29320,60035
27.30133,61701
27.30945,63298
27.31757,57619
27.32570,59803
27.33382,54602
27.34195,60041
27.35007,60271
27.35818,60865
27.36632,60624
27.37443,59761
27.38257,63493
27.39068,58061
27.39880,57158
27.40693,57048
27.41505,51418
27.42317,51978
27.43130,49685
27.43942,52094
27.44755,48796
27.45567,52517
27.46378,50549
27.47192,50744
27.48003,56390
27.48817,52273
27.49628,47857
27.50440,50313
27.51253,51357
27.52065,53719
27.52878,53767
27.53690,55900
27.54502,51255
27.55315,53627
27.56127,53862
27.56938,52089
27.57752,61284
27.58563,63014
27.59377,66829
27.60188,65895
27.61000,69582
27.61813,65372
27.62625,61062
27.63438,59055
27.64250,51898
27.65062,46858
27.65875,46414
27.66687,47075
27.67498,51408
27.68312,46012
27.69123,52537
27.69937,52578
27.70748,48926
27.71560,50224
27.72373,44056
27.73185,45281
27.73998,46880
27.74810,41828
27.75622,43237
27.76435,41930
27.77247,45375
27.78060,45666
27.78872,47450
27.79683,46587
27.80497,50606
27.81308,45278
27.82120,45422
27.82933,48794
27.83745,49682
27.84558,46818
27.85370,42267
27.86182,43326
27.86995,45713
27.87807,43524
27.88620,48231
27.89432,41985
27.90243,42795
27.91057,42368
27.91868,44297
27.92682,40608
27.93493,42155
27.94305,41009
27.95118,41475
27.95930,45728
27.96742,38787
27.97555,39042
27.98367,39333
27.99180,40719
27.99992,40993
28.00803,44243
28.01617,42029
28.02428,47932
28.03242,49705
28.04053,50717
28.04865,55313
28.05678,60972
28.06490,51904
28.07302,56210
28.08115,54275
28.08927,50956
28.09740,50830
28.10552,51720
28.11363,45038
28.12177,45669
28.12988,42669
28.13802,39861
28.14613,38752
28.15425,42064
28.16238,40171
28.17050,41607
28.17863,47433
28.18675,48627
28.19487,56878
28.20300,63779
28.21112,67884
28.21923,67817
28.22737,71573
28.23548,67989
28.24362,64760
28.25173,60413
28.25985,51599
28.26798,44737
28.27610,43852
28.28423,42921
28.29235,45953
28.30047,48952
28.30860,53004
28.31672,53588
28.32485,57798
28.33297,72395
28.34108,66812
28.34922,77792
28.35733,85029
28.36545,90511
28.37358,97662
28.38170,98238
28.38983,101716
28.39795,107304
28.40607,109621
28.41420,107127
28.42232,99320
28.43045,99598
28.43857,95714
28.44668,93546
28.45482,87446
28.46293,83369
28.47105,80263
28.47918,76981
28.48730,72097
28.49543,71861
28.50355,67444
28.51167,64814
28.51980,62029
28.52792,61552
28.53605,62366
28.54417,57563
28.55228,54471
28.56042,56592
28.56853,52981
28.57667,53065
28.58478,52259
28.59290,52292
28.60103,47175
28.60915,54516
28.61727,53777
28.62540,52207
28.63352,54705
28.64165,53296
28.64977,54752
28.65788,52832
28.66602,55123
28.67413,51076
28.68227,53172
28.69038,51770
28.69850,50040
28.70663,49288
28.71475,53364
28.72287,50505
28.73100,52849
28.73912,57808
28.74725,69003
28.75537,68993
28.76348,68516
28.77162,66727
28.77973,66089
28.78787,55623
28.79598,51616
28.80410,52851
28.81223,53258
28.82035,51985
28.82848,54996
28.83660,51908
28.84472,49623
28.85285,50010
28.86097,48733
28.86908,51643
28.87722,52994
28.88533,59816
28.89347,61661
28.90158,58888
28.90970,63987
28.91783,57069
28.92595,58395
28.93408,53016
28.94220,50194
28.95032,47278
28.95845,50395
28.96657,46807
28.97470,49546
28.98282,44943
28.99093,45129
28.99907,42534
29.00718,43492
29.01530,42069
29.02343,40831
29.03155,39546
29.03968,42941
29.04780,47651
29.05592,42295
29.06405,40823
29.07217,43550
29.08030,46561
29.08842,48935
29.09653,45663
29.10467,47428
29.11278,44276
29.12090,42753
29.12903,40635
29.13715,43364
29.14528,44384
29.15340,42301
29.16152,46850
29.16965,45748
29.17777,43985
29.18590,58067
29.19402,63891
29.20213,75042
29.21027,82949
29.21838,85199
29.22652,87791
29.23463,79052
29.24275,77754
29.25088,71088
29.25900,69997
29.26712,62859
29.27525,62176
29.28337,55885
29.29150,54789
29.29962,53550
29.30773,47941
29.31587,47634
29.32398,43643
29.33212,42506
29.34023,43469
29.34835,38001
29.35648,39788
29.36460,38419
29.37273,39200
29.38085,36512
29.38897,38136
29.39710,40026
29.40522,38841
29.41333,39837
29.42147,40150
29.42958,40721
29.43772,40289
29.44583,38796
29.45395,41668
29.46208,41999
29.47020,38487
29.47833,39905
29.48645,39274
29.49457,43642
29.50270,42631
29.51082,43003
29.51893,42813
29.52707,38089
29.53518,41601
29.54332,39119
29.55143,38750
29.55955,38860
29.56768,42034
29.57580,38137
29.58393,39010
29.59205,35346
29.60017,41545
29.60830,43071
29.61642,34816
29.62455,36613
29.63267,36560
29.64078,36484
29.64892,40897
29.65703,40523
29.66515,38069
29.67328,39948
29.68140,39469
29.68953,41536
29.69765,42509
29.70577,46170
29.71390,47456
29.72202,41365
29.73015,38375
29.73827,36471
29.74638,35773
29.75452,36975
29.76263,38657
29.77075,34888
29.77888,35068
29.78700,37986
29.79513,37270
29.80325,36962
29.81137,34055
29.81950,32654
29.82762,34048
29.83575,35806
29.84387,39440
29.85198,35374
29.86012,36979
29.86823,40882
29.87637,49184
29.88448,59232
29.89260,65917
29.90073,70396
29.90885,69873
29.91697,68713
29.92510,62193
29.93322,53168
29.94135,48046
29.94947,45314
29.95758,46385
29.96572,47028
29.97383,49336
29.98197,53184
29.99008,56165
29.99820,58204
30.00633,57567
30.01445,62297
30.02258,62512
30.03070,68786
30.03882,64790
30.04695,64734
30.05507,69399
30.06318,71187
30.07132,71915
30.07943,73996
30.08757,68247
30.09568,70871
30.10380,63310
30.11193,63286
30.12005,60790
30.12818,60257
30.13630,60985
30.14442,59234
30.15255,57216
30.16067,57439
30.16880,54985
30.17692,55020
30.18503,53903
30.19317,48993
30.20128,53750
30.20940,49688
30.21753,51006
30.22565,50233
30.23378,47415
30.24190,47829
30.25002,45396
30.25815,43899
30.26627,42997
30.27440,45621
30.28252,41236
30.29063,43694
30.29877,44331
30.30688,41444
30.31500,43755
30.32313,38647
30.33125,41873
30.33938,43735
30.34750,40044
30.35562,41253
30.36375,41482
30.37187,42207
30.38000,38924
30.38812,40159
30.39623,43722
30.40437,40994
30.41248,40630
30.42062,40779
30.42873,39739
30.43685,38470
30.44498,36746
30.45310,37216
30.46122,34854
30.46935,41447
30.47747,36116
30.48560,34802
30.49372,36537
30.50183,37463
30.50997,38889
30.51808,38178
30.52622,34281
30.53433,36465
30.54245,39360
30.55058,38954
30.55870,37397
30.56682,35665
30.57495,38600
30.58307,37587
30.59120,36371
30.59932,41167
30.60743,38815
30.61557,36827
30.62368,37113
30.63182,37267
30.63993,34768
30.64805,33454
30.65618,36019
30.66430,34643
30.67243,34874
30.68055,35808
30.68867,35031
30.69680,41833
30.70492,36710
30.71303,35596
30.72117,33529
30.72928,33636
30.73742,33821
30.74553,33178
30.75365,35071
30.76178,37624
30.76990,39037
30.77803,47191
30.78615,57486
30.79427,72890
30.80240,76290
30.81052,81781
30.81865,84646
30.82677,72766
30.83488,63153
30.84302,54612
30.85113,47297
30.85925,44282
30.86738,42792
30.87550,35449
30.88363,38734
30.89175,36921
30.89987,38638
30.90800,37484
30.91612,38749
30.92425,38190
30.93237,37794
30.94048,35571
30.94862,36937
30.95673,34339
30.96485,37575
30.97298,38274
30.98110,36230
30.98923,36569
30.99735,35862
31.00547,35309
31.01360,32785
31.02172,32960
31.02985,36323
31.03797,37854
31.04608,39731
31.05422,42745
31.06233,45591
31.07047,43407
31.07858,51396
31.08670,55389
31.09483,59385
31.10295,60519
31.11107,60491
31.11920,61993
31.12732,59986
31.13545,56431
31.14357,57910
31.15168,52912
31.15982,57663
31.16793,59210
31.17607,60117
31.18418,66718
31.19230,75505
31.20043,94989
31.20855,119954
31.21668,140995
31.22480,147307
31.23292,150384
31.24105,137057
31.24917,114391
31.25728,95796
31.26542,80314
31.27353,69757
31.28167,60624
31.28978,56888
31.29790,51957
31.30603,55727
31.31415,53732
31.32228,50819
31.33040,58025
31.33852,52398
31.34665,52596
31.35477,56805
31.36288,54768
31.37102,59719
31.37913,53585
31.38727,55944
31.39538,55764
31.40350,50748
31.41163,53238
31.41975,54208
31.42788,51162
31.43600,49003
31.44412,48546
31.45225,47494
31.46037,49788
31.46850,51022
31.47662,49606
31.48473,48391
31.49287,48350
31.50098,48278
31.50910,47120
31.51723,49511
31.52535,44240
31.53348,47044
31.54160,43910
31.54972,47053
31.55785,46316
31.56597,49652
31.57410,49595
31.58222,46827
31.59033,45951
31.59847,47339
31.60658,48491
31.61470,50197
31.62283,44343
31.63095,45593
31.63908,49422
31.64720,43594
31.65532,44672
31.66345,51639
31.67157,50127
31.67970,48334
31.68782,48790
31.69593,49298
31.70407,49758
31.71218,45799
31.72032,42808
31.72843,45582
31.73655,40970
31.74468,42254
31.75280,43285
31.76092,42245
31.76905,40082
31.77717,45235
31.78530,44232
31.79342,43299
31.80153,46274
31.80967,43785
31.81778,43606
31.82592,45034
31.83403,45726
31.84215,43073
31.85028,44924
31.85840,46010
31.86653,46205
31.87465,47594
31.88277,48743
31.89090,52188
31.89902,54913
31.90713,57785
31.91527,60104
31.92338,62509
31.93152,62926
31.93963,65529
31.94775,68158
31.95588,68017
31.96400,66583
31.97213,69908
31.98025,69323
31.98837,66505
31.99650,71751
32.00462,70544
32.01273,69100
32.02087,67556
32.02898,65134
32.03712,62167
32.04523,61362
32.05335,60285
32.06148,61864
32.06960,56775
32.07773,57730
32.08585,56218
32.09397,54179
32.10210,48962
32.11022,50085
32.11835,46808
32.12647,50193
32.13458,50098
32.14272,48234
32.15083,49254
32.15895,46304
32.16708,49104
32.17520,44203
32.18333,45262
32.19145,45297
32.19957,43117
32.20770,43469
32.21582,42454
32.22395,43177
32.23207,50108
32.24018,43030
32.24832,41705
32.25643,48097
32.26457,45978
32.27268,47648
32.28080,48068
32.28893,43007
32.29705,44010
32.30517,42983
32.31330,44449
32.32142,41387
32.32955,42122
32.33767,44383
32.34578,45329
32.35392,40270
32.36203,41312
32.37017,41537
32.37828,38826
32.38640,39307
32.39453,40738
32.40265,42979
32.41077,35947
32.41890,38468
32.42702,44307
32.43515,38298
32.44327,38285
32.45138,38354
32.45952,39106
32.46763,38412
32.47577,38635
32.48388,38386
32.49200,39243
32.50013,36699
32.50825,38116
32.51638,38793
32.52450,40130
32.53262,40864
32.54075,42754
32.54887,44665
32.55698,40581
32.56512,43100
32.57323,39224
32.58137,40266
32.58948,37593
32.59760,39457
32.60573,37922
32.61385,40314
32.62198,42164
32.63010,45724
32.63822,51049
32.64635,53643
32.65447,55705
32.66260,48413
32.67072,49423
32.67883,45365
32.68697,42668
32.69508,42924
32.70320,43465
32.71133,44873
32.71945,39052
32.72758,42794
32.73570,40407
32.74382,36032
32.75195,40104
32.76007,36682
32.76820,35013
32.77632,36656
32.78443,33021
32.79257,33590
32.80068,38539
32.80880,37116
32.81693,39782
32.82505,40030
32.83318,37817
32.84130,38487
32.84942,37159
32.85755,34579
32.86567,35200
32.87380,38681
32.88192,38759
32.89003,37262
32.89817,38975
32.90628,42095
32.91442,43863
32.92253,41588
32.93065,40849
32.93878,40427
32.94690,40250
32.95502,38990
32.96315,39509
32.97127,44347
32.97940,46887
32.98752,47170
32.99563,48332
33.00377,53944
33.01188,56670
33.02002,54370
33.02813,48381
33.03625,48149
33.04438,44713
33.05250,45380
33.06062,44052
33.06875,45301
33.07687,46442
33.08500,46130
33.09312,52674
33.10123,54624
33.10937,51512
33.11748,55130
33.12562,54714
33.13373,52180
33.14185,51025
33.14998,44422
33.15810,42783
33.16623,44117
33.17435,43331
33.18247,42544
33.19060,38115
33.19872,43346
33.20683,42152
33.21497,40922
33.22308,42273
33.23122,37336
33.23933,38291
33.24745,35375
33.25558,37417
33.26370,37912
33.27183,38294
33.27995,36403
33.28807,39107
33.29620,40071
33.30432,40066
33.31245,35470
33.32057,36241
33.32868,36414
33.33682,36270
33.34493,39469
33.35305,34923
33.36118,39689
33.36930,41287
33.37743,42569
33.38555,40175
33.39367,39030
33.40180,36808
33.40992,36283
33.41805,36243
33.42617,34642
33.43428,36311
33.44242,37221
33.45053,36148
33.45865,35805
33.46678,34437
33.47490,37839
33.48303,40226
33.49115,36750
33.49927,37539
33.50740,37986
33.51552,40879
33.52365,39154
33.53177,41110
33.53988,42698
33.54802,45188
33.55613,45412
33.56427,47445
33.57238,40964
33.58050,42035
33.58863,39570
33.59675,39176
33.60487,38845
33.61300,39763
33.62112,36289
33.62925,39244
33.63737,38986
33.64548,40589
33.65362,41175
33.66173,39456
33.66987,40144
33.67798,40018
33.68610,42806
33.69423,36905
33.70235,39741
33.71048,35686
33.71860,38316
33.72672,39178
33.73485,35046
33.74297,37201
33.75108,35132
33.75922,34950
33.76733,36687
33.77547,34497
33.78358,38999
33.79170,35113
33.79983,35435
33.80795,35182
33.81608,37424
33.82420,34248
33.83232,38512
33.84045,35550
33.84857,38673
33.85668,38090
33.86482,35641
33.87293,37812
33.88107,41741
33.88918,40191
33.89730,41567
33.90543,38334
33.91355,39434
33.92168,38075
33.92980,39869
33.93792,37152
33.94605,36152
33.95417,38100
33.96230,38418
33.97042,34673
33.97853,37698
33.98667,41475
33.99478,38470
34.00290,34214
34.01103,41802
34.01915,40066
34.02728,39064
34.03540,36904
34.04352,37690
34.05165,40637
34.05977,40603
34.06790,39749
34.07602,37556
34.08413,39002
34.09227,39620
34.10038,38215
34.10850,34957
34.11663,38634
34.12475,37683
34.13288,37956
34.14100,40265
34.14912,36781
34.15725,40037
34.16537,37724
34.17350,37725
34.18162,38966
34.18973,35010
34.19787,38757
34.20598,38090
34.21412,41389
34.22223,35936
34.23035,37462
34.23848,39977
34.24660,37945
34.25472,38083
34.26285,35842
34.27097,36164
34.27910,36041
34.28722,34539
34.29533,34742
34.30347,33678
34.31158,38004
34.31972,35265
34.32783,37693
34.33595,37204
34.34408,37205
34.35220,36816
34.36033,37503
34.36845,40388
34.37657,39838
34.38470,37574
34.39282,36203
34.40093,36506
34.40907,37713
34.41718,36737
34.42532,38318
34.43343,38936
34.44155,36313
34.44968,36318
34.45780,34960
34.46593,35348
34.47405,34299
34.48217,35499
34.49030,38864
34.49842,41646
34.50653,46940
34.51467,51352
34.52278,51738
34.53092,65456
34.53903,59806
34.54715,61828
34.55528,56709
34.56340,59014
34.57153,58406
34.57965,58705
34.58777,55025
34.59590,49393
34.60402,48633
34.61215,49585
34.62027,49258
34.62838,44661
34.63652,45014
34.64463,45034
34.65275,43944
34.66088,42439
34.66900,42722
34.67713,42311
34.68525,41992
34.69337,42533
34.70150,43645
34.70962,41358
34.71775,43208
34.72587,44694
34.73398,41469
34.74212,38739
34.75023,37552
34.75837,41398
34.76648,43561
34.77460,41173
34.78273,41873
34.79085,42396
34.79897,41191
34.80710,40912
34.81522,44428
34.82335,39262
34.83147,38951
34.83958,41561
34.84772,41700
34.85583,42755
34.86397,41455
34.87208,46348
34.88020,43760
34.88833,42745
34.89645,42093
34.90457,47287
34.91270,40716
34.92082,41959
34.92895,41415
34.93707,42111
34.94518,41862
34.95332,42525
34.96143,42022
34.96957,46287
34.97768,45672
34.98580,42637
34.99393,45872
35.00205,42365
35.01018,41143
35.01830,40320
35.02642,40131
35.03455,39744
35.04267,39405
35.05078,40093
35.05892,42617
35.06703,41281
35.07517,40832
35.08328,41278
35.09140,39807
35.09953,38677
35.10765,39232
35.11578,42796
35.12390,36656
35.13202,38194
35.14015,43179
35.14827,43915
35.15638,42946
35.16452,39223
35.17263,41880
35.18077,41546
35.18888,39363
35.19700,38841
35.20513,33721
35.21325,36093
35.22138,42496
35.22950,39582
35.23762,42458
35.24575,38599
35.25387,36763
35.26200,39031
35.27012,41506
35.27823,42078
35.28637,42136
35.29448,38341
35.30260,39346
35.31073,40177
35.31885,43045
35.32698,36355
35.33510,38318
35.34322,39802
35.35135,40113
35.35947,38613
35.36760,37324
35.37572,36498
35.38383,38040
35.39197,38905
35.40008,40188
35.40822,40689
35.41633,42325
35.42445,38791
35.43258,48225
35.44070,41931
35.44882,40664
35.45695,42127
35.46507,43885
35.47320,40122
35.48132,44232
35.48943,38430
35.49757,42711
35.50568,40472
35.51382,42910
35.52193,39954
35.53005,37419
35.53818,41346
35.54630,36866
35.55443,44327
35.56255,39120
35.57067,40533
35.57880,41685
35.58692,39225
35.59503,38774
35.60317,42113
35.61128,40766
35.61942,40093
35.62753,37638
35.63565,42214
35.64378,43211
35.65190,41681
35.66003,39582
35.66815,40275
35.67627,41161
35.68440,40994
35.69252,43313
35.70063,39089
35.70877,40149
35.71688,39794
35.72502,41106
35.73313,40315
35.74125,41944
35.74938,44366
35.75750,42681
35.76563,46481
35.77375,42376
35.78187,44809
35.79000,42643
35.79812,43358
35.80625,42422
35.81437,44864
35.82248,40972
35.83062,40198
35.83873,41921
35.84685,37649
35.85498,42178
35.86310,39195
35.87123,40663
35.87935,41645
35.88747,41504
35.89560,42182
35.90372,41552
35.91185,40781
35.91997,38300
35.92808,38990
35.93622,42460
35.94433,38513
35.95245,38410
35.96058,39294
35.96870,40546
35.97683,41934
35.98495,40273
35.99307,39714
36.00120,42079
36.00932,43875
36.01745,41506
36.02557,40203
36.03368,43375
36.04182,43485
36.04993,42964
36.05807,42466
36.06618,41665
36.07430,43746
36.08243,41332
36.09055,41299
36.09867,42604
36.10680,42813
36.11492,43631
36.12305,44724
36.13117,45819
36.13928,43512
36.14742,43459
36.15553,40885
36.16367,41274
36.17178,40640
36.17990,40432
36.18803,41362
36.19615,38893
36.20428,41217
36.21240,43448
36.22052,39265
36.22865,43027
36.23677,40663
36.24488,42061
36.25302,41937
36.26113,43743
36.26927,45665
36.27738,45458
36.28550,47452
36.29363,57113
36.30175,56224
36.30988,54471
36.31800,51831
36.32612,49614
36.33425,45614
36.34237,44946
36.35048,42568
36.35862,45310
36.36673,43331
36.37487,44901
36.38298,44095
36.39110,43402
36.39923,45233
36.40735,48022
36.41548,45210
36.42360,44027
36.43172,43821
36.43985,45900
36.44797,44389
36.45610,43642
36.46422,43077
36.47233,43939
36.48047,41342
36.48858,45055
36.49670,39662
36.50483,42815
36.51295,48192
36.52108,43048
36.52920,44995
36.53732,43697
36.54545,46104
36.55357,42150
36.56170,41394
36.56982,41242
36.57793,41067
36.58607,41300
36.59418,42202
36.60232,44090
36.61043,41868
36.61855,42776
36.62668,46888
36.63480,42370
36.64292,51514
36.65105,46789
36.65917,46523
36.66730,44882
36.67542,52964
36.68353,46433
36.69167,47013
36.69978,46754
36.70792,43475
36.71603,46694
36.72415,46665
36.73228,47503
36.74040,48704
36.74852,50017
36.75665,46793
36.76477,45601
36.77290,42609
36.78102,49037
36.78913,49498
36.79727,45184
36.80538,51460
36.81352,47609
36.82163,51929
36.82975,52810
36.83788,47226
36.84600,49244
36.85413,50911
36.86225,47134
36.87037,45077
36.87850,47011
36.88662,49881
36.89473,47454
36.90287,46848
36.91098,49866
36.91912,46606
36.92723,52263
36.93535,50654
36.94348,51510
36.95160,57403
36.95973,60121
36.96785,62067
36.97597,63332
36.98410,62239
36.99222,53816
37.00033,53993
37.00847,49240
37.01658,49609
37.02472,48579
37.03283,50992
37.04095,44265
37.04908,46437
37.05720,50190
37.06533,49975
37.07345,47030
37.08157,51061
37.08970,48018
37.09782,49920
37.10595,49550
37.11407,50952
37.12218,48212
37.13032,47910
37.13843,50207
37.14655,50630
37.15468,49351
37.16280,47028
37.17093,51176
37.17905,48372
37.18717,47990
37.19530,46671
37.20342,49248
37.21155,50711
37.21967,48690
37.22778,47620
37.23592,48117
37.24403,49014
37.25217,50370
37.26028,51023
37.26840,47424
37.27653,48064
37.28465,52397
37.29277,48868
37.30090,48571
37.30902,56705
37.31715,59246
37.32527,62760
37.33338,63249
37.34152,67193
37.34963,65623
37.35777,65929
37.36588,64944
37.37400,62179
37.38213,61964
37.39025,57211
37.39837,54908
37.40650,54267
37.41462,55174
37.42275,55002
37.43087,47725
37.43898,52982
37.44712,57212
37.45523,59242
37.46337,51273
37.47148,54381
37.47960,52308
37.48773,52268
