C:\MassHunter\GCMS\1\data\JTB-E02\BACandBLUE\JTB-E18-020-11.D Tue Jul 09 15:25:47 2019
Start of data points
2.09522	51670
2.10335	51662
2.11147	52120
2.11960	52122
2.12772	50775
2.13583	45524
2.14397	51731
2.15208	50786
2.16020	48044
2.16833	43987
2.17645	47785
2.18458	47624
2.19270	50992
2.20082	43073
2.20895	47836
2.21707	44213
2.22520	41503
2.23332	39224
2.24143	49095
2.24957	42177
2.25768	44958
2.26580	90725
2.27393	640064
2.28205	1370396
2.29018	761740
2.29830	335562
2.30642	239854
2.31455	202379
2.32267	181355
2.33080	192317
2.33892	267393
2.34703	193515
2.35517	155644
2.36328	131458
2.37142	128969
2.37953	121998
2.38765	120353
2.39578	108620
2.40390	108447
2.41202	97756
2.42015	106742
2.42827	102395
2.43640	102960
2.44452	99916
2.45263	101194
2.46077	94413
2.46888	88696
2.47702	85919
2.48513	91583
2.49325	141997
2.50138	142080
2.50950	109910
2.51762	108745
2.52575	111102
2.53387	94268
2.54200	94543
2.55012	115379
2.55823	164948
2.56637	174061
2.57448	120202
2.58262	100112
2.59073	98012
2.59885	99120
2.60698	144843
2.61510	258229
2.62323	247809
2.63135	189648
2.63947	141366
2.64760	114245
2.65572	104588
2.66383	97811
2.67197	96672
2.68008	91811
2.68822	87381
2.69633	85963
2.70445	84322
2.71258	80860
2.72070	84866
2.72883	80240
2.73695	82231
2.74507	77208
2.75320	84592
2.76132	75626
2.76945	77989
2.77757	99359
2.78568	181632
2.79382	202115
2.80193	145663
2.81005	117959
2.81818	145533
2.82630	186658
2.83443	242678
2.84255	234570
2.85067	155267
2.85880	114239
2.86692	112681
2.87505	102378
2.88317	96023
2.89128	86595
2.89942	93048
2.90753	83283
2.91565	81187
2.92378	80632
2.93190	74939
2.94003	75416
2.94815	80822
2.95627	73142
2.96440	73771
2.97252	76059
2.98065	73291
2.98877	77199
2.99688	77095
3.00502	79471
3.01313	82548
3.02127	80440
3.02938	76675
3.03750	77195
3.04563	69664
3.05375	82297
3.06187	104270
3.07000	112682
3.07812	99567
3.08625	118802
3.09437	270028
3.10248	998154
3.11062	2312434
3.11873	2392276
3.12687	1499858
3.13498	988062
3.14310	762336
3.15123	621300
3.15935	521845
3.16748	479979
3.17560	538941
3.18372	684879
3.19185	1452731
3.19997	2067493
3.20808	1595198
3.21622	1098748
3.22433	861490
3.23247	725337
3.24058	613705
3.24870	527390
3.25683	457124
3.26495	407004
3.27308	376001
3.28120	373946
3.28932	608592
3.29745	1727983
3.30557	4086826
3.31368	5812589
3.32182	5345648
3.32993	3808582
3.33807	2629811
3.34618	1970137
3.35430	1553538
3.36243	1278670
3.37055	1063729
3.37868	917013
3.38680	816614
3.39492	725974
3.40305	657598
3.41117	603384
3.41930	548987
3.42742	516826
3.43553	512703
3.44367	489613
3.45178	456297
3.45990	421593
3.46803	424707
3.47615	422414
3.48428	414290
3.49240	412212
3.50052	392160
3.50865	370551
3.51677	358494
3.52490	338980
3.53302	344188
3.54113	357441
3.54927	355907
3.55738	327986
3.56552	315313
3.57363	302205
3.58175	295992
3.58988	297843
3.59800	286024
3.60612	282051
3.61425	282836
3.62237	310575
3.63050	383657
3.63862	480420
3.64673	492574
3.65487	451683
3.66298	803295
3.67112	3157482
3.67923	7608669
3.68735	9147766
3.69548	6327919
3.70360	3765565
3.71172	2701614
3.71985	2191113
3.72797	1854511
3.73610	1620723
3.74422	1423337
3.75233	1298486
3.76047	1171801
3.76858	1060595
3.77672	1003993
3.78483	935973
3.79295	879417
3.80108	938430
3.80920	1338733
3.81733	1899690
3.82545	1920533
3.83357	1508208
3.84170	1183504
3.84982	994353
3.85793	890438
3.86607	795722
3.87418	754256
3.88232	707693
3.89043	669693
3.89855	640271
3.90668	609131
3.91480	671524
3.92293	859521
3.93105	1057440
3.93917	1030573
3.94730	832507
3.95542	712126
3.96353	742371
3.97167	771483
3.97978	671023
3.98792	577954
3.99603	554226
4.00415	682340
4.01228	968757
4.02040	1105345
4.02853	910881
4.03665	668974
4.04477	525578
4.05290	459660
4.06102	425756
4.06915	404586
4.07727	396299
4.08538	381920
4.09352	397518
4.10163	373456
4.10975	354626
4.11788	348488
4.12600	346401
4.13413	435598
4.14225	778915
4.15037	1366696
4.15850	1641134
4.16662	1362987
4.17475	978201
4.18287	762022
4.19098	615518
4.19912	558258
4.20723	869139
4.21537	2955503
4.22348	8513120
4.23160	1.523523E+07
4.23973	1.851357E+07
4.24785	1.621171E+07
4.25597	1.029876E+07
4.26410	6211278
4.27222	4308266
4.28035	3179598
4.28847	2447843
4.29658	1990941
4.30472	1663452
4.31283	1434280
4.32097	1251874
4.32908	1125386
4.33720	1033569
4.34533	983432
4.35345	988789
4.36157	1016048
4.36970	1001035
4.37782	911402
4.38595	823982
4.39407	724920
4.40218	666986
4.41032	637190
4.41843	605272
4.42657	579381
4.43468	548152
4.44280	530165
4.45093	507906
4.45905	489744
4.46718	476961
4.47530	464234
4.48342	452251
4.49155	441946
4.49967	436441
4.50778	436971
4.51592	427668
4.52403	417643
4.53217	395817
4.54028	393732
4.54840	383252
4.55653	397677
4.56465	376748
4.57278	353741
4.58090	352138
4.58902	337965
4.59715	345615
4.60527	341030
4.61340	336626
4.62152	403539
4.62963	649501
4.63777	1045762
4.64588	1344327
4.65400	1258673
4.66213	921869
4.67025	656922
4.67838	531323
4.68650	467448
4.69462	415983
4.70275	384739
4.71087	353693
4.71900	325073
4.72712	313980
4.73523	306537
4.74337	305246
4.75148	289414
4.75960	290767
4.76773	279097
4.77585	275130
4.78398	277657
4.79210	296972
4.80022	355583
4.80835	415036
4.81647	402687
4.82460	371921
4.83272	361080
4.84083	368466
4.84897	395036
4.85708	381655
4.86522	338538
4.87333	318435
4.88145	300685
4.88958	286621
4.89770	278954
4.90582	277088
4.91395	263310
4.92207	272442
4.93020	321569
4.93832	546161
4.94643	1085219
4.95457	1972394
4.96268	2681306
4.97082	2814478
4.97893	2420277
4.98705	1801067
4.99518	1360644
5.00330	1053131
5.01142	855129
5.01955	786992
5.02767	910165
5.03580	1248174
5.04392	1580159
5.05203	1570530
5.06017	1308742
5.06828	1047689
5.07642	890138
5.08453	790978
5.09265	727228
5.10078	669058
5.10890	635195
5.11703	599787
5.12515	581954
5.13327	566203
5.14140	536426
5.14952	535687
5.15763	574497
5.16577	652627
5.17388	686081
5.18202	660240
5.19013	607065
5.19825	620149
5.20638	676564
5.21450	706983
5.22263	671719
5.23075	601706
5.23887	528647
5.24700	473763
5.25512	444857
5.26325	412343
5.27137	379479
5.27948	349354
5.28762	347255
5.29573	328270
5.30385	324371
5.31198	316886
5.32010	319741
5.32823	328641
5.33635	350046
5.34447	363384
5.35260	360143
5.36072	338051
5.36885	321189
5.37697	311087
5.38508	323171
5.39322	346484
5.40133	383588
5.40947	386540
5.41758	363633
5.42570	338953
5.43383	321700
5.44195	325478
5.45007	331660
5.45820	336725
5.46632	332875
5.47445	308206
5.48257	290561
5.49068	282405
5.49882	268863
5.50693	266054
5.51507	264814
5.52318	267123
5.53130	264609
5.53943	260126
5.54755	257196
5.55567	282816
5.56380	339319
5.57192	428503
5.58005	476376
5.58817	438034
5.59628	382732
5.60442	310894
5.61253	275357
5.62067	270172
5.62878	262992
5.63690	274702
5.64503	269275
5.65315	276391
5.66128	262771
5.66940	255717
5.67752	281133
5.68565	321020
5.69377	358439
5.70188	359517
5.71002	328540
5.71813	299195
5.72627	284377
5.73438	265259
5.74250	252493
5.75063	232986
5.75875	234251
5.76688	228446
5.77500	220493
5.78312	226004
5.79125	227026
5.79937	221375
5.80748	217246
5.81562	206431
5.82373	214761
5.83187	220787
5.83998	225178
5.84810	224195
5.85623	234122
5.86435	228931
5.87248	226240
5.88060	215564
5.88872	208960
5.89685	204670
5.90497	199105
5.91310	184587
5.92122	170575
5.92933	170743
5.93747	166769
5.94558	171468
5.95370	188931
5.96183	221108
5.96995	241995
5.97808	292871
5.98620	331080
5.99432	355658
6.00245	327911
6.01057	284687
6.01870	231814
6.02682	204380
6.03493	198836
6.04307	191055
6.05118	173217
6.05932	164527
6.06743	158676
6.07555	154015
6.08368	155169
6.09180	152065
6.09992	151283
6.10805	148313
6.11617	163727
6.12430	209025
6.13242	326890
6.14053	519801
6.14867	686516
6.15678	687270
6.16492	564040
6.17303	419253
6.18115	326590
6.18928	271863
6.19740	252967
6.20552	234230
6.21365	240352
6.22177	226238
6.22990	221031
6.23802	217809
6.24613	215649
6.25427	238245
6.26238	249089
6.27052	250584
6.27863	235367
6.28675	216488
6.29488	203618
6.30300	208608
6.31113	209293
6.31925	218347
6.32737	215028
6.33550	216753
6.34362	216587
6.35173	211899
6.35987	211974
6.36798	203575
6.37612	206894
6.38423	207604
6.39235	211740
6.40048	211610
6.40860	210144
6.41673	203360
6.42485	197208
6.43297	205251
6.44110	202330
6.44922	207104
6.45735	206108
6.46547	201757
6.47358	201440
6.48172	203804
6.48983	201474
6.49795	209647
6.50608	212778
6.51420	215444
6.52233	215498
6.53045	224222
6.53857	221270
6.54670	217530
6.55482	215961
6.56295	249917
6.57107	313325
6.57918	389757
6.58732	433220
6.59543	410089
6.60355	346538
6.61168	292190
6.61980	260091
6.62793	244659
6.63605	242242
6.64417	236400
6.65230	247955
6.66042	291907
6.66855	353003
6.67667	391412
6.68478	372504
6.69292	314125
6.70103	277608
6.70917	258977
6.71728	249518
6.72540	250348
6.73353	246796
6.74165	233356
6.74977	223483
6.75790	200933
6.76602	187200
6.77415	188551
6.78227	184645
6.79038	177313
6.79852	174853
6.80663	162345
6.81477	159017
6.82288	151657
6.83100	155531
6.83913	159126
6.84725	159585
6.85537	160410
6.86350	154372
6.87162	139599
6.87975	128720
6.88787	109065
6.89598	101729
6.90412	100578
6.91223	100478
6.92037	91538
6.92848	94583
6.93660	94945
6.94473	96899
6.95285	96126
6.96098	101785
6.96910	118305
6.97722	144773
6.98535	145350
6.99347	147011
7.00158	125029
7.00972	112057
7.01783	104731
7.02597	103432
7.03408	101201
7.04220	103734
7.05033	109006
7.05845	117356
7.06658	118316
7.07470	115783
7.08282	112264
7.09095	94629
7.09907	93401
7.10720	87374
7.11532	85273
7.12343	82281
7.13157	81978
7.13968	88502
7.14780	101802
7.15593	128512
7.16405	142333
7.17218	150440
7.18030	137552
7.18842	114944
7.19655	100281
7.20467	113680
7.21280	216746
7.22092	517273
7.22903	1112062
7.23717	1682168
7.24528	1846934
7.25340	1458762
7.26153	909824
7.26965	530258
7.27778	364600
7.28590	278746
7.29402	194879
7.30215	149619
7.31027	123190
7.31840	128260
7.32652	130898
7.33463	131850
7.34277	136414
7.35088	123267
7.35902	111729
7.36713	103661
7.37525	100710
7.38338	103351
7.39150	107193
7.39962	99322
7.40775	97732
7.41587	93239
7.42400	91352
7.43212	97699
7.44023	102134
7.44837	112139
7.45648	102219
7.46462	96435
7.47273	94697
7.48085	88693
7.48898	86212
7.49710	87682
7.50523	96352
7.51335	128543
7.52147	220519
7.52960	412855
7.53772	751463
7.54583	1154937
7.55397	1526504
7.56208	1701409
7.57022	1547883
7.57833	1202684
7.58645	839180
7.59458	523549
7.60270	322723
7.61083	218578
7.61895	169361
7.62707	140331
7.63520	117745
7.64332	109128
7.65143	106886
7.65957	96694
7.66768	92300
7.67582	86429
7.68393	89393
7.69205	86565
7.70018	82231
7.70830	89906
7.71643	91693
7.72455	88513
7.73267	85224
7.74080	90336
7.74892	83555
7.75705	83795
7.76517	88391
7.77328	92831
7.78142	96407
7.78953	104575
7.79765	110756
7.80578	123242
7.81390	124851
7.82203	121121
7.83015	105949
7.83827	95727
7.84640	99168
7.85452	100717
7.86265	117587
7.87077	131648
7.87888	159231
7.88702	179457
7.89513	175908
7.90325	156465
7.91138	132911
7.91950	119487
7.92763	118919
7.93575	144691
7.94387	170453
7.95200	177111
7.96012	164367
7.96825	137189
7.97637	110521
7.98448	98943
7.99262	90018
8.00073	77036
8.00887	76093
8.01698	72173
8.02510	74319
8.03323	70101
8.04135	77510
8.04947	75879
8.05760	82301
8.06572	73573
8.07385	70075
8.08197	72645
8.09008	71973
8.09822	66898
8.10633	70070
8.11447	71395
8.12258	77201
8.13070	89829
8.13883	109357
8.14695	133950
8.15508	152356
8.16320	146951
8.17132	121799
8.17945	96885
8.18757	87083
8.19568	82619
8.20382	78887
8.21193	83533
8.22007	83509
8.22818	88658
8.23630	84997
8.24443	81524
8.25255	72712
8.26068	71157
8.26880	68056
8.27692	65127
8.28505	66858
8.29317	65723
8.30128	65819
8.30942	67634
8.31753	75547
8.32567	76952
8.33378	72204
8.34190	71269
8.35003	64439
8.35815	60031
8.36628	62581
8.37440	64545
8.38252	67329
8.39065	65130
8.39877	63539
8.40690	61802
8.41502	60292
8.42313	59196
8.43127	59653
8.43938	58702
8.44750	55596
8.45563	57597
8.46375	58586
8.47188	60080
8.48000	56588
8.48812	55371
8.49625	56175
8.50437	60577
8.51250	60426
8.52062	71115
8.52873	108131
8.53687	172537
8.54498	266435
8.55312	347170
8.56123	340587
8.56935	260216
8.57748	177166
8.58560	119768
8.59372	100326
8.60185	92527
8.60997	97537
8.61810	96178
8.62622	87264
8.63433	78723
8.64247	72768
8.65058	67125
8.65872	66482
8.66683	65735
8.67495	71930
8.68308	72687
8.69120	74956
8.69932	76621
8.70745	79194
8.71557	77015
8.72370	72213
8.73182	74963
8.73993	131863
8.74807	321963
8.75618	795936
8.76432	1670049
8.77243	2757825
8.78055	3451783
8.78868	3208027
8.79680	2366878
8.80493	1424790
8.81305	824688
8.82117	494899
8.82930	342958
8.83742	296357
8.84553	282164
8.85367	265439
8.86178	252744
8.86992	234902
8.87803	214011
8.88615	193362
8.89428	183735
8.90240	176221
8.91053	163742
8.91865	159551
8.92677	157064
8.93490	160532
8.94302	180693
8.95115	185646
8.95927	178348
8.96738	177872
8.97552	174358
8.98363	171853
8.99175	164429
8.99988	154940
9.00800	152591
9.01613	141810
9.02425	128088
9.03237	127809
9.04050	117132
9.04862	111794
9.05675	106685
9.06487	109607
9.07298	109976
9.08112	113462
9.08923	117817
9.09735	133602
9.10548	161576
9.11360	192903
9.12173	211602
9.12985	207014
9.13797	179303
9.14610	154285
9.15422	137369
9.16235	125095
9.17047	112355
9.17858	104475
9.18672	105726
9.19483	103990
9.20297	98135
9.21108	98996
9.21920	100770
9.22733	96346
9.23545	94662
9.24357	93362
9.25170	91314
9.25982	96360
9.26795	90615
9.27607	90421
9.28418	94231
9.29232	93555
9.30043	86639
9.30857	90408
9.31668	90734
9.32480	83247
9.33293	84633
9.34105	83438
9.34917	86827
9.35730	84760
9.36542	83148
9.37355	82004
9.38167	83468
9.38978	91255
9.39792	99006
9.40603	116565
9.41417	146662
9.42228	209608
9.43040	262123
9.43853	297930
9.44665	311869
9.45478	273472
9.46290	224045
9.47102	167843
9.47915	129189
9.48727	109028
9.49538	99073
9.50352	99508
9.51163	111844
9.51977	125654
9.52788	139991
9.53600	140317
9.54413	123200
9.55225	106475
9.56038	88507
9.56850	69686
9.57662	63878
9.58475	61342
9.59287	64403
9.60100	62461
9.60912	58544
9.61723	57057
9.62537	53578
9.63348	53724
9.64160	52114
9.64973	53357
9.65785	53263
9.66598	55090
9.67410	60481
9.68222	52243
9.69035	53934
9.69847	55589
9.70660	45761
9.71472	50379
9.72283	52304
9.73097	49841
9.73908	47490
9.74720	45623
9.75533	48292
9.76345	51496
9.77158	48433
9.77970	46047
9.78782	45863
9.79595	50385
9.80407	48397
9.81220	49564
9.82032	49147
9.82843	48786
9.83657	47197
9.84468	47828
9.85282	46260
9.86093	48968
9.86905	50619
9.87718	50445
9.88530	50808
9.89342	47047
9.90155	54174
9.90967	51907
9.91780	52380
9.92592	57845
9.93403	66384
9.94217	81695
9.95028	99271
9.95842	105284
9.96653	110385
9.97465	105688
9.98278	93855
9.99090	85322
9.99903	74419
10.00715	71163
10.01527	63851
10.02340	59323
10.03152	53217
10.03963	54969
10.04777	56351
10.05588	52698
10.06402	52232
10.07213	56378
10.08025	56258
10.08838	58431
10.09650	60549
10.10463	57614
10.11275	61061
10.12087	56144
10.12900	54100
10.13712	50543
10.14523	52136
10.15337	52883
10.16148	54232
10.16962	50709
10.17773	47837
10.18585	50597
10.19398	51081
10.20210	48573
10.21023	51960
10.21835	53608
10.22647	61568
10.23460	71600
10.24272	83900
10.25085	93270
10.25897	120070
10.26708	226192
10.27522	518927
10.28333	1088136
10.29145	1937080
10.29958	2859460
10.30770	4075826
10.31583	5767535
10.32395	8293274
10.33207	1.101949E+07
10.34020	1.248035E+07
10.34832	1.147059E+07
10.35645	8680718
10.36457	6158748
10.37268	4521437
10.38082	3437710
10.38893	2602875
10.39705	1788073
10.40518	1134254
10.41330	738371
10.42143	509261
10.42955	420410
10.43767	395997
10.44580	379234
10.45392	378918
10.46205	374291
10.47017	341404
10.47828	310312
10.48642	277610
10.49453	247628
10.50267	225730
10.51078	211199
10.51890	207175
10.52703	210509
10.53515	221913
10.54327	226492
10.55140	220066
10.55952	199576
10.56765	192599
10.57577	166894
10.58388	159656
10.59202	150517
10.60013	147044
10.60827	136650
10.61638	131728
10.62450	125604
10.63263	114086
10.64075	117736
10.64888	116126
10.65700	111953
10.66512	108299
10.67325	107900
10.68137	105803
10.68948	109949
10.69762	108208
10.70573	107148
10.71387	113871
10.72198	114562
10.73010	104894
10.73823	105309
10.74635	102735
10.75448	102604
10.76260	95200
10.77072	93354
10.77885	91387
10.78697	89930
10.79510	93096
10.80322	99289
10.81133	107235
10.81947	109190
10.82758	105651
10.83570	100331
10.84383	85430
10.85195	74236
10.86008	76685
10.86820	73895
10.87632	75259
10.88445	74942
10.89257	73408
10.90070	70826
10.90882	74336
10.91693	69618
10.92507	66973
10.93318	65625
10.94130	66694
10.94943	65118
10.95755	65108
10.96568	66431
10.97380	64073
10.98192	65219
10.99005	72791
10.99817	77899
11.00630	80667
11.01442	84004
11.02253	84154
11.03067	79981
11.03878	74424
11.04692	68715
11.05503	64237
11.06315	77412
11.07128	73397
11.07940	80755
11.08752	87924
11.09565	96016
11.10377	93670
11.11190	92767
11.12002	80393
11.12813	71724
11.13627	65554
11.14438	60498
11.15252	65531
11.16063	60742
11.16875	60342
11.17688	66362
11.18500	60964
11.19312	59473
11.20125	60570
11.20937	58879
11.21750	54603
11.22562	54177
11.23373	46832
11.24187	49242
11.24998	48046
11.25812	48028
11.26623	51328
11.27435	54164
11.28248	53752
11.29060	71706
11.29873	114939
11.30685	253726
11.31497	540665
11.32310	1086754
11.33122	1902987
11.33933	2679883
11.34747	3088506
11.35558	2925530
11.36372	2370280
11.37183	1629784
11.37995	1086159
11.38808	701414
11.39620	497158
11.40433	409247
11.41245	360849
11.42057	310913
11.42870	273060
11.43682	240180
11.44495	202759
11.45307	177853
11.46118	157586
11.46932	140609
11.47743	141397
11.48555	155698
11.49368	176876
11.50180	196305
11.50993	198394
11.51805	181794
11.52617	154338
11.53430	140280
11.54242	127828
11.55055	126504
11.55867	128608
11.56678	129284
11.57492	129271
11.58303	128523
11.59115	128121
11.59928	123850
11.60740	151283
11.61553	165094
11.62365	179352
11.63177	162477
11.63990	141008
11.64802	115947
11.65615	90949
11.66427	82831
11.67238	82849
11.68052	83702
11.68863	84619
11.69677	87183
11.70488	89793
11.71300	84491
11.72113	77161
11.72925	74903
11.73737	69423
11.74550	62724
11.75362	63598
11.76175	59262
11.76987	67597
11.77798	59422
11.78612	58161
11.79423	51724
11.80237	56366
11.81048	53801
11.81860	55435
11.82673	55950
11.83485	56050
11.84298	52659
11.85110	53453
11.85922	53972
11.86735	50784
11.87547	52773
11.88358	52135
11.89172	48669
11.89983	52223
11.90797	51122
11.91608	52715
11.92420	58562
11.93233	56431
11.94045	57983
11.94858	55636
11.95670	55902
11.96482	53022
11.97295	52070
11.98107	58865
11.98918	73879
11.99732	102693
12.00543	130000
12.01357	152388
12.02168	144637
12.02980	129398
12.03793	111982
12.04605	89761
12.05418	70940
12.06230	73694
12.07042	81773
12.07855	87371
12.08667	93465
12.09480	103458
12.10292	105928
12.11103	110441
12.11917	119232
12.12728	124150
12.13540	135937
12.14353	142226
12.15165	120355
12.15978	105967
12.16790	90744
12.17602	73533
12.18415	62348
12.19227	59631
12.20040	61727
12.20852	60355
12.21663	60462
12.22477	59142
12.23288	63842
12.24100	65459
12.24913	61050
12.25725	64446
12.26538	65501
12.27350	62202
12.28162	57440
12.28975	54685
12.29787	57126
12.30600	52421
12.31412	56975
12.32223	50148
12.33037	50223
12.33848	51163
12.34662	47764
12.35473	52658
12.36285	48617
12.37098	46461
12.37910	54574
12.38722	49700
12.39535	52652
12.40347	64984
12.41160	74911
12.41972	86365
12.42783	96442
12.43597	100771
12.44408	99413
12.45222	85846
12.46033	77456
12.46845	74488
12.47658	71652
12.48470	67494
12.49283	66476
12.50095	64406
12.50907	63095
12.51720	62109
12.52532	73407
12.53343	95223
12.54157	161145
12.54968	296569
12.55782	496633
12.56593	643705
12.57405	682728
12.58218	559416
12.59030	401672
12.59843	268617
12.60655	182622
12.61467	134568
12.62280	116564
12.63092	95704
12.63903	96003
12.64717	82081
12.65528	78740
12.66342	70982
12.67153	70105
12.67965	70199
12.68778	63912
12.69590	62574
12.70403	61093
12.71215	58204
12.72027	62582
12.72840	61232
12.73652	56673
12.74465	65159
12.75277	61333
12.76088	52923
12.76902	53342
12.77713	54845
12.78525	52101
12.79338	51745
12.80150	48031
12.80963	52290
12.81775	48389
12.82587	46354
12.83400	44656
12.84212	43440
12.85025	47725
12.85837	47436
12.86648	52430
12.87462	42093
12.88273	43060
12.89087	43016
12.89898	41628
12.90710	41062
12.91523	42815
12.92335	44606
12.93147	41574
12.93960	44447
12.94772	43335
12.95585	48057
12.96397	56203
12.97208	70210
12.98022	82699
12.98833	88554
12.99647	82816
13.00458	78245
13.01270	66918
13.02083	61297
13.02895	56415
13.03707	55704
13.04520	50992
13.05332	54489
13.06145	45694
13.06957	46078
13.07768	48315
13.08582	48884
13.09393	47341
13.10207	45824
13.11018	45520
13.11830	41941
13.12643	41558
13.13455	42831
13.14268	48438
13.15080	45523
13.15892	48440
13.16705	48552
13.17517	52343
13.18328	53633
13.19142	52258
13.19953	57773
13.20767	59547
13.21578	60589
13.22390	60084
13.23203	60941
13.24015	58019
13.24828	58130
13.25640	52257
13.26452	45002
13.27265	46950
13.28077	42928
13.28888	43902
13.29702	45312
13.30513	42298
13.31327	38219
13.32138	40266
13.32950	38265
13.33763	39779
13.34575	39075
13.35388	39038
13.36200	39944
13.37012	39172
13.37825	38244
13.38637	42417
13.39450	36328
13.40262	37560
13.41073	38286
13.41887	37954
13.42698	36704
13.43510	40035
13.44323	38643
13.45135	42812
13.45948	41238
13.46760	44377
13.47572	44459
13.48385	45617
13.49197	41795
13.50010	44552
13.50822	40512
13.51633	42531
13.52447	40448
13.53258	41143
13.54072	36776
13.54883	41470
13.55695	38389
13.56508	38961
13.57320	45507
13.58132	50895
13.58945	61879
13.59757	72836
13.60570	102791
13.61382	136172
13.62193	167802
13.63007	182119
13.63818	163987
13.64632	130981
13.65443	93209
13.66255	71823
13.67068	60202
13.67880	50077
13.68692	52592
13.69505	45008
13.70317	44560
13.71130	38370
13.71942	47936
13.72753	50978
13.73567	72375
13.74378	140623
13.75192	310293
13.76003	613414
13.76815	1033023
13.77628	1440955
13.78440	1619994
13.79253	1489611
13.80065	1238628
13.80877	984837
13.81690	862795
13.82502	871493
13.83313	947932
13.84127	978019
13.84938	910381
13.85752	744988
13.86563	571761
13.87375	431434
13.88188	328388
13.89000	260173
13.89813	214806
13.90625	190182
13.91437	170415
13.92250	151363
13.93062	150947
13.93875	140029
13.94687	135358
13.95498	134790
13.96312	126686
13.97123	128259
13.97935	128656
13.98748	131666
13.99560	133343
14.00373	121822
14.01185	126435
14.01997	113870
14.02810	109147
14.03622	105225
14.04435	104640
14.05247	103495
14.06058	96857
14.06872	97564
14.07683	95640
14.08495	93834
14.09308	92902
14.10120	89592
14.10933	86194
14.11745	85487
14.12557	89678
14.13370	88728
14.14182	89035
14.14995	95247
14.15807	110377
14.16618	130039
14.17432	182734
14.18243	259543
14.19057	334859
14.19868	400882
14.20680	400058
14.21493	341365
14.22305	281423
14.23117	239755
14.23930	204752
14.24742	192746
14.25555	188903
14.26367	175092
14.27178	156870
14.27992	143534
14.28803	128959
14.29617	115460
14.30428	108752
14.31240	98656
14.32053	97175
14.32865	93459
14.33678	85587
14.34490	82690
14.35302	75559
14.36115	77140
14.36927	63636
14.37738	65315
14.38552	73479
14.39363	104436
14.40177	171656
14.40988	275339
14.41800	413735
14.42613	498455
14.43425	470197
14.44238	372601
14.45050	267498
14.45862	188732
14.46675	144707
14.47487	116946
14.48298	105227
14.49112	91202
14.49923	92486
14.50737	85069
14.51548	79688
14.52360	77342
14.53173	72597
14.53985	74561
14.54798	67495
14.55610	67598
14.56422	65940
14.57235	66411
14.58047	63457
14.58860	62944
14.59672	64990
14.60483	51408
14.61297	57585
14.62108	56106
14.62920	50998
14.63733	53116
14.64545	49640
14.65358	54002
14.66170	49950
14.66982	51194
14.67795	49246
14.68607	53235
14.69420	51759
14.70232	55373
14.71043	52047
14.71857	54264
14.72668	57938
14.73480	57551
14.74293	62426
14.75105	58494
14.75918	59967
14.76730	65699
14.77542	67088
14.78355	78133
14.79167	121218
14.79980	264773
14.80792	642079
14.81603	1358702
14.82417	2288871
14.83228	3050591
14.84042	3218571
14.84853	2730993
14.85665	1985643
14.86478	1325094
14.87290	815154
14.88102	524948
14.88915	399429
14.89727	303319
14.90540	256286
14.91352	231722
14.92163	213313
14.92977	196313
14.93788	186738
14.94602	173147
14.95413	161178
14.96225	147492
14.97038	138912
14.97850	131683
14.98663	132584
14.99475	123113
15.00287	122219
15.01100	114800
15.01912	113404
15.02723	111160
15.03537	111667
15.04348	104906
15.05162	104842
15.05973	99904
15.06785	95679
15.07598	89698
15.08410	88376
15.09223	79848
15.10035	79325
15.10847	80425
15.11660	77763
15.12472	82364
15.13283	84249
15.14097	92093
15.14908	98772
15.15722	90423
15.16533	83980
15.17345	74449
15.18158	70845
15.18970	68838
15.19783	60596
15.20595	60518
15.21407	62573
15.22220	54749
15.23032	55512
15.23845	58240
15.24657	49780
15.25468	53350
15.26282	51545
15.27093	49642
15.27905	48145
15.28718	47771
15.29530	45934
15.30343	45415
15.31155	47899
15.31967	46530
15.32780	46599
15.33592	48486
15.34405	44525
15.35217	42338
15.36028	45847
15.36842	44327
15.37653	46038
15.38467	47328
15.39278	50758
15.40090	57000
15.40903	58701
15.41715	60679
15.42527	65322
15.43340	63154
15.44152	59487
15.44965	58149
15.45777	65355
15.46588	88689
15.47402	148821
15.48213	240846
15.49027	365167
15.49838	514605
15.50650	585083
15.51463	595712
15.52275	540300
15.53087	441165
15.53900	353367
15.54712	265349
15.55525	212607
15.56337	173481
15.57148	131790
15.57962	112376
15.58773	90890
15.59587	81374
15.60398	71495
15.61210	63738
15.62023	64179
15.62835	62132
15.63648	58181
15.64460	55943
15.65272	52460
15.66085	51593
15.66897	51466
15.67708	46352
15.68522	47813
15.69333	46640
15.70147	47404
15.70958	49216
15.71770	45948
15.72583	47811
15.73395	50871
15.74208	54514
15.75020	58951
15.75832	80476
15.76645	120168
15.77457	182473
15.78268	250326
15.79082	304807
15.79893	318012
15.80707	271887
15.81518	202231
15.82330	147513
15.83143	114661
15.83955	92734
15.84768	84850
15.85580	74195
15.86392	79084
15.87205	77245
15.88017	74984
15.88830	75928
15.89642	74828
15.90453	74014
15.91267	65247
15.92078	65796
15.92890	67686
15.93703	63985
15.94515	68894
15.95328	71606
15.96140	86935
15.96952	99093
15.97765	110702
15.98577	121195
15.99390	108930
16.00202	96275
16.01013	86178
16.01827	80607
16.02638	79919
16.03452	77876
16.04263	74117
16.05075	69017
16.05888	69215
16.06700	62972
16.07512	57571
16.08325	59681
16.09137	53581
16.09950	58301
16.10762	61601
16.11573	62269
16.12387	66914
16.13198	72992
16.14012	76632
16.14823	80851
16.15635	83182
16.16448	78910
16.17260	71951
16.18073	67794
16.18885	62783
16.19697	58734
16.20510	58827
16.21322	61866
16.22133	55574
16.22947	56766
16.23758	51086
16.24572	50833
16.25383	51247
16.26195	50290
16.27008	50717
16.27820	58755
16.28633	65584
16.29445	73735
16.30257	74805
16.31070	77737
16.31882	73865
16.32693	68636
16.33507	68993
16.34318	60157
16.35132	61634
16.35943	68951
16.36755	81834
16.37568	93648
16.38380	94654
16.39193	89300
16.40005	80698
16.40817	71907
16.41630	65367
16.42442	63415
16.43255	57357
16.44067	60909
16.44878	71776
16.45692	94560
16.46503	134944
16.47315	197955
16.48128	238655
16.48940	260035
16.49753	250445
16.50565	190156
16.51377	145453
16.52190	106845
16.53002	87205
16.53815	75849
16.54627	71351
16.55438	65812
16.56252	67427
16.57063	64186
16.57875	68223
16.58688	73907
16.59500	80474
16.60313	93331
16.61125	102951
16.61937	109191
16.62750	106715
16.63562	100826
16.64375	86858
16.65187	75766
16.65998	65547
16.66812	66209
16.67623	63417
16.68437	64246
16.69248	59408
16.70060	56885
16.70873	55486
16.71685	54539
16.72497	50189
16.73310	52158
16.74122	54943
16.74935	55755
16.75747	53599
16.76558	51721
16.77372	54040
16.78183	49140
16.78997	49771
16.79808	47630
16.80620	46068
16.81433	45264
16.82245	44467
16.83058	44671
16.83870	45774
16.84682	45540
16.85495	44418
16.86307	42367
16.87118	44204
16.87932	41529
16.88743	40846
16.89557	43546
16.90368	43396
16.91180	44783
16.91993	41456
16.92805	40882
16.93618	45791
16.94430	43052
16.95242	41557
16.96055	38860
16.96867	43208
16.97678	45923
16.98492	44511
16.99303	40465
17.00117	45293
17.00928	49249
17.01740	48939
17.02553	55042
17.03365	54608
17.04178	60992
17.04990	61342
17.05802	70284
17.06615	68561
17.07427	77539
17.08240	84277
17.09052	106481
17.09863	145619
17.10677	183190
17.11488	204835
17.12300	234675
17.13113	236222
17.13925	218485
17.14738	198334
17.15550	175599
17.16362	146155
17.17175	120174
17.17987	98140
17.18800	80080
17.19612	71941
17.20423	59742
17.21237	56521
17.22048	52350
17.22862	53715
17.23673	47208
17.24485	53340
17.25298	52089
17.26110	49834
17.26922	51821
17.27735	50036
17.28547	49616
17.29360	46103
17.30172	44264
17.30983	49422
17.31797	53277
17.32608	61603
17.33422	69741
17.34233	78166
17.35045	83080
17.35858	85138
17.36670	85688
17.37482	80118
17.38295	73283
17.39107	73708
17.39920	69883
17.40732	68065
17.41543	77707
17.42357	78240
17.43168	82594
17.43982	76460
17.44793	78857
17.45605	71751
17.46418	63833
17.47230	57749
17.48043	56837
17.48855	52147
17.49667	47703
17.50480	53044
17.51292	50834
17.52103	47143
17.52917	49356
17.53728	50973
17.54542	56289
17.55353	58521
17.56165	82936
17.56978	139809
17.57790	229947
17.58603	413590
17.59415	688668
17.60227	992098
17.61040	1215391
17.61852	1206081
17.62663	966112
17.63477	702608
17.64288	465828
17.65102	320879
17.65913	247023
17.66725	194015
17.67538	169442
17.68350	157501
17.69163	134483
17.69975	124981
17.70787	113920
17.71600	109673
17.72412	108146
17.73225	106344
17.74037	98592
17.74848	95934
17.75662	90501
17.76473	87455
17.77285	81295
17.78098	81472
17.78910	74737
17.79723	76234
17.80535	66573
17.81347	69301
17.82160	71644
17.82972	78929
17.83785	82225
17.84597	85592
17.85408	99496
17.86222	106414
17.87033	111400
17.87847	103842
17.88658	97695
17.89470	84792
17.90283	70679
17.91095	62225
17.91907	58318
17.92720	58806
17.93532	58131
17.94345	51668
17.95157	52676
17.95968	52757
17.96782	51877
17.97593	52798
17.98407	47407
17.99218	54788
18.00030	55631
18.00843	54925
18.01655	65064
18.02467	85935
18.03280	97634
18.04092	103544
18.04905	107151
18.05717	102187
18.06528	94321
18.07342	92754
18.08153	88567
18.08967	104836
18.09778	116404
18.10590	124538
18.11403	130938
18.12215	133656
18.13028	133245
18.13840	130820
18.14652	126559
18.15465	120187
18.16277	112953
18.17088	105856
18.17902	101581
18.18713	92676
18.19527	89494
18.20338	85021
18.21150	82402
18.21963	77645
18.22775	78275
18.23588	74406
18.24400	76086
18.25212	74402
18.26025	69352
18.26837	66688
18.27650	67539
18.28462	59513
18.29273	56404
18.30087	54495
18.30898	51744
18.31710	48148
18.32523	49247
18.33335	49241
18.34148	51907
18.34960	51780
18.35772	51317
18.36585	47469
18.37397	50875
18.38210	52841
18.39022	54134
18.39833	67220
18.40647	74412
18.41458	90449
18.42270	107129
18.43083	129441
18.43895	156523
18.44708	181647
18.45520	215226
18.46332	265370
18.47145	305638
18.47957	354763
18.48770	418253
18.49582	443604
18.50393	427244
18.51207	397702
18.52018	336346
18.52832	304769
18.53643	280977
18.54455	276536
18.55268	265200
18.56080	260549
18.56892	253942
18.57705	256126
18.58517	261302
18.59330	272953
18.60142	284735
18.60953	287012
18.61767	297896
18.62578	300146
18.63392	298938
18.64203	306220
18.65015	291954
18.65828	277428
18.66640	266478
18.67452	254028
18.68265	246847
18.69077	242124
18.69890	236461
18.70702	242974
18.71513	233148
18.72327	230627
18.73138	228955
18.73952	226426
18.74763	221723
18.75575	223379
18.76388	213083
18.77200	212513
18.78013	214347
18.78825	214376
18.79637	210113
18.80450	216257
18.81262	205975
18.82073	203544
18.82887	201084
18.83698	197671
18.84512	194333
18.85323	196462
18.86135	195898
18.86948	195013
18.87760	202017
18.88573	200093
18.89385	199158
18.90197	191826
18.91010	197934
18.91822	187119
18.92635	189864
18.93447	189334
18.94258	188037
18.95072	195763
18.95883	196591
18.96695	188549
18.97508	189100
18.98320	185215
18.99133	179353
18.99945	178070
19.00757	168648
19.01570	174463
19.02382	171508
19.03195	164877
19.04007	168372
19.04818	163173
19.05632	167655
19.06443	179994
19.07255	202394
19.08068	273586
19.08880	371692
19.09693	486038
19.10505	577729
19.11317	619039
19.12130	543643
19.12942	442540
19.13755	351235
19.14567	279269
19.15378	219624
19.16192	198096
19.17003	183586
19.17817	173847
19.18628	167654
19.19440	160815
19.20253	159046
19.21065	147955
19.21877	145861
19.22690	150925
19.23502	148165
19.24315	140003
19.25127	138317
19.25938	139226
19.26752	141252
19.27563	143219
19.28377	151986
19.29188	145280
19.30000	146648
19.30813	146475
19.31625	148045
19.32438	142008
19.33250	136278
19.34062	143007
19.34875	145664
19.35687	175489
19.36498	190282
19.37312	211507
19.38123	218650
19.38937	200661
19.39748	195326
19.40560	173567
19.41373	153718
19.42185	146449
19.42998	137075
19.43810	139038
19.44622	134427
19.45435	131911
19.46247	136025
19.47058	149891
19.47872	180288
19.48683	226330
19.49497	278592
19.50308	317744
19.51120	310351
19.51933	268558
19.52745	233264
19.53558	203101
19.54370	184073
19.55182	166649
19.55995	155715
19.56807	142192
19.57620	130989
19.58432	124396
19.59243	114173
19.60057	108485
19.60868	106482
19.61680	101226
19.62493	111771
19.63305	114641
19.64118	138435
19.64930	150277
19.65742	197487
19.66555	233314
19.67367	269469
19.68180	289270
19.68992	295537
19.69803	283476
19.70617	262965
19.71428	227740
19.72242	200632
19.73053	186119
19.73865	169607
19.74678	159731
19.75490	147370
19.76302	146130
19.77115	155771
19.77927	189776
19.78740	217194
19.79552	252882
19.80363	286064
19.81177	285489
19.81988	268541
19.82802	233937
19.83613	193703
19.84425	151608
19.85238	140839
19.86050	127113
19.86862	142732
19.87675	176123
19.88487	248791
19.89300	322016
19.90112	424549
19.90923	505860
19.91737	560990
19.92548	555899
19.93362	546353
19.94173	505008
19.94985	485804
19.95798	454548
19.96610	448862
19.97423	418505
19.98235	395694
19.99047	381650
19.99860	376066
20.00672	366815
20.01483	353695
20.02297	359298
20.03108	336558
20.03922	319491
20.04733	299510
20.05545	283815
20.06358	294670
20.07170	326970
20.07983	359097
20.08795	373094
20.09607	381525
20.10420	365409
20.11232	319095
20.12043	258303
20.12857	212579
20.13668	194026
20.14482	194822
20.15293	243789
20.16105	328206
20.16918	489678
20.17730	696111
20.18543	929671
20.19355	1122902
20.20167	1189950
20.20980	1125315
20.21792	990431
20.22605	786593
20.23417	636385
20.24228	527226
20.25042	528923
20.25853	613945
20.26665	739334
20.27478	797085
20.28290	833980
20.29103	811370
20.29915	687072
20.30727	550361
20.31540	422875
20.32352	308744
20.33165	239077
20.33977	186604
20.34788	151919
20.35602	125626
20.36413	115552
20.37227	104368
20.38038	101332
20.38850	99086
20.39663	88490
20.40475	94701
20.41287	92165
20.42100	103694
20.42912	101134
20.43725	98965
20.44537	99078
20.45348	104905
20.46162	105373
20.46973	106845
20.47787	94993
20.48598	92483
20.49410	90497
20.50223	86849
20.51035	85740
20.51847	83636
20.52660	83223
20.53472	82380
20.54285	77717
20.55097	77336
20.55908	81386
20.56722	79820
20.57533	73346
20.58347	81445
20.59158	76270
20.59970	76524
20.60783	72705
20.61595	78926
20.62408	76712
20.63220	79615
20.64032	90158
20.64845	91868
20.65657	89463
20.66468	89466
20.67282	85106
20.68093	80512
20.68907	81052
20.69718	79762
20.70530	69386
20.71343	70508
20.72155	67481
20.72968	68837
20.73780	72534
20.74592	73807
20.75405	75215
20.76217	84049
20.77030	99185
20.77842	113976
20.78653	163585
20.79467	269690
20.80278	451302
20.81090	652250
20.81903	837579
20.82715	881906
20.83528	755286
20.84340	557042
20.85152	366501
20.85965	236257
20.86777	159763
20.87590	127024
20.88402	109479
20.89213	112399
20.90027	106979
20.90838	114305
20.91650	117185
20.92463	119031
20.93275	123662
20.94088	123007
20.94900	121531
20.95712	118780
20.96525	111854
20.97337	96468
20.98150	92389
20.98962	89629
20.99773	84564
21.00587	80598
21.01398	81390
21.02212	88041
21.03023	86954
21.03835	83445
21.04648	86261
21.05460	81511
21.06272	78206
21.07085	71829
21.07897	71877
21.08710	73668
21.09522	69308
21.10333	67610
21.11147	72283
21.11958	74457
21.12772	77426
21.13583	94665
21.14395	118994
21.15208	149339
21.16020	183380
21.16832	194188
21.17645	192203
21.18457	167367
21.19270	141626
21.20082	115041
21.20893	96355
21.21707	87876
21.22518	88557
21.23332	85141
21.24143	82300
21.24955	83651
21.25768	82315
21.26580	77897
21.27393	77423
21.28205	73753
21.29017	74459
21.29830	67329
21.30642	67239
21.31453	70029
21.32267	68033
21.33078	68901
21.33892	64181
21.34703	61839
21.35515	58886
21.36328	56146
21.37140	60224
21.37953	60241
21.38765	62924
21.39577	64035
21.40390	67122
21.41202	65635
21.42015	65272
21.42827	72831
21.43638	66991
21.44452	62612
21.45263	63320
21.46075	69571
21.46888	61271
21.47700	67736
21.48513	58719
21.49325	56883
21.50137	62268
21.50950	63900
21.51762	62486
21.52575	62043
21.53387	61005
21.54198	58414
21.55012	59021
21.55823	57765
21.56637	60976
21.57448	66406
21.58260	71464
21.59073	79939
21.59885	86958
21.60697	91953
21.61510	94832
21.62322	88346
21.63135	88481
21.63947	89186
21.64758	98267
21.65572	96307
21.66383	103184
21.67197	111450
21.68008	110889
21.68820	111900
21.69633	103385
21.70445	94624
21.71257	82465
21.72070	72085
21.72882	66400
21.73695	63679
21.74507	65659
21.75318	66426
21.76132	61812
21.76943	64168
21.77757	63389
21.78568	68504
21.79380	65881
21.80193	66869
21.81005	74707
21.81818	73815
21.82630	75437
21.83442	78940
21.84255	79435
21.85067	79445
21.85878	70551
21.86692	68439
21.87503	64073
21.88317	62071
21.89128	66446
21.89940	60091
21.90753	64480
21.91565	61546
21.92378	64819
21.93190	60844
21.94002	58723
21.94815	55750
21.95627	52331
21.96438	51987
21.97252	51347
21.98063	49325
21.98877	50152
21.99688	49937
22.00500	51409
22.01313	52756
22.02125	55419
22.02938	56793
22.03750	56622
22.04562	57978
22.05375	54267
22.06187	57760
22.07000	60249
22.07812	64088
22.08623	71093
22.09437	81629
22.10248	72753
22.11060	78441
22.11873	80816
22.12685	78653
22.13498	88901
22.14310	87790
22.15122	82698
22.15935	86873
22.16747	85751
22.17560	88298
22.18372	91676
22.19183	85710
22.19997	85283
22.20808	85033
22.21622	90749
22.22433	88249
22.23245	91722
22.24058	91216
22.24870	94061
22.25682	90099
22.26495	95145
22.27307	96281
22.28120	100623
22.28932	107142
22.29743	102011
22.30557	107913
22.31368	97104
22.32182	89559
22.32993	82652
22.33805	87952
22.34618	79117
22.35430	75883
22.36242	74474
22.37055	71923
22.37867	78457
22.38680	87443
22.39492	109862
22.40303	147577
22.41117	194466
22.41928	219256
22.42742	238213
22.43553	224302
22.44365	194762
22.45178	154697
22.45990	124483
22.46803	106004
22.47615	98165
22.48427	104614
22.49240	129786
22.50052	144754
22.50863	160870
22.51677	161511
22.52488	162922
22.53302	139326
22.54113	127478
22.54925	117385
22.55738	99933
22.56550	86881
22.57363	80521
22.58175	81534
22.58987	94099
22.59800	109584
22.60612	116297
22.61425	122162
22.62237	130970
22.63048	135117
22.63862	137938
22.64673	143212
22.65485	149065
22.66298	150078
22.67110	155556
22.67923	159623
22.68735	155109
22.69547	155947
22.70360	161028
22.71172	171356
22.71985	175401
22.72797	165298
22.73608	176414
22.74422	169306
22.75233	157148
22.76045	158748
22.76858	156750
22.77670	156338
22.78483	161478
22.79295	176774
22.80107	176973
22.80920	187946
22.81732	186485
22.82545	186486
22.83357	179373
22.84168	185015
22.84982	171009
22.85793	170887
22.86607	184746
22.87418	208024
22.88230	232749
22.89043	260384
22.89855	275170
22.90667	301098
22.91480	315979
22.92292	329283
22.93105	325919
22.93917	310081
22.94728	267329
22.95542	229345
22.96353	198715
22.97167	175668
22.97978	167509
22.98790	163697
22.99603	150576
23.00415	140649
23.01227	140434
23.02040	138176
23.02852	131896
23.03665	129605
23.04477	129432
23.05288	126130
23.06102	131417
23.06913	133094
23.07727	131836
23.08538	126776
23.09350	116783
23.10163	119398
23.10975	118437
23.11788	117603
23.12600	117421
23.13412	108399
23.14225	108399
23.15037	111954
23.15848	110396
23.16662	104598
23.17473	106742
23.18287	105134
23.19098	110590
23.19910	105311
23.20723	96493
23.21535	105472
23.22348	102999
23.23160	106358
23.23972	104776
23.24785	117911
23.25597	115634
23.26410	124483
23.27222	123203
23.28033	118686
23.28847	117476
23.29658	117196
23.30470	104964
23.31283	107587
23.32095	112290
23.32908	119282
23.33720	132977
23.34532	160872
23.35345	180431
23.36157	206146
23.36970	219106
23.37782	226773
23.38593	203026
23.39407	176566
23.40218	148649
23.41030	136499
23.41843	114868
23.42655	105505
23.43468	105554
23.44280	100374
23.45092	94614
23.45905	107321
23.46717	95705
23.47530	99653
23.48342	97705
23.49153	94196
23.49967	93284
23.50778	93686
23.51592	95774
23.52403	95559
23.53215	91705
23.54028	100287
23.54840	98384
23.55652	110430
23.56465	128837
23.57277	157074
23.58090	216297
23.58902	273876
23.59713	346485
23.60527	394963
23.61338	387136
23.62152	349786
23.62963	285577
23.63775	236610
23.64588	203501
23.65400	188396
23.66213	184634
23.67025	181126
23.67837	165981
23.68650	151028
23.69462	135421
23.70273	116951
23.71087	105237
23.71898	100946
23.72712	99908
23.73523	103278
23.74335	121091
23.75148	195123
23.75960	347066
23.76773	651369
23.77585	1156735
23.78397	1810950
23.79210	2287472
23.80022	2436687
23.80833	2273078
23.81647	1976951
23.82458	1593066
23.83272	1233657
23.84083	954515
23.84895	748262
23.85708	617267
23.86520	509790
23.87333	434694
23.88145	382485
23.88957	344408
23.89770	314361
23.90582	306010
23.91395	289910
23.92207	275014
23.93018	264801
23.93832	237870
23.94643	215824
23.95455	205950
23.96268	185195
23.97080	178392
23.97893	172550
23.98705	165309
23.99517	162142
24.00330	171472
24.01142	195889
24.01955	249939
24.02767	310365
24.03578	362444
24.04392	369733
24.05203	326037
24.06015	257474
24.06828	194421
24.07640	153545
24.08453	137595
24.09265	120198
24.10077	117793
24.10890	117960
24.11702	114611
24.12515	115804
24.13327	126176
24.14138	128171
24.14952	133459
24.15763	135853
24.16577	139028
24.17388	142074
24.18200	140597
24.19013	150408
24.19825	141914
24.20637	144852
24.21450	142347
24.22262	132323
24.23075	116468
24.23887	102822
24.24698	106287
24.25512	95757
24.26323	87170
24.27137	85722
24.27948	85926
24.28760	76975
24.29573	86152
24.30385	85925
24.31198	82011
24.32010	80729
24.32822	80839
24.33635	78984
24.34447	80856
24.35258	87817
24.36072	96503
24.36883	123698
24.37697	165869
24.38508	201336
24.39320	230707
24.40133	236119
24.40945	221350
24.41758	204328
24.42570	197751
24.43382	200937
24.44195	204476
24.45007	221288
24.45818	236459
24.46632	247667
24.47443	264490
24.48257	271034
24.49068	279324
24.49880	301235
24.50693	311163
24.51505	330662
24.52318	340606
24.53130	377304
24.53942	421559
24.54755	477535
24.55567	525788
24.56380	550421
24.57192	531641
24.58003	483989
24.58817	429514
24.59628	384710
24.60440	347084
24.61253	324236
24.62065	308903
24.62878	289591
24.63690	288435
24.64502	291582
24.65315	275504
24.66127	276772
24.66940	269951
24.67752	261868
24.68563	264156
24.69377	260292
24.70188	257055
24.71002	247569
24.71813	246215
24.72625	242136
24.73438	239727
24.74250	229533
24.75062	230411
24.75875	235619
24.76687	225170
24.77500	238632
24.78312	236709
24.79123	235864
24.79937	231023
24.80748	235449
24.81562	232390
24.82373	239115
24.83185	259181
24.83998	286808
24.84810	325667
24.85622	396504
24.86435	490843
24.87247	590304
24.88060	739024
24.88872	850805
24.89683	867047
24.90497	797905
24.91308	662861
24.92122	497929
24.92933	349123
24.93745	247132
24.94558	188235
24.95370	149791
24.96183	126564
24.96995	114449
24.97807	108659
24.98620	97582
24.99432	98653
25.00243	95163
25.01057	92964
25.01868	87836
25.02682	84862
25.03493	86467
25.04305	85638
25.05118	82736
25.05930	80727
25.06743	81996
25.07555	87192
25.08367	90031
25.09180	115133
25.09992	177135
25.10805	369220
25.11617	809642
25.12428	1572657
25.13242	2692428
25.14053	3853932
25.14865	4597357
25.15678	4461962
25.16490	3577658
25.17303	2550304
25.18115	1545811
25.18927	850779
25.19740	460153
25.20552	296777
25.21365	205051
25.22177	162282
25.22988	158173
25.23802	166856
25.24613	201375
25.25425	264754
25.26238	333497
25.27050	381718
25.27863	400977
25.28675	382401
25.29487	327692
25.30300	258660
25.31112	223282
25.31925	222372
25.32737	260865
25.33548	298809
25.34362	332674
25.35173	364543
25.35987	360231
25.36798	377078
25.37610	379557
25.38423	383025
25.39235	383163
25.40047	383477
25.40860	381690
25.41672	383869
25.42485	373308
25.43297	375588
25.44108	376759
25.44922	378961
25.45733	381860
25.46547	380446
25.47358	384369
25.48170	374842
25.48983	375770
25.49795	371771
25.50607	369367
25.51420	358865
25.52232	355141
25.53045	351832
25.53857	352276
25.54668	333999
25.55482	341273
25.56293	334503
25.57107	336099
25.57918	323971
25.58730	328989
25.59543	334358
25.60355	315731
25.61168	322054
25.61980	323528
25.62792	314526
25.63605	317507
25.64417	310175
25.65228	313603
25.66042	296255
25.66853	301416
25.67667	287079
25.68478	284940
25.69290	281600
25.70103	277021
25.70915	281429
25.71728	267186
25.72540	269235
25.73352	269399
25.74165	265548
25.74977	260976
25.75790	261054
25.76602	255010
25.77413	255199
25.78227	260405
25.79038	258236
25.79850	253135
25.80663	253199
25.81475	242124
25.82288	239224
25.83100	238397
25.83912	237641
25.84725	235856
25.85537	249238
25.86350	238299
25.87162	230231
25.87973	224751
25.88787	224126
25.89598	222951
25.90410	215758
25.91223	212853
25.92035	203564
25.92848	206918
25.93660	201641
25.94472	200821
25.95285	196047
25.96097	197985
25.96910	198456
25.97722	190324
25.98533	192626
25.99347	186430
26.00158	180596
26.00972	180236
26.01783	180974
26.02595	176836
26.03408	175542
26.04220	174811
26.05032	171657
26.05845	173121
26.06657	168350
26.07470	170962
26.08282	171105
26.09093	179042
26.09907	176309
26.10718	173682
26.11532	163271
26.12343	164497
26.13155	171164
26.13968	173509
26.14780	168327
26.15593	167452
26.16405	169215
26.17217	164610
26.18030	164287
26.18842	162079
26.19653	152495
26.20467	148051
26.21278	147096
26.22092	140995
26.22903	143183
26.23715	142131
26.24528	141032
26.25340	133926
26.26153	128783
26.26965	122465
26.27777	131523
26.28590	130360
26.29402	127492
26.30213	122504
26.31027	123283
26.31838	123412
26.32652	120869
26.33463	120250
26.34275	116363
26.35088	131704
26.35900	141381
26.36713	168451
26.37525	209506
26.38337	257908
26.39150	316768
26.39962	363574
26.40775	365227
26.41587	366610
26.42398	311251
26.43212	260693
26.44023	201041
26.44835	164597
26.45648	143235
26.46460	128576
26.47273	122968
26.48085	115038
26.48897	111717
26.49710	109303
26.50522	105780
26.51335	102578
26.52147	97355
26.52958	94734
26.53772	96012
26.54583	94434
26.55395	93487
26.56208	96008
26.57020	91442
26.57833	93157
26.58645	90383
26.59457	93399
26.60270	88511
26.61082	88248
26.61895	88386
26.62707	86367
26.63518	90433
26.64332	83653
26.65143	92499
26.65957	88224
26.66768	87579
26.67580	89159
26.68393	85987
26.69205	84121
26.70017	84344
26.70830	83467
26.71642	86375
26.72455	85473
26.73267	83076
26.74078	77444
26.74892	79785
26.75703	82856
26.76517	82085
26.77328	85451
26.78140	81714
26.78953	94516
26.79765	86222
26.80578	92829
26.81390	97441
26.82202	88150
26.83015	88829
26.83827	86395
26.84638	77122
26.85452	74712
26.86263	76721
26.87077	72894
26.87888	73399
26.88700	68621
26.89513	69521
26.90325	73908
26.91138	68956
26.91950	66615
26.92762	69421
26.93575	69608
26.94387	70518
26.95200	68440
26.96012	74561
26.96823	84018
26.97637	104630
26.98448	136434
26.99260	196584
27.00073	278176
27.00885	375871
27.01698	464459
27.02510	537823
27.03322	584390
27.04135	565831
27.04947	507913
27.05760	450529
27.06572	376648
27.07383	325292
27.08197	277292
27.09008	239759
27.09820	210197
27.10633	189845
27.11445	171478
27.12258	165995
27.13070	150602
27.13882	147967
27.14695	146470
27.15507	141434
27.16320	143317
27.17132	153619
27.17943	151496
27.18757	163922
27.19568	153899
27.20382	153996
27.21193	139799
27.22005	132624
27.22818	121228
27.23630	111838
27.24442	101311
27.25255	103096
27.26067	101289
27.26880	94424
27.27692	91159
27.28503	89585
27.29317	93734
27.30128	86594
27.30942	90598
27.31753	86487
27.32565	84096
27.33378	91507
27.34190	85937
27.35002	90116
27.35815	89174
27.36627	88060
27.37440	85535
27.38252	83820
27.39063	83860
27.39877	83760
27.40688	79287
27.41502	78047
27.42313	78709
27.43125	79492
27.43938	78122
27.44750	76774
27.45563	77301
27.46375	71109
27.47187	71159
27.48000	67364
27.48812	70868
27.49623	68385
27.50437	71456
27.51248	79394
27.52062	90364
27.52873	81768
27.53685	80096
27.54498	76401
27.55310	71962
27.56123	71579
27.56935	76540
27.57747	86847
27.58560	100603
27.59372	103582
27.60185	111408
27.60997	111362
27.61808	103596
27.62622	91010
27.63433	81879
27.64245	78427
27.65058	78493
27.65870	84147
27.66683	84328
27.67495	104214
27.68307	109496
27.69120	120600
27.69932	122977
27.70745	112797
27.71557	98228
27.72368	93654
27.73182	77724
27.73993	68566
27.74805	68526
27.75618	67234
27.76430	66442
27.77243	61521
27.78055	64825
27.78867	67076
27.79680	67150
27.80492	68056
27.81305	61065
27.82117	67643
27.82928	64223
27.83742	64640
27.84553	64298
27.85367	60148
27.86178	59317
27.86990	56941
27.87803	58971
27.88615	59031
27.89427	57165
27.90240	57046
27.91052	61814
27.91865	58894
27.92677	55672
27.93488	55581
27.94302	56384
27.95113	56912
27.95927	56817
27.96738	58957
27.97550	55016
27.98363	57176
27.99175	62379
27.99988	64269
28.00800	74968
28.01612	94311
28.02425	130141
28.03237	180515
28.04048	219432
28.04862	265377
28.05673	280550
28.06487	262641
28.07298	205936
28.08110	169406
28.08923	127353
28.09735	98736
28.10548	84015
28.11360	73466
28.12172	69706
28.12985	62579
28.13797	63296
28.14608	62755
28.15422	65177
28.16233	62011
28.17047	65509
28.17858	67532
28.18670	71098
28.19483	84089
28.20295	90946
28.21108	94291
28.21920	107078
28.22732	105392
28.23545	99737
28.24357	91158
28.25170	79585
28.25982	77352
28.26793	63631
28.27607	62048
28.28418	62520
28.29230	68589
28.30043	69700
28.30855	84493
28.31668	102056
28.32480	116984
28.33292	123953
28.34105	137668
28.34917	153823
28.35730	166667
28.36542	188033
28.37353	194059
28.38167	204364
28.38978	212422
28.39790	210871
28.40603	212319
28.41415	209995
28.42228	207158
28.43040	186606
28.43852	174741
28.44665	167752
28.45477	156245
28.46290	153816
28.47102	146594
28.47913	140486
28.48727	141424
28.49538	140120
28.50352	130727
28.51163	128241
28.51975	118345
28.52788	117491
28.53600	107566
28.54412	93981
28.55225	93456
28.56037	88926
28.56850	78603
28.57662	86080
28.58473	85255
28.59287	80028
28.60098	79049
28.60912	78891
28.61723	87644
28.62535	90437
28.63348	87458
28.64160	87116
28.64973	83563
28.65785	85665
28.66597	83895
28.67410	84315
28.68222	81631
28.69033	81478
28.69847	69596
28.70658	69383
28.71472	68688
28.72283	69769
28.73095	71653
28.73908	78330
28.74720	87498
28.75533	98276
28.76345	99294
28.77157	100248
28.77970	87730
28.78782	82439
28.79593	84294
28.80407	77366
28.81218	82974
28.82032	83829
28.82843	80189
28.83655	76152
28.84468	71243
28.85280	67613
28.86093	68051
28.86905	76599
28.87717	76734
28.88530	87280
28.89342	92929
28.90155	98674
28.90967	91528
28.91778	92391
28.92592	84166
28.93403	83755
28.94215	78701
28.95028	77610
28.95840	72387
28.96653	76613
28.97465	69671
28.98277	71912
28.99090	67358
28.99902	64582
29.00715	63624
29.01527	60621
29.02338	58394
29.03152	57215
29.03963	60431
29.04777	60154
29.05588	56264
29.06400	59809
29.07213	61232
29.08025	67694
29.08837	64922
29.09650	64555
29.10462	66651
29.11275	61908
29.12087	59407
29.12898	58319
29.13712	58583
29.14523	59737
29.15337	58394
29.16148	57729
29.16960	60107
29.17773	61620
29.18585	72174
29.19397	86740
29.20210	102246
29.21022	115739
29.21835	126498
29.22647	130438
29.23458	123605
29.24272	127117
29.25083	134311
29.25897	139293
29.26708	153440
29.27520	142163
29.28333	129121
29.29145	114421
29.29958	94143
29.30770	76055
29.31582	69325
29.32395	65035
29.33207	62918
29.34018	59558
29.34832	57295
29.35643	53332
29.36457	56990
29.37268	54853
29.38080	57190
29.38893	52312
29.39705	56498
29.40518	56548
29.41330	62979
29.42142	62399
29.42955	61121
29.43767	59078
29.44578	64303
29.45392	56528
29.46203	61042
29.47017	56514
29.47828	58567
29.48640	59317
29.49453	57130
29.50265	55709
29.51078	54633
29.51890	56183
29.52702	56104
29.53515	54790
29.54327	58168
29.55140	51709
29.55952	54667
29.56763	52814
29.57577	45288
29.58388	50239
29.59200	49745
29.60013	49391
29.60825	49616
29.61638	51814
29.62450	48111
29.63262	51012
29.64075	51994
29.64887	52275
29.65700	48089
29.66512	52575
29.67323	49107
29.68137	53856
29.68948	60496
29.69762	66902
29.70573	64881
29.71385	63305
29.72198	61045
29.73010	62210
29.73822	58561
29.74635	58588
29.75447	58143
29.76260	53742
29.77072	52541
29.77883	48073
29.78697	51436
29.79508	48826
29.80322	46047
29.81133	50715
29.81945	47303
29.82758	47115
29.83570	41343
29.84382	46512
29.85195	52241
29.86007	52912
29.86820	66097
29.87632	83675
29.88443	115219
29.89257	144408
29.90068	171156
29.90882	166690
29.91693	153121
29.92505	127073
29.93318	97440
29.94130	83909
29.94943	72255
29.95755	83206
29.96567	81666
29.97380	94853
29.98192	104030
29.99003	119888
29.99817	135401
30.00628	150145
30.01442	149401
30.02253	148653
30.03065	145659
30.03878	135765
30.04690	138037
30.05503	128312
30.06315	130321
30.07127	125280
30.07940	124274
30.08752	125856
30.09565	122768
30.10377	124544
30.11188	117680
30.12002	111530
30.12813	114497
30.13625	106570
30.14438	105571
30.15250	97210
30.16063	97063
30.16875	103087
30.17687	94843
30.18500	102151
30.19312	104943
30.20125	104423
30.20937	107927
30.21748	99955
30.22562	98933
30.23373	88326
30.24185	80813
30.24998	79004
30.25810	70057
30.26623	64441
30.27435	63324
30.28247	65955
30.29060	63814
30.29872	59087
30.30685	66679
30.31497	59701
30.32308	62405
30.33122	61847
30.33933	59583
30.34747	62978
30.35558	69189
30.36370	58517
30.37183	63529
30.37995	60761
30.38807	57872
30.39620	58635
30.40432	55156
30.41245	53497
30.42057	59315
30.42868	56781
30.43682	55408
30.44493	55145
30.45307	57548
30.46118	55176
30.46930	50024
30.47743	53538
30.48555	54224
30.49368	54592
30.50180	53968
30.50992	55558
30.51805	53801
30.52617	52785
30.53428	53204
30.54242	58377
30.55053	55318
30.55867	55780
30.56678	51454
30.57490	54679
30.58303	58077
30.59115	56375
30.59928	60377
30.60740	53878
30.61552	56571
30.62365	54107
30.63177	51049
30.63988	44571
30.64802	50669
30.65613	48080
30.66427	48174
30.67238	48498
30.68050	52386
30.68863	52750
30.69675	50209
30.70488	52875
30.71300	47234
30.72112	46152
30.72925	47743
30.73737	50037
30.74550	49995
30.75362	47133
30.76173	51262
30.76987	57221
30.77798	64158
30.78610	74802
30.79423	92012
30.80235	103229
30.81048	112353
30.81860	108949
30.82672	97091
30.83485	90168
30.84297	75702
30.85110	68149
30.85922	63777
30.86733	59589
30.87547	59204
30.88358	54564
30.89170	55731
30.89983	55593
30.90795	56271
30.91608	54796
30.92420	53608
30.93232	53183
30.94045	49924
30.94857	47224
30.95670	51877
30.96482	50192
30.97293	50903
30.98107	52384
30.98918	56567
30.99732	61218
31.00543	63148
31.01355	62922
31.02168	70229
31.02980	69962
31.03792	72174
31.04605	72862
31.05417	69494
31.06230	68267
31.07042	70497
31.07853	75192
31.08667	83240
31.09478	88838
31.10292	92589
31.11103	94262
31.11915	91880
31.12728	94069
31.13540	83791
31.14353	83433
31.15165	78201
31.15977	81186
31.16790	85646
31.17602	90531
31.18413	99623
31.19227	113612
31.20038	133874
31.20852	161725
31.21663	196510
31.22475	192740
31.23288	199926
31.24100	180697
31.24913	152810
31.25725	127388
31.26537	100946
31.27350	89634
31.28162	85174
31.28973	73163
31.29787	70562
31.30598	76088
31.31412	74830
31.32223	73288
31.33035	76104
31.33848	73164
31.34660	76239
31.35473	69848
31.36285	71771
31.37097	71138
31.37910	71771
31.38722	70322
31.39535	71821
31.40347	75215
31.41158	69490
31.41972	70672
31.42783	65166
31.43595	66919
31.44408	64057
31.45220	60774
31.46033	65528
31.46845	59386
31.47657	69399
31.48470	64207
31.49282	70895
31.50095	74791
31.50907	71882
31.51718	76675
31.52532	80519
31.53343	75766
31.54157	79062
31.54968	81504
31.55780	76495
31.56593	74643
31.57405	74740
31.58217	68733
31.59030	64227
31.59842	60925
31.60655	69646
31.61467	60461
31.62278	60634
31.63092	66239
31.63903	63872
31.64717	65935
31.65528	64740
31.66340	61405
31.67153	66670
31.67965	62310
31.68777	62742
31.69590	64075
31.70402	63193
31.71215	60826
31.72027	59079
31.72838	57459
31.73652	55639
31.74463	61541
31.75277	56770
31.76088	54046
31.76900	54683
31.77713	55910
31.78525	53442
31.79338	60761
31.80150	62649
31.80962	59213
31.81775	55880
31.82587	55675
31.83398	57723
31.84212	54996
31.85023	57152
31.85837	57026
31.86648	57900
31.87460	66621
31.88273	66739
31.89085	65300
31.89898	75963
31.90710	83053
31.91522	88023
31.92335	88103
31.93147	91339
31.93958	98324
31.94772	102033
31.95583	108625
31.96397	112540
31.97208	113613
31.98020	112856
31.98833	122693
31.99645	128996
32.00458	121051
32.01270	117014
32.02082	106980
32.02895	111750
32.03707	111667
32.04520	101093
32.05332	101824
32.06143	101309
32.06957	96363
32.07768	93980
32.08580	87329
32.09393	80390
32.10205	81588
32.11018	77031
32.11830	72427
32.12642	70484
32.13455	73926
32.14267	65282
32.15080	66006
32.15892	72030
32.16703	65273
32.17517	64979
32.18328	64201
32.19142	63461
32.19953	68987
32.20765	67143
32.21578	65285
32.22390	62810
32.23202	62319
32.24015	61258
32.24827	64820
32.25640	61260
32.26452	61991
32.27263	63118
32.28077	65782
32.28888	60307
32.29702	61012
32.30513	59157
32.31325	56557
32.32138	58499
32.32950	51982
32.33763	57312
32.34575	58377
32.35387	58478
32.36200	59483
32.37012	61057
32.37823	53595
32.38637	58967
32.39448	55566
32.40262	56490
32.41073	54251
32.41885	53686
32.42698	52840
32.43510	58353
32.44323	52020
32.45135	51678
32.45947	51965
32.46760	52795
32.47572	53192
32.48383	54459
32.49197	48790
32.50008	51944
32.50822	50010
32.51633	50554
32.52445	53349
32.53258	51565
32.54070	52174
32.54883	52093
32.55695	52020
32.56507	53629
32.57320	51874
32.58132	52691
32.58945	53409
32.59757	51898
32.60568	53286
32.61382	52727
32.62193	56163
32.63005	56371
32.63818	64827
32.64630	67225
32.65443	74005
32.66255	75593
32.67067	65457
32.67880	61518
32.68692	62111
32.69505	59956
32.70317	56402
32.71128	59040
32.71942	55892
32.72753	54859
32.73565	56736
32.74378	47702
32.75190	51410
32.76003	53012
32.76815	49630
32.77627	49990
32.78440	48840
32.79252	45877
32.80065	50984
32.80877	50308
32.81688	54599
32.82502	50068
32.83313	47037
32.84127	47698
32.84938	48876
32.85750	54108
32.86563	50156
32.87375	54334
32.88187	60551
32.89000	65235
32.89812	71976
32.90625	77165
32.91437	76042
32.92248	73775
32.93062	69477
32.93873	64383
32.94687	57733
32.95498	56331
32.96310	57336
32.97123	56552
32.97935	62712
32.98748	71488
32.99560	75361
33.00372	81557
33.01185	80868
33.01997	76601
33.02808	70297
33.03622	68327
33.04433	63105
33.05247	63339
33.06058	65374
33.06870	69594
33.07683	78182
33.08495	87823
33.09308	91740
33.10120	94557
33.10932	95231
33.11745	93111
33.12557	94801
33.13368	84031
33.14182	76952
33.14993	74861
33.15807	66445
33.16618	58046
33.17430	60732
33.18243	57738
33.19055	55697
33.19868	54624
33.20680	54318
33.21492	57569
33.22305	59581
33.23117	59065
33.23930	56116
33.24742	54796
33.25553	56270
33.26367	54903
33.27178	53061
33.27990	56335
33.28803	58922
33.29615	55872
33.30428	54307
33.31240	53092
33.32052	59291
33.32865	57805
33.33677	60168
33.34490	60754
33.35302	62009
33.36113	65318
33.36927	65741
33.37738	61245
33.38552	61390
33.39363	56014
33.40175	55650
33.40988	52584
33.41800	50243
33.42612	53589
33.43425	52713
33.44237	51014
33.45050	47585
33.45862	47091
33.46673	50972
33.47487	48536
33.48298	52481
33.49112	50433
33.49923	52307
33.50735	49975
33.51548	52046
33.52360	55137
33.53172	57499
33.53985	54680
33.54797	58292
33.55610	62090
33.56422	55553
33.57233	59976
33.58047	54162
33.58858	54717
33.59672	49375
33.60483	49110
33.61295	50426
33.62108	47462
33.62920	50316
33.63733	48405
33.64545	60947
33.65357	55894
33.66170	56061
33.66982	55859
33.67793	53332
33.68607	51019
33.69418	50555
33.70232	52665
33.71043	53973
33.71855	52517
33.72668	51151
33.73480	49382
33.74293	46676
33.75105	48710
33.75917	45615
33.76730	47979
33.77542	49352
33.78353	47633
33.79167	49368
33.79978	45363
33.80792	52737
33.81603	51048
33.82415	49473
33.83228	50610
33.84040	47967
33.84853	50033
33.85665	51251
33.86477	51157
33.87290	54619
33.88102	53088
33.88915	52597
33.89727	56529
33.90538	62061
33.91352	67103
33.92163	66726
33.92975	54149
33.93788	58172
33.94600	51800
33.95413	49705
33.96225	46036
33.97037	50661
33.97850	45742
33.98662	51175
33.99475	51406
34.00287	48826
34.01098	47157
34.01912	45229
34.02723	51042
34.03537	50698
34.04348	49398
34.05160	49640
34.05973	49071
34.06785	53882
34.07597	53147
34.08410	49781
34.09222	47412
34.10035	57062
34.10847	54697
34.11658	47349
34.12472	50384
34.13283	57483
34.14097	51441
34.14908	53779
34.15720	56019
34.16533	56189
34.17345	49599
34.18157	54752
34.18970	51103
34.19782	50700
34.20595	53925
34.21407	55015
34.22218	56253
34.23032	51661
34.23843	51002
34.24657	51135
34.25468	55807
34.26280	51770
34.27093	52193
34.27905	53028
34.28718	50730
34.29530	56564
34.30342	54318
34.31155	48018
34.31967	47130
34.32778	51300
34.33592	48700
34.34403	50516
34.35217	49039
34.36028	52441
34.36840	51123
34.37653	50790
34.38465	53036
34.39278	48648
34.40090	48712
34.40902	48321
34.41715	49481
34.42527	48279
34.43340	51979
34.44152	52406
34.44963	48182
34.45777	49686
34.46588	49823
34.47400	52340
34.48213	52910
34.49025	52210
34.49838	60137
34.50650	66881
34.51462	74177
34.52275	83062
34.53087	91819
34.53900	101668
34.54712	102216
34.55523	104234
34.56337	106454
34.57148	95912
34.57960	98451
34.58773	87948
34.59585	86093
34.60398	85953
34.61210	73090
34.62022	73373
34.62835	73719
34.63647	70727
34.64460	67072
34.65272	61735
34.66083	65335
34.66897	61368
34.67708	65007
34.68522	61025
34.69333	58593
34.70145	68754
34.70958	57091
34.71770	57440
34.72582	60205
34.73395	59118
34.74207	58877
34.75020	57397
34.75832	63101
34.76643	62274
34.77457	60068
34.78268	60366
34.79082	63248
34.79893	57787
34.80705	61478
34.81518	59512
34.82330	58572
34.83143	57956
34.83955	62794
34.84767	62909
34.85580	58754
34.86392	60083
34.87203	58329
34.88017	59361
34.88828	55761
34.89642	60976
34.90453	55985
34.91265	57905
34.92078	61492
34.92890	60954
34.93703	62414
34.94515	63153
34.95327	64432
34.96140	60285
34.96952	66028
34.97763	61613
34.98577	65790
34.99388	64837
35.00202	59537
35.01013	56701
35.01825	60770
35.02638	55654
35.03450	55421
35.04263	52879
35.05075	56119
35.05887	52735
35.06700	56124
35.07512	54956
35.08325	54367
35.09137	54695
35.09948	54895
35.10762	50564
35.11573	54412
35.12385	50618
35.13198	52029
35.14010	58351
35.14823	54016
35.15635	55383
35.16447	57566
35.17260	55063
35.18072	60137
35.18885	51664
35.19697	51040
35.20508	53758
35.21322	51069
35.22133	52199
35.22945	55209
35.23758	51465
35.24570	52448
35.25383	52582
35.26195	54541
35.27007	53797
35.27820	58259
35.28632	53639
35.29445	57923
35.30257	53068
35.31068	49725
35.31882	53869
35.32693	49812
35.33507	50978
35.34318	50882
35.35130	59141
35.35943	50376
35.36755	54249
35.37567	57405
35.38380	58998
35.39192	67172
35.40005	74312
35.40817	83354
35.41628	96943
35.42442	118727
35.43253	117962
35.44067	114807
35.44878	110414
35.45690	95156
35.46503	84173
35.47315	73890
35.48128	66620
35.48940	66683
35.49752	60761
35.50565	65541
35.51377	62217
35.52188	60595
35.53002	54185
35.53813	57793
35.54627	56293
35.55438	54081
35.56250	57743
35.57063	53425
35.57875	56195
35.58688	53842
35.59500	60679
35.60312	54770
35.61125	58767
35.61937	56088
35.62748	55233
35.63562	53379
35.64373	58992
35.65187	54647
35.65998	60803
35.66810	55284
35.67623	56830
35.68435	52261
35.69248	52063
35.70060	56830
35.70872	54669
35.71685	54009
35.72497	54828
35.73310	59471
35.74122	59239
35.74933	62792
35.75747	68183
35.76558	71743
35.77370	67829
35.78183	64715
35.78995	64887
35.79808	60771
35.80620	57554
35.81432	57108
35.82245	56559
35.83057	55526
35.83870	53007
35.84682	54283
35.85493	50873
35.86307	58220
35.87118	53215
35.87932	52649
35.88743	50707
35.89555	52436
35.90368	51771
35.91180	52087
35.91992	54429
35.92805	51131
35.93617	50885
35.94430	56242
35.95242	50663
35.96053	54613
35.96867	54768
35.97678	53514
35.98492	54412
35.99303	56043
36.00115	55353
36.00928	59912
36.01740	58660
36.02552	57116
36.03365	61158
36.04177	57753
36.04990	55641
36.05802	49095
36.06613	59252
36.07427	59612
36.08238	55406
36.09052	52660
36.09863	54813
36.10675	58013
36.11488	55008
36.12300	57289
36.13113	58739
36.13925	59113
36.14737	59786
36.15550	60478
36.16362	58484
36.17173	61879
36.17987	56751
36.18798	53906
36.19612	56736
36.20423	56136
36.21235	56069
36.22048	56476
36.22860	53656
36.23673	53475
36.24485	54911
36.25297	52692
36.26110	59771
36.26922	60177
36.27733	62709
36.28547	69097
36.29358	71584
36.30172	72686
36.30983	70555
36.31795	72637
36.32608	61670
36.33420	60821
36.34233	59765
36.35045	55820
36.35857	54870
36.36670	57737
36.37482	54884
36.38295	57805
36.39107	59494
36.39918	61920
36.40732	56619
36.41543	58035
36.42355	55313
36.43168	59168
36.43980	56615
36.44793	54680
36.45605	59807
36.46417	57106
36.47230	55220
36.48042	57017
36.48855	58183
36.49667	53199
36.50478	56321
36.51292	55204
36.52103	58403
36.52917	55442
36.53728	53665
36.54540	60313
36.55353	62852
36.56165	65733
36.56977	60215
36.57790	61185
36.58602	60933
36.59415	66538
36.60227	65970
36.61038	64673
36.61852	64409
36.62663	64501
36.63477	57067
36.64288	64112
36.65100	64671
36.65913	64518
36.66725	69121
36.67538	60096
36.68350	65715
36.69162	65658
36.69975	62135
36.70787	61608
36.71598	63793
36.72412	66927
36.73223	68552
36.74037	65658
36.74848	67165
36.75660	63099
36.76473	63778
36.77285	66314
36.78098	66982
36.78910	67251
36.79722	68046
36.80535	66395
36.81347	67678
36.82158	64269
36.82972	62526
36.83783	59534
36.84597	61339
36.85408	63524
36.86220	62403
36.87033	62953
36.87845	62172
36.88658	62297
36.89470	65452
36.90282	62253
36.91095	62184
36.91907	63936
36.92720	66915
36.93532	68880
36.94343	70001
36.95157	76683
36.95968	82451
36.96780	92559
36.97593	80706
36.98405	82067
36.99218	73548
37.00030	73310
37.00842	69399
37.01655	64733
37.02467	68817
37.03280	64785
37.04092	61456
37.04903	62750
37.05717	64547
37.06528	63531
37.07340	64536
37.08153	73512
37.08965	65578
37.09778	66519
37.10590	64656
37.11402	66377
37.12215	62920
37.13027	65360
37.13840	61606
37.14652	65140
37.15463	66533
37.16277	70027
37.17088	61404
37.17902	62486
37.18713	61473
37.19525	66438
37.20338	66338
37.21150	63306
37.21962	60749
37.22775	63357
37.23587	61568
37.24400	65934
37.25212	62152
37.26023	61787
37.26837	62071
37.27648	62141
37.28462	60314
37.29273	66053
37.30085	66634
37.30898	80795
37.31710	79830
37.32523	90347
37.33335	98393
37.34147	100964
37.34960	104464
37.35772	96224
37.36583	96121
37.37397	92795
37.38208	86233
37.39022	82257
37.39833	82957
37.40645	83331
37.41458	77186
37.42270	86749
37.43083	78259
37.43895	76666
37.44707	77977
37.45520	76645
37.46332	74991
37.47143	73971
37.47957	76364
37.48768	75145
