D:\MassHunter\GCMS\1\data\JTB-E02\BACandSTRAW\JTB-E12-002-13.D Fri Mar 15 16:24:44 2019
Start of data points
2.09513,76711
2.10325,76996
2.11138,78991
2.11950,84992
2.12763,77889
2.13575,88948
2.14387,79714
2.15200,79598
2.16012,81166
2.16825,76982
2.17637,77491
2.18448,66583
2.19262,71961
2.20073,74241
2.20885,65668
2.21698,67098
2.22510,63994
2.23323,62290
2.24135,63637
2.24947,60793
2.25760,60618
2.26572,57316
2.27385,61898
2.28197,59659
2.29008,57366
2.29822,68556
2.30633,59641
2.31447,56640
2.32258,55992
2.33070,57670
2.33883,54640
2.34695,50108
2.35507,55185
2.36320,55240
2.37132,53494
2.37945,53378
2.38757,62731
2.39568,560041
2.40382,3984371
2.41193,6945469
2.42007,4458090
2.42818,1943066
2.43630,1314911
2.44443,1070889
2.45255,936670
2.46067,806835
2.46880,760911
2.47692,678427
2.48505,612297
2.49317,572526
2.50128,545594
2.50942,530034
2.51753,497506
2.52567,503416
2.53378,487898
2.54190,475362
2.55003,469575
2.55815,460288
2.56628,446845
2.57440,435784
2.58252,438584
2.59065,420757
2.59877,436089
2.60688,446655
2.61502,432507
2.62313,426424
2.63127,434877
2.63938,443404
2.64750,428663
2.65563,428776
2.66375,424085
2.67188,415196
2.68000,432969
2.68812,419220
2.69625,438028
2.70437,431887
2.71250,441524
2.72062,439296
2.72873,428623
2.73687,414705
2.74498,477962
2.75310,1601820
2.76123,5447268
2.76935,6316929
2.77748,3670445
2.78560,2081439
2.79372,1442831
2.80185,1122492
2.80997,921060
2.81810,784568
2.82622,700415
2.83433,642993
2.84247,599709
2.85058,549123
2.85870,537474
2.86683,513997
2.87495,495906
2.88308,482458
2.89120,464389
2.89932,462895
2.90745,459786
2.91557,439900
2.92370,450285
2.93182,504363
2.93993,986342
2.94807,1662335
2.95618,1382787
2.96432,833410
2.97243,650108
2.98055,565824
2.98868,523218
2.99680,499039
3.00492,481868
3.01305,469396
3.02117,452485
3.02930,438408
3.03742,436467
3.04553,424077
3.05367,412396
3.06178,411042
3.06992,404820
3.07803,397973
3.08615,404410
3.09428,386685
3.10240,387144
3.11053,388553
3.11865,384947
3.12677,373987
3.13490,383425
3.14302,383590
3.15113,381036
3.15927,377555
3.16738,381521
3.17552,395167
3.18363,406778
3.19175,373293
3.19988,367372
3.20800,376829
3.21613,363202
3.22425,361131
3.23237,363778
3.24050,350204
3.24862,352709
3.25673,371070
3.26487,539929
3.27298,2254938
3.28112,1.184772E+07
3.28923,2.127309E+07
3.29735,2.058947E+07
3.30548,1.401193E+07
3.31360,8871184
3.32173,6444589
3.32985,4947663
3.33797,3936363
3.34610,3304759
3.35422,4913755
3.36235,2.203171E+07
3.37047,4.286687E+07
3.37858,4.995549E+07
3.38672,4.457806E+07
3.39483,3.523835E+07
3.40295,2.919694E+07
3.41108,2.522161E+07
3.41920,2.188221E+07
3.42733,1.915235E+07
3.43545,1.683947E+07
3.44357,1.464543E+07
3.45170,1.295915E+07
3.45982,1.147918E+07
3.46795,1.040182E+07
3.47607,9798730
3.48418,9323800
3.49232,8674789
3.50043,7861235
3.50857,7142424
3.51668,6488792
3.52480,5983456
3.53293,5497627
3.54105,5112490
3.54917,4704568
3.55730,4377105
3.56542,4122294
3.57355,3817767
3.58167,3599029
3.58978,3375526
3.59792,3223661
3.60603,3019580
3.61417,2911823
3.62228,2767770
3.63040,2621112
3.63853,2525097
3.64665,2415542
3.65478,2302438
3.66290,2220532
3.67102,2155043
3.67915,2052604
3.68727,1969740
3.69538,1901990
3.70352,1860091
3.71163,1788593
3.71977,1719900
3.72788,1671608
3.73600,1610242
3.74413,1555686
3.75225,1522759
3.76038,1457690
3.76850,1430139
3.77662,1412421
3.78475,1363206
3.79287,1334989
3.80098,1288614
3.80912,1260550
3.81723,1217824
3.82537,1183519
3.83348,1180245
3.84160,1150580
3.84973,1446029
3.85785,8790218
3.86598,4.044946E+07
3.87410,7.713166E+07
3.88222,9.845586E+07
3.89035,1.074304E+08
3.89847,1.130878E+08
3.90660,1.169708E+08
3.91472,1.196338E+08
3.92283,1.161615E+08
3.93097,8.554716E+07
3.93908,7.408751E+07
3.94720,6.827118E+07
3.95533,6.307942E+07
3.96345,5.861873E+07
3.97158,5.484081E+07
3.97970,5.123221E+07
3.98782,4.875058E+07
3.99595,5.299512E+07
4.00407,6.599202E+07
4.01220,7.072808E+07
4.02032,5.979439E+07
4.02843,4.554573E+07
4.03657,3.899426E+07
4.04468,3.621296E+07
4.05282,3.39903E+07
4.06093,3.221823E+07
4.06905,3.066628E+07
4.07718,2.927289E+07
4.08530,2.853238E+07
4.09342,2.844315E+07
4.10155,2.82E+07
4.10967,2.688478E+07
4.11780,2.525371E+07
4.12592,2.407295E+07
4.13403,2.313712E+07
4.14217,2.236484E+07
4.15028,2.169888E+07
4.15842,2.100376E+07
4.16653,2.028268E+07
4.17465,1.97144E+07
4.18278,1.925758E+07
4.19090,1.866214E+07
4.19902,1.815953E+07
4.20715,1.755285E+07
4.21527,1.708955E+07
4.22340,1.665386E+07
4.23152,1.633516E+07
4.23963,1.586797E+07
4.24777,1.543008E+07
4.25588,1.495929E+07
4.26402,1.449957E+07
4.27213,1.419773E+07
4.28025,1.39436E+07
4.28838,1.363443E+07
4.29650,1.342252E+07
4.30463,1.354435E+07
4.31275,1.34451E+07
4.32087,1.280601E+07
4.32900,1.231501E+07
4.33712,1.19407E+07
4.34523,1.161012E+07
4.35337,1.123371E+07
4.36148,1.099285E+07
4.36962,1.07611E+07
4.37773,1.075126E+07
4.38585,1.111436E+07
4.39398,1.145285E+07
4.40210,1.112248E+07
4.41023,1.063824E+07
4.41835,1.007257E+07
4.42647,9687906
4.43460,9370120
4.44272,9190830
4.45085,9418672
4.45897,1.278407E+07
4.46708,2.212797E+07
4.47522,3.13622E+07
4.48333,3.769957E+07
4.49145,4.04805E+07
4.49958,4.046463E+07
4.50770,3.386455E+07
4.51583,2.369243E+07
4.52395,1.877817E+07
4.53207,1.587608E+07
4.54020,1.385325E+07
4.54832,1.245874E+07
4.55645,1.136089E+07
4.56457,1.057223E+07
4.57268,9811751
4.58082,9321590
4.58893,8976142
4.59705,8594587
4.60518,8257668
4.61330,8007498
4.62143,7613157
4.62955,7399621
4.63767,7181391
4.64580,6958641
4.65392,6774725
4.66205,6553262
4.67017,6406428
4.67828,6306751
4.68642,6172358
4.69453,6043756
4.70267,5995734
4.71078,5873432
4.71890,5789449
4.72703,5654889
4.73515,5556964
4.74327,5466837
4.75140,5358440
4.75952,5463567
4.76765,7223602
4.77577,1.428792E+07
4.78388,2.457524E+07
4.79202,2.847298E+07
4.80013,2.341721E+07
4.80827,1.487908E+07
4.81638,1.014305E+07
4.82450,8289160
4.83263,7390479
4.84075,7139105
4.84888,7304381
4.85700,7253107
4.86512,6663005
4.87325,5971281
4.88137,5569046
4.88948,5498499
4.89762,6461978
4.90573,1.060025E+07
4.91387,1.970612E+07
4.92198,2.790416E+07
4.93010,2.711649E+07
4.93823,1.843037E+07
4.94635,1.121477E+07
4.95448,7732235
4.96260,6338624
4.97072,5618217
4.97885,5179827
4.98697,4858495
4.99510,4724915
5.00322,4443613
5.01133,4278065
5.01947,4234611
5.02758,4657676
5.03570,6718454
5.04383,1.101886E+07
5.05195,1.41862E+07
5.06008,1.266404E+07
5.06820,8988910
5.07632,6689487
5.08445,6053700
5.09257,6592261
5.10070,6994110
5.10882,6363929
5.11693,5334164
5.12507,4672965
5.13318,4269143
5.14130,4088220
5.14943,4080592
5.15755,4227354
5.16568,4545467
5.17380,4679076
5.18192,4540996
5.19005,4275732
5.19817,4065895
5.20630,4374359
5.21442,6895007
5.22253,1.39994E+07
5.23067,2.219885E+07
5.23878,2.376686E+07
5.24692,1.834423E+07
5.25503,1.254367E+07
5.26315,9487485
5.27128,7704400
5.27940,6326054
5.28752,5396111
5.29565,4867809
5.30377,4501067
5.31190,4231784
5.32002,4084494
5.32813,3903711
5.33627,3762233
5.34438,3631278
5.35252,3533516
5.36063,3482840
5.36875,3375064
5.37688,3305032
5.38500,3227215
5.39313,3203025
5.40125,3126690
5.40937,3058498
5.41750,3004607
5.42562,2948743
5.43373,2904068
5.44187,2831996
5.44998,2816139
5.45812,2764953
5.46623,2710811
5.47435,2715027
5.48248,2685741
5.49060,2646447
5.49873,2566977
5.50685,2546114
5.51497,2513954
5.52310,2476986
5.53122,2493722
5.53933,2423404
5.54747,2390200
5.55558,2385804
5.56372,2364173
5.57183,2329420
5.57995,2313689
5.58808,2300919
5.59620,2336192
5.60433,2423545
5.61245,2519868
5.62057,2515575
5.62870,2473854
5.63682,2839365
5.64495,5202339
5.65307,1.215731E+07
5.66118,2.274191E+07
5.66932,3.010809E+07
5.67743,2.901733E+07
5.68555,2.126898E+07
5.69368,1.391876E+07
5.70180,1.447465E+07
5.70993,2.708417E+07
5.71805,4.489318E+07
5.72617,5.94595E+07
5.73430,6.65386E+07
5.74242,6.244211E+07
5.75055,4.594501E+07
5.75867,2.672085E+07
5.76678,1.600847E+07
5.77492,1.135462E+07
5.78303,8840227
5.79117,7360585
5.79928,6405763
5.80740,5737177
5.81553,5352969
5.82365,5479770
5.83177,6916440
5.83990,9181370
5.84802,1.007657E+07
5.85615,8744783
5.86427,6347507
5.87238,4725220
5.88052,3893374
5.88863,3422374
5.89677,3195548
5.90488,3043770
5.91300,2879155
5.92113,2795196
5.92925,2715625
5.93737,2606740
5.94550,2549303
5.95362,2445051
5.96175,2416655
5.96987,2358835
5.97798,2318310
5.98612,2313408
5.99423,2309295
6.00237,2281941
6.01048,2217687
6.01860,2141702
6.02673,2089498
6.03485,2076323
6.04298,2044936
6.05110,1975515
6.05922,1945230
6.06735,1918994
6.07547,1854943
6.08358,1838647
6.09172,1812200
6.09983,1790648
6.10797,1764818
6.11608,1760946
6.12420,1715042
6.13233,1718191
6.14045,1684897
6.14858,1672789
6.15670,1709617
6.16482,2248398
6.17295,5714271
6.18107,1.871809E+07
6.18920,4.418331E+07
6.19732,7.17138E+07
6.20543,9.398353E+07
6.21357,1.111062E+08
6.22168,1.220854E+08
6.22980,1.177071E+08
6.23793,8.396666E+07
6.24605,4.37229E+07
6.25418,2.830786E+07
6.26230,2.325047E+07
6.27042,2.102857E+07
6.27855,2.195393E+07
6.28667,2.700892E+07
6.29480,3.174065E+07
6.30292,3.109474E+07
6.31103,2.484352E+07
6.31917,1.79841E+07
6.32728,1.39934E+07
6.33542,1.203862E+07
6.34353,1.100379E+07
6.35165,1.030366E+07
6.35978,9686959
6.36790,9231098
6.37602,8861472
6.38415,8289070
6.39227,7614567
6.40040,7101787
6.40852,6799322
6.41663,6695545
6.42477,6400385
6.43288,6084946
6.44102,5969393
6.44913,5817889
6.45725,5589205
6.46538,5374651
6.47350,5123241
6.48162,4937051
6.48975,4729932
6.49787,4523970
6.50600,4443284
6.51412,4390133
6.52223,4833891
6.53037,8348916
6.53848,2.104736E+07
6.54662,4.666847E+07
6.55473,7.460204E+07
6.56285,9.641035E+07
6.57098,1.133929E+08
6.57910,1.212229E+08
6.58723,1.08423E+08
6.59535,6.222801E+07
6.60347,2.386712E+07
6.61160,1.451183E+07
6.61972,1.166036E+07
6.62783,9841917
6.63597,8618721
6.64408,7718308
6.65222,7055867
6.66033,6454492
6.66845,5961020
6.67658,5558595
6.68470,5189777
6.69283,4922554
6.70095,4682297
6.70907,4481003
6.71720,4257052
6.72532,4005701
6.73345,3849086
6.74157,3768973
6.74968,3614166
6.75782,3507099
6.76593,3378338
6.77405,3257223
6.78218,3092767
6.79030,3031937
6.79843,2969225
6.80655,2881286
6.81467,2776585
6.82280,2724393
6.83092,2653678
6.83905,2603338
6.84717,2698198
6.85528,3762420
6.86342,9126154
6.87153,2.37709E+07
6.87965,4.709499E+07
6.88778,6.670704E+07
6.89590,7.143815E+07
6.90403,5.57781E+07
6.91215,2.890792E+07
6.92027,1.316335E+07
6.92840,7894401
6.93652,5769046
6.94465,5106575
6.95277,6235364
6.96088,1.010576E+07
6.96902,1.49513E+07
6.97713,1.71498E+07
6.98527,1.608017E+07
6.99338,1.45152E+07
7.00150,1.253185E+07
7.00963,8921802
7.01775,5722422
7.02587,5402436
7.03400,4340534
7.04212,3852586
7.05025,3732785
7.05837,3800421
7.06648,3686052
7.07462,3544604
7.08273,3400211
7.09087,3321926
7.09898,3160959
7.10710,3060191
7.11523,2961877
7.12335,2910851
7.13148,2887143
7.13960,3045368
7.14772,3494211
7.15585,3877854
7.16397,3909952
7.17208,3531665
7.18022,3074706
7.18833,2673338
7.19647,2453010
7.20458,2451036
7.21270,2514516
7.22083,2526042
7.22895,2447569
7.23708,2386681
7.24520,2336546
7.25332,2297874
7.26145,2339873
7.26957,2380339
7.27768,2380444
7.28582,2433148
7.29393,2462028
7.30207,2374228
7.31018,2271440
7.31830,2232619
7.32643,2180548
7.33455,2135389
7.34268,2135238
7.35080,2073921
7.35892,2037952
7.36705,2022708
7.37517,2011352
7.38330,2104946
7.39142,2357253
7.39953,2824688
7.40767,3254327
7.41578,3354679
7.42390,2997126
7.43203,2491031
7.44015,2176196
7.44828,1971885
7.45640,1900529
7.46452,1820602
7.47265,1801480
7.48077,1812513
7.48890,1841764
7.49702,1814746
7.50513,1796003
7.51327,1744980
7.52138,1702441
7.52952,1750238
7.53763,1916066
7.54575,2600487
7.55388,4206938
7.56200,6053104
7.57012,6858282
7.57825,5613255
7.58637,3649392
7.59450,2373167
7.60262,1851787
7.61073,1623465
7.61887,1512015
7.62698,1487183
7.63512,1490440
7.64323,1454764
7.65135,1425363
7.65948,1409293
7.66760,1374211
7.67573,1352315
7.68385,1353773
7.69197,1323280
7.70010,1315280
7.70822,1308179
7.71633,1301935
7.72447,1292281
7.73258,1291921
7.74072,1270405
7.74883,1313585
7.75695,1426588
7.76508,1681033
7.77320,2099921
7.78133,2684289
7.78945,3234147
7.79757,3458790
7.80570,3226077
7.81382,2762924
7.82193,2381927
7.83007,2205273
7.83818,2135033
7.84632,1996158
7.85443,1766438
7.86255,1592468
7.87068,1454541
7.87880,1376539
7.88693,1347977
7.89505,1288207
7.90317,1274310
7.91130,1246660
7.91942,1271002
7.92755,1267040
7.93567,1357242
7.94378,1385704
7.95192,1364161
7.96003,1285000
7.96815,1226309
7.97628,1159562
7.98440,1039869
7.99253,865503
8.00065,729750
8.00877,675693
8.01690,658265
8.02502,637320
8.03315,627758
8.04127,628128
8.04938,602323
8.05752,594926
8.06563,585759
8.07377,589908
8.08188,589594
8.09000,580657
8.09813,575137
8.10625,566327
8.11437,558593
8.12250,548659
8.13062,575328
8.13875,627942
8.14687,967800
8.15498,2289642
8.16312,5873969
8.17123,1.270111E+07
8.17937,2.273662E+07
8.18748,3.338922E+07
8.19560,4.415848E+07
8.20373,5.522818E+07
8.21185,6.675725E+07
8.21997,7.864614E+07
8.22810,8.864634E+07
8.23622,9.778789E+07
8.24435,1.061946E+08
8.25247,1.123065E+08
8.26058,1.140967E+08
8.26872,9.60435E+07
8.27683,5.038131E+07
8.28497,1.65283E+07
8.29308,9106263
8.30120,6794302
8.30933,5479835
8.31745,5243823
8.32558,6018417
8.33370,7847950
8.34182,9570684
8.34995,1.034873E+07
8.35807,1.020691E+07
8.36618,9583604
8.37432,8824143
8.38243,8149404
8.39057,7456123
8.39868,6964046
8.40680,6511558
8.41493,6210283
8.42305,5813763
8.43118,5571125
8.43930,5375069
8.44742,5224640
8.45555,4999712
8.46367,4683859
8.47180,4343661
8.47992,4118085
8.48803,3947484
8.49617,3792278
8.50428,3638145
8.51240,3488129
8.52053,3341475
8.52865,3208046
8.53678,3290104
8.54490,3523264
8.55302,3935611
8.56115,4201098
8.56927,4012711
8.57740,3577955
8.58552,3060742
8.59363,2762673
8.60177,2551669
8.60988,2437522
8.61800,2312512
8.62613,2240639
8.63425,2160580
8.64238,2117535
8.65050,2122349
8.65862,2289500
8.66675,2597738
8.67487,2996343
8.68300,3260333
8.69112,3164666
8.69923,2768575
8.70737,2318255
8.71548,2038488
8.72362,1975025
8.73173,1968970
8.73985,1944183
8.74798,1935804
8.75610,1835916
8.76422,1772951
8.77235,1720649
8.78047,1776298
8.78860,1831136
8.79672,1825453
8.80483,1736945
8.81297,1580404
8.82108,1498091
8.82922,1420688
8.83733,1351189
8.84545,1346345
8.85358,1319990
8.86170,1304551
8.86983,1278188
8.87795,1322308
8.88607,1370337
8.89420,1511810
8.90232,1713486
8.91043,1915562
8.91857,1915203
8.92668,1736153
8.93482,1466120
8.94293,1239665
8.95105,1139647
8.95918,1102280
8.96730,1077871
8.97543,1070461
8.98355,1018042
8.99167,1006246
8.99980,1000916
9.00792,1001167
9.01605,1112455
9.02417,1291373
9.03228,1528156
9.04042,1667363
9.04853,1679162
9.05665,1481776
9.06478,1277217
9.07290,1127811
9.08103,1062536
9.08915,1058661
9.09727,1154117
9.10540,1298741
9.11352,1434368
9.12165,1459575
9.12977,1365861
9.13788,1163970
9.14602,1014300
9.15413,936348
9.16225,879623
9.17038,841635
9.17850,840000
9.18663,841813
9.19475,1002547
9.20287,1547845
9.21100,2972773
9.21912,5450904
9.22725,8225651
9.23537,9917480
9.24348,9211774
9.25162,6848737
9.25973,4189005
9.26787,2439580
9.27598,1522735
9.28410,1170340
9.29223,1018440
9.30035,1200324
9.30847,2087546
9.31660,4720156
9.32472,1.042303E+07
9.33285,1.808871E+07
9.34097,2.454111E+07
9.34908,2.597471E+07
9.35722,2.242172E+07
9.36533,1.560216E+07
9.37347,9034971
9.38158,5358234
9.38970,3702296
9.39783,3194264
9.40595,3227349
9.41408,3398995
9.42220,3426395
9.43032,3316685
9.43845,3173350
9.44657,2962846
9.45468,2820150
9.46282,2675965
9.47093,2624367
9.47907,2475420
9.48718,2368663
9.49530,2255752
9.50343,2188194
9.51155,2180406
9.51968,2227618
9.52780,2378659
9.53592,2678106
9.54405,2914083
9.55217,3059566
9.56028,2926914
9.56842,2510720
9.57653,2036943
9.58467,1670913
9.59278,1506016
9.60090,1472280
9.60903,1539708
9.61715,1857204
9.62528,2315724
9.63340,2656244
9.64152,2645138
9.64965,2282371
9.65777,1818597
9.66590,1495625
9.67402,1272909
9.68213,1254269
9.69027,1470333
9.69838,2297497
9.70650,4160686
9.71463,7057035
9.72275,1.05132E+07
9.73088,1.223356E+07
9.73900,1.161935E+07
9.74712,8872602
9.75525,5609613
9.76337,3265719
9.77150,2092925
9.77962,1632283
9.78773,1487135
9.79587,1470412
9.80398,1541970
9.81212,1593749
9.82023,1614313
9.82835,1551082
9.83648,1439348
9.84460,1310264
9.85272,1282905
9.86085,1249981
9.86897,1251924
9.87710,1302725
9.88522,1390708
9.89333,1384483
9.90147,1332787
9.90958,1185298
9.91772,1063806
9.92583,994631
9.93395,939186
9.94208,907063
9.95020,883065
9.95833,876732
9.96645,857487
9.97457,856364
9.98270,887986
9.99082,1120330
9.99893,2000083
10.00707,4107653
10.01518,7589126
10.02332,1.121345E+07
10.03143,1.29669E+07
10.03955,1.1551E+07
10.04768,8065041
10.05580,4699008
10.06393,2675165
10.07205,1874539
10.08017,1759207
10.08830,2018919
10.09642,2562192
10.10453,3221091
10.11267,3854183
10.12078,4583389
10.12892,5464684
10.13703,6562463
10.14515,7828636
10.15328,8681888
10.16140,8206910
10.16953,6568122
10.17765,4647135
10.18577,3030956
10.19390,2124209
10.20202,1704365
10.21015,1589591
10.21827,1618623
10.22638,1715717
10.23452,1880475
10.24263,2072395
10.25075,2319132
10.25888,2529369
10.26700,2549385
10.27513,2375442
10.28325,1961549
10.29137,1618403
10.29950,1399200
10.30762,1321924
10.31575,1287534
10.32387,1238680
10.33198,1184891
10.34012,1101051
10.34823,1067817
10.35637,1019426
10.36448,963621
10.37260,943591
10.38073,899944
10.38885,891240
10.39697,869475
10.40510,889687
10.41322,865473
10.42135,855860
10.42947,800924
10.43758,736508
10.44572,662755
10.45383,587687
10.46197,580593
10.47008,557219
10.47820,526091
10.48633,536071
10.49445,509497
10.50257,484083
10.51070,471185
10.51882,465778
10.52695,472681
10.53507,455766
10.54318,459511
10.55132,447291
10.55943,427084
10.56757,419046
10.57568,423889
10.58380,420991
10.59193,426556
10.60005,423529
10.60818,396827
10.61630,413300
10.62442,382841
10.63255,385334
10.64067,397025
10.64878,447708
10.65692,659669
10.66503,1332489
10.67317,2831638
10.68128,4920669
10.68940,6828423
10.69753,7530755
10.70565,8220606
10.71378,1.066974E+07
10.72190,1.541265E+07
10.73002,1.94654E+07
10.73815,1.908988E+07
10.74627,1.372628E+07
10.75440,7188330
10.76252,3020201
10.77063,1372644
10.77877,883301
10.78688,709554
10.79500,638864
10.80313,613753
10.81125,583865
10.81938,639133
10.82750,677306
10.83562,726975
10.84375,736189
10.85187,697794
10.86000,631929
10.86812,614649
10.87623,559952
10.88437,543026
10.89248,487103
10.90062,457508
10.90873,456049
10.91685,486703
10.92498,544981
10.93310,627868
10.94122,636534
10.94935,644407
10.95747,673528
10.96560,748118
10.97372,824114
10.98183,797547
10.98997,676790
10.99808,516484
11.00622,379535
11.01433,319478
11.02245,284035
11.03058,298064
11.03870,267556
11.04682,279726
11.05495,262429
11.06307,253721
11.07120,241432
11.07932,230141
11.08743,215148
11.09557,216885
11.10368,227931
11.11182,254696
11.11993,327654
11.12805,400643
11.13618,453496
11.14430,441958
11.15243,367742
11.16055,360350
11.16867,400419
11.17680,548741
11.18492,680898
11.19303,747909
11.20117,687060
11.20928,545714
11.21742,404453
11.22553,320675
11.23365,272748
11.24178,250109
11.24990,234305
11.25803,207868
11.26615,208030
11.27427,204891
11.28240,244665
11.29052,313621
11.29865,506519
11.30677,771963
11.31488,1071593
11.32302,1218022
11.33113,1142849
11.33925,920769
11.34738,660835
11.35550,475471
11.36363,378468
11.37175,423317
11.37987,622690
11.38800,1011113
11.39612,1675667
11.40425,3089409
11.41237,6096494
11.42048,1.258452E+07
11.42862,2.431737E+07
11.43673,4.01658E+07
11.44485,5.770664E+07
11.45298,7.315968E+07
11.46110,8.37365E+07
11.46923,8.649987E+07
11.47735,7.662645E+07
11.48547,5.304948E+07
11.49360,2.835103E+07
11.50172,1.657126E+07
11.50985,1.382965E+07
11.51797,1.477192E+07
11.52608,1.895402E+07
11.53422,2.594789E+07
11.54233,3.310432E+07
11.55047,3.439016E+07
11.55858,2.899878E+07
11.56670,1.973293E+07
11.57483,1.235957E+07
11.58295,9104232
11.59107,7777944
11.59920,7078082
11.60732,6566734
11.61545,6033693
11.62357,5600621
11.63168,5300081
11.63982,4994129
11.64793,4795624
11.65607,4579389
11.66418,4356455
11.67230,4144750
11.68043,4051887
11.68855,3869832
11.69668,3817357
11.70480,3720338
11.71292,3644494
11.72105,3492513
11.72917,3324120
11.73728,3193038
11.74542,3078413
11.75353,3008059
11.76167,2911944
11.76978,2874843
11.77790,2784636
11.78603,2749686
11.79415,2637619
11.80228,2591694
11.81040,2661401
11.81852,2896659
11.82665,3388571
11.83477,4026178
11.84290,4454511
11.85102,4456201
11.85913,3877867
11.86727,3251087
11.87538,2762956
11.88350,2553505
11.89163,2489402
11.89975,2598809
11.90788,2741191
11.91600,2897973
11.92412,2842430
11.93225,2699006
11.94037,2435091
11.94850,2310517
11.95662,2212151
11.96473,2154371
11.97287,2032775
11.98098,1929779
11.98910,1877259
11.99723,1878019
12.00535,1848349
12.01348,1893297
12.02160,1994877
12.02972,2115945
12.03785,2201030
12.04597,2198467
12.05410,2127590
12.06222,2000127
12.07033,2150175
12.07847,2654623
12.08658,3474243
12.09472,4242981
12.10283,4424905
12.11095,3985759
12.11908,3261983
12.12720,2674086
12.13532,2419041
12.14345,2316135
12.15157,2267667
12.15970,2197886
12.16782,1986828
12.17593,1798445
12.18407,1594239
12.19218,1428552
12.20032,1316231
12.20843,1284428
12.21655,1330382
12.22468,1311916
12.23280,1236293
12.24093,1135083
12.24905,1029670
12.25717,974166
12.26530,913441
12.27342,880478
12.28153,804176
12.28967,762932
12.29778,732711
12.30592,712599
12.31403,679465
12.32215,706266
12.33028,690721
12.33840,727566
12.34653,823677
12.35465,952672
12.36277,1075890
12.37090,1099103
12.37902,1050056
12.38713,925676
12.39527,929857
12.40338,1238355
12.41152,2082237
12.41963,3683645
12.42775,5714845
12.43588,7373021
12.44400,7705885
12.45213,6408215
12.46025,4529833
12.46837,2888015
12.47650,1980136
12.48462,1558872
12.49275,1396437
12.50087,1285296
12.50898,1139901
12.51712,1017790
12.52523,936719
12.53335,876499
12.54148,816536
12.54960,751908
12.55773,716542
12.56585,697728
12.57397,669006
12.58210,647001
12.59022,670695
12.59835,736730
12.60647,1167848
12.61458,2474856
12.62272,5460525
12.63083,1.066352E+07
12.63897,1.700124E+07
12.64708,2.170651E+07
12.65520,2.247877E+07
12.66333,1.8564E+07
12.67145,1.228526E+07
12.67957,7258846
12.68770,4539680
12.69582,3464483
12.70395,2887495
12.71207,2483057
12.72018,2194099
12.72832,1956544
12.73643,1796130
12.74457,1680431
12.75268,1574942
12.76080,1482110
12.76893,1463035
12.77705,1498856
12.78517,1809712
12.79330,2514872
12.80142,3597611
12.80955,4735081
12.81767,5480600
12.82578,5244841
12.83392,4227330
12.84203,3059025
12.85017,2202964
12.85828,1830501
12.86640,1649386
12.87453,1605975
12.88265,1679816
12.89078,1785425
12.89890,1776565
12.90702,1682314
12.91515,1489149
12.92327,1283966
12.93138,1103007
12.93952,1018123
12.94763,935783
12.95577,912823
12.96388,868469
12.97200,945219
12.98013,1209782
12.98825,1870508
12.99638,2718390
13.00450,3378246
13.01262,3409868
13.02075,2758779
13.02887,1874408
13.03700,1265723
13.04512,906525
13.05323,743354
13.06137,684241
13.06948,656389
13.07760,628038
13.08573,605969
13.09385,573931
13.10198,581604
13.11010,576397
13.11822,567903
13.12635,584136
13.13447,638125
13.14260,727223
13.15072,831630
13.15883,884039
13.16697,980246
13.17508,1070974
13.18322,1120047
13.19133,1092930
13.19945,996708
13.20758,833642
13.21570,660987
13.22382,526865
13.23195,451450
13.24007,398740
13.24820,349320
13.25632,331323
13.26443,318106
13.27257,309710
13.28068,301202
13.28882,291664
13.29693,276956
13.30505,275346
13.31318,289771
13.32130,388433
13.32942,572048
13.33755,960517
13.34567,1577169
13.35380,2186320
13.36192,2578205
13.37003,2539868
13.37817,2217743
13.38628,1833292
13.39442,1443998
13.40253,1108199
13.41065,847597
13.41878,667281
13.42690,566346
13.43503,477319
13.44315,423679
13.45127,371168
13.45940,340239
13.46752,309894
13.47563,283420
13.48377,267256
13.49188,254169
13.50002,244406
13.50813,239648
13.51625,267035
13.52438,333223
13.53250,399863
13.54063,477344
13.54875,547183
13.55687,544627
13.56500,492707
13.57312,435902
13.58125,357100
13.58937,294326
13.59748,250052
13.60562,219472
13.61373,210623
13.62185,192326
13.62998,201644
13.63810,206619
13.64623,205763
13.65435,232146
13.66247,219777
13.67060,209312
13.67872,220751
13.68685,191952
13.69497,184241
13.70308,185586
13.71122,172049
13.71933,163058
13.72745,163940
13.73558,185084
13.74370,222938
13.75183,264782
13.75995,307641
13.76807,308078
13.77620,275850
13.78432,227238
13.79245,201066
13.80057,171336
13.80868,151803
13.81682,147056
13.82493,140624
13.83307,137728
13.84118,131252
13.84930,140037
13.85743,126296
13.86555,123059
13.87367,121361
13.88180,123140
13.88992,121587
13.89805,116288
13.90617,112617
13.91428,111275
13.92242,109998
13.93053,110247
13.93867,112375
13.94678,106579
13.95490,104947
13.96303,107695
13.97115,110268
13.97928,119437
13.98740,204173
13.99552,500485
14.00365,1293074
14.01177,3038342
14.01988,5957221
14.02802,9402961
14.03613,1.141142E+07
14.04427,1.119748E+07
14.05238,8804088
14.06050,5810951
14.06863,3432095
14.07675,2044342
14.08488,1374808
14.09300,1085305
14.10112,931778
14.10925,870651
14.11737,792341
14.12548,709918
14.13362,632675
14.14173,561022
14.14987,508495
14.15798,472390
14.16610,430888
14.17423,427751
14.18235,448670
14.19048,505970
14.19860,628477
14.20672,744971
14.21485,875781
14.22297,914764
14.23110,868291
14.23922,777335
14.24733,692414
14.25547,616952
14.26358,517822
14.27170,424489
14.27983,354862
14.28795,325283
14.29608,298132
14.30420,292149
14.31232,295650
14.32045,305503
14.32857,304837
14.33670,289536
14.34482,267781
14.35293,248162
14.36107,242018
14.36918,219958
14.37732,212522
14.38543,207418
14.39355,198033
14.40168,203230
14.40980,201386
14.41792,208246
14.42605,198952
14.43417,205720
14.44230,192700
14.45042,199185
14.45853,198407
14.46667,194429
14.47478,211001
14.48292,224781
14.49103,257821
14.49915,265146
14.50728,240463
14.51540,230359
14.52353,220722
14.53165,278086
14.53977,467151
14.54790,954316
14.55602,1726138
14.56413,2460268
14.57227,2879721
14.58038,2740810
14.58852,2141520
14.59663,1398251
14.60475,856348
14.61288,565245
14.62100,430176
14.62913,346157
14.63725,287728
14.64537,261792
14.65350,246679
14.66162,243314
14.66973,243691
14.67787,227623
14.68598,210363
14.69412,189446
14.70223,171970
14.71035,156604
14.71848,162609
14.72660,155619
14.73473,155658
14.74285,173210
14.75097,193386
14.75910,204845
14.76722,202214
14.77535,197730
14.78347,203540
14.79158,216400
14.79972,215957
14.80783,235428
14.81595,239773
14.82408,230113
14.83220,208851
14.84033,187816
14.84845,176041
14.85657,168272
14.86470,168828
14.87282,160285
14.88095,151935
14.88907,186377
14.89718,340096
14.90532,745925
14.91343,1719286
14.92157,3132156
14.92968,4760158
14.93780,5549533
14.94593,5263121
14.95405,4137913
14.96217,2739481
14.97030,1712391
14.97842,1071985
14.98655,774291
14.99467,630257
15.00278,587006
15.01092,588554
15.01903,579375
15.02717,545002
15.03528,483355
15.04340,422571
15.05153,369890
15.05965,320990
15.06777,296189
15.07590,260341
15.08402,260137
15.09215,244708
15.10027,237917
15.10838,227577
15.11652,231870
15.12463,237035
15.13277,223636
15.14088,242164
15.14900,246510
15.15713,298183
15.16525,393845
15.17338,557989
15.18150,766609
15.18962,907111
15.19775,928360
15.20587,801171
15.21398,641726
15.22212,501822
15.23023,455828
15.23837,575657
15.24648,1055744
15.25460,2088580
15.26273,3473600
15.27085,4627695
15.27898,4766817
15.28710,3958954
15.29522,2706405
15.30335,1608447
15.31147,979638
15.31960,676579
15.32772,520982
15.33583,450222
15.34397,395480
15.35208,411308
15.36020,435377
15.36833,472798
15.37645,481633
15.38458,481768
15.39270,411391
15.40082,347077
15.40895,281684
15.41707,244476
15.42520,222295
15.43332,212209
15.44143,186474
15.44957,179262
15.45768,176440
15.46580,174327
15.47393,183512
15.48205,174585
15.49018,162087
15.49830,165925
15.50642,157125
15.51455,143599
15.52267,131105
15.53080,129648
15.53892,128801
15.54703,122704
15.55517,126692
15.56328,124539
15.57142,122272
15.57953,137003
15.58765,136172
15.59578,139470
15.60390,131336
15.61202,119953
15.62015,119030
15.62827,100977
15.63640,96142
15.64452,97407
15.65263,80742
15.66077,78411
15.66888,74868
15.67702,84307
15.68513,75474
15.69325,69834
15.70138,73676
15.70950,79034
15.71763,86988
15.72575,84382
15.73387,81178
15.74200,81741
15.75012,80232
15.75823,85851
15.76637,82299
15.77448,85360
15.78262,77548
15.79073,85128
15.79885,72313
15.80698,75869
15.81510,75551
15.82323,101605
15.83135,117364
15.83947,153598
15.84760,165072
15.85572,165584
15.86385,150029
15.87197,119550
15.88008,102999
15.88822,88321
15.89633,80168
15.90445,77413
15.91258,75898
15.92070,80775
15.92883,73796
15.93695,73171
15.94507,65826
15.95320,68248
15.96132,64726
15.96945,74577
15.97757,60602
15.98568,73167
15.99382,68347
16.00193,72419
16.01005,77785
16.01818,86662
16.02630,114487
16.03443,150368
16.04255,183605
16.05067,195252
16.05880,174287
16.06692,163437
16.07505,119625
16.08317,101501
16.09128,87528
16.09942,76319
16.10753,71347
16.11567,72228
16.12378,59593
16.13190,65275
16.14003,70047
16.14815,70173
16.15627,65736
16.16440,77178
16.17252,84710
16.18065,96852
16.18877,109240
16.19688,151934
16.20502,333569
16.21313,810765
16.22127,1790589
16.22938,3068525
16.23750,4135436
16.24563,4312001
16.25375,3501440
16.26188,2414984
16.27000,1487346
16.27812,940057
16.28625,662555
16.29437,527633
16.30248,454001
16.31062,438127
16.31873,432596
16.32687,439940
16.33498,436195
16.34310,449403
16.35123,455330
16.35935,409503
16.36748,386299
16.37560,341296
16.38372,306312
16.39185,274232
16.39997,242433
16.40808,207743
16.41622,187847
16.42433,176081
16.43247,178271
16.44058,166943
16.44870,175428
16.45683,170241
16.46495,157561
16.47308,138560
16.48120,131741
16.48932,127289
16.49745,114836
16.50557,109854
16.51370,101436
16.52182,95337
16.52993,97726
16.53807,92356
16.54618,97495
16.55430,95533
16.56243,96366
16.57055,94739
16.57868,95277
16.58680,104117
16.59492,119479
16.60305,134571
16.61117,130317
16.61930,121019
16.62742,116601
16.63553,95352
16.64367,95155
16.65178,93767
16.65992,98063
16.66803,108100
16.67615,122598
16.68428,140197
16.69240,135439
16.70052,145044
16.70865,167825
16.71677,181610
16.72490,194636
16.73302,195934
16.74113,196949
16.74927,182600
16.75738,164345
16.76552,158442
16.77363,145036
16.78175,140712
16.78988,134325
16.79800,133569
16.80612,135200
16.81425,140090
16.82237,149351
16.83050,127501
16.83862,127802
16.84673,142145
16.85487,146283
16.86298,146473
16.87112,147770
16.87923,131520
16.88735,110844
16.89548,111748
16.90360,125291
16.91173,186143
16.91985,308644
16.92797,406129
16.93610,452151
16.94422,425174
16.95233,333233
16.96047,236982
16.96858,186021
16.97672,153103
16.98483,137434
16.99295,126993
17.00108,107972
17.00920,101652
17.01733,86665
17.02545,90413
17.03357,83322
17.04170,80114
17.04982,80716
17.05795,87118
17.06607,83952
17.07418,89145
17.08232,97037
17.09043,118761
17.09855,130093
17.10668,150060
17.11480,146104
17.12293,142946
17.13105,127697
17.13917,126513
17.14730,146954
17.15542,192442
17.16355,290657
17.17167,406916
17.17978,535307
17.18792,594309
17.19603,571564
17.20417,467703
17.21228,362830
17.22040,267664
17.22853,196188
17.23665,161625
17.24477,135162
17.25290,114010
17.26102,104675
17.26915,99768
17.27727,97648
17.28538,95862
17.29352,81776
17.30163,87089
17.30977,76516
17.31788,80346
17.32600,78078
17.33413,81504
17.34225,78566
17.35037,89013
17.35850,84859
17.36662,86501
17.37475,85380
17.38287,89816
17.39098,78898
17.39912,75475
17.40723,68762
17.41537,66805
17.42348,69944
17.43160,58703
17.43973,64268
17.44785,55841
17.45598,56553
17.46410,53975
17.47222,49609
17.48035,52628
17.48847,57577
17.49658,62268
17.50472,76754
17.51283,99012
17.52097,141541
17.52908,218771
17.53720,289598
17.54533,343818
17.55345,341797
17.56158,300035
17.56970,252177
17.57782,181270
17.58595,142693
17.59407,113125
17.60220,95373
17.61032,81404
17.61843,81218
17.62657,87742
17.63468,83958
17.64280,82093
17.65093,86917
17.65905,96990
17.66718,103879
17.67530,110936
17.68342,135377
17.69155,133148
17.69967,138148
17.70780,125194
17.71592,116898
17.72403,102690
17.73217,100377
17.74028,142793
17.74840,249611
17.75653,450177
17.76465,742313
17.77278,1046471
17.78090,1264726
17.78902,1269900
17.79715,1041542
17.80527,779804
17.81340,548493
17.82152,388497
17.82963,284437
17.83777,231819
17.84588,197212
17.85402,180557
17.86213,163035
17.87025,150548
17.87838,124639
17.88650,122058
17.89462,116862
17.90275,111367
17.91087,100752
17.91900,97663
17.92712,94470
17.93523,93650
17.94337,92236
17.95148,84895
17.95962,83661
17.96773,80729
17.97585,77489
17.98398,71847
17.99210,72913
18.00023,74416
18.00835,66600
18.01647,72549
18.02460,61269
18.03272,59557
18.04083,65165
18.04897,71085
18.05708,93911
18.06522,151659
18.07333,251592
18.08145,449748
18.08958,748222
18.09770,1088578
18.10583,1346998
18.11395,1340102
18.12207,1129909
18.13020,814994
18.13832,537088
18.14643,345004
18.15457,248696
18.16268,195803
18.17082,170454
18.17893,155311
18.18705,137547
18.19518,125669
18.20330,118684
18.21143,112791
18.21955,105168
18.22767,108144
18.23580,96248
18.24392,98148
18.25205,93358
18.26017,93654
18.26828,98281
18.27642,97258
18.28453,95509
18.29265,103040
18.30078,5330089
18.30890,5766169
18.31703,5617059
18.32515,5381347
18.33327,5043332
18.34140,4751422
18.34952,4473581
18.35765,4148295
18.36577,3910494
18.37388,3695142
18.38202,3459797
18.39013,3262259
18.39827,3114578
18.40638,2914029
18.41450,2729589
18.42263,2584494
18.43075,2445116
18.43887,2320823
18.44700,2190714
18.45512,2099633
18.46325,1995352
18.47137,1918218
18.47948,1850135
18.48762,1774562
18.49573,1728155
18.50387,1738329
18.51198,1773395
18.52010,1850402
18.52823,1946528
18.53635,1978531
18.54448,1880372
18.55260,1730018
18.56072,1563288
18.56885,1426855
18.57697,1316799
18.58508,1220395
18.59322,1140279
18.60133,1061884
18.60947,1000054
18.61758,943977
18.62570,894972
18.63383,842761
18.64195,785300
18.65008,748771
18.65820,708945
18.66632,682840
18.67445,654770
18.68257,643482
18.69068,634262
18.69882,622202
18.70693,599147
18.71507,576889
18.72318,552529
18.73130,533194
18.73943,500841
18.74755,473326
18.75568,442279
18.76380,439192
18.77192,408935
18.78005,400360
18.78817,389561
18.79630,362674
18.80442,373155
18.81253,354844
18.82067,365192
18.82878,365232
18.83690,380710
18.84503,396738
18.85315,411146
18.86128,411752
18.86940,368325
18.87752,338267
18.88565,314196
18.89377,292602
18.90190,280205
18.91002,256587
18.91813,247339
18.92627,246048
18.93438,255183
18.94252,272240
18.95063,286824
18.95875,324446
18.96688,347213
18.97500,342454
18.98312,323006
18.99125,300846
18.99937,333302
19.00750,436260
19.01562,689533
19.02373,1080443
19.03187,1540566
19.03998,1842011
19.04812,1906170
19.05623,1659738
19.06435,1250968
19.07248,850340
19.08060,553176
19.08872,383424
19.09685,299681
19.10497,263864
19.11310,231435
19.12122,210747
19.12933,196222
19.13747,194259
19.14558,187504
19.15372,183372
19.16183,186599
19.16995,176044
19.17808,170224
19.18620,177295
19.19433,187167
19.20245,200678
19.21057,196738
19.21870,195496
19.22682,191815
19.23493,173797
19.24307,158717
19.25118,160987
19.25932,141781
19.26743,131469
19.27555,123303
19.28368,118786
19.29180,115504
19.29993,105432
19.30805,106782
19.31617,106562
19.32430,106580
19.33242,104066
19.34055,101619
19.34867,106903
19.35678,113086
19.36492,137772
19.37303,136987
19.38115,133694
19.38928,132984
19.39740,127730
19.40553,119375
19.41365,125653
19.42177,132885
19.42990,145792
19.43802,158965
19.44615,149729
19.45427,148041
19.46238,133069
19.47052,104736
19.47863,94629
19.48677,86183
19.49488,91636
19.50300,84785
19.51113,86472
19.51925,92608
19.52737,97207
19.53550,119625
19.54362,139778
19.55175,160180
19.55987,174960
19.56798,181645
19.57612,192319
19.58423,171896
19.59237,167814
19.60048,164628
19.60860,161449
19.61673,156464
19.62485,157997
19.63297,137293
19.64110,132753
19.64922,123121
19.65735,114998
19.66547,107618
19.67358,99909
19.68172,96091
19.68983,94707
19.69797,91037
19.70608,85195
19.71420,92103
19.72233,94660
19.73045,98730
19.73858,102708
19.74670,93176
19.75482,89652
19.76295,82849
19.77107,94234
19.77918,97783
19.78732,110665
19.79543,131342
19.80357,158667
19.81168,179936
19.81980,188200
19.82793,170764
19.83605,150143
19.84418,127000
19.85230,97705
19.86042,87604
19.86855,79481
19.87667,81045
19.88480,76163
19.89292,81113
19.90103,69669
19.90917,76397
19.91728,68884
19.92540,70139
19.93353,70165
19.94165,75132
19.94978,74574
19.95790,75685
19.96602,81864
19.97415,90482
19.98227,103626
19.99040,109536
19.99852,108452
20.00663,109176
20.01477,110912
20.02288,134784
20.03100,160984
20.03913,221617
20.04725,306457
20.05538,367977
20.06350,411445
20.07162,398002
20.07975,338112
20.08787,278626
20.09600,196800
20.10412,173563
20.11223,143886
20.12037,127379
20.12848,109743
20.13662,103109
20.14473,96783
20.15285,100056
20.16098,94040
20.16910,104099
20.17722,108612
20.18535,116576
20.19347,130608
20.20160,142031
20.20972,136854
20.21783,130944
20.22597,120312
20.23408,98921
20.24222,101939
20.25033,86947
20.25845,88161
20.26658,83925
20.27470,76091
20.28283,80187
20.29095,78018
20.29907,72139
20.30720,71545
20.31532,79643
20.32343,76367
20.33157,89385
20.33968,130928
20.34782,181649
20.35593,274349
20.36405,381980
20.37218,467109
20.38030,489096
20.38843,447073
20.39655,393786
20.40467,309083
20.41280,252502
20.42092,206311
20.42905,179939
20.43717,169098
20.44528,161998
20.45342,151110
20.46153,146075
20.46965,141048
20.47778,142384
20.48590,142502
20.49403,121167
20.50215,112324
20.51027,105902
20.51840,98091
20.52652,93403
20.53465,85293
20.54277,77778
20.55088,75663
20.55902,76045
20.56713,74949
20.57525,81018
20.58338,102740
20.59150,115040
20.59963,144398
20.60775,199356
20.61587,256393
20.62400,285816
20.63212,305066
20.64025,279008
20.64837,244183
20.65648,201020
20.66462,156429
20.67273,131927
20.68087,130426
20.68898,108764
20.69710,103484
20.70523,99158
20.71335,86021
20.72147,83205
20.72960,75605
20.73772,69670
20.74585,75948
20.75397,67567
20.76208,76943
20.77022,87811
20.77833,107557
20.78647,119269
20.79458,125311
20.80270,119278
20.81083,115483
20.81895,106482
20.82708,96894
20.83520,109021
20.84332,100978
20.85145,118406
20.85957,113046
20.86768,115190
20.87582,108386
20.88393,104963
20.89207,90236
20.90018,89617
20.90830,83939
20.91643,79858
20.92455,80521
20.93268,77924
20.94080,73007
20.94892,72982
20.95705,67693
20.96517,70993
20.97328,67888
20.98142,67565
20.98953,69250
20.99767,63807
21.00578,70447
21.01390,68620
21.02203,82572
21.03015,90106
21.03828,111292
21.04640,136509
21.05452,125253
21.06265,123119
21.07077,112221
21.07890,89425
21.08702,92310
21.09513,75691
21.10327,76181
21.11138,72443
21.11950,79306
21.12763,72189
21.13575,66988
21.14388,77259
21.15200,69277
21.16012,72855
21.16825,71878
21.17637,78006
21.18450,74600
21.19262,76193
21.20073,66502
21.20887,64845
21.21698,66316
21.22512,80926
21.23323,105615
21.24135,169465
21.24948,299472
21.25760,459334
21.26572,615909
21.27385,686025
21.28197,602941
21.29010,444707
21.29822,296177
21.30633,190465
21.31447,136540
21.32258,104302
21.33072,89905
21.33883,85383
21.34695,82193
21.35508,79564
21.36320,89144
21.37133,84225
21.37945,90725
21.38757,93980
21.39570,90433
21.40382,106430
21.41193,110459
21.42007,117316
21.42818,119429
21.43632,107391
21.44443,110799
21.45255,96876
21.46068,86116
21.46880,87053
21.47693,81521
21.48505,83155
21.49317,85374
21.50130,89156
21.50942,78591
21.51753,90138
21.52567,82087
21.53378,87775
21.54192,77155
21.55003,72763
21.55815,72450
21.56628,71358
21.57440,68713
21.58253,73995
21.59065,93531
21.59877,131785
21.60690,218169
21.61502,330697
21.62315,434597
21.63127,513433
21.63938,474715
21.64752,363807
21.65563,258995
21.66375,178699
21.67188,134672
21.68000,120849
21.68813,105376
21.69625,103377
21.70437,103300
21.71250,99285
21.72062,90469
21.72875,90721
21.73687,81908
21.74498,78530
21.75312,77252
21.76123,82016
21.76937,73151
21.77748,74906
21.78560,76810
21.79373,84222
21.80185,82622
21.80997,72540
21.81810,72765
21.82622,74803
21.83435,65253
21.84247,65518
21.85058,68953
21.85872,65883
21.86683,66918
21.87497,62164
21.88308,62425
21.89120,65577
21.89933,63908
21.90745,59780
21.91557,58771
21.92370,61500
21.93182,67798
21.93995,79943
21.94807,87142
21.95618,111711
21.96432,118014
21.97243,120147
21.98057,110062
21.98868,95337
21.99680,82956
22.00493,82379
22.01305,77772
22.02118,69131
22.02930,63112
22.03742,63433
22.04555,66378
22.05367,62879
22.06178,67262
22.06992,75982
22.07803,95570
22.08617,101204
22.09428,105168
22.10240,99877
22.11053,93270
22.11865,100617
22.12678,115748
22.13490,160155
22.14302,212412
22.15115,248143
22.15927,255767
22.16740,240890
22.17552,210934
22.18363,170576
22.19177,134563
22.19988,194947
22.20800,283967
22.21613,326672
22.22425,354888
22.23238,355376
22.24050,349229
22.24862,341137
22.25675,333791
22.26487,309153
22.27300,283938
22.28112,273538
22.28923,246296
22.29737,229177
22.30548,217179
22.31360,208231
22.32173,193481
22.32985,181640
22.33798,178156
22.34610,152578
22.35422,151075
22.36235,148208
22.37047,143515
22.37860,136519
22.38672,140628
22.39483,120619
22.40297,118569
22.41108,113096
22.41922,113754
22.42733,105764
22.43545,107807
22.44358,106845
22.45170,94589
22.45982,94963
22.46795,98001
22.47607,92431
22.48420,91544
22.49232,84440
22.50043,87844
22.50857,91236
22.51668,85056
22.52482,89169
22.53293,104341
22.54105,181919
22.54918,392169
22.55730,912813
22.56543,1919826
22.57355,3271362
22.58167,4561831
22.58980,5028286
22.59792,4558857
22.60603,3397791
22.61417,2135765
22.62228,1251376
22.63042,759455
22.63853,518343
22.64665,391859
22.65478,322806
22.66290,262341
22.67103,238695
22.67915,217240
22.68727,184871
22.69540,169785
22.70352,161155
22.71165,144277
22.71977,138080
22.72788,137371
22.73602,126593
22.74413,118811
22.75225,118586
22.76038,121853
22.76850,112451
22.77663,105517
22.78475,101510
22.79287,102174
22.80100,91813
22.80912,110436
22.81725,97553
22.82537,106045
22.83348,113669
22.84162,116172
22.84973,104955
22.85785,108966
22.86598,99731
22.87410,89942
22.88223,79929
22.89035,79450
22.89847,83255
22.90660,77577
22.91472,75463
22.92285,70914
22.93097,70690
22.93908,67034
22.94722,69128
22.95533,68535
22.96347,70571
22.97158,79402
22.97970,74299
22.98783,72286
22.99595,69576
23.00407,67921
23.01220,71008
23.02032,64471
23.02845,60835
23.03657,67377
23.04468,63124
23.05282,55611
23.06093,59388
23.06907,55068
23.07718,61066
23.08530,60166
23.09343,64896
23.10155,65345
23.10968,72192
23.11780,74541
23.12592,77133
23.13405,78671
23.14217,73801
23.15028,71653
23.15842,68152
23.16653,78423
23.17467,87989
23.18278,91653
23.19090,85836
23.19903,93074
23.20715,96612
23.21528,84366
23.22340,82724
23.23152,81060
23.23965,82636
23.24777,74250
23.25588,73151
23.26402,71799
23.27213,65858
23.28027,62165
23.28838,63163
23.29650,73789
23.30463,74593
23.31275,79457
23.32088,93153
23.32900,107404
23.33712,121638
23.34525,132425
23.35337,143253
23.36150,160106
23.36962,176092
23.37773,209003
23.38587,225962
23.39398,215639
23.40210,214705
23.41023,202138
23.41835,192761
23.42648,191477
23.43460,189262
23.44272,183163
23.45085,176153
23.45897,163493
23.46710,152653
23.47522,148048
23.48333,139626
23.49147,133443
23.49958,119716
23.50772,107827
23.51583,99189
23.52395,97653
23.53208,88630
23.54020,82430
23.54832,82524
23.55645,83034
23.56457,95114
23.57270,112232
23.58082,155681
23.58893,192276
23.59707,237891
23.60518,261904
23.61332,288479
23.62143,319858
23.62955,318822
23.63768,320213
23.64580,301379
23.65392,255475
23.66205,203816
23.67017,162059
23.67830,119132
23.68642,89485
23.69453,83912
23.70267,75811
23.71078,71920
23.71892,73567
23.72703,61599
23.73515,62471
23.74328,63049
23.75140,65784
23.75953,71780
23.76765,71449
23.77577,76386
23.78390,70533
23.79202,73678
23.80013,65190
23.80827,61803
23.81638,59664
23.82452,54623
23.83263,55891
23.84075,55960
23.84888,57932
23.85700,59282
23.86513,70754
23.87325,63344
23.88137,66462
23.88950,73094
23.89762,325880
23.90575,728707
23.91387,916489
23.92198,1021960
23.93012,1085639
23.93823,1089416
23.94635,1059574
23.95448,1022878
23.96260,984286
23.97073,922660
23.97885,864692
23.98697,792302
23.99510,773066
24.00322,717164
24.01135,687951
24.01947,642644
24.02758,617358
24.03572,586849
24.04383,575621
24.05197,537082
24.06008,508179
24.06820,482070
24.07633,447369
24.08445,415595
24.09257,388933
24.10070,382021
24.10882,359144
24.11695,381351
24.12507,436533
24.13318,492559
24.14132,545119
24.14943,586933
24.15757,607693
24.16568,617795
24.17380,586136
24.18193,532007
24.19005,470648
24.19817,403963
24.20630,345288
24.21442,288319
24.22255,270156
24.23067,278008
24.23878,406902
24.24692,832402
24.25503,1714750
24.26317,3033334
24.27128,4295746
24.27940,4902438
24.28753,4789988
24.29565,4095995
24.30378,3217782
24.31190,2405112
24.32002,1805142
24.32815,1405099
24.33627,1086838
24.34438,868635
24.35252,724111
24.36063,592363
24.36877,521547
24.37688,475473
24.38500,424366
24.39313,410046
24.40125,390479
24.40938,384054
24.41750,344012
24.42562,303598
24.43375,277710
24.44187,250872
24.45000,229522
24.45812,208256
24.46623,184032
24.47437,171492
24.48248,168616
24.49060,147234
24.49873,155455
24.50685,141608
24.51498,144277
24.52310,138067
24.53122,151827
24.53935,148154
24.54747,140575
24.55560,135223
24.56372,128050
24.57183,128130
24.57997,119400
24.58808,115556
24.59620,116393
24.60433,118746
24.61245,132037
24.62058,134439
24.62870,138101
24.63682,159641
24.64495,185148
24.65307,279486
24.66120,463639
24.66932,759899
24.67743,1050704
24.68557,1255363
24.69368,1255059
24.70182,1094029
24.70993,861058
24.71805,640701
24.72618,470961
24.73430,348911
24.74242,284261
24.75055,235171
24.75867,231183
24.76680,212079
24.77492,197144
24.78303,177136
24.79117,159469
24.79928,139629
24.80742,137008
24.81553,132422
24.82365,131339
24.83178,123611
24.83990,113563
24.84803,108028
24.85615,95432
24.86427,95702
24.87240,84687
24.88052,76673
24.88863,74934
24.89677,76116
24.90488,73227
24.91302,74179
24.92113,77638
24.92925,76158
24.93738,84144
24.94550,84641
24.95363,84726
24.96175,90518
24.96987,87078
24.97800,83447
24.98612,78056
24.99423,82672
25.00237,80214
25.01048,70821
25.01862,67973
25.02673,68643
25.03485,66736
25.04298,67326
25.05110,68147
25.05923,68454
25.06735,75663
25.07547,65240
25.08360,77143
25.09172,73785
25.09985,81724
25.10797,85536
25.11608,94579
25.12422,101969
25.13233,117176
25.14045,511728
25.14858,1017326
25.15670,1304112
25.16483,1409696
25.17295,1434961
25.18107,1400100
25.18920,1363017
25.19732,1276228
25.20545,1200521
25.21357,1124080
25.22168,1061952
25.22982,991930
25.23793,916464
25.24607,874756
25.25418,772936
25.26230,729470
25.27043,676175
25.27855,625086
25.28667,583155
25.29480,533751
25.30292,498637
25.31105,465621
25.31917,409357
25.32728,387747
25.33542,390803
25.34353,377846
25.35167,389166
25.35978,350654
25.36790,317277
25.37603,308665
25.38415,295350
25.39228,291294
25.40040,307739
25.40852,330227
25.41665,342618
25.42477,339149
25.43288,302427
25.44102,265708
25.44913,226377
25.45727,179797
25.46538,168804
25.47350,161583
25.48163,139729
25.48975,136215
25.49788,128824
25.50600,126528
25.51412,118128
25.52225,126337
25.53037,114793
25.53848,115901
25.54662,122229
25.55473,104993
25.56287,115644
25.57098,110415
25.57910,113620
25.58723,118383
25.59535,118382
25.60348,133766
25.61160,162930
25.61972,193313
25.62785,234003
25.63597,268836
25.64410,294372
25.65222,316907
25.66033,308158
25.66847,274976
25.67658,225495
25.68470,169083
25.69283,132137
25.70095,119468
25.70908,108470
25.71720,107122
25.72532,110890
25.73345,92730
25.74157,92277
25.74970,86487
25.75782,85147
25.76593,79809
25.77407,89946
25.78218,101536
25.79032,100676
25.79843,94084
25.80655,98409
25.81468,98400
25.82280,100624
25.83092,96574
25.83905,99712
25.84717,90929
25.85530,90226
25.86342,89484
25.87153,91781
25.87967,95889
25.88778,90063
25.89592,96133
25.90403,92291
25.91215,81817
25.92028,84120
25.92840,82268
25.93652,80423
25.94465,76923
25.95277,75357
25.96090,76337
25.96902,73529
25.97713,70604
25.98527,82312
25.99338,67918
26.00152,73230
26.00963,69872
26.01775,66124
26.02588,67600
26.03400,70730
26.04213,68687
26.05025,67877
26.05837,68012
26.06650,73107
26.07462,69156
26.08273,66874
26.09087,62455
26.09898,67834
26.10712,63935
26.11523,60633
26.12335,64916
26.13148,67100
26.13960,70474
26.14773,60961
26.15585,66445
26.16397,70263
26.17210,66594
26.18022,76487
26.18835,77723
26.19647,84764
26.20458,90647
26.21272,100624
26.22083,98164
26.22895,90695
26.23708,92173
26.24520,76602
26.25333,66675
26.26145,69151
26.26957,76063
26.27770,70245
26.28582,73134
26.29395,74932
26.30207,79853
26.31018,83955
26.31832,100438
26.32643,138695
26.33455,184086
26.34268,271964
26.35080,398685
26.35893,513687
26.36705,577549
26.37517,584747
26.38330,503548
26.39142,398551
26.39955,300421
26.40767,255989
26.41578,260474
26.42392,298225
26.43203,345756
26.44017,370428
26.44828,329195
26.45640,275837
26.46453,194721
26.47265,137046
26.48077,110737
26.48890,85789
26.49702,76443
26.50515,70316
26.51327,69517
26.52138,69984
26.52952,68599
26.53763,72899
26.54577,73705
26.55388,74906
26.56200,79708
26.57013,77123
26.57825,71277
26.58638,66425
26.59450,61367
26.60262,70107
26.61075,58427
26.61887,68358
26.62698,62692
26.63512,63904
26.64323,70997
26.65137,79570
26.65948,78558
26.66760,84066
26.67573,96095
26.68385,106064
26.69198,90148
26.70010,92017
26.70822,84003
26.71635,75478
26.72447,70352
26.73260,71490
26.74072,78135
26.74883,64368
26.75697,63419
26.76508,61351
26.77320,61377
26.78133,60370
26.78945,61311
26.79758,59494
26.80570,63189
26.81382,61310
26.82195,59558
26.83007,59711
26.83820,68937
26.84632,57668
26.85443,54682
26.86257,64166
26.87068,59801
26.87880,61590
26.88693,69538
26.89505,59459
26.90318,58734
26.91130,62143
26.91942,55632
26.92755,56589
26.93567,56314
26.94380,63225
26.95192,55768
26.96003,54492
26.96817,56180
26.97628,54261
26.98442,56042
26.99253,63685
27.00065,55245
27.00878,61920
27.01690,57371
27.02502,58170
27.03315,56586
27.04127,57139
27.04940,58428
27.05752,67862
27.06563,61841
27.07377,63152
27.08188,64149
27.09002,62261
27.09813,62856
27.10625,74220
27.11438,58176
27.12250,67181
27.13063,66837
27.13875,63918
27.14687,63489
27.15500,70580
27.16312,64458
27.17123,64242
27.17937,62484
27.18748,64968
27.19562,63247
27.20373,66145
27.21185,70034
27.21998,75731
27.22810,71187
27.23623,78058
27.24435,76469
27.25247,83246
27.26060,75212
27.26872,74858
27.27683,86085
27.28497,69879
27.29308,69089
27.30122,72072
27.30933,69515
27.31745,67069
27.32558,65071
27.33370,74825
27.34183,67759
27.34995,62201
27.35807,68325
27.36620,64743
27.37432,62340
27.38245,60036
27.39057,62265
27.39868,71272
27.40682,80252
27.41493,109626
27.42305,168289
27.43118,310008
27.43930,536703
27.44743,786008
27.45555,1035895
27.46367,1193554
27.47180,1256752
27.47992,1190790
27.48805,1020812
27.49617,846501
27.50428,706457
27.51242,594597
27.52053,466101
27.52867,376379
27.53678,316054
27.54490,252076
27.55303,234830
27.56115,183449
27.56927,172048
27.57740,159645
27.58552,127480
27.59365,128782
27.60177,113443
27.60988,106812
27.61802,95073
27.62613,93747
27.63427,92175
27.64238,101313
27.65050,122277
27.65863,181478
27.66675,254025
27.67487,367306
27.68300,477422
27.69112,506707
27.69925,481422
27.70737,403241
27.71548,308796
27.72362,226320
27.73173,165065
27.73987,140106
27.74798,112443
27.75610,104400
27.76423,92340
27.77235,88162
27.78048,83756
27.78860,81914
27.79672,76116
27.80485,79100
27.81297,75981
27.82108,73934
27.82922,74139
27.83733,74320
27.84547,72660
27.85358,70050
27.86170,75414
27.86983,68238
27.87795,69474
27.88608,63874
27.89420,70477
27.90232,64100
27.91045,64916
27.91857,72904
27.92670,68252
27.93482,64202
27.94293,61162
27.95107,66763
27.95918,62099
27.96730,66292
27.97543,66804
27.98355,63627
27.99168,70877
27.99980,76400
28.00792,72286
28.01605,75590
28.02417,82272
28.03230,71843
28.04042,69020
28.04853,59115
28.05667,69306
28.06478,58541
28.07292,60676
28.08103,58330
28.08915,59304
28.09728,63193
28.10540,62053
28.11352,65806
28.12165,76967
28.12977,77429
28.13790,90161
28.14602,88440
28.15413,86332
28.16227,84414
28.17038,79753
28.17852,74931
28.18663,74420
28.19475,62610
28.20288,57976
28.21100,57638
28.21912,55047
28.22725,56854
28.23537,55557
28.24350,55234
28.25162,62824
28.25973,60433
28.26787,59404
28.27598,69094
28.28412,79079
28.29223,101520
28.30035,121067
28.30848,133802
28.31660,147672
28.32473,139055
28.33285,104677
28.34097,89715
28.34910,80598
28.35722,71299
28.36533,62112
28.37347,64495
28.38158,57086
28.38972,60450
28.39783,55090
28.40595,56084
28.41408,62140
28.42220,59186
28.43033,59876
28.43845,73294
28.44657,74227
28.45470,76388
28.46282,74531
28.47095,81455
28.47907,74006
28.48718,78009
28.49532,75980
28.50343,71925
28.51155,76763
28.51968,72714
28.52780,72141
28.53593,67138
28.54405,65014
28.55217,71181
28.56030,66247
28.56842,65675
28.57655,72650
28.58467,78878
28.59278,73028
28.60092,67586
28.60903,66318
28.61715,70562
28.62528,74600
28.63340,77088
28.64153,89723
28.64965,92693
28.65777,92310
28.66590,83938
28.67402,76393
28.68215,75824
28.69027,72543
28.69838,83298
28.70652,88167
28.71463,104419
28.72277,139936
28.73088,160380
28.73900,182490
28.74713,209996
28.75525,232471
28.76337,248279
28.77150,292417
28.77962,327968
28.78775,445191
28.79587,666388
28.80398,1008184
28.81212,1404009
28.82023,1676714
28.82837,1632727
28.83648,1378874
28.84460,984921
28.85273,642970
28.86085,410122
28.86898,257016
28.87710,195949
28.88522,164511
28.89335,145801
28.90147,142954
28.90958,138569
28.91772,132453
28.92583,114099
28.93397,109905
28.94208,103952
28.95020,98347
28.95833,94383
28.96645,91991
28.97458,90616
28.98270,89664
28.99082,85937
28.99895,84863
29.00707,85357
29.01518,82079
29.02332,85720
29.03143,81988
29.03957,79036
29.04768,80122
29.05580,80087
29.06393,84154
29.07205,83698
29.08018,87826
29.08830,94806
29.09642,96131
29.10455,96010
29.11267,85300
29.12080,88125
29.12892,73859
29.13703,72636
29.14517,65387
29.15328,70088
29.16140,73290
29.16953,83711
29.17765,80233
29.18578,83001
29.19390,83841
29.20202,78510
29.21015,81142
29.21827,76233
29.22640,70334
29.23452,67042
29.24263,68458
29.25077,62640
29.25888,73056
29.26702,64104
29.27513,59096
29.28325,65029
29.29138,62591
29.29950,61698
29.30762,67502
29.31575,65837
29.32387,63891
29.33200,63613
29.34012,59592
29.34823,55667
29.35637,63626
29.36448,57210
29.37262,54585
29.38073,58443
29.38885,57076
29.39698,61707
29.40510,58524
29.41323,54318
29.42135,65468
29.42947,58208
29.43760,52415
29.44572,54398
29.45383,58123
29.46197,58406
29.47008,55015
29.47822,60772
29.48633,58548
29.49445,59029
29.50258,58266
29.51070,62945
29.51883,61882
29.52695,57075
29.53507,64848
29.54320,55387
29.55132,56043
29.55943,57640
29.56757,58017
29.57568,63343
29.58382,58300
29.59193,56620
29.60005,59652
29.60818,63750
29.61630,54778
29.62443,56866
29.63255,60220
29.64067,62811
29.64880,51914
29.65692,64566
29.66505,57292
29.67317,57630
29.68128,68857
29.68942,69240
29.69753,63963
29.70565,62836
29.71378,74294
29.72190,58267
29.73003,66261
29.73815,64548
29.74627,61805
29.75440,64025
29.76252,63354
29.77065,58064
29.77877,66821
29.78688,61203
29.79502,61834
29.80313,61762
29.81127,58715
29.81938,58328
29.82750,60943
29.83563,54702
29.84375,56405
29.85187,55657
29.86000,62141
29.86812,55274
29.87625,54709
29.88437,60692
29.89248,56723
29.90062,55927
29.90873,54592
29.91687,57874
29.92498,55375
29.93310,67418
29.94123,65076
29.94935,71433
29.95747,74932
29.96560,79278
29.97372,69796
29.98185,64974
29.98997,58270
29.99808,57939
30.00622,55022
30.01433,57775
30.02247,56425
30.03058,59148
30.03870,67569
30.04683,70896
30.05495,69276
30.06308,55978
30.07120,66175
30.07932,61879
30.08745,66628
30.09557,78742
30.10368,90270
30.11182,103974
30.11993,114905
30.12807,122326
30.13618,133987
30.14430,139721
30.15243,127881
30.16055,126895
30.16868,134984
30.17680,131274
30.18492,132188
30.19305,121039
30.20117,117207
30.20930,122070
30.21742,110426
30.22553,108222
30.23367,112785
30.24178,120309
30.24990,108477
30.25803,108171
30.26615,107909
30.27428,109609
30.28240,102918
30.29052,108798
30.29865,106947
30.30677,111641
30.31490,113238
30.32302,126611
30.33113,135173
30.33927,140490
30.34738,158958
30.35550,153154
30.36363,159573
30.37175,176154
30.37988,182410
30.38800,175760
30.39612,175177
30.40425,188321
30.41237,237344
30.42050,307217
30.42862,404317
30.43673,472312
30.44487,472205
30.45298,422523
30.46112,351246
30.46923,252134
30.47735,182503
30.48548,148336
30.49360,131035
30.50172,119207
30.50985,117702
30.51797,110651
30.52610,105682
30.53422,102384
30.54233,96935
30.55047,102795
30.55858,101241
30.56672,99345
30.57483,92237
30.58295,85103
30.59108,87660
30.59920,91302
30.60733,84165
30.61545,82070
30.62357,84219
30.63170,79140
30.63982,87382
30.64793,82178
30.65607,76457
30.66418,75182
30.67232,75908
30.68043,74157
30.68855,72660
30.69668,71788
30.70480,66568
30.71293,71591
30.72105,79493
30.72917,69781
30.73730,74775
30.74542,67438
30.75355,74737
30.76167,65452
30.76978,62145
30.77792,67746
30.78603,64053
30.79415,68338
30.80228,62220
30.81040,67700
30.81853,68028
30.82665,77046
30.83477,78204
30.84290,67883
30.85102,63136
30.85915,71183
30.86727,60854
30.87538,66193
30.88352,61017
30.89163,68763
30.89975,61138
30.90788,62380
30.91600,59329
30.92413,59412
30.93225,59024
30.94037,69172
30.94850,60581
30.95662,65000
30.96475,61353
30.97287,60921
30.98098,67614
30.98912,58668
30.99723,56793
31.00537,58342
31.01348,58451
31.02160,55941
31.02973,65242
31.03785,56964
31.04597,66934
31.05410,59504
31.06222,57870
31.07035,58417
31.07847,55799
31.08658,56995
31.09472,58921
31.10283,60462
31.11097,56615
31.11908,59883
31.12720,62204
31.13533,61356
31.14345,57431
31.15158,55852
31.15970,60409
31.16782,61988
31.17595,65885
31.18407,55020
31.19218,56649
31.20032,52669
31.20843,51993
31.21657,54045
31.22468,56272
31.23280,60986
31.24093,51431
31.24905,61604
31.25718,58059
31.26530,54897
31.27342,56906
31.28155,59392
31.28967,58360
31.29778,63156
31.30592,80522
31.31403,132515
31.32217,269248
31.33028,557289
31.33840,1044844
31.34653,1683123
31.35465,2101363
31.36278,2089123
31.37090,1760667
31.37902,1210590
31.38715,722412
31.39527,368902
31.40340,225030
31.41152,150029
31.41963,114335
31.42777,101195
31.43588,93322
31.44400,87586
31.45213,83338
31.46025,79161
31.46838,82821
31.47650,72131
31.48462,70979
31.49275,73241
31.50087,69769
31.50900,77557
31.51712,74571
31.52523,72074
31.53337,77358
31.54148,73117
31.54962,74793
31.55773,75661
31.56585,72980
31.57398,66809
31.58210,66774
31.59022,70484
31.59835,64234
31.60647,66814
31.61460,81232
31.62272,101286
31.63083,143134
31.63897,198321
31.64708,271160
31.65522,339069
31.66333,363672
31.67145,349873
31.67958,299178
31.68770,221503
31.69582,156598
31.70395,117404
31.71207,89481
31.72020,79463
31.72832,74931
31.73643,71054
31.74457,72162
31.75268,70897
31.76082,66661
31.76893,75293
31.77705,66855
31.78518,66347
31.79330,60568
31.80143,62977
31.80955,63989
31.81767,59695
31.82580,60912
31.83392,71966
31.84203,68039
31.85017,66647
31.85828,62585
31.86642,58162
31.87453,57557
31.88265,58942
31.89078,60788
31.89890,69224
31.90703,57094
31.91515,54931
31.92327,58955
31.93140,62393
31.93952,57576
31.94765,59724
31.95577,60030
31.96388,63235
31.97202,54900
31.98013,65948
31.98825,59894
31.99638,60124
32.00450,58217
32.01263,60047
32.02075,59015
32.02887,59243
32.03700,60108
32.04512,70901
32.05325,67168
32.06137,67779
32.06948,62301
32.07762,71575
32.08573,69982
32.09387,75653
32.10198,78797
32.11010,89431
32.11823,88893
32.12635,78238
32.13447,80148
32.14260,70896
32.15072,65033
32.15885,61551
32.16697,58763
32.17508,66876
32.18322,65284
32.19133,63840
32.19947,62877
32.20758,58367
32.21570,60964
32.22383,63779
32.23195,65411
32.24007,67717
32.24820,74359
32.25632,76629
32.26445,95177
32.27257,100700
32.28068,104975
32.28882,112864
32.29693,111887
32.30507,122308
32.31318,120771
32.32130,122899
32.32943,121844
32.33755,113775
32.34568,120939
32.35380,112200
32.36192,107912
32.37005,104631
32.37817,103009
32.38628,110852
32.39442,117861
32.40253,139015
32.41067,153616
32.41878,170119
32.42690,161787
32.43503,153687
32.44315,153330
32.45128,132382
32.45940,117413
32.46752,95093
32.47565,94779
32.48377,75383
32.49190,74566
32.50002,72392
32.50813,71869
32.51627,64515
32.52438,73616
32.53250,65392
32.54063,67905
32.54875,63171
32.55688,65124
32.56500,72964
32.57312,64376
32.58125,64713
32.58937,67590
32.59750,58529
32.60562,62907
32.61373,65430
32.62187,63789
32.62998,65095
32.63810,61363
32.64623,61886
32.65435,60904
32.66248,62049
32.67060,63265
32.67872,59141
32.68685,66043
32.69497,63287
32.70310,70885
32.71122,66460
32.71933,59983
32.72747,68089
32.73558,66598
32.74372,62994
32.75183,60344
32.75995,58536
32.76808,63819
32.77620,62495
32.78432,70927
32.79245,62567
32.80057,63773
32.80870,69615
32.81682,62566
32.82493,64838
32.83307,63046
32.84118,65205
32.84932,65451
32.85743,66356
32.86555,68129
32.87368,75442
32.88180,70390
32.88993,70446
32.89805,69328
32.90617,64430
32.91430,63191
32.92242,64961
32.93053,68485
32.93867,67176
32.94678,78271
32.95492,68293
32.96303,69609
32.97115,64434
32.97928,68811
32.98740,74982
32.99553,71958
33.00365,77033
33.01177,67290
33.01990,69871
33.02802,61406
33.03613,59842
33.04427,68326
33.05238,59955
33.06052,69740
33.06863,61973
33.07675,61139
33.08488,61904
33.09300,61703
33.10113,64941
33.10925,56947
33.11737,63302
33.12550,59948
33.13362,60367
33.14175,62109
33.14987,58240
33.15798,62715
33.16612,59731
33.17423,60153
33.18235,63267
33.19048,59801
33.19860,58504
33.20673,62217
33.21485,66132
33.22297,60485
33.23110,68412
33.23922,69120
33.24735,65010
33.25547,63342
33.26358,62345
33.27172,68734
33.27983,66696
33.28797,67275
33.29608,65324
33.30420,62753
33.31233,66612
33.32045,67457
33.32857,67390
33.33670,65985
33.34482,65724
33.35295,60906
33.36107,65084
33.36918,68902
33.37732,65024
33.38543,61740
33.39357,66237
33.40168,61229
33.40980,60341
33.41793,59807
33.42605,61599
33.43418,58311
33.44230,61681
33.45042,60125
33.45855,65275
33.46667,70998
33.47478,61120
33.48292,61106
33.49103,62132
33.49917,66005
33.50728,67555
33.51540,71853
33.52353,75944
33.53165,73732
33.53978,72616
33.54790,74057
33.55602,74905
33.56415,71209
33.57227,76521
33.58038,83410
33.58852,78302
33.59663,73151
33.60477,81785
33.61288,86329
33.62100,92614
33.62913,93289
33.63725,89676
33.64538,100420
33.65350,116761
33.66162,113722
33.66975,114899
33.67787,104551
33.68600,95364
33.69412,80939
33.70223,78207
33.71037,76184
33.71848,73391
33.72660,82910
33.73473,76653
33.74285,66452
33.75098,74283
33.75910,67456
33.76722,68929
33.77535,79902
33.78347,68612
33.79160,67978
33.79972,72656
33.80783,69536
33.81597,69501
33.82408,70045
33.83222,70435
33.84033,72051
33.84845,68172
33.85658,71529
33.86470,70249
33.87282,78928
33.88095,71770
33.88907,73812
33.89720,66698
33.90532,65892
33.91343,72984
33.92157,74587
33.92968,65323
33.93782,62693
33.94593,66069
33.95405,65841
33.96218,61434
33.97030,62118
33.97842,64459
33.98655,63941
33.99467,66681
34.00280,66005
34.01092,64376
34.01903,63841
34.02717,62522
34.03528,70770
34.04342,65201
34.05153,64459
34.05965,68155
34.06778,63734
34.07590,78324
34.08403,63140
34.09215,68651
34.10027,60331
34.10840,63041
34.11652,65056
34.12463,76305
34.13277,68302
34.14088,66466
34.14902,67854
34.15713,66766
34.16525,67998
34.17338,64971
34.18150,69146
34.18963,69809
34.19775,71900
34.20587,68125
34.21400,71797
34.22212,67330
34.23025,73071
34.23837,74124
34.24648,76005
34.25462,71967
34.26273,71468
34.27085,75614
34.27898,65013
34.28710,64313
34.29523,66251
34.30335,71345
34.31147,60486
34.31960,66490
34.32772,62974
34.33585,64277
34.34397,76659
34.35208,66143
34.36022,70426
34.36833,69923
34.37647,64899
34.38458,64743
34.39270,70987
34.40083,75440
34.40895,77285
34.41707,75913
34.42520,81396
34.43332,77498
34.44145,81810
34.44957,73980
34.45768,68692
34.46582,69403
34.47393,68573
34.48207,65263
34.49018,68801
34.49830,71845
34.50643,68574
34.51455,65938
34.52267,67805
34.53080,68395
34.53892,66635
34.54705,64584
34.55517,76098
34.56328,73957
34.57142,67851
34.57953,70177
34.58767,66964
34.59578,67445
34.60390,72615
34.61203,65640
34.62015,64116
34.62828,69871
34.63640,70994
34.64452,69607
34.65265,71922
34.66077,64557
34.66888,68908
34.67702,69270
34.68513,70594
34.69327,74850
34.70138,74723
34.70950,72560
34.71763,72147
34.72575,73658
34.73388,72900
34.74200,70598
34.75012,65666
34.75825,65340
34.76637,68621
34.77450,62452
34.78262,65502
34.79073,66971
34.79887,65177
34.80698,68102
34.81510,72812
34.82323,68092
34.83135,70140
34.83948,69667
34.84760,76866
34.85572,76148
34.86385,86343
34.87197,104502
34.88010,111045
34.88822,128987
34.89633,135055
34.90447,132687
34.91258,121210
34.92072,112219
34.92883,104459
34.93695,101288
34.94508,92752
34.95320,87964
34.96132,82121
34.96945,81086
34.97757,78984
34.98570,83138
34.99382,73666
35.00193,82803
35.01007,77083
35.01818,72236
35.02632,75911
35.03443,73235
35.04255,69211
35.05068,76637
35.05880,73410
35.06692,73153
35.07505,72330
35.08317,71285
35.09130,74338
35.09942,67676
35.10753,65723
35.11567,70198
35.12378,71331
35.13192,65676
35.14003,69815
35.14815,69827
35.15628,71429
35.16440,68326
35.17253,77777
35.18065,69313
35.18877,74006
35.19690,75015
35.20502,66167
35.21313,69200
35.22127,65699
35.22938,67633
35.23752,71346
35.24563,68211
35.25375,72149
35.26188,73852
35.27000,70424
35.27813,68074
35.28625,72355
35.29437,71914
35.30250,70565
35.31062,66973
35.31875,66087
35.32687,68408
35.33498,70954
35.34312,70190
35.35123,70584
35.35935,74309
35.36748,73824
35.37560,68107
35.38373,66948
35.39185,72272
35.39997,82597
35.40810,71635
35.41622,70431
35.42435,68323
35.43247,68080
35.44058,72034
35.44872,69005
35.45683,72010
35.46495,74658
35.47308,78534
35.48120,80025
35.48933,82656
35.49745,80878
35.50557,82913
35.51370,81798
35.52182,88611
35.52995,79600
35.53807,87230
35.54618,84667
35.55432,82406
35.56243,77398
35.57057,79911
35.57868,75193
35.58680,86878
35.59493,82101
35.60305,86134
35.61117,75311
35.61930,78139
35.62742,84423
35.63555,79514
35.64367,80125
35.65178,84351
35.65992,72794
35.66803,74468
35.67617,83094
35.68428,78943
35.69240,77531
35.70053,76627
35.70865,80480
35.71678,81291
35.72490,78959
35.73302,84502
35.74115,73316
35.74927,80692
35.75738,75391
35.76552,72420
35.77363,76024
35.78177,77969
35.78988,78816
35.79800,79435
35.80613,79698
35.81425,82740
35.82238,80129
35.83050,81603
35.83862,80170
35.84675,78546
35.85487,82013
35.86298,75383
35.87112,71755
35.87923,70838
35.88737,74437
35.89548,76367
35.90360,74336
35.91173,79001
35.91985,69334
35.92798,74524
35.93610,72436
35.94422,78138
35.95235,73126
35.96047,70786
35.96860,73542
35.97672,78272
35.98483,81339
35.99297,82457
36.00108,86162
36.00920,89809
36.01733,88606
36.02545,84446
36.03358,79141
36.04170,86041
36.04982,85628
36.05795,80564
36.06607,85210
36.07420,78280
36.08232,90765
36.09043,80292
36.09857,86370
36.10668,78316
36.11482,80466
36.12293,76668
36.13105,89649
36.13918,72849
36.14730,79666
36.15542,77284
36.16355,76838
36.17167,77483
36.17980,78895
36.18792,77316
36.19603,80249
36.20417,80818
36.21228,83405
36.22042,82961
36.22853,82200
36.23665,80244
36.24478,83964
36.25290,81746
36.26103,81809
36.26915,83693
36.27727,77081
36.28540,78162
36.29352,79073
36.30163,80241
36.30977,77682
36.31788,73307
36.32602,76683
36.33413,79288
36.34225,75479
36.35038,81278
36.35850,72761
36.36663,81238
36.37475,82587
36.38287,76106
36.39100,71875
36.39912,77046
36.40723,77823
36.41537,79778
36.42348,86896
36.43162,73717
36.43973,75912
36.44785,75771
36.45598,75239
36.46410,82543
36.47223,76967
36.48035,85979
36.48847,77158
36.49660,77333
36.50472,80297
36.51285,80868
36.52097,81865
36.52908,80193
36.53722,80856
36.54533,77264
36.55345,81912
36.56158,80954
36.56970,96192
36.57783,87122
36.58595,90221
36.59407,85558
36.60220,86628
36.61032,94194
36.61845,87861
36.62657,84546
36.63468,88188
36.64282,98025
36.65093,96427
36.65907,103216
36.66718,105870
36.67530,120474
36.68343,108061
36.69155,116115
36.69967,110580
36.70780,98516
36.71592,97800
36.72405,87112
36.73217,86235
36.74028,79273
36.74842,81999
36.75653,79661
36.76467,83299
36.77278,88388
36.78090,85281
36.78903,89304
36.79715,83451
36.80527,83145
36.81340,95313
36.82152,83382
36.82965,80877
36.83777,86637
36.84588,84616
36.85402,80972
36.86213,82604
36.87027,82642
36.87838,86165
36.88650,80699
36.89463,86606
36.90275,84808
36.91088,90397
36.91900,84272
36.92712,84214
36.93525,86994
36.94337,87496
36.95148,86697
36.95962,95274
36.96773,109351
36.97587,125569
36.98398,130924
36.99210,137693
37.00023,141030
37.00835,124805
37.01648,114644
37.02460,102128
37.03272,94349
37.04085,90789
37.04897,85562
37.05710,83300
37.06522,93291
37.07333,91561
37.08147,87446
37.08958,92019
37.09770,90093
37.10583,94647
37.11395,88271
37.12208,93174
37.13020,86823
37.13832,88216
37.14645,91503
37.15457,91071
37.16270,97299
37.17082,83035
37.17893,97368
37.18707,89290
37.19518,90545
37.20330,94980
37.21143,83823
37.21955,83269
37.22768,83054
37.23580,83309
37.24392,87518
37.25205,89859
37.26017,84615
37.26830,85865
37.27642,91678
37.28453,86198
37.29267,90834
37.30078,87258
37.30892,84648
37.31703,86548
37.32515,85717
37.33328,88047
37.34140,86353
37.34952,84530
37.35765,86486
37.36577,89206
37.37390,92831
37.38202,91184
37.39013,86076
37.39827,88285
37.40638,89439
37.41452,93705
37.42263,87730
37.43075,92546
37.43888,92808
37.44700,90088
37.45513,86585
37.46325,95984
37.47137,111503
37.47950,109216
37.48762,124735
