C:\MassHunter\GCMS\1\data\JTB-E18\JTB-E18-031-07.D Thu Oct 03 12:28:36 2019
Start of data points
2.09515,142462
2.10327,144853
2.11140,136157
2.11952,138524
2.12763,134518
2.13577,131231
2.14388,138886
2.15202,126275
2.16013,125361
2.16825,119184
2.17638,124437
2.18450,118451
2.19263,119372
2.20075,111372
2.20887,112351
2.21700,112072
2.22512,110336
2.23323,110586
2.24137,110208
2.24948,99610
2.25762,108812
2.26573,129647
2.27385,508147
2.28198,1390516
2.29010,1017563
2.29823,487090
2.30635,345358
2.31447,287961
2.32260,268046
2.33072,242090
2.33885,223772
2.34697,211128
2.35508,200560
2.36322,183757
2.37133,182986
2.37945,196089
2.38758,228982
2.39570,196128
2.40383,174642
2.41195,163556
2.42007,157747
2.42820,163454
2.43632,161343
2.44445,166697
2.45257,161964
2.46068,152857
2.46882,150973
2.47693,145484
2.48505,139607
2.49318,151098
2.50130,155223
2.50943,144567
2.51755,138202
2.52567,137713
2.53380,135219
2.54192,130762
2.55005,150984
2.55817,178266
2.56628,180876
2.57442,149595
2.58253,144801
2.59067,138820
2.59878,133471
2.60690,251458
2.61503,588926
2.62315,576885
2.63127,362780
2.63940,256616
2.64752,210629
2.65565,186938
2.66377,171109
2.67188,172276
2.68002,205743
2.68813,182600
2.69627,158000
2.70438,139892
2.71250,141454
2.72063,134706
2.72875,130241
2.73687,124995
2.74500,128506
2.75312,129428
2.76125,125139
2.76937,121211
2.77748,131350
2.78562,164519
2.79373,175099
2.80187,156110
2.80998,155728
2.81810,166486
2.82623,292471
2.83435,561670
2.84248,518605
2.85060,312270
2.85872,217711
2.86685,219842
2.87497,193109
2.88308,168369
2.89122,147979
2.89933,145747
2.90747,133328
2.91558,132544
2.92370,116670
2.93183,118511
2.93995,116416
2.94808,112321
2.95620,121677
2.96432,128541
2.97245,127438
2.98057,129245
2.98870,120834
2.99682,127294
3.00493,141777
3.01307,152244
3.02118,185433
3.02930,369547
3.03743,709361
3.04555,1012156
3.05368,2759276
3.06180,6704320
3.06992,7174805
3.07805,4102602
3.08617,2336663
3.09430,2411437
3.10242,2753838
3.11053,3484490
3.11867,3398889
3.12678,2179209
3.13490,1454098
3.14303,1114345
3.15115,871869
3.15928,720490
3.16740,627058
3.17552,580770
3.18365,573629
3.19177,776448
3.19990,979177
3.20802,803668
3.21613,588112
3.22427,514209
3.23238,455154
3.24052,403916
3.24863,359031
3.25675,321292
3.26488,299933
3.27300,285700
3.28112,356977
3.28925,796201
3.29737,2081066
3.30550,3771891
3.31362,4296088
3.32173,3449944
3.32987,2400650
3.33798,1732704
3.34612,1348277
3.35423,1084636
3.36235,919101
3.37048,936627
3.37860,1087181
3.38673,1154044
3.39485,994601
3.40297,1112136
3.41110,2061087
3.41922,3176324
3.42733,2787082
3.43547,1681319
3.44358,1027190
3.45172,751773
3.45983,622865
3.46795,557335
3.47608,510413
3.48420,472290
3.49233,407800
3.50045,383229
3.50857,354857
3.51670,331575
3.52482,325139
3.53293,316490
3.54107,309818
3.54918,303395
3.55732,286588
3.56543,309302
3.57355,410501
3.58168,487238
3.58980,434246
3.59793,355754
3.60605,319760
3.61417,363721
3.62230,664312
3.63042,1382432
3.63855,2017816
3.64667,1803910
3.65478,1126186
3.66292,817180
3.67103,1343589
3.67915,2618173
3.68728,2940692
3.69540,1970088
3.70353,1162844
3.71165,836502
3.71977,680903
3.72790,605003
3.73602,535347
3.74415,499766
3.75227,479867
3.76038,448309
3.76852,429316
3.77663,419477
3.78477,393622
3.79288,384932
3.80100,420593
3.80913,643775
3.81725,982918
3.82537,1007309
3.83350,740978
3.84162,545515
3.84975,453808
3.85787,398056
3.86598,364825
3.87412,350539
3.88223,331567
3.89037,312172
3.89848,302814
3.90660,305442
3.91473,306789
3.92285,367012
3.93097,436146
3.93910,441235
3.94722,533570
3.95535,1183315
3.96347,2448082
3.97158,3083990
3.97972,2345970
3.98783,1416905
3.99597,1769571
4.00408,5162729
4.01220,1.101813E+07
4.02033,1.331423E+07
4.02845,9815320
4.03658,4872024
4.04470,2395742
4.05282,1468479
4.06095,1063050
4.06907,840930
4.07718,696444
4.08532,595781
4.09343,513480
4.10157,463176
4.10968,424693
4.11780,381776
4.12593,373085
4.13405,358456
4.14218,379525
4.15030,420747
4.15842,422534
4.16655,382259
4.17467,341314
4.18278,324138
4.19092,293959
4.19903,274041
4.20717,351063
4.21528,1081497
4.22340,3886683
4.23153,8942325
4.23965,1.280436E+07
4.24778,1.240987E+07
4.25590,8440556
4.26402,4986522
4.27215,3284559
4.28027,2314382
4.28840,1758462
4.29652,1372417
4.30463,1127478
4.31277,952431
4.32088,832203
4.32900,736407
4.33713,686924
4.34525,626900
4.35338,613719
4.36150,583293
4.36962,559084
4.37775,512427
4.38587,472890
4.39400,432416
4.40212,416043
4.41023,380055
4.41837,381993
4.42648,356073
4.43462,347303
4.44273,344399
4.45085,342071
4.45898,344388
4.46710,339392
4.47522,326292
4.48335,302122
4.49147,301185
4.49960,285248
4.50772,274683
4.51583,264179
4.52397,269016
4.53208,259402
4.54022,254986
4.54833,248114
4.55645,239286
4.56458,239202
4.57270,233850
4.58082,234812
4.58895,226698
4.59707,223203
4.60520,225129
4.61332,221164
4.62143,238861
4.62957,302409
4.63768,392644
4.64582,424985
4.65393,390699
4.66205,314731
4.67018,262715
4.67830,246575
4.68643,238481
4.69455,219646
4.70267,215955
4.71080,209575
4.71892,199264
4.72703,200789
4.73517,197219
4.74328,190593
4.75142,184504
4.75953,189785
4.76765,185137
4.77578,180268
4.78390,183004
4.79203,205830
4.80015,256163
4.80827,309256
4.81640,314346
4.82452,265589
4.83265,242007
4.84077,233842
4.84888,232930
4.85702,232948
4.86513,231810
4.87325,227104
4.88138,214269
4.88950,200480
4.89763,193120
4.90575,186666
4.91387,220502
4.92200,325886
4.93012,631762
4.93825,1159442
4.94637,1688172
4.95448,1902453
4.96262,1671036
4.97073,1269389
4.97885,951620
4.98698,732515
4.99510,588063
5.00323,497992
5.01135,432602
5.01947,422100
5.02760,503263
5.03572,668686
5.04385,837921
5.05197,804551
5.06008,648623
5.06822,532329
5.07633,445053
5.08447,402853
5.09258,392606
5.10070,390558
5.10883,417269
5.11695,441399
5.12507,445066
5.13320,403636
5.14132,360359
5.14945,325079
5.15757,333274
5.16568,338946
5.17382,384859
5.18193,418888
5.19007,416576
5.19818,419015
5.20630,372618
5.21443,338910
5.22255,320799
5.23067,294995
5.23880,283820
5.24692,274228
5.25505,259578
5.26317,246539
5.27128,223463
5.27942,227371
5.28753,221154
5.29567,221885
5.30378,216813
5.31190,206323
5.32003,209821
5.32815,209467
5.33628,209864
5.34440,209630
5.35252,206384
5.36065,194222
5.36877,187664
5.37688,189577
5.38502,185369
5.39313,179304
5.40127,183034
5.40938,176960
5.41750,181663
5.42563,174674
5.43375,163266
5.44188,175348
5.45000,175870
5.45812,173708
5.46625,166608
5.47437,166066
5.48250,162547
5.49062,161954
5.49873,161602
5.50687,158996
5.51498,166478
5.52310,164264
5.53123,156900
5.53935,160537
5.54748,161580
5.55560,158452
5.56372,166579
5.57185,174409
5.57997,173058
5.58810,182551
5.59622,172582
5.60433,168704
5.61247,167533
5.62058,169060
5.62870,176173
5.63683,192552
5.64495,186966
5.65308,182317
5.66120,178389
5.66932,164140
5.67745,169865
5.68557,183887
5.69370,203774
5.70182,206577
5.70993,212103
5.71807,211861
5.72618,218480
5.73432,222820
5.74243,216364
5.75055,204604
5.75868,206745
5.76680,225437
5.77492,222056
5.78305,217565
5.79117,208136
5.79930,213400
5.80742,296947
5.81553,477946
5.82367,797738
5.83178,1073277
5.83992,1178227
5.84803,991943
5.85615,718154
5.86428,481159
5.87240,346617
5.88053,268646
5.88865,230733
5.89677,215531
5.90490,229266
5.91302,272329
5.92113,372812
5.92927,473728
5.93738,535722
5.94552,486479
5.95363,400348
5.96175,320626
5.96988,284238
5.97800,281994
5.98613,286625
5.99425,292951
6.00237,257803
6.01050,212537
6.01862,179662
6.02673,158945
6.03487,146976
6.04298,139380
6.05112,127511
6.05923,119060
6.06735,120831
6.07548,120707
6.08360,120648
6.09173,114693
6.09985,112965
6.10797,111345
6.11610,110372
6.12422,134431
6.13235,182609
6.14047,252987
6.14858,309150
6.15672,289476
6.16483,243896
6.17295,198256
6.18108,174729
6.18920,164756
6.19733,174818
6.20545,187415
6.21357,182672
6.22170,170088
6.22982,161639
6.23795,150091
6.24607,156096
6.25418,153740
6.26232,152864
6.27043,153916
6.27855,159794
6.28668,153297
6.29480,153418
6.30293,150879
6.31105,165673
6.31917,160855
6.32730,176265
6.33542,191847
6.34355,206390
6.35167,204937
6.35978,192793
6.36792,186593
6.37603,183458
6.38417,183379
6.39228,184083
6.40040,182351
6.40853,180438
6.41665,183917
6.42477,181126
6.43290,185140
6.44102,191201
6.44915,188760
6.45727,197417
6.46538,203091
6.47352,198653
6.48163,207918
6.48977,204523
6.49788,205855
6.50600,196877
6.51413,207098
6.52225,208678
6.53038,213882
6.53850,222080
6.54662,221770
6.55475,222513
6.56287,215562
6.57098,223326
6.57912,237284
6.58723,245213
6.59537,231663
6.60348,226386
6.61160,225566
6.61973,224771
6.62785,215053
6.63598,222453
6.64410,225857
6.65222,226728
6.66035,247640
6.66847,276766
6.67660,282469
6.68472,239393
6.69283,249187
6.70097,256645
6.70908,243107
6.71720,224076
6.72533,181037
6.73345,149843
6.74158,136099
6.74970,119710
6.75782,118710
6.76595,115484
6.77407,108739
6.78220,112668
6.79032,119262
6.79843,155240
6.80657,234484
6.81468,360774
6.82280,561052
6.83093,718909
6.83905,728095
6.84718,635890
6.85530,479705
6.86342,374377
6.87155,313898
6.87967,249856
6.88780,199830
6.89592,147633
6.90403,118115
6.91217,106035
6.92028,96648
6.92842,92919
6.93653,88878
6.94465,96758
6.95278,113650
6.96090,165746
6.96902,229911
6.97715,286819
6.98527,319717
6.99340,308774
7.00152,261949
7.00963,197909
7.01777,152046
7.02588,125198
7.03402,102226
7.04213,92329
7.05025,92327
7.05838,86148
7.06650,88704
7.07462,87008
7.08275,86583
7.09087,81905
7.09900,80359
7.10712,74943
7.11523,69387
7.12337,73608
7.13148,72775
7.13962,81881
7.14773,94512
7.15585,108011
7.16398,119199
7.17210,129276
7.18023,129074
7.18835,167849
7.19647,324442
7.20460,649364
7.21272,1019437
7.22083,1181867
7.22897,1004849
7.23708,660879
7.24522,389055
7.25333,235894
7.26145,173728
7.26958,138122
7.27770,130100
7.28583,126810
7.29395,120206
7.30207,108277
7.31020,104803
7.31832,107602
7.32645,135123
7.33457,158868
7.34268,207069
7.35082,242302
7.35893,241217
7.36705,223934
7.37518,185743
7.38330,144134
7.39143,117308
7.39955,105046
7.40767,97955
7.41580,96877
7.42392,99764
7.43205,102484
7.44017,118574
7.44828,144195
7.45642,160002
7.46453,172151
7.47265,161784
7.48078,135771
7.48890,118021
7.49703,96131
7.50515,86454
7.51327,76652
7.52140,78124
7.52952,78710
7.53765,87118
7.54577,103682
7.55388,114873
7.56202,126415
7.57013,137933
7.57827,138673
7.58638,128277
7.59450,108589
7.60263,91115
7.61075,78380
7.61887,77508
7.62700,73802
7.63512,69363
7.64325,68560
7.65137,65195
7.65948,62862
7.66762,62413
7.67573,69218
7.68387,62702
7.69198,66587
7.70010,63682
7.70823,65033
7.71635,65161
7.72448,62114
7.73260,63847
7.74072,62366
7.74885,58193
7.75697,61826
7.76508,58518
7.77322,64904
7.78133,62619
7.78947,63155
7.79758,62347
7.80570,61158
7.81383,64853
7.82195,64690
7.83008,61272
7.83820,61713
7.84632,54984
7.85445,58876
7.86257,61450
7.87068,55812
7.87882,55538
7.88693,60408
7.89507,66076
7.90318,64273
7.91130,57788
7.91943,65734
7.92755,69377
7.93568,75588
7.94380,84552
7.95192,88492
7.96005,83443
7.96817,79820
7.97630,74420
7.98442,66708
7.99253,62551
8.00067,59609
8.00878,53057
8.01690,61276
8.02503,61168
8.03315,54525
8.04128,64265
8.04940,59879
8.05752,57185
8.06565,54665
8.07377,56700
8.08190,57750
8.09002,52092
8.09813,53919
8.10627,54641
8.11438,52575
8.12250,56305
8.13063,57078
8.13875,65664
8.14688,71078
8.15500,76763
8.16312,78248
8.17125,70534
8.17937,60028
8.18750,61642
8.19562,58630
8.20373,52615
8.21187,55142
8.21998,54580
8.22812,55943
8.23623,54151
8.24435,53026
8.25248,53194
8.26060,51420
8.26872,55838
8.27685,52665
8.28497,50728
8.29310,53820
8.30122,56825
8.30933,58670
8.31747,68354
8.32558,72407
8.33372,71705
8.34183,71993
8.34995,67575
8.35808,60520
8.36620,55695
8.37433,52411
8.38245,52597
8.39057,49415
8.39870,50709
8.40682,49373
8.41493,48606
8.42307,52265
8.43118,53059
8.43932,53045
8.44743,48203
8.45555,48227
8.46368,47885
8.47180,48032
8.47993,53082
8.48805,49862
8.49617,51575
8.50430,58672
8.51242,61927
8.52053,82083
8.52867,114591
8.53678,146991
8.54492,151124
8.55303,137228
8.56115,104774
8.56928,82122
8.57740,70698
8.58553,61384
8.59365,60410
8.60177,59020
8.60990,58078
8.61802,56749
8.62615,53865
8.63427,54812
8.64238,54493
8.65052,53866
8.65863,53787
8.66675,51789
8.67488,50793
8.68300,54021
8.69113,57965
8.69925,60543
8.70737,59744
8.71550,65313
8.72362,88884
8.73175,159139
8.73987,275140
8.74798,405058
8.75612,504815
8.76423,471139
8.77237,381398
8.78048,265765
8.78860,186713
8.79673,134302
8.80485,117615
8.81297,111077
8.82110,106715
8.82922,106970
8.83735,103233
8.84547,94670
8.85358,92921
8.86172,82775
8.86983,78825
8.87797,78842
8.88608,77087
8.89420,71255
8.90233,71908
8.91045,70926
8.91857,72797
8.92670,80325
8.93482,76323
8.94295,87591
8.95107,85178
8.95918,79970
8.96732,76960
8.97543,72890
8.98357,73071
8.99168,67855
8.99980,69098
9.00793,71009
9.01605,62833
9.02418,65779
9.03230,67143
9.04042,60315
9.04855,64029
9.05667,64194
9.06478,62954
9.07292,59027
9.08103,62439
9.08917,61051
9.09728,61272
9.10540,67060
9.11353,73720
9.12165,70244
9.12978,69712
9.13790,68968
9.14602,60265
9.15415,66824
9.16227,61749
9.17040,61419
9.17852,64339
9.18663,53016
9.19477,58321
9.20288,57850
9.21100,54470
9.21913,55990
9.22725,57170
9.23538,57319
9.24350,55179
9.25162,60908
9.25975,57787
9.26787,62299
9.27600,66432
9.28412,66429
9.29223,65150
9.30037,63020
9.30848,63131
9.31660,59968
9.32473,60777
9.33285,66241
9.34098,63167
9.34910,62992
9.35722,63056
9.36535,60035
9.37347,56298
9.38160,53629
9.38972,54264
9.39783,51542
9.40597,54535
9.41408,56408
9.42222,57961
9.43033,59000
9.43845,66484
9.44658,65521
9.45470,61827
9.46282,60986
9.47095,55218
9.47907,53800
9.48720,50208
9.49532,52187
9.50343,57191
9.51157,54917
9.51968,56804
9.52782,61232
9.53593,56070
9.54405,56691
9.55218,59353
9.56030,48332
9.56842,46661
9.57655,46986
9.58467,51446
9.59280,53134
9.60092,52680
9.60903,52300
9.61717,48816
9.62528,48134
9.63342,44428
9.64153,50936
9.64965,52205
9.65778,51044
9.66590,50001
9.67403,44011
9.68215,38917
9.69027,38313
9.69840,40958
9.70652,39669
9.71463,38826
9.72277,38364
9.73088,35647
9.73902,35319
9.74713,35167
9.75525,39076
9.76338,36059
9.77150,38384
9.77963,36517
9.78775,34333
9.79587,38988
9.80400,42099
9.81212,33847
9.82025,34640
9.82837,36932
9.83648,37584
9.84462,36988
9.85273,35977
9.86085,34404
9.86898,37432
9.87710,35730
9.88523,35932
9.89335,36647
9.90147,37035
9.90960,36600
9.91772,38331
9.92585,45499
9.93397,57516
9.94208,83600
9.95022,114589
9.95833,134099
9.96645,130478
9.97458,117711
9.98270,98223
9.99083,81678
9.99895,63350
10.00707,56669
10.01520,48605
10.02332,45498
10.03145,47879
10.03957,39160
10.04768,46371
10.05582,44882
10.06393,45945
10.07207,42200
10.08018,42472
10.08830,41854
10.09643,42431
10.10455,45631
10.11267,41032
10.12080,37727
10.12892,42749
10.13705,39024
10.14517,37258
10.15328,41622
10.16142,41569
10.16953,36391
10.17767,37443
10.18578,40793
10.19390,36535
10.20203,38858
10.21015,35321
10.21828,39915
10.22640,38865
10.23452,40870
10.24265,51195
10.25077,54446
10.25888,92501
10.26702,183054
10.27513,363477
10.28327,679739
10.29138,1050395
10.29950,1487083
10.30763,2181817
10.31575,3241925
10.32388,4318608
10.33200,4633048
10.34012,3876906
10.34825,2590810
10.35637,1440009
10.36448,826039
10.37262,511263
10.38073,379775
10.38887,282265
10.39698,229365
10.40510,187288
10.41323,154675
10.42135,132063
10.42948,125887
10.43760,107568
10.44572,98742
10.45385,91266
10.46197,89875
10.47010,84917
10.47822,79034
10.48633,74512
10.49447,73461
10.50258,73372
10.51070,72244
10.51883,69939
10.52695,69349
10.53508,70165
10.54320,67975
10.55132,66442
10.55945,65431
10.56757,64043
10.57570,63275
10.58382,66570
10.59193,59796
10.60007,60767
10.60818,61454
10.61630,57669
10.62443,54325
10.63255,50161
10.64068,52917
10.64880,52376
10.65692,51073
10.66505,50291
10.67317,49912
10.68130,50166
10.68942,54337
10.69753,54010
10.70567,55827
10.71378,52083
10.72192,53125
10.73003,49368
10.73815,53386
10.74628,55183
10.75440,54216
10.76252,50345
10.77065,51767
10.77877,51664
10.78690,45659
10.79502,44919
10.80313,48118
10.81127,45454
10.81938,46496
10.82752,44642
10.83563,44325
10.84375,42988
10.85188,41076
10.86000,40852
10.86813,40225
10.87625,37012
10.88437,41677
10.89250,40879
10.90062,40024
10.90873,36942
10.91687,41983
10.92498,38853
10.93312,41319
10.94123,40288
10.94935,40642
10.95748,37814
10.96560,39416
10.97373,44323
10.98185,40031
10.98997,39397
10.99810,39607
11.00622,39198
11.01435,40565
11.02247,45152
11.03058,37790
11.03872,38933
11.04683,36460
11.05495,36335
11.06308,36995
11.07120,43313
11.07933,40514
11.08745,40300
11.09557,38128
11.10370,37398
11.11182,39651
11.11995,40543
11.12807,41388
11.13618,39016
11.14432,39126
11.15243,40540
11.16055,34296
11.16868,42192
11.17680,41512
11.18493,38576
11.19305,41335
11.20117,37687
11.20930,38357
11.21742,39254
11.22555,35068
11.23367,37785
11.24178,36238
11.24992,32827
11.25803,36950
11.26617,46408
11.27428,58488
11.28240,67232
11.29053,78621
11.29865,88903
11.30677,100340
11.31490,102823
11.32302,109427
11.33115,131852
11.33927,148846
11.34738,157206
11.35552,152884
11.36363,130132
11.37177,113188
11.37988,89568
11.38800,80755
11.39613,70313
11.40425,64585
11.41237,55792
11.42050,51749
11.42862,48484
11.43675,44743
11.44487,41653
11.45298,44723
11.46112,42528
11.46923,45592
11.47737,49875
11.48548,58205
11.49360,69051
11.50173,72237
11.50985,75771
11.51798,66305
11.52610,61138
11.53422,61219
11.54235,63809
11.55047,58653
11.55858,53768
11.56672,52144
11.57483,50092
11.58297,50778
11.59108,53919
11.59920,66020
11.60733,70838
11.61545,78444
11.62358,76311
11.63170,71010
11.63982,59645
11.64795,53792
11.65607,45095
11.66420,41963
11.67232,48351
11.68043,47424
11.68857,50557
11.69668,54623
11.70480,61833
11.71293,62821
11.72105,62837
11.72918,60907
11.73730,58747
11.74542,52033
11.75355,49189
11.76167,47165
11.76980,48882
11.77792,44124
11.78603,43305
11.79417,49468
11.80228,43165
11.81040,45220
11.81853,43258
11.82665,40932
11.83478,40567
11.84290,40406
11.85102,40035
11.85915,38464
11.86727,36560
11.87540,34242
11.88352,38956
11.89163,34289
11.89977,36627
11.90788,38158
11.91602,41302
11.92413,52079
11.93225,48451
11.94038,56285
11.94850,51867
11.95662,51080
11.96475,42536
11.97287,43765
11.98100,42890
11.98912,43689
11.99723,45443
12.00537,51493
12.01348,57839
12.02162,49540
12.02973,47142
12.03785,42784
12.04598,36379
12.05410,37901
12.06223,37636
12.07035,38491
12.07847,38609
12.08660,36406
12.09472,37530
12.10283,35421
12.11097,34861
12.11908,36664
12.12722,36611
12.13533,35824
12.14345,40316
12.15158,33619
12.15970,33176
12.16783,32710
12.17595,31874
12.18407,33811
12.19220,33614
12.20032,34625
12.20843,31443
12.21657,30240
12.22468,33802
12.23282,32356
12.24093,35892
12.24905,35610
12.25718,37523
12.26530,32743
12.27343,29201
12.28155,32302
12.28967,31277
12.29780,30971
12.30592,35686
12.31405,32264
12.32217,32086
12.33028,31164
12.33842,29612
12.34653,33048
12.35465,27384
12.36278,30824
12.37090,31846
12.37903,32570
12.38715,35169
12.39527,40164
12.40340,48227
12.41152,60445
12.41965,67199
12.42777,70988
12.43588,63959
12.44402,57012
12.45213,48249
12.46025,47204
12.46838,40433
12.47650,40506
12.48463,33819
12.49275,33196
12.50087,32273
12.50900,35179
12.51712,39552
12.52525,38683
12.53337,40215
12.54148,48184
12.54962,61796
12.55773,72291
12.56587,86449
12.57398,75676
12.58210,65441
12.59023,54645
12.59835,44075
12.60647,41314
12.61460,39174
12.62272,39344
12.63085,33887
12.63897,35077
12.64708,33143
12.65522,35933
12.66333,34035
12.67147,28923
12.67958,32553
12.68770,30873
12.69583,34515
12.70395,35432
12.71208,35059
12.72020,34090
12.72832,40163
12.73645,44589
12.74457,43726
12.75268,42688
12.76082,37899
12.76893,38268
12.77707,39478
12.78518,35008
12.79330,35991
12.80143,37971
12.80955,35805
12.81768,33767
12.82580,34815
12.83392,30649
12.84205,32357
12.85017,34794
12.85828,34422
12.86642,33586
12.87453,31656
12.88267,31627
12.89078,28287
12.89890,31428
12.90703,33752
12.91515,29407
12.92328,31483
12.93140,33663
12.93952,43309
12.94765,51562
12.95577,63254
12.96390,75212
12.97202,87919
12.98013,91397
12.98827,89770
12.99638,79597
13.00450,70054
13.01263,64849
13.02075,56758
13.02888,58117
13.03700,52494
13.04512,49469
13.05325,45523
13.06137,46760
13.06950,43702
13.07762,40383
13.08573,36234
13.09387,35633
13.10198,38355
13.11012,31823
13.11823,33612
13.12635,34425
13.13448,36030
13.14260,38927
13.15072,32290
13.15885,32154
13.16697,33821
13.17510,35069
13.18322,32900
13.19133,33085
13.19947,31729
13.20758,34199
13.21572,32770
13.22383,33928
13.23195,35237
13.24008,34636
13.24820,39670
13.25632,42366
13.26445,42221
13.27257,41213
13.28070,40198
13.28882,40395
13.29693,40864
13.30507,39491
13.31318,39186
13.32132,41209
13.32943,42394
13.33755,45609
13.34568,38777
13.35380,42839
13.36193,43245
13.37005,37253
13.37817,38052
13.38630,36944
13.39442,34123
13.40253,33027
13.41067,32699
13.41878,28360
13.42692,31913
13.43503,33491
13.44315,29820
13.45128,31197
13.45940,30117
13.46753,31074
13.47565,29851
13.48377,30777
13.49190,32257
13.50002,29703
13.50815,28928
13.51627,33870
13.52438,36948
13.53252,32456
13.54063,35373
13.54875,38038
13.55688,37563
13.56500,37810
13.57313,36409
13.58125,40976
13.58937,46656
13.59750,57832
13.60562,72582
13.61375,91534
13.62187,105417
13.62998,105181
13.63812,89334
13.64623,78921
13.65435,64348
13.66248,55094
13.67060,50686
13.67873,46241
13.68685,42454
13.69497,42680
13.70310,41732
13.71122,39784
13.71935,40113
13.72747,35226
13.73558,41294
13.74372,45678
13.75183,47662
13.75997,57448
13.76808,70494
13.77620,84968
13.78433,91095
13.79245,89747
13.80057,88566
13.80870,92477
13.81682,98268
13.82495,96998
13.83307,101880
13.84118,99772
13.84932,93131
13.85743,80373
13.86557,64355
13.87368,57981
13.88180,52322
13.88993,50039
13.89805,48453
13.90617,51902
13.91430,48311
13.92242,46130
13.93055,47909
13.93867,43993
13.94678,43490
13.95492,43382
13.96303,41837
13.97117,45105
13.97928,44355
13.98740,42203
13.99553,40634
14.00365,38321
14.01178,41455
14.01990,42389
14.02802,45296
14.03615,38277
14.04427,40277
14.05238,43311
14.06052,41915
14.06863,37332
14.07677,38640
14.08488,39819
14.09300,36458
14.10113,40120
14.10925,39389
14.11738,38534
14.12550,47302
14.13362,69225
14.14175,94130
14.14987,137171
14.15800,173849
14.16612,175873
14.17423,161975
14.18237,132442
14.19048,101616
14.19860,84912
14.20673,74781
14.21485,68041
14.22298,65542
14.23110,64800
14.23922,62028
14.24735,57413
14.25547,56762
14.26360,54595
14.27172,51017
14.27983,48104
14.28797,49623
14.29608,45560
14.30420,46114
14.31233,39346
14.32045,38880
14.32858,33563
14.33670,34142
14.34482,32316
14.35295,34789
14.36107,33282
14.36920,35576
14.37732,33747
14.38543,41610
14.39357,54830
14.40168,80963
14.40982,113365
14.41793,144392
14.42605,150761
14.43418,145028
14.44230,116266
14.45042,89368
14.45855,68690
14.46667,57367
14.47480,50169
14.48292,42560
14.49103,45088
14.49917,43406
14.50728,42284
14.51542,39442
14.52353,40476
14.53165,38682
14.53978,36281
14.54790,35656
14.55603,33698
14.56415,35603
14.57227,36589
14.58040,33590
14.58852,37274
14.59663,30972
14.60477,32171
14.61288,33240
14.62102,34139
14.62913,31604
14.63725,30010
14.64538,31915
14.65350,28497
14.66163,29224
14.66975,31981
14.67787,31262
14.68600,32184
14.69412,31503
14.70223,33413
14.71037,32944
14.71848,32259
14.72662,32820
14.73473,33392
14.74285,31915
14.75098,29456
14.75910,35136
14.76723,28449
14.77535,34462
14.78347,45427
14.79160,72879
14.79972,149005
14.80785,303121
14.81597,567168
14.82408,853011
14.83222,992301
14.84033,890766
14.84845,661014
14.85658,449534
14.86470,285830
14.87283,186735
14.88095,138934
14.88907,110116
14.89720,94895
14.90532,84389
14.91345,78993
14.92157,72441
14.92968,71329
14.93782,66459
14.94593,57843
14.95405,56198
14.96218,54633
14.97030,56477
14.97843,50904
14.98655,49956
14.99467,51494
15.00280,46310
15.01092,46028
15.01905,45393
15.02717,44363
15.03528,45076
15.04342,42174
15.05153,40798
15.05967,44980
15.06778,41243
15.07590,37782
15.08403,37909
15.09215,40771
15.10027,38049
15.10840,37138
15.11652,39826
15.12465,40454
15.13277,41732
15.14088,45309
15.14902,45230
15.15713,45870
15.16527,41544
15.17338,40920
15.18150,40028
15.18963,38830
15.19775,35610
15.20588,34084
15.21400,34948
15.22212,34919
15.23025,34350
15.23837,34161
15.24648,30319
15.25462,29495
15.26273,31876
15.27087,32110
15.27898,28742
15.28710,31349
15.29523,30037
15.30335,29172
15.31148,30345
15.31960,28737
15.32772,28051
15.33585,29603
15.34397,28593
15.35208,28289
15.36022,30610
15.36833,28231
15.37647,31887
15.38458,27189
15.39270,31236
15.40083,30552
15.40895,30155
15.41708,30114
15.42520,28269
15.43332,34358
15.44145,31054
15.44957,31604
15.45770,30382
15.46582,31726
15.47393,38760
15.48207,40177
15.49018,45157
15.49830,51067
15.50643,52240
15.51455,48742
15.52268,47725
15.53080,43561
15.53892,41384
15.54705,37085
15.55517,37774
15.56330,37728
15.57142,31001
15.57953,30611
15.58767,30476
15.59578,31262
15.60392,27210
15.61203,32328
15.62015,28420
15.62828,28412
15.63640,31269
15.64452,28864
15.65265,27484
15.66077,29133
15.66890,32407
15.67702,29703
15.68513,29504
15.69327,28729
15.70138,27497
15.70952,27482
15.71763,26590
15.72575,29380
15.73388,33708
15.74200,32627
15.75012,39734
15.75825,48399
15.76637,61650
15.77450,81101
15.78262,101264
15.79073,104297
15.79887,95454
15.80698,75721
15.81512,65514
15.82323,51455
15.83135,45478
15.83948,38739
15.84760,39771
15.85573,39789
15.86385,39034
15.87197,38707
15.88010,34509
15.88822,33333
15.89633,34489
15.90447,32919
15.91258,32395
15.92072,32062
15.92883,33847
15.93695,30956
15.94508,33341
15.95320,32201
15.96133,31708
15.96945,31293
15.97757,34790
15.98570,35135
15.99382,44071
16.00193,40034
16.01007,46322
16.01818,46200
16.02632,48578
16.03443,51869
16.04255,45609
16.05068,42590
16.05880,37966
16.06693,33975
16.07505,36968
16.08317,32965
16.09130,34905
16.09942,29904
16.10755,34410
16.11567,30941
16.12378,31856
16.13192,30900
16.14003,32326
16.14815,33841
16.15628,35027
16.16440,32651
16.17253,32099
16.18065,29819
16.18877,29317
16.19690,31511
16.20502,30448
16.21315,31678
16.22127,34069
16.22938,32097
16.23752,32074
16.24563,29839
16.25377,27852
16.26188,28514
16.27000,31865
16.27813,30297
16.28625,34931
16.29437,33125
16.30250,32633
16.31062,32474
16.31875,33873
16.32687,32658
16.33498,27780
16.34312,32932
16.35123,32435
16.35937,34301
16.36748,31641
16.37560,34520
16.38373,32837
16.39185,31026
16.39998,33428
16.40810,31879
16.41622,30430
16.42435,30827
16.43247,35333
16.44058,35031
16.44872,46739
16.45683,64719
16.46497,92896
16.47308,119284
16.48120,131790
16.48933,125702
16.49745,114360
16.50558,82809
16.51370,65704
16.52182,55052
16.52995,48748
16.53807,41500
16.54618,41572
16.55432,37331
16.56243,41278
16.57057,34981
16.57868,37661
16.58680,37853
16.59493,40617
16.60305,37274
16.61118,38919
16.61930,36820
16.62742,33286
16.63555,32988
16.64367,36929
16.65180,33570
16.65992,34027
16.66803,34950
16.67617,30072
16.68428,33560
16.69240,37530
16.70053,29427
16.70865,30039
16.71678,30532
16.72490,33769
16.73302,29568
16.74115,30489
16.74927,31993
16.75740,33493
16.76552,33891
16.77363,33328
16.78177,35116
16.78988,31048
16.79800,28178
16.80613,30058
16.81425,28536
16.82238,26791
16.83050,29397
16.83862,32343
16.84675,31596
16.85487,35075
16.86300,31382
16.87112,31459
16.87923,29578
16.88737,29407
16.89548,32764
16.90362,30310
16.91173,28099
16.91985,24003
16.92798,31797
16.93610,30007
16.94422,30518
16.95235,26176
16.96047,30943
16.96860,30499
16.97672,34958
16.98483,31392
16.99297,31982
17.00108,27388
17.00922,29442
17.01733,30945
17.02545,32433
17.03358,33601
17.04170,31670
17.04983,32473
17.05795,36621
17.06607,32799
17.07420,30806
17.08232,32371
17.09043,31640
17.09857,31696
17.10668,30333
17.11482,31314
17.12293,30571
17.13105,29443
17.13918,33576
17.14730,31354
17.15543,32921
17.16355,31251
17.17167,31046
17.17980,30369
17.18792,28963
17.19603,29695
17.20417,28423
17.21228,27738
17.22042,27231
17.22853,30145
17.23665,31745
17.24478,30932
17.25290,31763
17.26103,31168
17.26915,30905
17.27727,32306
17.28540,27224
17.29352,27718
17.30165,28777
17.30977,26439
17.31788,34829
17.32602,32177
17.33413,31713
17.34225,33371
17.35038,36957
17.35850,37775
17.36663,35215
17.37475,33226
17.38287,35861
17.39100,33565
17.39912,36481
17.40725,37143
17.41537,34299
17.42348,34229
17.43162,36012
17.43973,36864
17.44787,34931
17.45598,32282
17.46410,30797
17.47223,36873
17.48035,30882
17.48847,31278
17.49660,29389
17.50472,34939
17.51285,35700
17.52097,39524
17.52908,39559
17.53722,44221
17.54533,46646
17.55347,49206
17.56158,60503
17.56970,72623
17.57783,93708
17.58595,121285
17.59407,149147
17.60220,165070
17.61032,153677
17.61845,140189
17.62657,111218
17.63468,86998
17.64282,70507
17.65093,63567
17.65907,57303
17.66718,57422
17.67530,50585
17.68343,50343
17.69155,46428
17.69968,48928
17.70780,47463
17.71592,43278
17.72405,41826
17.73217,39985
17.74028,38568
17.74842,41086
17.75653,39988
17.76467,38981
17.77278,39264
17.78090,39673
17.78903,42920
17.79715,47672
17.80528,62067
17.81340,84344
17.82152,105392
17.82965,105413
17.83777,109165
17.84588,96724
17.85402,82764
17.86213,72883
17.87027,64175
17.87838,56085
17.88650,53200
17.89463,47025
17.90275,43453
17.91088,44225
17.91900,39831
17.92712,42082
17.93525,39235
17.94337,37981
17.95150,42366
17.95962,35418
17.96773,38861
17.97587,36839
17.98398,35139
17.99210,36261
18.00023,35590
18.00835,39922
18.01648,46268
18.02460,49162
18.03272,52092
18.04085,55747
18.04897,66168
18.05710,89427
18.06522,166437
18.07333,318396
18.08147,560811
18.08958,785376
18.09772,934727
18.10583,817436
18.11395,626969
18.12208,448393
18.13020,323500
18.13832,271222
18.14645,272660
18.15457,278695
18.16270,285822
18.17082,292062
18.17893,277155
18.18707,286446
18.19518,282207
18.20332,269841
18.21143,284453
18.21955,272077
18.22768,270922
18.23580,263166
18.24392,252929
18.25205,249454
18.26017,244241
18.26830,230862
18.27642,230911
18.28453,221506
18.29267,213408
18.30078,206573
18.30892,194315
18.31703,199015
18.32515,192893
18.33328,188394
18.34140,195200
18.34953,183263
18.35765,182106
18.36577,183780
18.37390,171848
18.38202,177970
18.39013,167908
18.39827,168439
18.40638,164070
18.41452,162727
18.42263,156363
18.43075,161699
18.43888,157304
18.44700,164165
18.45513,161905
18.46325,181108
18.47137,194600
18.47950,195722
18.48762,190446
18.49575,175395
18.50387,153232
18.51198,151543
18.52012,135912
18.52823,140576
18.53635,130647
18.54448,126824
18.55260,122614
18.56073,119031
18.56885,118751
18.57697,116443
18.58510,112915
18.59322,108809
18.60135,117626
18.60947,115922
18.61758,119395
18.62572,113514
18.63383,105898
18.64195,104038
18.65008,102322
18.65820,108433
18.66633,98624
18.67445,102874
18.68257,92703
18.69070,95158
18.69882,91680
18.70695,88480
18.71507,92444
18.72318,84596
18.73132,84405
18.73943,81671
18.74757,77410
18.75568,79473
18.76380,80114
18.77193,83789
18.78005,79225
18.78817,79052
18.79630,74185
18.80442,75510
18.81255,73007
18.82067,75458
18.82878,76549
18.83692,73399
18.84503,73651
18.85317,70106
18.86128,70552
18.86940,68717
18.87753,69561
18.88565,67792
18.89378,68026
18.90190,67202
18.91002,67377
18.91815,66376
18.92627,70707
18.93438,65829
18.94252,67046
18.95063,66585
18.95877,63277
18.96688,60682
18.97500,60035
18.98313,58650
18.99125,65407
18.99938,61769
19.00750,61066
19.01562,60160
19.02375,55972
19.03187,58631
19.03998,58877
19.04812,58315
19.05623,52692
19.06437,52403
19.07248,62851
19.08060,64282
19.08873,75540
19.09685,77294
19.10498,83604
19.11310,78661
19.12122,72608
19.12935,70387
19.13747,71969
19.14560,65304
19.15372,71590
19.16183,68478
19.16997,61811
19.17808,62496
19.18620,59406
19.19433,54291
19.20245,57322
19.21058,55860
19.21870,50948
19.22682,52792
19.23495,50147
19.24307,46973
19.25120,48677
19.25932,49767
19.26743,51770
19.27557,50933
19.28368,53935
19.29180,53099
19.29993,50821
19.30805,56224
19.31618,50377
19.32430,51119
19.33242,46771
19.34055,47414
19.34867,50752
19.35680,59007
19.36492,62447
19.37303,67022
19.38117,66555
19.38928,62261
19.39742,56303
19.40553,52173
19.41365,52272
19.42178,58529
19.42990,71474
19.43802,85455
19.44615,98963
19.45427,117795
19.46240,123223
19.47052,115832
19.47863,96316
19.48677,75278
19.49488,65526
19.50302,53890
19.51113,51314
19.51925,51579
19.52738,51667
19.53550,48290
19.54363,47068
19.55175,49271
19.55987,44690
19.56800,45221
19.57612,45715
19.58423,41547
19.59237,43409
19.60048,37865
19.60862,38322
19.61673,41755
19.62485,50112
19.63298,54681
19.64110,67057
19.64923,80873
19.65735,89512
19.66547,96374
19.67360,93146
19.68172,86785
19.68983,81020
19.69797,66966
19.70608,67619
19.71422,60723
19.72233,57047
19.73045,55597
19.73858,54239
19.74670,46548
19.75483,45421
19.76295,43285
19.77107,45505
19.77920,46908
19.78732,52238
19.79545,54041
19.80357,49680
19.81168,51461
19.81982,46054
19.82793,44655
19.83605,47448
19.84418,57422
19.85230,71573
19.86043,128116
19.86855,246446
19.87667,476415
19.88480,809228
19.89292,1158379
19.90105,1332420
19.90917,1303178
19.91728,1062187
19.92542,776110
19.93353,510048
19.94167,334189
19.94978,248047
19.95790,204425
19.96603,184658
19.97415,164117
19.98227,152048
19.99040,139682
19.99852,137141
20.00665,129231
20.01477,118729
20.02288,111802
20.03102,103915
20.03913,93856
20.04727,87278
20.05538,80529
20.06350,76414
20.07163,69737
20.07975,65864
20.08787,62866
20.09600,63461
20.10412,61514
20.11225,60302
20.12037,55835
20.12848,50072
20.13662,49771
20.14473,50590
20.15287,53483
20.16098,58833
20.16910,58686
20.17723,63355
20.18535,64241
20.19348,64785
20.20160,64443
20.20972,59669
20.21785,61780
20.22597,63083
20.23408,65883
20.24222,70980
20.25033,81202
20.25847,90531
20.26658,85256
20.27470,88823
20.28283,76930
20.29095,70855
20.29908,62775
20.30720,59614
20.31532,51579
20.32345,51861
20.33157,47233
20.33968,42394
20.34782,40244
20.35593,41946
20.36407,41772
20.37218,39972
20.38030,44478
20.38843,44374
20.39655,50743
20.40468,41276
20.41280,45572
20.42092,47410
20.42905,45485
20.43717,46992
20.44530,44108
20.45342,41938
20.46153,45612
20.46967,45775
20.47778,41853
20.48590,41877
20.49403,40157
20.50215,40084
20.51028,37902
20.51840,42671
20.52652,41354
20.53465,39806
20.54277,41473
20.55090,35354
20.55902,35589
20.56713,35208
20.57527,35577
20.58338,37856
20.59152,39336
20.59963,35039
20.60775,36838
20.61588,38139
20.62400,37978
20.63212,38811
20.64025,40588
20.64837,39098
20.65650,35402
20.66462,37449
20.67273,40724
20.68087,35625
20.68898,33437
20.69712,33825
20.70523,35761
20.71335,35731
20.72148,36257
20.72960,40716
20.73773,36575
20.74585,36332
20.75397,37891
20.76210,41269
20.77022,42062
20.77833,44137
20.78647,54363
20.79458,69880
20.80272,80664
20.81083,95809
20.81895,90695
20.82708,85462
20.83520,77496
20.84333,59629
20.85145,51957
20.85957,45372
20.86770,43347
20.87582,41698
20.88393,41985
20.89207,40254
20.90018,37907
20.90832,40535
20.91643,41145
20.92455,39110
20.93268,38503
20.94080,40525
20.94893,36904
20.95705,38427
20.96517,37407
20.97330,38335
20.98142,38544
20.98955,38133
20.99767,37567
21.00578,35738
21.01392,35825
21.02203,36374
21.03015,34581
21.03828,33972
21.04640,37393
21.05453,39745
21.06265,37210
21.07077,38286
21.07890,36881
21.08702,34289
21.09515,35715
21.10327,37043
21.11138,37134
21.11952,34847
21.12763,39866
21.13575,38609
21.14388,44342
21.15200,45563
21.16013,47255
21.16825,48448
21.17637,44083
21.18450,42446
21.19262,45656
21.20075,44927
21.20887,49241
21.21698,44910
21.22512,45812
21.23323,49276
21.24137,45573
21.24948,49270
21.25760,45445
21.26573,47355
21.27385,49007
21.28197,51404
21.29010,53429
21.29822,49017
21.30635,50557
21.31447,48807
21.32258,43217
21.33072,45079
21.33883,47583
21.34697,48986
21.35508,44451
21.36320,45172
21.37133,46889
21.37945,42934
21.38758,48474
21.39570,51054
21.40382,54288
21.41195,54435
21.42007,54209
21.42818,54887
21.43632,48859
21.44443,47808
21.45257,45492
21.46068,48400
21.46880,49498
21.47693,48606
21.48505,47449
21.49318,46512
21.50130,51134
21.50942,46980
21.51755,48702
21.52567,44864
21.53378,45830
21.54192,43653
21.55003,42923
21.55817,45036
21.56628,44459
21.57440,45382
21.58253,51963
21.59065,55826
21.59878,60775
21.60690,54808
21.61502,56450
21.62315,55288
21.63127,49910
21.63940,46393
21.64752,47639
21.65563,49055
21.66377,50383
21.67188,48098
21.68000,48305
21.68813,43457
21.69625,45526
21.70438,44734
21.71250,43610
21.72062,41292
21.72875,41254
21.73687,40063
21.74500,38985
21.75312,38154
21.76123,38662
21.76937,38898
21.77748,43281
21.78562,49885
21.79373,46240
21.80185,48610
21.80998,43876
21.81810,46884
21.82622,44002
21.83435,41372
21.84247,42345
21.85060,36776
21.85872,35599
21.86683,37628
21.87497,34731
21.88308,36195
21.89122,41174
21.89933,55420
21.90745,69570
21.91558,85287
21.92370,90910
21.93182,104270
21.93995,106717
21.94807,107373
21.95620,109394
21.96432,112475
21.97243,121266
21.98057,112635
21.98868,115396
21.99682,115803
22.00493,114936
22.01305,115721
22.02118,115226
22.02930,112611
22.03743,112487
22.04555,108790
22.05367,105440
22.06180,106059
22.06992,102709
22.07803,107394
22.08617,103226
22.09428,105154
22.10242,95326
22.11053,103138
22.11865,94897
22.12678,90549
22.13490,90161
22.14303,85167
22.15115,81273
22.15927,79914
22.16740,80864
22.17552,85688
22.18363,82727
22.19177,78607
22.19988,77444
22.20802,73565
22.21613,73846
22.22425,75044
22.23238,73164
22.24050,70794
22.24863,68922
22.25675,64137
22.26487,65066
22.27300,65069
22.28112,66948
22.28925,63302
22.29737,63203
22.30548,61501
22.31362,64794
22.32173,62474
22.32985,58316
22.33798,55249
22.34610,55620
22.35423,53693
22.36235,56141
22.37047,57457
22.37860,57000
22.38672,56199
22.39485,60684
22.40297,66498
22.41108,72897
22.41922,77072
22.42733,70549
22.43547,68348
22.44358,60926
22.45170,59528
22.45983,55155
22.46795,59828
22.47607,55234
22.48420,56297
22.49232,61785
22.50045,58902
22.50857,60723
22.51668,60135
22.52482,55870
22.53293,50928
22.54107,50712
22.54918,47480
22.55730,46644
22.56543,44284
22.57355,46034
22.58167,43640
22.58980,42839
22.59792,41333
22.60605,39238
22.61417,36070
22.62228,39581
22.63042,40921
22.63853,40505
22.64667,34546
22.65478,39781
22.66290,37072
22.67103,40822
22.67915,41929
22.68728,41805
22.69540,41378
22.70352,40013
22.71165,46076
22.71977,42910
22.72788,41693
22.73602,41717
22.74413,43821
22.75227,41751
22.76038,38517
22.76850,44812
22.77663,40746
22.78475,42843
22.79288,50495
22.80100,47796
22.80912,47862
22.81725,49861
22.82537,46381
22.83350,46078
22.84162,43025
22.84973,43024
22.85787,47258
22.86598,39092
22.87410,47023
22.88223,48201
22.89035,56841
22.89848,60869
22.90660,72055
22.91472,89464
22.92285,107045
22.93097,114139
22.93910,104840
22.94722,93563
22.95533,81040
22.96347,72516
22.97158,63194
22.97970,53602
22.98783,52945
22.99595,51803
23.00408,45675
23.01220,44572
23.02032,40436
23.02845,41621
23.03657,41328
23.04470,41396
23.05282,39532
23.06093,39106
23.06907,41550
23.07718,42204
23.08532,41999
23.09343,36963
23.10155,38540
23.10968,40783
23.11780,37664
23.12592,37903
23.13405,38695
23.14217,37713
23.15030,35165
23.15842,37124
23.16653,34052
23.17467,36807
23.18278,37397
23.19092,38533
23.19903,37473
23.20715,37498
23.21528,33537
23.22340,35234
23.23153,37629
23.23965,38547
23.24777,36837
23.25590,39000
23.26402,38366
23.27213,40391
23.28027,35277
23.28838,35613
23.29652,38641
23.30463,36609
23.31275,36215
23.32088,38104
23.32900,44395
23.33713,47660
23.34525,61627
23.35337,77064
23.36150,100416
23.36962,117349
23.37773,143783
23.38587,168104
23.39398,176602
23.40212,186181
23.41023,189591
23.41835,187417
23.42648,181932
23.43460,175453
23.44273,169726
23.45085,161033
23.45897,149491
23.46710,142665
23.47522,129711
23.48335,127755
23.49147,117965
23.49958,106333
23.50772,100768
23.51583,94753
23.52395,91302
23.53208,85911
23.54020,88924
23.54833,80359
23.55645,85605
23.56457,82835
23.57270,86984
23.58082,92115
23.58895,97800
23.59707,101944
23.60518,103027
23.61332,101084
23.62143,93731
23.62955,84568
23.63768,78614
23.64580,78183
23.65393,84371
23.66205,103930
23.67017,114338
23.67830,130948
23.68642,136778
23.69455,144536
23.70267,150191
23.71078,156990
23.71892,155026
23.72703,167080
23.73517,184937
23.74328,274646
23.75140,462974
23.75953,835625
23.76765,1415178
23.77577,2016787
23.78390,2510324
23.79202,2590420
23.80015,2350293
23.80827,1854693
23.81638,1442088
23.82452,1107012
23.83263,834736
23.84077,702578
23.84888,561277
23.85700,475317
23.86513,427369
23.87325,374299
23.88138,341767
23.88950,311443
23.89762,295848
23.90575,276987
23.91387,262906
23.92198,238262
23.93012,230074
23.93823,214933
23.94637,205580
23.95448,189708
23.96260,183307
23.97073,183062
23.97885,173592
23.98698,173314
23.99510,163711
24.00322,153739
24.01135,153468
24.01947,150278
24.02758,149342
24.03572,147952
24.04383,138446
24.05197,138344
24.06008,128300
24.06820,127150
24.07633,124207
24.08445,118728
24.09258,121094
24.10070,108634
24.10882,107520
24.11695,108885
24.12507,104672
24.13320,104547
24.14132,112848
24.14943,103825
24.15757,106779
24.16568,101278
24.17380,96957
24.18193,104595
24.19005,97217
24.19818,94977
24.20630,95571
24.21442,97036
24.22255,91994
24.23067,88114
24.23880,85380
24.24692,80623
24.25503,83131
24.26317,80360
24.27128,79205
24.27942,80959
24.28753,77260
24.29565,71212
24.30378,80656
24.31190,79471
24.32002,89215
24.32815,97621
24.33627,113699
24.34440,117844
24.35252,117512
24.36063,104490
24.36877,88014
24.37688,77679
24.38502,67770
24.39313,63652
24.40125,64924
24.40938,65889
24.41750,65746
24.42562,65499
24.43375,71367
24.44187,67582
24.45000,69953
24.45812,72290
24.46623,75928
24.47437,75163
24.48248,75930
24.49062,72879
24.49873,72091
24.50685,67387
24.51498,69697
24.52310,66776
24.53123,64139
24.53935,69528
24.54747,67181
24.55560,71571
24.56372,71642
24.57183,64262
24.57997,60902
24.58808,56227
24.59622,53863
24.60433,57260
24.61245,50999
24.62058,51521
24.62870,54054
24.63683,50709
24.64495,51346
24.65307,50615
24.66120,51969
24.66932,49966
24.67743,46092
24.68557,48760
24.69368,47530
24.70182,45729
24.70993,47862
24.71805,48207
24.72618,48193
24.73430,47506
24.74243,45963
24.75055,46152
24.75867,48937
24.76680,47129
24.77492,49527
24.78305,51323
24.79117,49374
24.79928,52326
24.80742,54730
24.81553,54059
24.82365,50232
24.83178,55712
24.83990,62456
24.84803,76628
24.85615,89410
24.86427,111967
24.87240,128341
24.88052,156557
24.88865,169134
24.89677,170437
24.90488,167272
24.91302,167552
24.92113,144308
24.92927,137898
24.93738,141531
24.94550,142092
24.95363,136154
24.96175,141958
24.96987,144176
24.97800,144032
24.98612,144644
24.99425,141296
25.00237,138102
25.01048,143126
25.01862,138668
25.02673,138122
25.03487,132495
25.04298,138268
25.05110,136892
25.05923,128832
25.06735,128420
25.07547,124004
25.08360,134583
25.09172,139251
25.09985,167936
25.10797,229274
25.11608,342200
25.12422,513449
25.13233,715381
25.14047,867365
25.14858,869107
25.15670,717007
25.16483,550957
25.17295,369190
25.18108,249836
25.18920,181034
25.19732,148937
25.20545,134862
25.21357,121038
25.22168,115607
25.22982,115814
25.23793,123353
25.24607,127051
25.25418,141635
25.26230,144608
25.27043,142864
25.27855,139405
25.28668,131985
25.29480,119911
25.30292,102613
25.31105,97410
25.31917,89758
25.32730,86803
25.33542,83092
25.34353,81398
25.35167,81785
25.35978,75274
25.36790,74933
25.37603,71327
25.38415,75542
25.39228,69527
25.40040,64621
25.40852,63647
25.41665,70943
25.42477,61621
25.43290,65206
25.44102,65173
25.44913,64477
25.45727,61779
25.46538,57797
25.47350,58493
25.48163,56816
25.48975,56789
25.49788,57402
25.50600,56984
25.51412,55593
25.52225,53886
25.53037,55529
25.53850,52739
25.54662,55518
25.55473,54293
25.56287,55580
25.57098,55113
25.57912,50276
25.58723,54147
25.59535,49399
25.60348,50829
25.61160,46497
25.61972,53429
25.62785,48763
25.63597,48646
25.64410,48844
25.65222,45507
25.66033,45054
25.66847,49893
25.67658,49871
25.68472,50282
25.69283,45395
25.70095,47727
25.70908,46798
25.71720,48306
25.72532,43067
25.73345,46082
25.74157,41348
25.74970,45881
25.75782,44140
25.76593,44676
25.77407,42514
25.78218,45359
25.79032,43369
25.79843,47003
25.80655,46544
25.81468,41719
25.82280,43607
25.83093,45924
25.83905,45785
25.84717,42788
25.85530,43160
25.86342,43487
25.87153,41860
25.87967,40047
25.88778,42928
25.89592,41684
25.90403,40227
25.91215,40315
25.92028,41230
25.92840,41010
25.93653,42660
25.94465,41406
25.95277,41700
25.96090,41253
25.96902,35344
25.97715,38563
25.98527,42653
25.99338,38127
26.00152,36339
26.00963,44425
26.01775,41659
26.02588,39786
26.03400,40169
26.04213,34724
26.05025,39320
26.05837,38789
26.06650,37447
26.07462,41729
26.08275,41787
26.09087,39414
26.09898,38756
26.10712,39074
26.11523,41250
26.12337,41755
26.13148,41465
26.13960,42395
26.14773,43702
26.15585,45638
26.16397,44651
26.17210,40239
26.18022,43082
26.18835,42975
26.19647,39110
26.20458,39947
26.21272,40400
26.22083,36165
26.22897,37667
26.23708,38977
26.24520,35912
26.25333,35740
26.26145,38500
26.26957,37138
26.27770,35454
26.28582,34026
26.29395,35671
26.30207,35054
26.31018,37609
26.31832,37167
26.32643,39593
26.33457,39246
26.34268,34900
26.35080,35264
26.35893,37284
26.36705,42046
26.37518,37263
26.38330,36677
26.39142,36198
26.39955,35786
26.40767,43015
26.41578,44104
26.42392,44472
26.43203,38025
26.44017,38411
26.44828,38596
26.45640,39012
26.46453,37172
26.47265,36983
26.48078,40171
26.48890,37199
26.49702,39331
26.50515,35320
26.51327,34823
26.52138,37738
26.52952,34703
26.53763,36325
26.54577,32155
26.55388,32128
26.56200,35045
26.57013,36436
26.57825,35267
26.58638,35549
26.59450,36642
26.60262,34431
26.61075,35495
26.61887,37142
26.62700,33134
26.63512,30867
26.64323,34382
26.65137,37386
26.65948,34716
26.66760,35998
26.67573,34561
26.68385,36201
26.69198,33243
26.70010,34284
26.70822,35334
26.71635,33321
26.72447,35180
26.73260,37701
26.74072,32910
26.74883,37972
26.75697,34809
26.76508,34713
26.77322,39392
26.78133,40953
26.78945,33922
26.79758,37505
26.80570,38348
26.81382,36952
26.82195,36665
26.83007,36836
26.83820,36236
26.84632,34790
26.85443,33731
26.86257,34629
26.87068,32723
26.87882,32413
26.88693,32473
26.89505,33776
26.90318,33811
26.91130,37371
26.91942,34358
26.92755,37022
26.93567,36049
26.94380,44341
26.95192,58004
26.96003,80188
26.96817,126659
26.97628,178306
26.98442,254804
26.99253,332913
27.00065,374805
27.00878,379045
27.01690,353389
27.02503,318148
27.03315,262448
27.04127,205925
27.04940,173176
27.05752,136485
27.06563,122929
27.07377,102554
27.08188,94758
27.09002,86479
27.09813,80483
27.10625,74360
27.11438,76524
27.12250,65147
27.13063,68357
27.13875,63497
27.14687,60360
27.15500,62887
27.16312,62224
27.17125,60269
27.17937,60000
27.18748,60758
27.19562,57121
27.20373,54087
27.21185,53889
27.21998,48145
27.22810,54470
27.23623,51923
27.24435,49503
27.25247,47740
27.26060,42297
27.26872,44076
27.27685,44310
27.28497,42283
27.29308,44176
27.30122,42700
27.30933,41326
27.31745,42777
27.32558,47449
27.33370,42095
27.34183,40344
27.34995,41809
27.35807,41558
27.36620,42324
27.37432,44598
27.38245,42788
27.39057,40052
27.39868,37979
27.40682,40075
27.41493,38302
27.42307,36449
27.43118,34501
27.43930,39085
27.44743,36822
27.45555,37317
27.46367,38883
27.47180,37027
27.47992,40575
27.48805,41602
27.49617,34772
27.50428,35808
27.51242,41366
27.52053,40413
27.52867,40488
27.53678,39450
27.54490,39950
27.55303,36176
27.56115,39068
27.56927,36654
27.57740,37194
27.58552,40748
27.59365,42357
27.60177,43552
27.60988,45043
27.61802,42253
27.62613,38485
27.63427,35695
27.64238,39023
27.65050,33654
27.65863,34929
27.66675,33268
27.67488,39683
27.68300,37851
27.69112,37152
27.69925,37770
27.70737,39292
27.71548,38463
27.72362,40518
27.73173,38531
27.73987,38845
27.74798,39815
27.75610,40716
27.76423,41838
27.77235,40416
27.78048,34372
27.78860,37532
27.79672,37835
27.80485,34355
27.81297,37371
27.82110,34385
27.82922,35170
27.83733,35587
27.84547,34957
27.85358,35471
27.86170,34312
27.86983,38087
27.87795,37039
27.88608,30830
27.89420,35291
27.90232,32508
27.91045,33346
27.91857,31628
27.92670,34302
27.93482,32605
27.94293,33120
27.95107,34371
27.95918,34129
27.96730,34971
27.97543,36510
27.98355,35179
27.99168,39522
27.99980,39045
28.00792,38737
28.01605,41423
28.02417,40634
28.03230,45121
28.04042,44530
28.04853,41729
28.05667,39254
28.06478,43098
28.07292,40166
28.08103,44973
28.08915,48741
28.09728,53758
28.10540,54062
28.11352,55957
28.12165,51130
28.12977,48987
28.13790,45684
28.14602,44059
28.15413,41026
28.16227,35359
28.17038,34536
28.17852,35329
28.18663,36149
28.19475,40114
28.20288,41395
28.21100,42705
28.21913,44279
28.22725,41642
28.23537,38519
28.24350,40716
28.25162,43070
28.25973,47750
28.26787,57971
28.27598,68964
28.28412,90115
28.29223,107615
28.30035,128093
28.30848,141262
28.31660,151962
28.32473,160308
28.33285,154703
28.34097,157710
28.34910,144975
28.35722,130626
28.36533,121957
28.37347,108039
28.38158,97324
28.38972,92658
28.39783,85289
28.40595,80099
28.41408,71479
28.42220,71619
28.43033,65156
28.43845,59851
28.44657,60170
28.45470,53196
28.46282,56212
28.47095,50604
28.47907,49250
28.48718,46465
28.49532,49437
28.50343,49801
28.51155,43558
28.51968,46620
28.52780,47756
28.53593,44117
28.54405,43271
28.55217,41839
28.56030,44051
28.56842,41697
28.57655,39937
28.58467,40127
28.59278,39006
28.60092,40681
28.60903,40837
28.61717,39460
28.62528,39836
28.63340,43343
28.64153,42684
28.64965,47755
28.65777,41089
28.66590,40869
28.67402,41443
28.68215,45794
28.69027,48220
28.69838,55916
28.70652,57276
28.71463,58147
28.72277,57102
28.73088,52468
28.73900,44716
28.74713,43077
28.75525,37430
28.76337,38855
28.77150,34314
28.77962,37908
28.78775,38157
28.79587,42110
28.80398,39682
28.81212,42311
28.82023,41576
28.82837,33965
28.83648,35428
28.84460,38971
28.85273,36420
28.86085,36751
28.86898,38831
28.87710,42329
28.88522,39382
28.89335,39821
28.90147,38573
28.90958,37254
28.91772,36519
28.92583,38294
28.93397,37436
28.94208,38845
28.95020,38442
28.95833,37155
28.96645,40430
28.97458,36282
28.98270,35717
28.99082,37387
28.99895,31890
29.00707,36037
29.01518,34794
29.02332,33835
29.03143,36335
29.03957,36673
29.04768,36385
29.05580,37952
29.06393,34360
29.07205,35882
29.08018,35994
29.08830,35172
29.09642,36363
29.10455,34135
29.11267,34960
29.12080,33090
29.12892,35997
29.13703,33715
29.14517,33682
29.15328,34332
29.16140,33468
29.16953,35244
29.17765,35141
29.18578,38108
29.19390,41636
29.20202,43032
29.21015,42200
29.21827,44223
29.22640,45137
29.23452,41899
29.24263,41159
29.25077,44692
29.25888,38519
29.26702,43619
29.27513,41751
29.28325,34993
29.29138,37048
29.29950,36943
29.30762,34469
29.31575,35708
29.32387,34614
29.33200,30641
29.34012,32736
29.34823,32732
29.35637,30850
29.36448,32458
29.37262,33688
29.38073,30740
29.38885,32613
29.39698,32981
29.40510,31518
29.41322,33273
29.42135,35805
29.42947,37478
29.43760,35497
29.44572,34065
29.45383,37929
29.46197,33137
29.47008,33497
29.47822,35315
29.48633,34806
29.49445,34135
29.50258,34713
29.51070,32286
29.51883,30593
29.52695,37575
29.53507,35244
29.54320,31752
29.55132,34319
29.55943,37127
29.56757,34141
29.57568,35416
29.58382,35520
29.59193,39401
29.60005,38079
29.60818,38280
29.61630,36814
29.62443,36925
29.63255,34417
29.64067,36239
29.64880,33731
29.65692,33098
29.66505,33228
29.67317,35614
29.68128,32433
29.68942,35908
29.69753,33344
29.70565,39024
29.71378,32223
29.72190,32330
29.73003,34028
29.73815,33031
29.74627,32685
29.75440,31872
29.76252,30957
29.77065,31244
29.77877,29368
29.78688,31050
29.79502,28895
29.80313,28112
29.81125,26666
29.81938,31360
29.82750,31914
29.83563,27675
29.84375,29522
29.85187,31040
29.86000,34208
29.86812,38381
29.87625,45339
29.88437,55437
29.89248,57613
29.90062,64457
29.90873,65215
29.91687,72898
29.92498,80896
29.93310,76623
29.94123,84362
29.94935,79441
29.95747,87397
29.96560,94443
29.97372,88580
29.98185,94086
29.98997,95916
29.99808,84922
30.00622,87828
30.01433,83389
30.02247,77117
30.03058,73447
30.03870,71174
30.04683,67104
30.05495,64554
30.06307,65485
30.07120,60057
30.07932,60562
30.08745,57396
30.09557,55035
30.10368,58446
30.11182,54967
30.11993,50739
30.12807,53461
30.13618,54313
30.14430,56386
30.15243,54347
30.16055,46617
30.16868,50406
30.17680,49831
30.18492,53538
30.19305,49847
30.20117,46696
30.20928,44762
30.21742,44315
30.22553,46243
30.23367,42388
30.24178,43272
30.24990,44256
30.25803,39296
30.26615,44694
30.27428,41926
30.28240,43603
30.29052,39087
30.29865,38796
30.30677,39136
30.31490,38844
30.32302,41315
30.33113,38673
30.33927,36398
30.34738,38893
30.35550,41341
30.36363,39190
30.37175,40660
30.37988,36496
30.38800,39889
30.39612,36080
30.40425,39658
30.41237,38842
30.42050,36043
30.42862,38545
30.43673,37388
30.44487,34375
30.45298,37392
30.46112,34386
30.46923,36889
30.47735,37712
30.48548,38193
30.49360,33988
30.50172,38695
30.50985,35672
30.51797,36588
30.52610,35410
30.53422,35192
30.54233,33274
30.55047,35775
30.55858,37686
30.56672,34304
30.57483,34485
30.58295,38108
30.59108,35493
30.59920,32056
30.60732,31891
30.61545,33901
30.62357,36531
30.63170,32369
30.63982,36936
30.64793,35902
30.65607,33261
30.66418,32291
30.67232,34056
30.68043,36222
30.68855,33409
30.69668,34227
30.70480,29576
30.71293,34404
30.72105,34623
30.72917,33058
30.73730,36341
30.74542,32912
30.75353,35372
30.76167,34784
30.76978,37122
30.77792,44191
30.78603,46750
30.79415,46338
30.80228,52771
30.81040,52075
30.81853,47925
30.82665,45265
30.83477,42261
30.84290,35898
30.85102,34747
30.85913,32440
30.86727,36925
30.87538,30868
30.88352,30870
30.89163,33426
30.89975,39139
30.90788,34297
30.91600,34891
30.92413,32756
30.93225,29529
30.94037,32736
30.94850,30366
30.95662,32359
30.96475,34011
30.97287,31286
30.98098,31542
30.98912,33365
30.99723,29595
31.00535,32277
31.01348,34235
31.02160,33408
31.02973,32729
31.03785,34573
31.04597,32805
31.05410,34317
31.06222,34148
31.07035,30996
31.07847,34378
31.08658,39146
31.09472,42162
31.10283,39929
31.11097,41450
31.11908,35932
31.12720,37645
31.13533,37029
31.14345,36470
31.15157,38066
31.15970,34905
31.16782,37671
31.17595,43227
31.18407,52855
31.19218,61069
31.20032,69534
31.20843,73807
31.21657,67904
31.22468,69999
31.23280,57668
31.24093,50003
31.24905,45447
31.25717,39897
31.26530,38428
31.27342,35299
31.28155,34396
31.28967,34124
31.29778,33076
31.30592,37386
31.31403,33767
31.32217,33635
31.33028,30468
31.33840,35817
31.34653,35543
31.35465,39250
31.36278,37460
31.37090,35851
31.37902,34537
31.38715,34881
31.39527,32146
31.40338,30414
31.41152,33054
31.41963,31837
31.42777,34965
31.43588,33614
31.44400,35903
31.45213,37719
31.46025,33688
31.46838,31297
31.47650,30751
31.48462,35008
31.49275,30799
31.50087,32148
31.50900,35126
31.51712,33232
31.52523,33436
31.53337,33399
31.54148,32633
31.54960,33031
31.55773,30662
31.56585,31702
31.57398,33927
31.58210,30321
31.59022,32811
31.59835,34242
31.60647,32113
31.61460,33302
31.62272,31901
31.63083,33120
31.63897,35072
31.64708,36619
31.65520,36333
31.66333,35493
31.67145,35779
31.67958,37092
31.68770,37945
31.69582,38057
31.70395,36460
31.71207,36990
31.72020,32957
31.72832,34708
31.73643,35570
31.74457,33558
31.75268,33261
31.76082,32614
31.76893,34065
31.77705,34513
31.78518,33226
31.79330,33693
31.80142,33095
31.80955,34393
31.81767,36052
31.82580,37479
31.83392,41195
31.84203,42807
31.85017,48751
31.85828,52545
31.86642,59873
31.87453,62930
31.88265,67090
31.89078,69166
31.89890,70066
31.90702,66634
31.91515,62142
31.92327,64016
31.93140,62278
31.93952,58289
31.94763,56364
31.95577,55445
31.96388,52099
31.97202,51426
31.98013,52674
31.98825,46393
31.99638,50864
32.00450,49524
32.01263,46290
32.02075,44925
32.02887,42899
32.03700,42873
32.04512,42194
32.05323,39264
32.06137,38603
32.06948,37251
32.07762,39411
32.08573,39085
32.09385,39011
32.10198,36561
32.11010,36264
32.11823,34757
32.12635,34675
32.13447,33968
32.14260,38289
32.15072,35598
32.15885,37710
32.16697,35024
32.17508,35184
32.18322,36460
32.19133,35081
32.19945,29219
32.20758,36904
32.21570,34953
32.22383,34105
32.23195,33252
32.24007,33393
32.24820,35076
32.25632,36558
32.26445,35092
32.27257,39413
32.28068,36972
32.28882,37056
32.29693,33487
32.30505,34346
32.31318,35182
32.32130,31858
32.32943,35864
32.33755,32438
32.34567,35170
32.35380,36328
32.36192,35889
32.37005,38765
32.37817,36963
32.38628,35520
32.39442,32312
32.40253,33083
32.41067,37901
32.41878,34205
32.42690,32272
32.43503,31874
32.44315,33566
32.45127,32049
32.45940,31429
32.46752,32733
32.47565,33895
32.48377,34096
32.49188,32114
32.50002,32462
32.50813,33392
32.51627,32987
32.52438,36353
32.53250,31364
32.54063,33296
32.54875,35475
32.55688,38395
32.56500,31030
32.57312,36691
32.58125,36840
32.58937,45606
32.59748,48258
32.60562,45047
32.61373,45435
32.62187,41233
32.62998,42038
32.63810,37050
32.64623,37469
32.65435,34597
32.66248,34782
32.67060,37649
32.67872,35705
32.68685,36192
32.69497,34021
32.70308,35140
32.71122,38707
32.71933,38619
32.72747,39898
32.73558,34110
32.74370,35383
32.75183,33334
32.75995,35033
32.76808,33421
32.77620,33469
32.78432,34504
32.79245,33739
32.80057,32823
32.80870,36254
32.81682,33313
32.82493,34066
32.83307,37147
32.84118,34603
32.84930,30964
32.85743,33449
32.86555,31220
32.87368,32446
32.88180,33611
32.88992,36061
32.89805,36644
32.90617,35883
32.91430,35016
32.92242,35701
32.93053,38171
32.93867,33190
32.94678,35559
32.95492,35759
32.96303,34796
32.97115,35901
32.97928,37607
32.98740,40644
32.99552,43380
33.00365,46144
33.01177,42157
33.01990,40893
33.02802,37553
33.03613,36787
33.04427,35633
33.05238,35095
33.06052,33841
33.06863,37737
33.07675,33540
33.08488,37123
33.09300,41281
33.10112,40782
33.10925,47605
33.11737,45507
33.12550,45565
33.13362,40932
33.14173,41386
33.14987,36465
33.15798,33417
33.16612,34599
33.17423,34925
33.18235,33759
33.19048,35785
33.19860,36438
33.20673,37226
33.21485,36646
33.22297,40255
33.23110,36134
33.23922,34098
33.24733,34720
33.25547,35119
33.26358,35347
33.27172,38508
33.27983,36608
33.28795,37319
33.29608,34762
33.30420,36297
33.31233,35141
33.32045,35936
33.32857,34236
33.33670,34115
33.34482,34944
33.35293,36386
33.36107,32333
33.36918,35406
33.37732,36990
33.38543,34667
33.39355,31757
33.40168,36543
33.40980,36933
33.41793,31575
33.42605,35342
33.43417,36612
33.44230,31621
33.45042,33802
33.45855,35142
33.46667,31321
33.47478,33884
33.48292,32957
33.49103,33445
33.49915,33134
33.50728,35560
33.51540,33583
33.52353,36471
33.53165,37433
33.53977,38723
33.54790,37624
33.55602,37698
33.56415,36394
33.57227,37049
33.58038,37128
33.58852,36045
33.59663,34948
33.60477,34216
33.61288,34936
33.62100,35415
33.62913,37479
33.63725,33307
33.64537,35575
33.65350,36462
33.66162,37532
33.66975,36993
33.67787,34614
33.68598,38629
33.69412,35759
33.70223,33847
33.71037,33767
33.71848,35987
33.72660,33990
33.73473,39527
33.74285,38098
33.75097,37093
33.75910,37100
33.76722,39457
33.77535,37690
33.78347,35694
33.79158,38103
33.79972,39981
33.80783,36626
33.81597,37694
33.82408,39519
33.83220,39089
33.84033,37565
33.84845,39383
33.85658,37895
33.86470,37285
33.87282,39013
33.88095,38095
33.88907,37994
33.89718,40982
33.90532,38974
33.91343,39388
33.92157,38193
33.92968,40489
33.93780,38369
33.94593,39468
33.95405,36700
33.96218,37347
33.97030,36467
33.97842,36281
33.98655,39708
33.99467,36276
34.00280,38613
34.01092,37807
34.01903,40311
34.02717,34673
34.03528,37293
34.04340,41644
34.05153,38934
34.05965,38247
34.06778,39338
34.07590,38131
34.08402,36773
34.09215,38785
34.10027,38823
34.10840,35128
34.11652,34148
34.12463,36013
34.13277,34596
34.14088,39801
34.14900,36249
34.15713,37553
34.16525,34188
34.17338,40073
34.18150,36558
34.18962,42031
34.19775,38117
34.20587,34797
34.21400,37791
34.22212,36493
34.23023,38229
34.23837,35083
34.24648,41896
34.25462,38666
34.26273,38149
34.27085,35022
34.27898,36238
34.28710,37417
34.29522,37072
34.30335,39018
34.31147,37630
34.31960,41172
34.32772,35248
34.33583,35527
34.34397,37568
34.35208,42127
34.36022,39434
34.36833,39640
34.37645,35370
34.38458,34512
34.39270,36038
34.40082,35441
34.40895,36525
34.41707,36503
34.42520,40524
34.43332,42482
34.44143,43194
34.44957,47839
34.45768,52601
34.46582,57794
34.47393,68454
34.48205,70675
34.49018,70010
34.49830,68350
34.50643,71486
34.51455,68292
34.52267,63733
34.53080,61201
34.53892,54510
34.54703,52829
34.55517,51316
34.56328,50832
34.57142,51005
34.57953,48564
34.58765,47184
34.59578,42395
34.60390,47379
34.61203,47718
34.62015,48137
34.62827,43823
34.63640,44295
34.64452,43011
34.65265,45629
34.66077,44056
34.66888,48130
34.67702,44008
34.68513,46776
34.69325,40672
34.70138,39814
34.70950,41957
34.71763,43215
34.72575,42228
34.73387,42533
34.74200,44663
34.75012,45143
34.75825,39047
34.76637,41597
34.77448,43286
34.78262,41411
34.79073,41328
34.79885,40086
34.80698,42642
34.81510,39259
34.82323,40209
34.83135,39633
34.83947,40463
34.84760,40503
34.85572,41888
34.86385,38982
34.87197,38430
34.88008,41064
34.88822,39398
34.89633,40520
34.90447,39464
34.91258,41573
34.92070,43032
34.92883,47482
34.93695,41269
34.94507,44261
34.95320,42366
34.96132,42509
34.96945,43821
34.97757,41627
34.98568,43157
34.99382,40670
35.00193,47394
35.01007,46187
35.01818,43401
35.02630,39596
35.03443,38280
35.04255,42432
35.05068,45049
35.05880,41317
35.06692,38159
35.07505,45139
35.08317,38095
35.09128,40782
35.09942,46596
35.10753,41371
35.11567,36510
35.12378,38959
35.13190,39726
35.14003,37876
35.14815,40269
35.15628,41225
35.16440,41099
35.17252,41884
35.18065,36112
35.18877,40941
35.19688,40396
35.20502,40873
35.21313,45393
35.22127,38972
35.22938,42090
35.23750,43516
35.24563,40833
35.25375,41479
35.26188,45471
35.27000,43064
35.27812,41715
35.28625,39349
35.29437,38643
35.30250,43587
35.31062,40924
35.31873,41852
35.32687,39001
35.33498,42164
35.34310,43344
35.35123,38566
35.35935,41819
35.36748,42540
35.37560,43271
35.38372,41897
35.39185,43135
35.39997,43031
35.40810,44372
35.41622,45002
35.42433,48005
35.43247,44146
35.44058,49712
35.44870,46408
35.45683,49114
35.46495,51194
35.47308,51067
35.48120,52325
35.48932,48225
35.49745,46335
35.50557,44742
35.51370,44976
35.52182,49188
35.52993,46214
35.53807,50477
35.54618,46753
35.55432,48930
35.56243,50115
35.57055,51257
35.57868,47655
35.58680,46841
35.59492,49101
35.60305,52042
35.61117,46565
35.61930,45488
35.62742,44655
35.63553,44865
35.64367,46504
35.65178,42606
35.65992,42670
35.66803,46119
35.67615,46176
35.68428,46897
35.69240,43014
35.70053,45769
35.70865,45717
35.71677,44354
35.72490,47219
35.73302,48354
35.74113,45987
35.74927,44592
35.75738,45873
35.76552,45389
35.77363,47418
35.78175,45367
35.78988,45303
35.79800,46507
35.80613,45392
35.81425,47573
35.82237,44965
35.83050,46624
35.83862,46517
35.84675,43585
35.85487,41911
35.86298,47945
35.87112,46115
35.87923,43878
35.88735,43649
35.89548,41332
35.90360,42610
35.91173,41921
35.91985,45848
35.92797,45058
35.93610,45620
35.94422,45866
35.95235,44490
35.96047,45642
35.96858,46050
35.97672,47331
35.98483,42346
35.99295,44767
36.00108,48835
36.00920,48213
36.01733,47642
36.02545,47448
36.03357,48086
36.04170,45106
36.04982,50483
36.05795,47236
36.06607,48699
36.07418,47666
36.08232,45623
36.09043,47479
36.09857,50112
36.10668,47758
36.11480,45797
36.12293,45646
36.13105,46237
36.13917,46089
36.14730,50657
36.15542,49747
36.16355,45550
36.17167,45640
36.17978,43554
36.18792,45335
36.19603,50406
36.20417,47036
36.21228,51892
36.22040,56664
36.22853,59132
36.23665,62864
36.24477,61745
36.25290,59174
36.26102,61241
36.26915,56783
36.27727,53559
36.28538,49966
36.29352,48792
36.30163,50926
36.30977,48192
36.31788,47475
36.32600,49538
36.33413,48779
36.34225,48543
36.35038,47359
36.35850,48280
36.36662,52632
36.37475,50260
36.38287,52479
36.39098,52678
36.39912,53355
36.40723,54294
36.41537,53012
36.42348,49121
36.43160,48469
36.43973,46353
36.44785,49613
36.45598,47566
36.46410,49366
36.47222,49328
36.48035,50633
36.48847,54246
36.49660,43584
36.50472,47847
36.51283,47028
36.52097,48831
36.52908,52058
36.53720,48266
36.54533,51614
36.55345,47864
36.56158,48810
36.56970,46824
36.57782,49740
36.58595,48106
36.59407,50685
36.60220,50884
36.61032,49216
36.61843,51536
36.62657,46742
36.63468,48874
36.64280,56428
36.65093,48478
36.65905,42466
36.66718,48352
36.67530,46137
36.68342,52356
36.69155,48601
36.69967,50484
36.70780,48471
36.71592,48473
36.72403,48756
36.73217,47424
36.74028,49822
36.74842,51050
36.75653,51529
36.76465,52621
36.77278,47689
36.78090,53192
36.78902,46988
36.79715,51481
36.80527,48437
36.81340,48957
36.82152,49356
36.82963,47156
36.83777,48339
36.84588,51340
36.85402,51654
36.86213,50228
36.87025,48525
36.87838,49973
36.88650,49872
36.89463,47876
36.90275,48847
36.91087,52189
36.91900,52565
36.92712,49145
36.93523,51396
36.94337,50973
36.95148,53240
36.95962,58760
36.96773,53948
36.97585,59565
36.98398,60426
36.99210,60515
37.00023,62220
37.00835,70731
37.01647,72443
37.02460,77187
37.03272,77503
37.04083,79818
37.04897,69857
37.05708,65350
37.06522,62010
37.07333,59160
37.08145,59912
37.08958,56978
37.09770,55775
37.10583,53674
37.11395,54107
37.12207,52940
37.13020,54122
37.13832,55168
37.14645,53599
37.15457,54381
37.16268,56398
37.17082,57321
37.17893,54498
37.18705,52071
37.19518,53152
37.20330,51573
37.21143,55171
37.21955,52938
37.22767,54707
37.23580,59505
37.24392,61207
37.25205,61557
37.26017,71327
37.26828,76768
37.27642,83612
37.28453,82647
37.29265,85015
37.30078,88641
37.30890,80986
37.31703,76905
37.32515,71016
37.33327,69379
37.34140,67298
37.34952,64675
37.35765,65202
37.36577,62865
37.37388,63132
37.38202,60668
37.39013,60664
37.39827,61278
37.40638,60521
37.41450,63176
37.42263,64748
37.43075,58878
37.43887,60742
37.44700,57475
37.45512,61055
37.46325,56594
37.47137,63260
37.47948,58249
37.48762,57066
