Z:\data\JTB-E02\BACandBLUE\JTB-E02-193-15.D Wed Dec 19 13:56:38 2018
Start of data points
2.09522	74286
2.10335	82297
2.11147	85044
2.11960	77101
2.12772	81062
2.13583	82564
2.14397	78541
2.15208	80919
2.16022	78212
2.16833	83069
2.17645	80179
2.18458	72770
2.19270	72007
2.20082	74569
2.20895	79512
2.21707	73032
2.22520	71542
2.23332	70020
2.24143	68482
2.24957	73828
2.25768	184334
2.26582	801731
2.27393	1535658
2.28205	1139960
2.29018	629804
2.29830	433078
2.30642	345712
2.31455	297616
2.32267	261952
2.33080	238612
2.33892	219120
2.34703	200756
2.35517	185568
2.36328	179956
2.37142	173325
2.37953	167542
2.38765	164098
2.39578	164969
2.40390	156790
2.41203	160229
2.42015	148716
2.42827	141197
2.43640	140654
2.44452	128863
2.45263	131959
2.46077	125876
2.46888	118493
2.47702	123168
2.48513	141135
2.49325	134634
2.50138	129032
2.50950	129142
2.51763	132906
2.52575	125152
2.53387	120589
2.54200	132871
2.55012	142972
2.55825	138437
2.56637	124031
2.57448	123059
2.58262	111237
2.59073	132769
2.59885	299010
2.60698	557907
2.61510	522515
2.62323	346024
2.63135	252264
2.63947	195298
2.64760	174977
2.65572	165100
2.66385	139125
2.67197	130118
2.68008	126401
2.68822	123025
2.69633	114681
2.70445	115434
2.71258	111159
2.72070	106193
2.72883	101021
2.73695	107566
2.74507	100712
2.75320	106426
2.76132	147793
2.76945	771046
2.77757	2561597
2.78568	3396269
2.79382	2225555
2.80193	1265238
2.81007	942192
2.81818	776208
2.82630	617846
2.83443	509087
2.84255	421977
2.85067	369409
2.85880	329415
2.86692	287084
2.87505	264440
2.88317	243218
2.89128	214299
2.89942	208308
2.90753	188370
2.91567	187362
2.92378	170023
2.93190	165813
2.94003	158216
2.94815	159170
2.95627	168361
2.96440	161943
2.97252	157291
2.98065	148611
2.98877	150530
2.99688	155905
3.00502	150859
3.01313	147873
3.02127	143327
3.02938	133853
3.03750	124949
3.04563	122169
3.05375	124206
3.06188	124835
3.07000	150758
3.07812	424212
3.08625	1065971
3.09437	2281022
3.10248	4266763
3.11062	5004716
3.11873	3589156
3.12687	2303891
3.13498	1625783
3.14310	1269490
3.15123	1011140
3.15935	934102
3.16748	977563
3.17560	1573755
3.18372	3899143
3.19185	6470624
3.19997	5988838
3.20810	4072813
3.21622	2935221
3.22433	2278033
3.23247	1876771
3.24058	1560655
3.24870	1353682
3.25683	1168937
3.26495	1039977
3.27308	929423
3.28120	961156
3.28932	1580905
3.29745	3484442
3.30557	5987358
3.31370	6764638
3.32182	5488256
3.32993	3878173
3.33807	2768377
3.34618	2149064
3.35430	1740196
3.36243	1494655
3.37055	1294438
3.37868	1156448
3.38680	1026098
3.39492	940720
3.40305	880943
3.41117	790732
3.41930	762209
3.42742	767214
3.43553	760524
3.44367	710235
3.45178	676103
3.45992	779299
3.46803	958237
3.47615	980419
3.48428	797433
3.49240	641944
3.50052	549661
3.50865	507862
3.51677	476103
3.52490	491204
3.53302	562059
3.54113	584322
3.54927	535992
3.55738	459649
3.56552	419417
3.57363	388353
3.58175	377735
3.58988	353226
3.59800	345533
3.60613	332894
3.61425	344370
3.62237	349118
3.63050	365033
3.63862	365303
3.64673	468393
3.65487	2099684
3.66298	1.209596E+07
3.67112	3.291593E+07
3.67923	4.78642E+07
3.68735	4.788345E+07
3.69548	3.619679E+07
3.70360	2.446009E+07
3.71173	1.847057E+07
3.71985	1.501701E+07
3.72797	1.255685E+07
3.73610	1.086964E+07
3.74422	9497790
3.75233	8400823
3.76047	7385298
3.76858	6611568
3.77672	5970013
3.78483	5481296
3.79295	5132593
3.80108	5038643
3.80920	5225846
3.81733	5502266
3.82545	5176805
3.83357	4441490
3.84170	3956889
3.84982	3659290
3.85795	3393611
3.86607	3183591
3.87418	2994419
3.88232	2840779
3.89043	2707117
3.89855	2590404
3.90668	2528422
3.91480	2789376
3.92293	3297009
3.93105	3555971
3.93917	3278659
3.94730	2904081
3.95542	2963457
3.96355	3349274
3.97167	3309796
3.97978	2752360
3.98792	2330093
3.99603	2300972
4.00417	3050478
4.01228	3888475
4.02040	3904403
4.02853	3160702
4.03665	2305299
4.04477	1879200
4.05290	1641254
4.06102	1511482
4.06915	1424046
4.07727	1346436
4.08538	1322670
4.09352	1278747
4.10163	1235356
4.10977	1197291
4.11788	1164439
4.12600	1095532
4.13413	1088481
4.14225	1089637
4.15037	1111428
4.15850	1079272
4.16662	1058250
4.17475	1037659
4.18287	1044665
4.19098	1009777
4.19912	1068818
4.20723	2122372
4.21537	6266231
4.22348	1.458584E+07
4.23160	2.331812E+07
4.23973	2.96792E+07
4.24785	3.39491E+07
4.25598	3.569841E+07
4.26410	3.18326E+07
4.27222	1.997423E+07
4.28035	1.218281E+07
4.28847	8936601
4.29658	7107500
4.30472	5834273
4.31283	4905529
4.32097	4206016
4.32908	3625137
4.33720	3158367
4.34533	2834644
4.35345	2676984
4.36158	2722985
4.36970	2798243
4.37782	2636644
4.38595	2306192
4.39407	1912500
4.40218	1687411
4.41032	1542667
4.41843	1419689
4.42657	1335321
4.43468	1256068
4.44280	1196545
4.45093	1132607
4.45905	1071927
4.46718	1047579
4.47530	986705
4.48342	977226
4.49155	943941
4.49967	906320
4.50780	887049
4.51592	874846
4.52403	845098
4.53217	835883
4.54028	854277
4.54840	890916
4.55653	894298
4.56465	840400
4.57278	781749
4.58090	738677
4.58902	705268
4.59715	700876
4.60527	694487
4.61340	712310
4.62152	891588
4.62963	1462994
4.63777	2406075
4.64588	3023402
4.65402	2741227
4.66213	2010118
4.67025	1474934
4.67838	1236533
4.68650	1088399
4.69462	939068
4.70275	826462
4.71087	746635
4.71900	679580
4.72712	648669
4.73523	613941
4.74337	592678
4.75148	585616
4.75962	576726
4.76773	543454
4.77585	533447
4.78398	554861
4.79210	616654
4.80022	785801
4.80835	950430
4.81647	924543
4.82460	808300
4.83272	748687
4.84083	805328
4.84897	920869
4.85708	925516
4.86522	855280
4.87333	728395
4.88145	646798
4.88958	581524
4.89770	555746
4.90583	526434
4.91395	502428
4.92207	501737
4.93020	499497
4.93832	567157
4.94643	820801
4.95457	1385857
4.96268	2121624
4.97082	2624122
4.97893	2548457
4.98705	2108016
4.99518	1639334
5.00330	1308557
5.01143	1108207
5.01955	1052870
5.02767	1302686
5.03580	1862742
5.04392	2360482
5.05205	2394831
5.06017	2010465
5.06828	1612505
5.07642	1343968
5.08453	1187501
5.09265	1075170
5.10078	1003033
5.10890	928103
5.11703	885271
5.12515	824666
5.13327	780559
5.14140	784039
5.14952	871133
5.15765	1134850
5.16577	1461582
5.17388	1593984
5.18202	1487429
5.19013	1254995
5.19825	1229530
5.20638	1331250
5.21450	1433426
5.22263	1346320
5.23075	1166500
5.23887	960484
5.24700	922472
5.25512	755937
5.26325	707550
5.27137	626030
5.27948	556738
5.28762	528418
5.29573	522984
5.30387	513555
5.31198	480936
5.32010	485049
5.32823	490485
5.33635	510843
5.34447	543455
5.35260	513718
5.36072	494432
5.36885	463140
5.37697	451186
5.38508	468440
5.39322	516106
5.40133	595271
5.40947	590107
5.41758	565585
5.42570	501070
5.43383	456978
5.44195	479295
5.45007	533853
5.45820	616751
5.46632	658732
5.47445	596844
5.48257	512392
5.49068	433415
5.49882	392904
5.50693	380402
5.51507	379684
5.52318	370876
5.53130	371326
5.53943	379066
5.54755	420267
5.55568	602329
5.56380	990210
5.57192	1536198
5.58005	1874758
5.58817	1729075
5.59628	1281133
5.60442	880422
5.61253	651539
5.62067	520671
5.62878	457635
5.63690	433969
5.64503	417394
5.65315	391423
5.66128	370783
5.66940	364540
5.67752	379936
5.68565	420854
5.69377	499048
5.70190	554592
5.71002	557207
5.71813	493917
5.72627	431844
5.73438	383689
5.74250	366665
5.75063	337387
5.75875	332609
5.76688	321593
5.77500	316242
5.78312	304419
5.79125	293803
5.79937	301188
5.80750	302443
5.81562	293706
5.82373	290189
5.83187	289817
5.83998	296492
5.84810	289455
5.85623	278708
5.86435	281597
5.87248	274117
5.88060	286698
5.88872	279493
5.89685	285950
5.90497	288247
5.91310	322716
5.92122	354612
5.92933	365806
5.93747	344337
5.94558	347070
5.95372	373275
5.96183	454425
5.96995	577532
5.97808	745313
5.98620	922016
5.99432	1117071
6.00245	1140204
6.01057	1024299
6.01870	789796
6.02682	581006
6.03493	448385
6.04307	376395
6.05118	332798
6.05932	308785
6.06743	295998
6.07555	289820
6.08368	281047
6.09180	264793
6.09993	256189
6.10805	252290
6.11617	264491
6.12430	376807
6.13242	717129
6.14053	1317310
6.14867	1961668
6.15678	2161150
6.16492	1790102
6.17303	1275652
6.18115	904048
6.18928	713975
6.19740	609969
6.20553	530855
6.21365	475211
6.22177	421741
6.22990	408077
6.23802	397617
6.24613	403289
6.25427	438962
6.26238	491399
6.27052	520268
6.27863	490804
6.28675	431173
6.29488	378781
6.30300	344138
6.31113	345962
6.31925	342561
6.32737	332798
6.33550	337551
6.34362	343969
6.35175	341947
6.35987	322240
6.36798	318359
6.37612	308845
6.38423	310639
6.39235	322373
6.40048	306335
6.40860	299729
6.41673	274578
6.42485	285107
6.43297	281384
6.44110	287556
6.44922	298125
6.45735	303031
6.46547	315525
6.47358	316662
6.48172	306520
6.48983	311997
6.49795	294774
6.50608	297611
6.51420	294901
6.52233	304598
6.53045	306998
6.53857	306389
6.54670	296109
6.55482	307245
6.56295	386477
6.57107	647443
6.57918	1083245
6.58732	1463110
6.59543	1470365
6.60357	1130264
6.61168	764674
6.61980	511934
6.62793	380309
6.63605	330151
6.64417	287434
6.65230	255262
6.66042	249690
6.66855	245563
6.67667	254690
6.68478	255457
6.69292	235473
6.70103	214670
6.70917	200197
6.71728	203543
6.72540	196194
6.73353	198470
6.74165	194985
6.74978	197372
6.75790	192274
6.76602	185886
6.77415	187128
6.78227	182639
6.79038	187034
6.79852	177476
6.80663	174641
6.81477	162500
6.82288	156901
6.83100	156157
6.83913	162126
6.84725	172215
6.85538	186295
6.86350	202094
6.87162	233363
6.87975	249341
6.88787	256266
6.89600	228570
6.90412	204959
6.91223	173462
6.92037	159264
6.92848	152238
6.93660	143977
6.94473	139940
6.95285	137862
6.96098	141992
6.96910	151292
6.97722	177103
6.98535	201688
6.99347	204864
7.00160	191300
7.00972	173048
7.01783	170949
7.02597	175548
7.03408	167176
7.04220	166189
7.05033	154877
7.05845	152033
7.06658	179095
7.07470	230091
7.08282	303516
7.09095	371429
7.09907	397515
7.10720	368560
7.11532	300640
7.12343	246230
7.13157	201277
7.13968	193660
7.14782	204590
7.15593	251678
7.16405	315946
7.17218	468450
7.18030	1028765
7.18842	2565485
7.19655	5336072
7.20467	8632268
7.21280	1.014671E+07
7.22092	8843831
7.22903	5647553
7.23717	2654262
7.24528	1014632
7.25342	426013
7.26153	238481
7.26965	197384
7.27778	186346
7.28590	194010
7.29402	183372
7.30215	182015
7.31027	181145
7.31840	175235
7.32652	189150
7.33463	199533
7.34277	243754
7.35088	305064
7.35902	360482
7.36713	379340
7.37525	353630
7.38338	298288
7.39150	248471
7.39963	199502
7.40775	179980
7.41587	162668
7.42400	158004
7.43212	154802
7.44023	145563
7.44837	138868
7.45648	143346
7.46462	150778
7.47273	148390
7.48085	161161
7.48898	158926
7.49710	150227
7.50523	137940
7.51335	143568
7.52147	132927
7.52960	149814
7.53772	219441
7.54585	413196
7.55397	917991
7.56208	1917957
7.57022	3538672
7.57833	5407145
7.58645	6852481
7.59458	7279982
7.60270	6404727
7.61083	4821027
7.61895	3176871
7.62707	1882903
7.63520	1113176
7.64332	683254
7.65145	485782
7.65957	362208
7.66768	280566
7.67582	219195
7.68393	186883
7.69205	159089
7.70018	144330
7.70830	155340
7.71643	181741
7.72455	234603
7.73267	281528
7.74080	306643
7.74892	328165
7.75705	309039
7.76517	279875
7.77328	249076
7.78142	221949
7.78953	201061
7.79767	193829
7.80578	221867
7.81390	255306
7.82203	310798
7.83015	328791
7.83827	300395
7.84640	247211
7.85452	207906
7.86265	188244
7.87077	192439
7.87888	212762
7.88702	253386
7.89513	336318
7.90327	405542
7.91138	435001
7.91950	415311
7.92763	347738
7.93575	280821
7.94388	279034
7.95200	305431
7.96012	313009
7.96825	293991
7.97637	283204
7.98448	235492
7.99262	196506
8.00073	169868
8.00887	146012
8.01698	141187
8.02510	130990
8.03323	127976
8.04135	125330
8.04948	109301
8.05760	116024
8.06572	115916
8.07385	117931
8.08197	123449
8.09008	121423
8.09822	113221
8.10633	112455
8.11447	103851
8.12258	111083
8.13070	122095
8.13883	170160
8.14695	255156
8.15508	344824
8.16320	409701
8.17132	401026
8.17945	322399
8.18757	257320
8.19570	198932
8.20382	163658
8.21193	143890
8.22007	137868
8.22818	126699
8.23630	122477
8.24443	113781
8.25255	109918
8.26068	104312
8.26880	106022
8.27692	100168
8.28505	105292
8.29317	104073
8.30130	95907
8.30942	99112
8.31753	98042
8.32567	111564
8.33378	116705
8.34190	122362
8.35003	130558
8.35815	126535
8.36628	115369
8.37440	109769
8.38252	94993
8.39065	89400
8.39877	92283
8.40690	85621
8.41502	92500
8.42313	89816
8.43127	82761
8.43938	89454
8.44752	86440
8.45563	84179
8.46375	92399
8.47188	85369
8.48000	84901
8.48812	87247
8.49625	84389
8.50437	85064
8.51250	99745
8.52062	138922
8.52873	204844
8.53687	272367
8.54498	297528
8.55312	263175
8.56123	197204
8.56935	141553
8.57748	112364
8.58560	95862
8.59373	92434
8.60185	93226
8.60997	100833
8.61810	120697
8.62622	147204
8.63433	177163
8.64247	200191
8.65058	200063
8.65872	179528
8.66683	143152
8.67495	125530
8.68308	101608
8.69120	92842
8.69933	87967
8.70745	86046
8.71557	85818
8.72370	90988
8.73182	91889
8.73993	88470
8.74807	89255
8.75618	84863
8.76432	86043
8.77243	102910
8.78055	145605
8.78868	256261
8.79680	424415
8.80493	602306
8.81305	695503
8.82117	645940
8.82930	521465
8.83742	409493
8.84555	326856
8.85367	287745
8.86178	257540
8.86992	232790
8.87803	212228
8.88615	202281
8.89428	196873
8.90240	184230
8.91053	190243
8.91865	212140
8.92677	281475
8.93490	398226
8.94302	473115
8.95115	484097
8.95927	410958
8.96738	317782
8.97552	255974
8.98363	264237
8.99177	290816
8.99988	327215
9.00800	329147
9.01613	306326
9.02425	246850
9.03237	209205
9.04050	180219
9.04862	164389
9.05675	156786
9.06487	155320
9.07298	137231
9.08112	138339
9.08923	144508
9.09737	159080
9.10548	194625
9.11360	284522
9.12173	388941
9.12985	470513
9.13797	500701
9.14610	432378
9.15422	334483
9.16235	267169
9.17047	217726
9.17858	192260
9.18672	179976
9.19483	171116
9.20297	166990
9.21108	160302
9.21920	154259
9.22733	151955
9.23545	158147
9.24358	166410
9.25170	157073
9.25982	156917
9.26795	141817
9.27607	143132
9.28418	129048
9.29232	126333
9.30043	123737
9.30857	132275
9.31668	131645
9.32480	129384
9.33293	122793
9.34105	127739
9.34918	118365
9.35730	111350
9.36542	109778
9.37355	109473
9.38167	110785
9.38980	115155
9.39792	138999
9.40603	168445
9.41417	215437
9.42228	284343
9.43040	376393
9.43853	474265
9.44665	531056
9.45478	598707
9.46290	593529
9.47102	534005
9.47915	416580
9.48727	314057
9.49540	228165
9.50352	182999
9.51163	174609
9.51977	191384
9.52788	225258
9.53600	245455
9.54413	251570
9.55225	232086
9.56038	219111
9.56850	195504
9.57662	151545
9.58475	137670
9.59287	121994
9.60100	115404
9.60912	122091
9.61723	113876
9.62537	110852
9.63348	110542
9.64162	94948
9.64973	92040
9.65785	95092
9.66598	86702
9.67410	90345
9.68222	95895
9.69035	90449
9.69847	103536
9.70660	92851
9.71472	90419
9.72283	93379
9.73097	98943
9.73908	94676
9.74722	94113
9.75533	81736
9.76345	87857
9.77158	77550
9.77970	78437
9.78782	76783
9.79595	75015
9.80407	75257
9.81220	73493
9.82032	76328
9.82843	80561
9.83657	84379
9.84468	79862
9.85282	76986
9.86093	78325
9.86905	78852
9.87718	71054
9.88530	71759
9.89343	70844
9.90155	71010
9.90967	73544
9.91780	72993
9.92592	76137
9.93403	85152
9.94217	104970
9.95028	156733
9.95842	254653
9.96653	410794
9.97465	557042
9.98278	658889
9.99090	650412
9.99903	518981
10.00715	378179
10.01527	253333
10.02340	178035
10.03152	146865
10.03965	144852
10.04777	158455
10.05588	165878
10.06402	185436
10.07213	190361
10.08025	186561
10.08838	171911
10.09650	168295
10.10463	158543
10.11275	148169
10.12087	142508
10.12900	129904
10.13712	132829
10.14525	129320
10.15337	124355
10.16148	122111
10.16962	127034
10.17773	110655
10.18585	116571
10.19398	113301
10.20210	107913
10.21023	103361
10.21835	107270
10.22647	103309
10.23460	107604
10.24272	108961
10.25085	131738
10.25897	202647
10.26708	449173
10.27522	1151969
10.28333	2604433
10.29147	5040391
10.29958	8241917
10.30770	1.181783E+07
10.31583	1.549446E+07
10.32395	2.007216E+07
10.33207	2.569422E+07
10.34020	3.301312E+07
10.34832	4.162074E+07
10.35645	4.92946E+07
10.36457	5.347809E+07
10.37268	4.931392E+07
10.38082	3.228764E+07
10.38893	1.555223E+07
10.39707	8345125
10.40518	5632277
10.41330	4017354
10.42143	2712255
10.42955	1870886
10.43768	1487821
10.44580	1328881
10.45392	1315693
10.46205	1270371
10.47017	1255781
10.47828	1143854
10.48642	1016590
10.49453	854148
10.50267	733595
10.51078	633715
10.51890	560975
10.52703	539973
10.53515	513852
10.54328	536424
10.55140	546370
10.55952	518776
10.56765	501974
10.57577	502111
10.58388	473542
10.59202	455385
10.60013	423668
10.60827	397467
10.61638	379494
10.62450	355118
10.63263	342641
10.64075	321773
10.64888	309465
10.65700	297717
10.66512	282919
10.67325	277958
10.68137	278012
10.68950	265693
10.69762	265646
10.70573	285375
10.71387	291549
10.72198	299778
10.73010	285861
10.73823	287624
10.74635	274567
10.75448	259064
10.76260	254176
10.77072	246171
10.77885	242371
10.78697	217068
10.79510	209816
10.80322	217291
10.81133	228900
10.81947	239474
10.82758	259873
10.83570	266159
10.84383	256095
10.85195	227255
10.86008	201960
10.86820	192835
10.87632	166253
10.88445	170600
10.89257	163479
10.90070	167079
10.90882	163442
10.91693	164776
10.92507	160115
10.93318	161516
10.94132	152382
10.94943	151289
10.95755	149062
10.96568	150551
10.97380	148749
10.98192	149288
10.99005	146183
10.99817	148041
11.00630	159825
11.01442	166027
11.02253	178408
11.03067	182772
11.03878	194268
11.04692	172784
11.05503	171644
11.06315	151781
11.07128	159542
11.07940	167467
11.08753	185838
11.09565	204451
11.10377	211132
11.11190	221438
11.12002	207948
11.12813	191613
11.13627	169276
11.14438	156023
11.15252	142282
11.16063	139084
11.16875	126100
11.17688	123088
11.18500	126778
11.19313	122644
11.20125	116525
11.20937	117944
11.21750	110040
11.22562	99960
11.23375	100110
11.24187	89678
11.24998	91125
11.25812	89677
11.26623	82319
11.27435	85438
11.28248	82758
11.29060	76711
11.29873	81851
11.30685	104103
11.31497	184935
11.32310	397049
11.33122	898750
11.33935	1818303
11.34747	3066711
11.35558	4169216
11.36372	4837489
11.37183	4629392
11.37995	3772530
11.38808	2807980
11.39620	2008169
11.40433	1491088
11.41245	1186928
11.42057	943524
11.42870	763487
11.43682	621379
11.44495	494885
11.45307	424027
11.46118	357649
11.46932	314381
11.47743	286719
11.48557	272401
11.49368	286196
11.50180	343090
11.50993	419032
11.51805	518772
11.52617	583915
11.53430	598292
11.54242	575176
11.55055	511812
11.55867	431585
11.56678	382506
11.57492	342683
11.58303	315735
11.59117	334436
11.59928	359737
11.60740	473212
11.61553	650063
11.62365	840734
11.63177	890565
11.63990	824628
11.64802	651327
11.65615	480228
11.66427	339621
11.67238	254264
11.68052	192682
11.68863	182589
11.69677	171661
11.70488	168931
11.71300	170297
11.72113	179823
11.72925	178006
11.73738	187207
11.74550	169992
11.75362	152618
11.76175	142175
11.76987	133732
11.77798	124374
11.78612	113084
11.79423	108763
11.80237	103890
11.81048	95409
11.81860	99011
11.82673	96073
11.83485	87454
11.84298	92354
11.85110	89796
11.85922	95426
11.86735	92075
11.87547	92694
11.88360	82825
11.89172	86795
11.89983	85113
11.90797	82702
11.91608	89507
11.92420	89188
11.93233	99073
11.94045	103311
11.94858	102369
11.95670	96515
11.96482	89200
11.97295	80846
11.98107	74160
11.98920	72660
11.99732	76423
12.00543	72693
12.01357	65983
12.02168	72362
12.02980	68456
12.03793	73441
12.04605	67283
12.05418	72664
12.06230	77246
12.07042	77537
12.07855	84002
12.08667	88006
12.09480	93198
12.10292	112687
12.11103	151182
12.11917	255461
12.12728	475587
12.13542	832064
12.14353	1278713
12.15165	1634657
12.15978	1696499
12.16790	1513611
12.17602	1178048
12.18415	846209
12.19227	634330
12.20040	507246
12.20852	447780
12.21663	395412
12.22477	356576
12.23288	312293
12.24102	282039
12.24913	264747
12.25725	245163
12.26538	236952
12.27350	226769
12.28163	216893
12.28975	208193
12.29787	192088
12.30600	190956
12.31412	172821
12.32223	174471
12.33037	164893
12.33848	160411
12.34662	155220
12.35473	152267
12.36285	147847
12.37098	154938
12.37910	146242
12.38723	149958
12.39535	153664
12.40347	175340
12.41160	237637
12.41972	341577
12.42783	493490
12.43597	589785
12.44408	610757
12.45222	531364
12.46033	425479
12.46845	335702
12.47658	255198
12.48470	214748
12.49283	188702
12.50095	179066
12.50907	167859
12.51720	162677
12.52532	157063
12.53345	169412
12.54157	199726
12.54968	254109
12.55782	329495
12.56593	406983
12.57405	435429
12.58218	396719
12.59030	325501
12.59843	264778
12.60655	208076
12.61467	181296
12.62280	156532
12.63092	154465
12.63905	140373
12.64717	135465
12.65528	129856
12.66342	131993
12.67153	122042
12.67965	128932
12.68778	121690
12.69590	121026
12.70403	117438
12.71215	108928
12.72027	117925
12.72840	114375
12.73652	116724
12.74465	126747
12.75277	127327
12.76088	125836
12.76902	117366
12.77713	114457
12.78527	114181
12.79338	99126
12.80150	103910
12.80963	93362
12.81775	90152
12.82587	79763
12.83400	78150
12.84212	76952
12.85025	70553
12.85837	63148
12.86648	63238
12.87462	65330
12.88273	63732
12.89087	65579
12.89898	64293
12.90710	60507
12.91523	58604
12.92335	61496
12.93148	61409
12.93960	65498
12.94772	63729
12.95585	59922
12.96397	67978
12.97208	76860
12.98022	87179
12.98833	98824
12.99647	99259
13.00458	90679
13.01270	81402
13.02083	73809
13.02895	75080
13.03708	68240
13.04520	63374
13.05332	64276
13.06145	65108
13.06957	66802
13.07768	73692
13.08582	75393
13.09393	80991
13.10207	77530
13.11018	77587
13.11830	75670
13.12643	74310
13.13455	72695
13.14268	60897
13.15080	67633
13.15892	63698
13.16705	67189
13.17517	77602
13.18330	75814
13.19142	76426
13.19953	80328
13.20767	80919
13.21578	81389
13.22390	86143
13.23203	90366
13.24015	96938
13.24828	97600
13.25640	99954
13.26452	99362
13.27265	103239
13.28077	98514
13.28890	90758
13.29702	81324
13.30513	75871
13.31327	63559
13.32138	68689
13.32952	60184
13.33763	68038
13.34575	62731
13.35388	56731
13.36200	53535
13.37012	56483
13.37825	58643
13.38637	60506
13.39450	60568
13.40262	58997
13.41073	59456
13.41887	58772
13.42698	58995
13.43512	60208
13.44323	58510
13.45135	54376
13.45948	58287
13.46760	60470
13.47572	63047
13.48385	70418
13.49197	69544
13.50010	69109
13.50822	69250
13.51633	65429
13.52447	81659
13.53258	77712
13.54072	84188
13.54883	89864
13.55695	73196
13.56508	71122
13.57320	66392
13.58133	74429
13.58945	84891
13.59757	91370
13.60570	114716
13.61382	131819
13.62193	160541
13.63007	179300
13.63818	179703
13.64632	158279
13.65443	129421
13.66255	98655
13.67068	85036
13.67880	71413
13.68693	65285
13.69505	60267
13.70317	55443
13.71130	52066
13.71942	55218
13.72755	52050
13.73567	57351
13.74378	58376
13.75192	65925
13.76003	81979
13.76815	112484
13.77628	164860
13.78440	241755
13.79253	344919
13.80065	499425
13.80877	648713
13.81690	761184
13.82502	873795
13.83315	1046797
13.84127	1243788
13.84938	1444839
13.85752	1502986
13.86563	1429695
13.87375	1177139
13.88188	884464
13.89000	630070
13.89813	437717
13.90625	294988
13.91437	224514
13.92250	181518
13.93062	142894
13.93875	130103
13.94687	110360
13.95498	102400
13.96312	93438
13.97123	91459
13.97937	85842
13.98748	87103
13.99560	90316
14.00373	88035
14.01185	96033
14.01997	97950
14.02810	103005
14.03622	96183
14.04435	82487
14.05247	75859
14.06058	78822
14.06872	74101
14.07683	71108
14.08497	73673
14.09308	75960
14.10120	71376
14.10933	71730
14.11745	71604
14.12557	65820
14.13370	67579
14.14182	68747
14.14995	72218
14.15807	75232
14.16618	86192
14.17432	94307
14.18243	104981
14.19057	104898
14.19868	107529
14.20680	124300
14.21493	144095
14.22305	174697
14.23118	205922
14.23930	229918
14.24742	261540
14.25555	287950
14.26367	307870
14.27178	318763
14.27992	302687
14.28803	261813
14.29617	229781
14.30428	182005
14.31240	155017
14.32053	132913
14.32865	122215
14.33678	124343
14.34490	118387
14.35302	109969
14.36115	115152
14.36927	110712
14.37740	110693
14.38552	97695
14.39363	94640
14.40177	98516
14.40988	121457
14.41800	159552
14.42613	219908
14.43425	279478
14.44238	290177
14.45050	275399
14.45862	225589
14.46675	189009
14.47487	146351
14.48300	138498
14.49112	144045
14.49923	137475
14.50737	140903
14.51548	134390
14.52360	121137
14.53173	109184
14.53985	100727
14.54798	92037
14.55610	85401
14.56422	89359
14.57235	85567
14.58047	79322
14.58860	71435
14.59672	72273
14.60483	69499
14.61297	67195
14.62108	64677
14.62922	59609
14.63733	57896
14.64545	63474
14.65358	58192
14.66170	56150
14.66982	60366
14.67795	58018
14.68607	57732
14.69420	50086
14.70232	51981
14.71043	57456
14.71857	55672
14.72668	57492
14.73482	61119
14.74293	71489
14.75105	66158
14.75918	68583
14.76730	73672
14.77543	74078
14.78355	80188
14.79167	106939
14.79980	215592
14.80792	617383
14.81603	1737407
14.82417	4274664
14.83228	8465269
14.84042	1.425739E+07
14.84853	2.021767E+07
14.85665	2.456746E+07
14.86478	2.547541E+07
14.87290	2.171428E+07
14.88103	1.414099E+07
14.88915	7808934
14.89727	4238636
14.90540	2630166
14.91352	1947391
14.92163	1599627
14.92977	1379041
14.93788	1236878
14.94602	1105083
14.95413	1011694
14.96225	922096
14.97038	846940
14.97850	786183
14.98663	736442
14.99475	693425
15.00287	655133
15.01100	623072
15.01912	593252
15.02725	548214
15.03537	527675
15.04348	498771
15.05162	481412
15.05973	440924
15.06785	416432
15.07598	409791
15.08410	391267
15.09223	364443
15.10035	354839
15.10847	338420
15.11660	317547
15.12472	320194
15.13285	340649
15.14097	389001
15.14908	432284
15.15722	520092
15.16533	515521
15.17345	452973
15.18158	368412
15.18970	276795
15.19783	208346
15.20595	165365
15.21407	138059
15.22220	129703
15.23032	127176
15.23845	117550
15.24657	108665
15.25468	102459
15.26282	106852
15.27093	103475
15.27907	98544
15.28718	92338
15.29530	103324
15.30343	94022
15.31155	90576
15.31967	91925
15.32780	86659
15.33592	84679
15.34405	81919
15.35217	79640
15.36028	80404
15.36842	84345
15.37653	82247
15.38467	94668
15.39278	104743
15.40090	101695
15.40903	94801
15.41715	91002
15.42528	91842
15.43340	84480
15.44152	75613
15.44965	82766
15.45777	83761
15.46588	83158
15.47402	99794
15.48213	129381
15.49027	195691
15.49838	306680
15.50650	456717
15.51463	617248
15.52275	735662
15.53088	737495
15.53900	667772
15.54712	548683
15.55525	415336
15.56337	320267
15.57148	237554
15.57962	182974
15.58773	150042
15.59587	125799
15.60398	117403
15.61210	111804
15.62023	104697
15.62835	105165
15.63648	99802
15.64460	99459
15.65272	101443
15.66085	98509
15.66897	94082
15.67710	90135
15.68522	82283
15.69333	81411
15.70147	75198
15.70958	70658
15.71770	68826
15.72583	67996
15.73395	64174
15.74208	66865
15.75020	77461
15.75832	99074
15.76645	172389
15.77457	371329
15.78270	732143
15.79082	1284027
15.79893	1894569
15.80707	2209770
15.81518	2007318
15.82332	1563149
15.83143	1049009
15.83955	677782
15.84768	419248
15.85580	303847
15.86392	246029
15.87205	221217
15.88017	209090
15.88830	196681
15.89642	178558
15.90453	165522
15.91267	150529
15.92078	152233
15.92892	135077
15.93703	133282
15.94515	129649
15.95328	124648
15.96140	120646
15.96952	118209
15.97765	114079
15.98577	112345
15.99390	105639
16.00202	109042
16.01013	123426
16.01827	132729
16.02638	153705
16.03452	166965
16.04263	176599
16.05075	164543
16.05888	153378
16.06700	147682
16.07513	117101
16.08325	103638
16.09137	96855
16.09950	89572
16.10762	82503
16.11573	86917
16.12387	93070
16.13198	92844
16.14012	111623
16.14823	125838
16.15635	158099
16.16448	175667
16.17260	181195
16.18073	164666
16.18885	147608
16.19697	131490
16.20510	111454
16.21322	100488
16.22133	103846
16.22947	109711
16.23758	112752
16.24572	108918
16.25383	99632
16.26195	92181
16.27008	79766
16.27820	80563
16.28633	83934
16.29445	102311
16.30257	114860
16.31070	132053
16.31882	148768
16.32695	148131
16.33507	149066
16.34318	134842
16.35132	131148
16.35943	115046
16.36755	116031
16.37568	113817
16.38380	101600
16.39193	99582
16.40005	96189
16.40817	86790
16.41630	84768
16.42442	81954
16.43255	86238
16.44067	92783
16.44878	119135
16.45692	228755
16.46503	549013
16.47317	1320894
16.48128	2671488
16.48940	4456011
16.49753	5884721
16.50565	6463678
16.51377	5545862
16.52190	3984694
16.53002	2456923
16.53815	1369358
16.54627	839528
16.55438	596521
16.56252	466696
16.57063	412111
16.57877	360938
16.58688	327894
16.59500	316185
16.60313	295909
16.61125	274831
16.61938	249870
16.62750	236205
16.63562	218681
16.64375	198032
16.65187	184774
16.65998	180178
16.66812	171860
16.67623	162446
16.68437	158279
16.69248	152758
16.70060	150575
16.70873	149339
16.71685	131974
16.72498	119962
16.73310	116996
16.74122	101674
16.74935	106082
16.75747	116105
16.76558	144506
16.77372	176817
16.78183	189056
16.78997	196649
16.79808	174493
16.80620	144681
16.81433	113313
16.82245	94525
16.83058	86474
16.83870	78445
16.84682	75141
16.85495	69517
16.86307	73282
16.87120	70920
16.87932	67013
16.88743	69261
16.89557	67487
16.90368	62493
16.91180	56393
16.91993	60845
16.92805	64623
16.93618	68019
16.94430	62213
16.95242	67227
16.96055	70024
16.96867	65842
16.97680	62444
16.98492	65471
16.99303	68792
17.00117	69799
17.00928	72578
17.01740	77427
17.02553	69579
17.03365	73511
17.04178	87272
17.04990	105575
17.05802	136085
17.06615	162901
17.07427	183409
17.08240	188344
17.09052	168432
17.09863	129514
17.10677	107150
17.11488	96574
17.12302	87084
17.13113	86128
17.13925	88142
17.14738	97222
17.15550	91595
17.16362	96175
17.17175	92943
17.17987	91673
17.18800	85151
17.19612	83773
17.20423	76797
17.21237	75369
17.22048	71611
17.22862	68322
17.23673	68460
17.24485	68242
17.25298	70593
17.26110	76076
17.26923	72220
17.27735	72633
17.28547	68409
17.29360	70188
17.30172	67744
17.30983	63839
17.31797	68513
17.32608	81932
17.33422	112051
17.34233	150632
17.35045	200006
17.35858	243541
17.36670	266761
17.37483	249164
17.38295	240881
17.39107	212404
17.39920	186998
17.40732	167223
17.41543	161400
17.42357	160320
17.43168	158748
17.43982	162918
17.44793	157352
17.45605	155279
17.46418	142752
17.47230	134483
17.48043	118989
17.48855	112291
17.49667	108291
17.50480	101663
17.51292	92051
17.52105	92710
17.52917	92032
17.53728	90517
17.54542	100841
17.55353	95835
17.56165	110031
17.56978	157485
17.57790	312269
17.58603	681983
17.59415	1518471
17.60227	2947726
17.61040	4536312
17.61852	5902280
17.62665	6460059
17.63477	5877769
17.64288	4594741
17.65102	3055080
17.65913	1843407
17.66727	1050992
17.67538	598785
17.68350	408014
17.69163	300643
17.69975	251449
17.70787	222695
17.71600	197376
17.72412	194000
17.73225	180548
17.74037	175432
17.74848	167290
17.75662	145756
17.76473	134420
17.77287	123901
17.78098	117495
17.78910	113626
17.79723	103141
17.80535	88555
17.81347	90029
17.82160	89389
17.82972	91577
17.83785	102688
17.84597	100037
17.85408	130659
17.86222	175802
17.87033	229657
17.87847	283661
17.88658	304160
17.89470	292670
17.90283	249439
17.91095	194509
17.91908	137527
17.92720	111437
17.93532	88872
17.94345	85676
17.95157	84596
17.95968	75506
17.96782	74358
17.97593	70573
17.98407	74098
17.99218	70796
18.00030	72040
18.00843	73605
18.01655	89749
18.02468	114142
18.03280	172159
18.04092	266227
18.04905	362572
18.05717	465771
18.06528	621345
18.07342	961332
18.08153	1810810
18.08967	3482088
18.09778	5699430
18.10590	7821197
18.11403	9081453
18.12215	8853660
18.13028	7406851
18.13840	5633078
18.14652	4023382
18.15465	3082860
18.16277	2422320
18.17090	2024802
18.17902	1723761
18.18713	1501846
18.19527	1361199
18.20338	1244920
18.21150	1091581
18.21963	971449
18.22775	911088
18.23588	865007
18.24400	777793
18.25212	728429
18.26025	665545
18.26837	629004
18.27650	574183
18.28462	529069
18.29273	431376
18.30087	347021
18.30898	266373
18.31712	206759
18.32523	169548
18.33335	161928
18.34148	140623
18.34960	130767
18.35772	124034
18.36585	118357
18.37397	119290
18.38210	115039
18.39022	110670
18.39833	112341
18.40647	114036
18.41458	122193
18.42272	120112
18.43083	135703
18.43895	163750
18.44708	202290
18.45520	289912
18.46332	432319
18.47145	702088
18.47957	1190773
18.48770	1732208
18.49582	2176216
18.50393	2290635
18.51207	1991615
18.52018	1545998
18.52832	1061966
18.53643	656861
18.54455	391655
18.55268	266109
18.56080	192789
18.56893	146859
18.57705	129461
18.58517	117965
18.59330	113590
18.60142	111785
18.60953	116933
18.61767	122289
18.62578	131786
18.63392	141886
18.64203	151592
18.65015	149804
18.65828	146321
18.66640	127743
18.67453	114571
18.68265	104994
18.69077	86690
18.69890	84091
18.70702	81610
18.71515	79381
18.72327	79415
18.73138	73068
18.73952	75408
18.74763	74923
18.75575	76040
18.76388	71760
18.77200	70116
18.78013	73987
18.78825	70371
18.79637	67562
18.80450	74581
18.81262	71839
18.82075	75844
18.82887	74073
18.83698	74908
18.84512	74910
18.85323	70073
18.86135	77887
18.86948	72674
18.87760	81981
18.88573	85678
18.89385	85893
18.90197	91801
18.91010	96651
18.91822	95689
18.92635	97640
18.93447	112329
18.94258	128224
18.95072	133915
18.95883	151304
18.96697	166261
18.97508	184516
18.98320	227283
18.99133	282010
18.99945	298111
19.00757	295092
19.01570	288643
19.02382	281681
19.03195	273025
19.04007	268010
19.04818	268510
19.05632	253708
19.06443	260428
19.07257	266623
19.08068	265426
19.08880	260698
19.09693	282281
19.10505	314280
19.11318	349046
19.12130	386755
19.12942	391627
19.13755	371801
19.14567	350105
19.15378	318831
19.16192	288719
19.17003	278793
19.17817	261651
19.18628	254527
19.19440	248236
19.20253	251866
19.21065	257361
19.21878	251503
19.22690	241078
19.23502	255859
19.24315	244443
19.25127	258052
19.25938	256427
19.26752	243551
19.27563	246231
19.28377	240595
19.29188	245440
19.30000	255891
19.30813	258118
19.31625	274711
19.32438	265736
19.33250	262451
19.34062	261924
19.34875	246043
19.35687	266852
19.36500	306761
19.37312	375951
19.38123	471469
19.38937	551409
19.39748	591124
19.40560	581638
19.41373	504474
19.42185	419798
19.42998	355254
19.43810	307770
19.44622	289059
19.45435	280804
19.46247	273196
19.47060	259340
19.47872	260815
19.48683	258771
19.49497	267691
19.50308	264912
19.51120	283426
19.51933	316609
19.52745	333871
19.53558	367129
19.54370	388304
19.55182	391478
19.55995	386804
19.56807	348605
19.57620	316997
19.58432	290261
19.59243	272352
19.60057	246689
19.60868	228939
19.61682	218722
19.62493	208713
19.63305	204374
19.64118	207392
19.64930	236890
19.65742	303012
19.66555	373178
19.67367	537541
19.68180	704616
19.68992	867846
19.69803	942021
19.70617	941708
19.71428	867654
19.72242	786407
19.73053	667994
19.73865	570154
19.74678	489679
19.75490	427338
19.76303	357678
19.77115	331325
19.77927	309485
19.78740	314368
19.79552	361859
19.80363	404419
19.81177	463861
19.81988	521707
19.82802	518662
19.83613	478912
19.84425	418086
19.85238	363954
19.86050	300090
19.86863	282946
19.87675	279924
19.88487	327027
19.89300	435914
19.90112	567948
19.90923	750249
19.91737	840237
19.92548	862549
19.93362	783692
19.94173	653506
19.94985	538602
19.95798	434440
19.96610	379200
19.97423	335431
19.98235	322388
19.99047	299029
19.99860	281810
20.00672	280742
20.01485	269342
20.02297	263754
20.03108	267849
20.03922	260230
20.04733	257490
20.05545	250475
20.06358	251651
20.07170	267134
20.07983	307489
20.08795	350633
20.09607	414461
20.10420	440729
20.11232	449790
20.12045	414160
20.12857	380763
20.13668	319476
20.14482	283461
20.15293	273613
20.16107	288873
20.16918	368031
20.17730	524578
20.18543	784960
20.19355	1081611
20.20167	1405172
20.20980	1597316
20.21792	1603209
20.22605	1462880
20.23417	1203795
20.24228	956395
20.25042	781425
20.25853	745187
20.26667	825175
20.27478	1012697
20.28290	1238603
20.29103	1459062
20.29915	1555292
20.30727	1522524
20.31540	1366775
20.32352	1088039
20.33165	820625
20.33977	604749
20.34788	458602
20.35602	356095
20.36413	302724
20.37227	261802
20.38038	233427
20.38850	217234
20.39663	211111
20.40475	192734
20.41288	197496
20.42100	185251
20.42912	191300
20.43725	191081
20.44537	218560
20.45348	246730
20.46162	259203
20.46973	277903
20.47787	271320
20.48598	268670
20.49410	246861
20.50223	224714
20.51035	206619
20.51848	193652
20.52660	177565
20.53472	180431
20.54285	174211
20.55097	189872
20.55908	194430
20.56722	194093
20.57533	189589
20.58347	190852
20.59158	185194
20.59970	170042
20.60783	161033
20.61595	159956
20.62408	154815
20.63220	151807
20.64032	159125
20.64845	163756
20.65657	168469
20.66470	170830
20.67282	185317
20.68093	180744
20.68907	187517
20.69718	173751
20.70530	165883
20.71343	161187
20.72155	142756
20.72968	146122
20.73780	140477
20.74592	147529
20.75405	153966
20.76217	162373
20.77030	183770
20.77842	202385
20.78653	222628
20.79467	291230
20.80278	447609
20.81092	775188
20.81903	1294188
20.82715	1871043
20.83528	2341535
20.84340	2320364
20.85152	1984500
20.85965	1449031
20.86777	924062
20.87590	564771
20.88402	351873
20.89213	269206
20.90027	211929
20.90838	205304
20.91652	199611
20.92463	211751
20.93275	217476
20.94088	233986
20.94900	249563
20.95713	250585
20.96525	245191
20.97337	236499
20.98150	219493
20.98962	191133
20.99773	179421
21.00587	163888
21.01398	153596
21.02212	151221
21.03023	149396
21.03835	152675
21.04648	165260
21.05460	161811
21.06273	159753
21.07085	162981
21.07897	160512
21.08710	154076
21.09522	145733
21.10333	148550
21.11147	139006
21.11958	141329
21.12772	138716
21.13583	147898
21.14395	166539
21.15208	233701
21.16020	331439
21.16833	459709
21.17645	598024
21.18457	653475
21.19270	608350
21.20082	519257
21.20895	411646
21.21707	306931
21.22518	268886
21.23332	230697
21.24143	196552
21.24955	181550
21.25768	164744
21.26580	156429
21.27393	149580
21.28205	141291
21.29017	131822
21.29830	133376
21.30642	128328
21.31455	125869
21.32267	118761
21.33078	122404
21.33892	122575
21.34703	121115
21.35515	123875
21.36328	125121
21.37140	124842
21.37953	127855
21.38765	137725
21.39577	160001
21.40390	186497
21.41202	235101
21.42015	295038
21.42827	344005
21.43638	367078
21.44452	372816
21.45263	323463
21.46077	289529
21.46888	257010
21.47700	228825
21.48513	195507
21.49325	180998
21.50137	171870
21.50950	153954
21.51762	143610
21.52575	134511
21.53387	126773
21.54198	128159
21.55012	125460
21.55823	124163
21.56637	121387
21.57448	122258
21.58260	133049
21.59073	146245
21.59885	177911
21.60698	200300
21.61510	210523
21.62322	211009
21.63135	199277
21.63947	189234
21.64758	191973
21.65572	203993
21.66383	229814
21.67197	276914
21.68008	311125
21.68820	352118
21.69633	377741
21.70445	379204
21.71258	339809
21.72070	286145
21.72882	242508
21.73695	190118
21.74507	166805
21.75318	145526
21.76132	141799
21.76943	133940
21.77757	135009
21.78568	135150
21.79380	122433
21.80193	132024
21.81005	132834
21.81818	124610
21.82630	125011
21.83442	130462
21.84255	150834
21.85067	161612
21.85880	176789
21.86692	204328
21.87503	212797
21.88317	203594
21.89128	195263
21.89940	178920
21.90753	159647
21.91565	164250
21.92378	152143
21.93190	143704
21.94002	138446
21.94815	132022
21.95627	126152
21.96440	113295
21.97252	112953
21.98063	97889
21.98877	94574
21.99688	94510
22.00502	90156
22.01313	92991
22.02125	92088
22.02938	100009
22.03750	107227
22.04562	119309
22.05375	130579
22.06187	133400
22.07000	139302
22.07812	125118
22.08623	125948
22.09437	121863
22.10248	111717
22.11062	107213
22.11873	105188
22.12685	104574
22.13498	98320
22.14310	90495
22.15122	94936
22.15935	90722
22.16747	87876
22.17560	92656
22.18372	90008
22.19183	89332
22.19997	89193
22.20808	89322
22.21622	82334
22.22433	89385
22.23245	94139
22.24058	98864
22.24870	105699
22.25683	109765
22.26495	116146
22.27307	119489
22.28120	126397
22.28932	127414
22.29743	142377
22.30557	154425
22.31368	159315
22.32182	159375
22.32993	152896
22.33805	143854
22.34618	137531
22.35430	126789
22.36243	124135
22.37055	114089
22.37867	112232
22.38680	108258
22.39492	129162
22.40303	177264
22.41117	265201
22.41928	392370
22.42742	561205
22.43553	665745
22.44365	736212
22.45178	687106
22.45990	543206
22.46803	417574
22.47615	298504
22.48427	242312
22.49240	211381
22.50052	217078
22.50865	250602
22.51677	287038
22.52488	310964
22.53302	320656
22.54113	313623
22.54925	283763
22.55738	251800
22.56550	207358
22.57363	183864
22.58175	163022
22.58987	136584
22.59800	127502
22.60612	116092
22.61425	110400
22.62237	100434
22.63048	97091
22.63862	96427
22.64673	95481
22.65487	100926
22.66298	104148
22.67110	115133
22.67923	118964
22.68735	123426
22.69547	137217
22.70360	163181
22.71172	205063
22.71985	280481
22.72797	349570
22.73608	392515
22.74422	401734
22.75233	368644
22.76047	299379
22.76858	255565
22.77670	215720
22.78483	217255
22.79295	245962
22.80107	315489
22.80920	441975
22.81732	597122
22.82545	714840
22.83357	747983
22.84168	689374
22.84982	578083
22.85793	450614
22.86607	372236
22.87418	304850
22.88230	280707
22.89043	290702
22.89855	308164
22.90668	334023
22.91480	350095
22.92292	397208
22.93105	444666
22.93917	488627
22.94728	577476
22.95542	582327
22.96353	527454
22.97167	449099
22.97978	365502
22.98790	268147
22.99603	232553
23.00415	199302
23.01228	172631
23.02040	162355
23.02852	148889
23.03665	130987
23.04477	115263
23.05290	113183
23.06102	112862
23.06913	114859
23.07727	118645
23.08538	120315
23.09350	130538
23.10163	129817
23.10975	118827
23.11788	122613
23.12600	106969
23.13412	103750
23.14225	97184
23.15037	103440
23.15850	96666
23.16662	102609
23.17473	91191
23.18287	92375
23.19098	90885
23.19910	90123
23.20723	79521
23.21535	77380
23.22348	82527
23.23160	79723
23.23972	77828
23.24785	82819
23.25597	100643
23.26410	134599
23.27222	159876
23.28033	188996
23.28847	200784
23.29658	200159
23.30472	182574
23.31283	155338
23.32095	129751
23.32908	108662
23.33720	112994
23.34532	133425
23.35345	186593
23.36157	250738
23.36970	336379
23.37782	408207
23.38593	451324
23.39407	458455
23.40218	409122
23.41032	321067
23.41843	256577
23.42655	201625
23.43468	164814
23.44280	142147
23.45093	129144
23.45905	120321
23.46717	108223
23.47530	111982
23.48342	112811
23.49153	105310
23.49967	101838
23.50778	96774
23.51592	96870
23.52403	97117
23.53215	93126
23.54028	99229
23.54840	98255
23.55653	104328
23.56465	115239
23.57277	132459
23.58090	152024
23.58902	194402
23.59713	251499
23.60527	319453
23.61338	400098
23.62152	421836
23.62963	407849
23.63775	348161
23.64588	275277
23.65400	204276
23.66213	161047
23.67025	135260
23.67837	131669
23.68650	143265
23.69462	131380
23.70275	122571
23.71087	106472
23.71898	102379
23.72712	96039
23.73523	95963
23.74335	85759
23.75148	88598
23.75960	86451
23.76773	114991
23.77585	189141
23.78397	392183
23.79210	758199
23.80022	1278899
23.80835	1795888
23.81647	2088213
23.82458	2016803
23.83272	1750669
23.84083	1361611
23.84895	1018619
23.85708	741249
23.86520	568883
23.87333	476289
23.88145	409408
23.88957	353642
23.89770	328748
23.90582	325654
23.91395	351899
23.92207	401597
23.93018	457467
23.93832	517772
23.94643	511657
23.95457	446570
23.96268	356782
23.97080	287744
23.97893	236806
23.98705	201521
23.99517	182870
24.00330	173186
24.01142	163269
24.01955	173324
24.02767	185770
24.03578	223384
24.04392	264797
24.05203	275888
24.06017	291270
24.06828	268066
24.07640	226008
24.08453	174584
24.09265	149737
24.10078	129753
24.10890	122056
24.11702	116781
24.12515	116509
24.13327	122422
24.14138	127243
24.14952	136514
24.15763	150740
24.16577	185810
24.17388	207140
24.18200	213414
24.19013	216787
24.19825	211750
24.20638	216231
24.21450	209808
24.22262	199865
24.23075	194748
24.23887	166693
24.24698	158698
24.25512	154640
24.26323	144438
24.27137	132731
24.27948	125443
24.28760	121938
24.29573	122110
24.30385	117168
24.31198	120887
24.32010	131481
24.32822	135724
24.33635	133108
24.34447	138199
24.35260	142838
24.36072	131376
24.36883	122265
24.37697	122676
24.38508	109626
24.39320	110191
24.40133	105464
24.40945	119471
24.41758	124735
24.42570	136038
24.43382	152510
24.44195	148527
24.45007	141081
24.45820	131906
24.46632	125577
24.47443	123519
24.48257	113216
24.49068	114781
24.49882	116745
24.50693	119366
24.51505	117147
24.52318	126542
24.53130	130892
24.53942	143601
24.54755	163793
24.55567	206428
24.56380	228916
24.57192	266004
24.58003	273949
24.58817	277959
24.59628	261475
24.60442	230948
24.61253	203357
24.62065	178982
24.62878	159483
24.63690	134704
24.64502	134518
24.65315	113470
24.66127	112640
24.66940	106493
24.67752	106781
24.68563	112811
24.69377	102761
24.70188	106844
24.71002	100685
24.71813	106941
24.72625	108330
24.73438	108674
24.74250	118235
24.75063	122867
24.75875	124546
24.76687	127317
24.77500	137881
24.78312	149232
24.79123	175425
24.79937	192845
24.80748	203729
24.81562	191887
24.82373	198223
24.83185	189219
24.83998	205909
24.84810	267444
24.85623	365137
24.86435	532259
24.87247	777026
24.88060	1172107
24.88872	1706988
24.89683	2355764
24.90497	3126577
24.91308	3359188
24.92122	3233063
24.92933	2685456
24.93745	1955869
24.94558	1244442
24.95370	750139
24.96183	433380
24.96995	283674
24.97807	207395
24.98620	164590
24.99432	140826
25.00245	131503
25.01057	136157
25.01868	122869
25.02682	125821
25.03493	125205
25.04305	120431
25.05118	121919
25.05930	119618
25.06743	118546
25.07555	118634
25.08367	121891
25.09180	129054
25.09992	149475
25.10805	200414
25.11617	410570
25.12428	1045961
25.13242	2532696
25.14053	5332682
25.14867	9170701
25.15678	1.315105E+07
25.16490	1.583516E+07
25.17303	1.674168E+07
25.18115	1.474008E+07
25.18927	1.092444E+07
25.19740	6792612
25.20552	3861851
25.21365	1986342
25.22177	1035043
25.22988	573705
25.23802	371014
25.24613	304719
25.25427	319708
25.26238	412006
25.27050	567294
25.27863	722528
25.28675	816250
25.29487	834990
25.30300	750328
25.31112	598424
25.31925	448086
25.32737	308687
25.33548	226696
25.34362	169193
25.35173	143887
25.35987	127361
25.36798	124393
25.37610	110063
25.38423	111622
25.39235	96656
25.40048	93512
25.40860	92772
25.41672	91261
25.42485	96622
25.43297	86609
25.44108	91989
25.44922	87615
25.45733	86987
25.46547	82890
25.47358	88463
25.48170	85530
25.48983	84412
25.49795	90576
25.50608	90922
25.51420	92494
25.52232	92733
25.53045	91744
25.53857	88341
25.54670	84062
25.55482	84355
25.56293	104927
25.57107	120478
25.57918	126351
25.58730	125862
25.59543	110169
25.60355	107215
25.61168	90382
25.61980	90039
25.62792	87847
25.63605	82203
25.64417	82437
25.65230	86428
25.66042	86703
25.66853	84986
25.67667	81083
25.68478	89200
25.69290	91057
25.70103	91946
25.70915	99999
25.71728	105838
25.72540	104804
25.73352	98462
25.74165	96982
25.74977	95051
25.75790	91482
25.76602	83975
25.77413	80301
25.78227	78899
25.79038	75587
25.79852	81096
25.80663	73911
25.81475	74691
25.82288	75766
25.83100	81706
25.83912	80373
25.84725	77990
25.85537	83750
25.86350	79459
25.87162	80816
25.87973	72062
25.88787	80279
25.89598	80119
25.90412	79076
25.91223	76655
25.92035	81540
25.92848	75602
25.93660	82154
25.94472	78607
25.95285	84436
25.96097	93559
25.96910	113595
25.97722	148217
25.98533	226885
25.99347	314531
26.00158	340971
26.00972	365523
26.01783	367761
26.02595	382724
26.03408	390405
26.04220	382707
26.05033	390920
26.05845	402701
26.06657	387923
26.07470	399146
26.08282	403531
26.09093	402577
26.09907	410796
26.10718	428594
26.11532	417965
26.12343	411613
26.13155	418658
26.13968	413435
26.14780	415745
26.15593	408757
26.16405	421856
26.17217	408968
26.18030	417144
26.18842	431657
26.19655	418703
26.20467	412052
26.21278	411564
26.22092	415801
26.22903	399271
26.23715	390311
26.24528	392915
26.25340	385696
26.26153	388662
26.26965	381807
26.27777	364213
26.28590	368811
26.29402	362847
26.30215	356093
26.31027	360438
26.31838	359886
26.32652	363953
26.33463	354972
26.34277	360988
26.35088	345227
26.35900	362224
26.36713	388176
26.37525	477039
26.38337	642604
26.39150	880033
26.39962	1188567
26.40775	1465348
26.41587	1641878
26.42398	1590871
26.43212	1459785
26.44023	1173990
26.44837	939283
26.45648	706702
26.46460	560804
26.47273	472078
26.48085	410790
26.48897	395240
26.49710	381494
26.50522	352349
26.51335	356379
26.52147	344754
26.52958	325588
26.53772	299867
26.54583	301591
26.55397	297781
26.56208	293149
26.57020	298248
26.57833	287092
26.58645	290120
26.59458	283207
26.60270	285362
26.61082	280845
26.61895	275353
26.62707	286125
26.63518	286375
26.64332	289808
26.65143	287129
26.65957	271437
26.66768	277727
26.67580	278491
26.68393	273833
26.69205	269451
26.70018	265595
26.70830	258073
26.71642	260529
26.72455	262028
26.73267	263456
26.74078	254337
26.74892	258128
26.75703	251181
26.76517	250631
26.77328	246086
26.78140	256967
26.78953	245228
26.79765	251932
26.80578	255845
26.81390	271873
26.82202	266513
26.83015	262977
26.83827	267476
26.84640	256615
26.85452	246242
26.86263	246692
26.87077	237766
26.87888	245811
26.88700	241733
26.89513	244340
26.90325	236856
26.91138	226695
26.91950	230460
26.92762	230809
26.93575	229471
26.94387	219942
26.95200	222279
26.96012	222591
26.96823	229343
26.97637	235827
26.98448	250170
26.99262	293460
27.00073	382241
27.00885	530742
27.01698	773412
27.02510	1065966
27.03322	1387716
27.04135	1607850
27.04947	1559346
27.05760	1385478
27.06572	1153398
27.07383	896686
27.08197	725523
27.09008	578153
27.09822	493127
27.10633	444297
27.11445	409559
27.12258	392925
27.13070	391987
27.13882	365379
27.14695	353729
27.15507	341687
27.16320	332313
27.17132	342839
27.17943	343324
27.18757	369364
27.19568	418495
27.20382	443809
27.21193	439313
27.22005	434955
27.22818	392587
27.23630	366045
27.24443	320445
27.25255	292527
27.26067	278531
27.26880	264507
27.27692	236480
27.28503	228493
27.29317	207987
27.30128	216561
27.30942	212837
27.31753	204794
27.32565	209957
27.33378	204492
27.34190	209392
27.35003	210604
27.35815	216040
27.36627	224356
27.37440	225052
27.38252	221037
27.39065	218605
27.39877	213976
27.40688	209263
27.41502	203013
27.42313	191037
27.43125	187453
27.43938	184765
27.44750	191515
27.45563	190771
27.46375	188892
27.47187	191628
27.48000	184032
27.48812	182161
27.49625	170385
27.50437	162190
27.51248	169362
27.52062	168377
27.52873	163638
27.53685	166101
27.54498	168392
27.55310	167651
27.56123	168497
27.56935	168607
27.57747	174607
27.58560	206222
27.59372	223107
27.60185	275538
27.60997	321286
27.61808	354985
27.62622	355625
27.63433	313727
27.64247	262578
27.65058	226614
27.65870	198300
27.66683	189777
27.67495	172363
27.68307	174838
27.69120	175947
27.69932	172216
27.70745	180168
27.71557	179684
27.72368	178556
27.73182	158476
27.73993	150190
27.74807	147132
27.75618	135260
27.76430	137538
27.77243	138112
27.78055	136950
27.78867	153161
27.79680	157515
27.80492	160217
27.81305	168306
27.82117	162226
27.82928	155035
27.83742	139311
27.84553	138141
27.85367	134801
27.86178	128757
27.86990	125338
27.87803	120811
27.88615	127595
27.89428	120374
27.90240	122044
27.91052	118282
27.91865	121059
27.92677	118263
27.93488	124369
27.94302	122562
27.95113	116874
27.95927	113828
27.96738	110068
27.97550	103919
27.98363	109583
27.99175	110405
27.99988	113035
28.00800	120831
28.01612	124103
28.02425	129578
28.03237	140150
28.04050	163582
28.04862	182531
28.05673	207881
28.06487	227146
28.07298	246097
28.08110	237985
28.08923	203511
28.09735	174486
28.10548	146898
28.11360	133405
28.12172	121010
28.12985	108791
28.13797	107061
28.14610	107696
28.15422	99469
28.16233	107616
28.17047	103974
28.17858	106792
28.18670	113297
28.19483	122233
28.20295	142873
28.21108	173083
28.21920	216542
28.22732	275090
28.23545	332261
28.24357	354418
28.25170	333469
28.25982	305015
28.26793	254828
28.27607	201903
28.28418	166655
28.29232	133096
28.30043	124382
28.30855	123893
28.31668	142357
28.32480	170849
28.33292	208459
28.34105	225285
28.34917	238981
28.35730	249821
28.36542	241132
28.37353	247063
28.38167	267896
28.38978	282236
28.39792	296294
28.40603	292698
28.41415	296837
28.42228	294414
28.43040	291488
28.43853	265899
28.44665	241906
28.45477	220563
28.46290	195992
28.47102	175361
28.47913	168852
28.48727	173503
28.49538	163713
28.50352	162313
28.51163	171502
28.51975	178599
28.52788	179041
28.53600	166658
28.54413	162323
28.55225	148292
28.56037	137713
28.56850	132136
28.57662	123701
28.58473	112279
28.59287	107728
28.60098	112562
28.60912	112531
28.61723	116742
28.62535	123295
28.63348	127835
28.64160	129678
28.64973	145735
28.65785	137965
28.66597	139330
28.67410	143681
28.68222	143114
28.69035	131856
28.69847	120982
28.70658	122183
28.71472	120064
28.72283	108260
28.73095	113395
28.73908	112510
28.74720	100344
28.75533	95615
28.76345	97542
28.77157	99910
28.77970	107603
28.78782	109307
28.79595	118728
28.80407	133166
28.81218	142100
28.82032	167190
28.82843	175874
28.83657	172920
28.84468	161498
28.85280	149533
28.86093	137596
28.86905	131556
28.87717	131953
28.88530	140743
28.89342	151982
28.90155	178649
28.90967	212177
28.91778	229357
28.92592	230335
28.93403	212829
28.94217	176358
28.95028	145629
28.95840	130187
28.96653	117211
28.97465	102805
28.98277	108254
28.99090	109165
28.99902	95445
29.00715	95605
29.01527	99522
29.02338	93795
29.03152	91466
29.03963	94962
29.04777	86123
29.05588	92832
29.06400	91741
29.07213	92874
29.08025	98432
29.08838	97437
29.09650	111783
29.10462	120941
29.11275	120858
29.12087	114127
29.12898	104870
29.13712	103759
29.14523	95411
29.15337	90605
29.16148	90331
29.16960	88287
29.17773	89367
29.18585	96906
29.19398	111102
29.20210	147975
29.21022	196247
29.21835	264180
29.22647	337299
29.23458	379975
29.24272	379810
29.25083	349083
29.25897	296265
29.26708	249050
29.27520	211443
29.28333	176280
29.29145	159512
29.29958	135324
29.30770	111906
29.31582	103725
29.32395	99103
29.33207	87846
29.34020	89735
29.34832	83779
29.35643	83991
29.36457	81582
29.37268	84262
29.38080	86296
29.38893	78893
29.39705	88356
29.40518	82425
29.41330	81064
29.42142	90618
29.42955	95838
29.43767	97394
29.44580	100344
29.45392	98159
29.46203	95723
29.47017	86571
29.47828	84862
29.48642	79022
29.49453	81144
29.50265	83189
29.51078	91051
29.51890	89776
29.52702	97218
29.53515	94307
29.54327	89994
29.55140	92281
29.55952	92106
29.56763	93664
29.57577	91520
29.58388	87536
29.59202	78573
29.60013	82730
29.60825	80267
29.61638	82855
29.62450	83703
29.63262	79988
29.64075	78814
29.64887	80735
29.65700	82240
29.66512	78764
29.67323	80209
29.68137	84102
29.68948	90625
29.69762	105976
29.70573	115570
29.71385	121814
29.72198	138143
29.73010	123392
29.73823	109545
29.74635	108363
29.75447	95017
29.76260	88677
29.77072	81110
29.77883	79481
29.78697	75547
29.79508	76056
29.80322	73043
29.81133	80992
29.81945	75585
29.82758	68532
29.83570	71916
29.84383	74047
29.85195	70782
29.86007	71760
29.86820	74648
29.87632	84454
29.88445	102167
29.89257	115240
29.90068	159953
29.90882	209816
29.91693	243604
29.92505	266336
29.93318	239045
29.94130	194414
29.94943	149301
29.95755	113024
29.96567	98410
29.97380	88045
29.98192	87912
29.99005	88373
29.99817	99022
30.00628	101148
30.01442	110908
30.02253	131174
30.03065	134336
30.03878	151684
30.04690	156537
30.05503	149974
30.06315	166345
30.07127	156407
30.07940	158105
30.08752	159570
30.09565	148723
30.10377	142083
30.11188	140701
30.12002	138242
30.12813	130601
30.13627	131514
30.14438	124759
30.15250	122344
30.16063	116724
30.16875	107034
30.17687	106770
30.18500	104336
30.19312	112356
30.20125	112242
30.20937	120122
30.21748	121825
30.22562	121268
30.23373	114189
30.24187	118529
30.24998	111696
30.25810	105204
30.26623	97613
30.27435	86982
30.28247	90114
30.29060	86397
30.29872	82997
30.30685	84169
30.31497	86879
30.32308	82112
30.33122	82642
30.33933	84502
30.34747	84405
30.35558	84114
30.36370	87869
30.37183	85171
30.37995	87008
30.38808	84505
30.39620	83868
30.40432	78622
30.41245	74923
30.42057	78091
30.42868	76884
30.43682	77443
30.44493	76147
30.45307	75280
30.46118	82081
30.46930	75286
30.47743	74026
30.48555	77348
30.49368	76945
30.50180	79918
30.50992	78790
30.51805	84811
30.52617	82291
30.53430	79292
30.54242	78678
30.55053	81213
30.55867	83135
30.56678	76764
30.57490	80648
30.58303	78596
30.59115	85547
30.59928	82596
30.60740	86226
30.61552	84221
30.62365	81437
30.63177	84586
30.63990	84550
30.64802	83985
30.65613	77983
30.66427	78722
30.67238	72287
30.68050	78489
30.68863	67851
30.69675	69156
30.70488	72438
30.71300	71573
30.72112	72506
30.72925	69346
30.73737	74306
30.74550	74500
30.75362	78278
30.76173	75342
30.76987	73966
30.77798	75559
30.78612	87679
30.79423	109402
30.80235	154249
30.81048	232486
30.81860	307216
30.82672	351421
30.83485	381395
30.84297	346561
30.85110	273765
30.85922	203700
30.86733	152473
30.87547	122289
30.88358	106670
30.89172	104438
30.89983	98172
30.90795	97742
30.91608	98535
30.92420	89550
30.93233	85948
30.94045	85092
30.94857	82152
30.95670	79190
30.96482	82017
30.97293	85651
30.98107	83052
30.98918	87681
30.99732	79150
31.00543	85416
31.01355	84585
31.02168	80521
31.02980	87081
31.03793	78373
31.04605	76044
31.05417	80646
31.06230	71075
31.07042	76895
31.07853	80328
31.08667	79848
31.09478	79749
31.10292	95661
31.11103	113556
31.11915	132531
31.12728	149551
31.13540	139856
31.14353	131942
31.15165	121136
31.15977	114964
31.16790	122402
31.17602	123546
31.18415	125658
31.19227	125993
31.20038	130264
31.20852	134743
31.21663	149140
31.22475	175654
31.23288	196984
31.24100	215045
31.24913	219054
31.25725	191850
31.26537	166313
31.27350	131331
31.28162	115185
31.28975	97008
31.29787	84395
31.30598	93312
31.31412	91248
31.32223	92232
31.33035	94122
31.33848	109753
31.34660	121644
31.35473	121435
31.36285	124069
31.37097	124674
31.37910	113133
31.38722	107595
31.39535	88272
31.40347	84867
31.41158	79572
31.41972	78330
31.42783	77256
31.43597	75169
31.44408	75490
31.45220	76529
31.46033	77929
31.46845	79657
31.47657	75942
31.48470	82299
31.49282	75673
31.50095	78632
31.50907	90825
31.51718	91020
31.52532	95908
31.53343	101841
31.54157	112905
31.54968	109865
31.55780	109037
31.56593	104896
31.57405	102528
31.58218	97346
31.59030	92905
31.59842	90459
31.60655	86023
31.61467	75342
31.62278	80747
31.63092	74591
31.63903	74183
31.64717	74280
31.65528	82988
31.66340	88925
31.67153	104845
31.67965	117048
31.68778	131034
31.69590	136769
31.70402	139633
31.71215	131916
31.72027	121356
31.72840	102658
31.73652	86873
31.74463	80221
31.75277	80040
31.76088	77827
31.76900	68366
31.77713	72802
31.78525	74284
31.79338	70269
31.80150	75154
31.80962	70669
31.81775	80347
31.82587	79989
31.83400	76922
31.84212	78930
31.85023	76899
31.85837	78381
31.86648	81182
31.87460	88136
31.88273	95315
31.89085	93552
31.89898	90922
31.90710	88748
31.91522	83482
31.92335	78838
31.93147	77260
31.93960	81666
31.94772	85968
31.95583	84551
31.96397	86510
31.97208	96117
31.98022	108992
31.98833	124831
31.99645	130745
32.00458	142744
32.01270	148228
32.02082	157891
32.02895	153703
32.03707	155008
32.04520	145714
32.05332	136668
32.06143	121391
32.06957	109404
32.07768	100892
32.08582	102662
32.09393	95057
32.10205	90430
32.11018	95890
32.11830	103125
32.12642	91914
32.13455	82388
32.14267	82296
32.15080	80652
32.15892	83256
32.16703	81545
32.17517	79669
32.18328	82409
32.19142	74086
32.19953	76629
32.20765	76220
32.21578	78171
32.22390	77811
32.23203	79292
32.24015	76558
32.24827	72434
32.25640	72640
32.26452	71380
32.27263	69536
32.28077	81292
32.28888	80110
32.29702	77330
32.30513	76585
32.31325	78409
32.32138	74704
32.32950	73230
32.33763	73489
32.34575	73597
32.35387	76730
32.36200	78739
32.37012	79461
32.37823	73888
32.38637	76830
32.39448	81534
32.40262	75037
32.41073	74155
32.41885	74505
32.42698	76461
32.43510	74736
32.44323	74059
32.45135	72424
32.45947	71693
32.46760	67384
32.47572	78848
32.48385	66296
32.49197	72610
32.50008	69292
32.50822	66636
32.51633	71819
32.52445	75105
32.53258	77575
32.54070	74382
32.54883	75673
32.55695	73593
32.56507	69741
32.57320	72947
32.58132	71274
32.58945	67831
32.59757	76377
32.60568	70868
32.61382	72245
32.62193	76469
32.63007	74270
32.63818	69869
32.64630	75584
32.65443	71240
32.66255	73387
32.67067	70592
32.67880	72608
32.68692	78340
32.69505	83868
32.70317	84659
32.71128	86865
32.71942	86444
32.72753	82818
32.73567	83691
32.74378	77772
32.75190	86280
32.76003	74417
32.76815	75711
32.77628	75974
32.78440	69257
32.79252	72259
32.80065	70961
32.80877	70489
32.81688	70635
32.82502	69885
32.83313	74243
32.84127	73887
32.84938	73483
32.85750	76917
32.86563	73256
32.87375	73820
32.88188	76592
32.89000	78988
32.89812	83495
32.90625	92503
32.91437	89355
32.92248	97642
32.93062	98495
32.93873	100609
32.94687	93224
32.95498	88088
32.96310	81383
32.97123	80171
32.97935	84595
32.98748	96112
32.99560	126208
33.00372	165571
33.01185	197638
33.01997	240386
33.02810	256020
33.03622	245962
33.04433	201359
33.05247	174212
33.06058	143991
33.06870	145094
33.07683	149903
33.08495	173356
33.09308	189707
33.10120	213508
33.10932	242064
33.11745	260582
33.12557	254564
33.13370	266559
33.14182	242733
33.14993	211391
33.15807	192825
33.16618	163305
33.17430	144094
33.18243	137988
33.19055	122879
33.19868	107560
33.20680	98205
33.21492	98224
33.22305	87438
33.23117	95808
33.23930	95981
33.24742	102001
33.25553	93144
33.26367	104755
33.27178	95687
33.27992	85326
33.28803	93566
33.29615	87348
33.30428	87015
33.31240	81450
33.32052	90378
33.32865	86173
33.33677	84642
33.34490	93051
33.35302	95065
33.36113	100904
33.36927	107502
33.37738	118057
33.38552	119157
33.39363	120558
33.40175	109967
33.40988	98518
33.41800	87150
33.42613	84217
33.43425	83356
33.44237	72852
33.45050	73815
33.45862	74589
33.46673	75756
33.47487	69764
33.48298	65622
33.49112	70393
33.49923	74027
33.50735	78343
33.51548	81743
33.52360	87317
33.53173	85903
33.53985	92512
33.54797	95191
33.55610	112119
33.56422	123047
33.57233	140704
33.58047	148476
33.58858	139848
33.59672	124287
33.60483	105299
33.61295	100032
33.62108	80044
33.62920	83960
33.63733	78237
33.64545	86661
33.65357	83748
33.66170	92776
33.66982	93675
33.67795	96927
33.68607	95771
33.69418	99311
33.70232	95931
33.71043	83253
33.71855	80539
33.72668	74494
33.73480	80945
33.74293	78232
33.75105	70987
33.75917	70076
33.76730	76058
33.77542	74718
33.78355	71538
33.79167	69525
33.79978	72406
33.80792	69431
33.81603	70553
33.82417	69297
33.83228	68978
33.84040	75017
33.84853	70767
33.85665	73694
33.86477	73042
33.87290	78076
33.88102	79620
33.88915	86794
33.89727	82594
33.90538	83747
33.91352	83862
33.92163	80399
33.92977	76314
33.93788	71047
33.94600	72832
33.95413	72850
33.96225	73678
33.97037	70156
33.97850	72036
33.98662	73633
33.99475	71105
34.00287	70769
34.01098	71318
34.01912	69547
34.02723	68442
34.03537	69743
34.04348	73464
34.05160	70255
34.05973	75396
34.06785	69961
34.07598	73867
34.08410	69216
34.09222	72930
34.10035	74892
34.10847	72348
34.11658	70439
34.12472	67765
34.13283	74811
34.14097	73535
34.14908	80099
34.15720	73270
34.16533	74334
34.17345	74036
34.18158	72686
34.18970	75478
34.19782	72375
34.20595	70888
34.21407	66396
34.22218	70253
34.23032	71200
34.23843	73039
34.24657	77339
34.25468	69385
34.26280	68098
34.27093	70475
34.27905	68666
34.28718	72959
34.29530	66584
34.30342	64498
34.31155	70947
34.31967	70628
34.32780	63765
34.33592	72883
34.34403	67661
34.35217	67377
34.36028	68982
34.36840	65976
34.37653	66726
34.38465	65785
34.39278	73831
34.40090	70853
34.40902	65896
34.41715	68401
34.42527	68394
34.43340	69517
34.44152	74774
34.44963	68013
34.45777	70160
34.46588	74255
34.47402	71891
34.48213	72843
34.49025	72947
34.49838	68110
34.50650	69540
34.51462	67008
34.52275	70222
34.53087	70970
34.53900	73361
34.54712	76879
34.55523	82638
34.56337	94072
34.57148	106513
34.57962	110150
34.58773	110486
34.59585	121867
34.60398	117185
34.61210	103415
34.62022	110216
34.62835	97768
34.63647	88358
34.64460	84685
34.65272	82854
34.66083	77196
34.66897	83414
34.67708	81260
34.68522	76114
34.69333	82693
34.70145	78319
34.70958	75763
34.71770	78511
34.72583	72221
34.73395	82643
34.74207	76956
34.75020	77248
34.75832	78755
34.76643	77271
34.77457	82207
34.78268	84119
34.79082	89790
34.79893	89875
34.80705	87054
34.81518	90988
34.82330	84933
34.83143	81936
34.83955	79991
34.84767	80762
34.85580	75241
34.86392	74209
34.87205	76966
34.88017	73574
34.88828	76970
34.89642	79658
34.90453	77468
34.91265	75581
34.92078	76386
34.92890	73970
34.93703	74087
34.94515	78050
34.95327	77863
34.96140	81608
34.96952	90193
34.97765	88277
34.98577	99748
34.99388	105313
35.00202	101487
35.01013	99155
35.01825	88079
35.02638	85739
35.03450	83608
35.04263	79224
35.05075	80817
35.05887	79744
35.06700	75206
35.07512	77053
35.08325	75454
35.09137	74037
35.09948	77185
35.10762	74402
35.11573	75968
35.12387	76276
35.13198	79673
35.14010	75553
35.14823	79384
35.15635	76295
35.16447	86325
35.17260	80949
35.18072	81439
35.18885	83830
35.19697	80662
35.20508	85665
35.21322	83026
35.22133	74271
35.22947	76186
35.23758	74167
35.24570	76304
35.25383	77555
35.26195	74534
35.27008	76103
35.27820	81752
35.28632	83238
35.29445	78380
35.30257	75148
35.31068	77179
35.31882	76451
35.32693	76616
35.33507	78310
35.34318	74170
35.35130	74966
35.35943	69148
35.36755	83490
35.37568	69662
35.38380	73154
35.39192	71962
35.40005	81753
35.40817	80950
35.41628	80646
35.42442	82340
35.43253	92642
35.44067	96858
35.44878	98793
35.45690	93934
35.46503	96039
35.47315	96673
35.48128	89181
35.48940	83928
35.49752	92711
35.50565	83975
35.51377	82572
35.52190	86056
35.53002	86005
35.53813	79863
35.54627	79216
35.55438	79860
35.56250	76381
35.57063	73294
35.57875	73526
35.58688	77235
35.59500	78937
35.60312	70198
35.61125	81176
35.61937	75271
35.62750	76147
35.63562	74055
35.64373	81019
35.65187	75231
35.65998	73542
35.66810	72368
35.67623	72880
35.68435	74546
35.69248	71459
35.70060	73503
35.70872	84205
35.71685	83569
35.72497	87279
35.73310	80083
35.74122	84807
35.74933	85625
35.75747	99244
35.76558	109219
35.77372	129433
35.78183	134180
35.78995	146131
35.79808	149448
35.80620	135049
35.81432	121065
35.82245	105563
35.83057	99504
35.83870	83771
35.84682	81680
35.85493	84441
35.86307	82964
35.87118	81433
35.87932	78739
35.88743	82665
35.89555	82241
35.90368	78687
35.91180	77668
35.91993	80511
35.92805	83696
35.93617	85168
35.94430	80140
35.95242	79009
35.96053	75522
35.96867	79340
35.97678	80640
35.98492	73710
35.99303	78697
36.00115	78234
36.00928	78061
36.01740	84645
36.02553	76733
36.03365	85214
36.04177	84478
36.04990	83199
36.05802	82999
36.06613	78428
36.07427	77238
36.08238	76372
36.09052	77002
36.09863	80125
36.10675	80040
36.11488	78457
36.12300	82361
36.13113	76597
36.13925	83743
36.14737	93367
36.15550	92572
36.16362	98555
36.17175	100288
36.17987	104777
36.18798	98243
36.19612	88558
36.20423	81830
36.21235	78340
36.22048	79712
36.22860	78877
36.23673	78635
36.24485	77641
36.25297	76754
36.26110	75291
36.26922	79484
36.27735	83232
36.28547	80518
36.29358	85184
36.30172	80389
36.30983	75648
36.31797	83908
36.32608	84136
36.33420	87296
36.34233	92883
36.35045	94367
36.35857	95025
36.36670	90945
36.37482	88129
36.38295	84038
36.39107	85113
36.39918	93297
36.40732	90233
36.41543	86861
36.42357	92172
36.43168	91142
36.43980	87508
36.44793	89671
36.45605	91910
36.46417	92690
36.47230	88759
36.48042	83151
36.48855	84181
36.49667	80033
36.50478	82592
36.51292	80862
36.52103	79068
36.52917	77611
36.53728	86881
36.54540	75988
36.55353	80985
36.56165	84575
36.56978	79294
36.57790	79623
36.58602	81447
36.59415	75734
36.60227	83071
36.61038	77601
36.61852	78769
36.62663	80614
36.63477	83433
36.64288	83659
36.65100	81734
36.65913	84523
36.66725	81345
36.67538	80472
36.68350	85597
36.69162	81839
36.69975	82524
36.70787	86539
36.71598	85023
36.72412	83110
36.73223	84280
36.74037	85739
36.74848	87975
36.75660	87329
36.76473	81658
36.77285	89519
36.78098	84111
36.78910	83521
36.79722	82254
36.80535	81010
36.81347	83970
36.82160	83922
36.82972	87866
36.83783	83221
36.84597	83310
36.85408	81766
36.86220	79041
36.87033	78200
36.87845	80208
36.88658	79567
36.89470	80746
36.90282	78058
36.91095	79711
36.91907	85771
36.92720	82544
36.93532	78783
36.94343	84763
36.95157	91804
36.95968	114723
36.96782	134896
36.97593	173816
36.98405	214379
36.99218	224154
37.00030	228337
37.00842	199865
37.01655	167462
37.02467	136461
37.03280	109969
37.04092	97016
37.04903	91157
37.05717	87426
37.06528	90934
37.07342	92219
37.08153	90914
37.08965	93269
37.09778	94850
37.10590	102018
37.11403	99094
37.12215	99516
37.13027	101974
37.13840	102939
37.14652	97518
37.15463	89132
37.16277	90309
37.17088	87876
37.17902	90898
37.18713	88369
37.19525	90291
37.20338	91491
37.21150	81638
37.21963	87416
37.22775	88542
37.23587	91013
37.24400	84446
37.25212	92949
37.26023	88024
37.26837	91366
37.27648	91159
37.28462	81390
37.29273	86206
37.30085	80437
37.30898	83646
37.31710	82205
37.32523	86351
37.33335	90486
37.34147	88030
37.34960	88026
37.35772	93296
37.36585	92004
37.37397	91199
37.38208	96976
37.39022	95734
37.39833	98005
37.40645	103278
37.41458	100631
37.42270	97628
37.43083	97907
37.43895	96904
37.44707	100519
37.45520	102327
37.46332	105809
37.47145	104309
37.47957	103038
37.48768	99703
