Z:\data\JTB-E02\BACandBLUE\JTB-E02-205-06.D Sun Mar 10 09:39:04 2019
Start of data points
2.09522,55621
2.10335,57414
2.11147,55501
2.11958,57770
2.12772,60033
2.13583,56643
2.14397,60036
2.15208,58045
2.16020,53196
2.16833,55167
2.17645,51471
2.18458,50964
2.19270,53968
2.20082,47576
2.20895,49260
2.21707,48761
2.22520,44492
2.23332,44595
2.24143,44845
2.24957,44314
2.25768,45829
2.26580,265756
2.27393,2374608
2.28205,4057045
2.29018,2084465
2.29830,956450
2.30642,662951
2.31455,534913
2.32267,477725
2.33080,397533
2.33892,363592
2.34703,309873
2.35517,286363
2.36328,256112
2.37140,238956
2.37953,224983
2.38765,217046
2.39578,198038
2.40390,210443
2.41202,197146
2.42015,234351
2.42827,237457
2.43640,190123
2.44452,186423
2.45263,183090
2.46077,164909
2.46888,148878
2.47702,141653
2.48513,137903
2.49325,139316
2.50138,135027
2.50950,129266
2.51762,124442
2.52575,125072
2.53387,122832
2.54200,126023
2.55012,125521
2.55823,138815
2.56637,135643
2.57448,128742
2.58262,119849
2.59073,114761
2.59885,107383
2.60698,116937
2.61510,140203
2.62323,140693
2.63135,124526
2.63947,123506
2.64760,105040
2.65572,107764
2.66383,103073
2.67197,106676
2.68008,101946
2.68822,97558
2.69633,102117
2.70445,97937
2.71258,95314
2.72070,94538
2.72883,92485
2.73695,100667
2.74507,90155
2.75320,94030
2.76132,89075
2.76943,86656
2.77757,86513
2.78568,89812
2.79382,94005
2.80193,97289
2.81005,92009
2.81818,90534
2.82630,94068
2.83443,84024
2.84255,85800
2.85067,88314
2.85880,87497
2.86692,87093
2.87505,88546
2.88317,87076
2.89128,88026
2.89942,86698
2.90753,79547
2.91565,78821
2.92378,83302
2.93190,80219
2.94003,84529
2.94815,77677
2.95627,87099
2.96440,81699
2.97252,82861
2.98065,78938
2.98877,83189
2.99688,81842
3.00502,81134
3.01313,81418
3.02127,81137
3.02938,76835
3.03750,75862
3.04563,77719
3.05375,69881
3.06187,77891
3.07000,72890
3.07812,81394
3.08625,77816
3.09437,81127
3.10248,91542
3.11062,106343
3.11873,114004
3.12687,93970
3.13498,86684
3.14310,86545
3.15123,82800
3.15935,83599
3.16747,78508
3.17560,77968
3.18372,79604
3.19185,76063
3.19997,78318
3.20808,73469
3.21622,72150
3.22433,74150
3.23247,70881
3.24058,74145
3.24870,74862
3.25683,73011
3.26495,67403
3.27308,75750
3.28120,99725
3.28932,350124
3.29745,1508632
3.30557,4320214
3.31368,7128459
3.32182,7523566
3.32993,6119008
3.33807,4555423
3.34618,3456531
3.35430,2773659
3.36243,2305875
3.37055,1956218
3.37868,1688174
3.38680,1494727
3.39492,1329943
3.40305,1183469
3.41117,1076176
3.41930,977948
3.42742,902112
3.43553,852144
3.44367,793079
3.45178,745098
3.45990,706501
3.46803,673878
3.47615,646891
3.48428,607213
3.49240,587809
3.50052,557303
3.50865,543355
3.51677,514767
3.52490,487073
3.53302,470840
3.54113,450766
3.54927,449254
3.55738,419742
3.56550,401456
3.57363,403060
3.58175,405183
3.58988,372604
3.59800,366119
3.60612,358219
3.61425,353095
3.62237,354031
3.63050,345097
3.63862,326550
3.64673,325973
3.65487,317867
3.66298,305104
3.67112,308074
3.67923,303255
3.68735,309511
3.69548,300418
3.70360,296450
3.71172,279187
3.71985,272904
3.72797,274589
3.73610,272179
3.74422,273916
3.75233,264062
3.76047,264804
3.76858,256060
3.77672,253424
3.78483,258859
3.79295,254466
3.80108,249393
3.80920,243108
3.81732,245474
3.82545,236856
3.83357,234954
3.84170,233680
3.84982,240429
3.85793,228014
3.86607,217447
3.87418,222612
3.88232,213548
3.89043,213483
3.89855,209642
3.90668,205524
3.91480,211099
3.92293,208843
3.93105,206009
3.93917,200413
3.94730,197933
3.95542,202229
3.96353,195820
3.97167,196623
3.97978,194993
3.98792,193260
3.99603,189602
4.00415,196598
4.01228,200871
4.02040,197930
4.02853,196285
4.03665,201406
4.04477,192683
4.05290,188919
4.06102,185812
4.06915,185332
4.07727,184385
4.08538,182624
4.09352,192287
4.10163,175390
4.10975,180487
4.11788,186541
4.12600,184821
4.13413,169152
4.14225,189213
4.15037,193854
4.15850,196082
4.16662,186411
4.17475,185012
4.18287,171820
4.19098,167128
4.19912,163995
4.20723,163342
4.21535,165465
4.22348,179834
4.23160,194519
4.23973,205110
4.24785,200827
4.25597,190232
4.26410,183010
4.27222,173179
4.28035,170030
4.28847,167922
4.29658,164011
4.30472,171724
4.31283,162309
4.32097,168312
4.32908,170837
4.33720,175146
4.34533,158752
4.35345,167833
4.36157,173023
4.36970,165245
4.37782,157155
4.38595,156284
4.39407,161907
4.40218,153667
4.41032,158116
4.41843,152408
4.42657,145065
4.43468,147361
4.44280,141463
4.45093,147682
4.45905,145479
4.46718,144234
4.47530,143050
4.48342,149565
4.49155,141721
4.49967,140552
4.50778,136023
4.51592,140428
4.52403,140946
4.53217,137707
4.54028,135029
4.54840,135332
4.55653,132268
4.56465,138721
4.57278,136621
4.58090,133813
4.58902,134378
4.59715,130549
4.60527,133525
4.61338,130714
4.62152,131254
4.62963,128302
4.63777,132378
4.64588,126244
4.65400,130833
4.66213,130705
4.67025,133219
4.67838,126909
4.68650,132720
4.69462,134040
4.70275,133377
4.71087,135148
4.71900,127829
4.72712,117433
4.73523,129572
4.74337,124746
4.75148,123851
4.75960,126857
4.76773,132320
4.77585,124563
4.78398,122702
4.79210,125812
4.80022,121983
4.80835,126189
4.81647,128773
4.82460,124397
4.83272,125261
4.84083,126483
4.84897,125051
4.85708,118327
4.86520,119481
4.87333,118947
4.88145,123661
4.88958,121885
4.89770,120738
4.90582,121791
4.91395,121745
4.92207,121576
4.93020,134252
4.93832,226677
4.94643,516785
4.95457,1148846
4.96268,2006313
4.97082,2640676
4.97893,2685636
4.98705,2251306
4.99518,1772066
5.00330,1408754
5.01142,1122795
5.01955,954475
5.02767,820152
5.03580,738342
5.04392,651821
5.05203,591083
5.06017,562094
5.06828,523030
5.07642,493144
5.08453,477327
5.09265,457539
5.10078,420325
5.10890,399010
5.11703,400859
5.12515,382425
5.13327,370633
5.14140,354638
5.14952,343379
5.15763,338964
5.16577,328324
5.17388,320613
5.18202,312846
5.19013,300949
5.19825,304556
5.20638,282708
5.21450,282677
5.22263,286689
5.23075,283991
5.23887,282956
5.24700,286486
5.25512,277614
5.26325,274302
5.27137,250723
5.27948,247978
5.28762,242183
5.29573,235727
5.30385,231181
5.31198,223187
5.32010,221187
5.32823,230248
5.33635,218681
5.34447,220981
5.35260,214965
5.36072,207061
5.36885,213883
5.37697,204162
5.38508,201362
5.39322,204553
5.40133,199318
5.40945,197996
5.41758,198519
5.42570,196310
5.43383,198260
5.44195,191058
5.45007,189916
5.45820,181351
5.46632,186608
5.47445,183279
5.48257,190454
5.49068,182589
5.49882,182636
5.50693,184621
5.51507,177552
5.52318,173881
5.53130,175889
5.53943,175736
5.54755,168083
5.55567,174599
5.56380,180878
5.57192,176305
5.58005,168589
5.58817,170281
5.59628,167568
5.60442,164629
5.61253,162293
5.62067,172708
5.62878,174751
5.63690,176322
5.64503,169011
5.65315,175250
5.66127,167891
5.66940,172715
5.67752,192629
5.68565,193783
5.69377,224371
5.70188,221206
5.71002,205940
5.71813,187881
5.72627,178232
5.73438,164628
5.74250,158464
5.75063,152710
5.75875,153467
5.76688,155091
5.77500,151615
5.78312,146577
5.79125,151809
5.79937,157435
5.80748,150682
5.81562,144326
5.82373,147002
5.83187,147573
5.83998,141981
5.84810,141621
5.85623,145250
5.86435,145709
5.87248,143678
5.88060,147606
5.88872,139511
5.89685,136107
5.90497,134690
5.91310,125123
5.92122,111128
5.92933,106277
5.93747,102415
5.94558,105159
5.95370,103228
5.96183,107339
5.96995,107028
5.97808,118352
5.98620,125004
5.99432,121165
6.00245,113714
6.01057,110975
6.01870,106717
6.02682,104814
6.03493,105119
6.04307,105280
6.05118,104837
6.05930,100997
6.06743,103507
6.07555,101198
6.08368,103561
6.09180,100001
6.09992,99716
6.10805,97109
6.11617,98087
6.12430,109125
6.13242,99178
6.14053,102389
6.14867,101873
6.15678,103755
6.16492,108852
6.17303,109065
6.18115,107057
6.18928,118110
6.19740,116609
6.20552,113345
6.21365,114806
6.22177,116658
6.22990,122869
6.23802,116507
6.24613,124461
6.25427,125428
6.26238,120427
6.27052,123694
6.27863,123194
6.28675,129650
6.29488,129571
6.30300,131478
6.31113,130587
6.31925,135592
6.32737,131341
6.33550,135820
6.34362,138382
6.35173,137115
6.35987,139930
6.36798,147218
6.37612,138203
6.38423,136706
6.39235,143760
6.40048,145914
6.40860,147808
6.41673,152215
6.42485,148345
6.43297,155480
6.44110,148311
6.44922,157758
6.45733,160082
6.46547,163881
6.47358,160974
6.48172,162400
6.48983,161512
6.49795,168597
6.50608,167446
6.51420,168674
6.52233,161458
6.53045,163114
6.53857,161193
6.54670,172765
6.55482,160102
6.56295,145757
6.57107,124168
6.57918,123508
6.58732,115441
6.59543,117246
6.60355,111103
6.61168,111960
6.61980,101249
6.62793,110727
6.63605,102030
6.64417,107796
6.65230,110494
6.66042,102298
6.66855,108903
6.67667,105998
6.68478,109253
6.69292,102817
6.70103,97807
6.70915,97949
6.71728,105009
6.72540,94576
6.73353,93839
6.74165,96738
6.74977,94998
6.75790,96779
6.76602,91553
6.77415,91141
6.78227,90380
6.79038,87995
6.79852,92257
6.80663,92373
6.81477,83689
6.82288,88556
6.83100,85665
6.83913,86311
6.84725,88530
6.85537,80924
6.86350,80812
6.87162,78899
6.87975,74775
6.88787,70857
6.89598,66702
6.90412,66499
6.91223,68878
6.92037,63791
6.92848,58886
6.93660,59467
6.94473,60028
6.95285,59882
6.96098,61081
6.96910,57649
6.97722,57555
6.98535,58568
6.99347,55903
7.00158,57907
7.00972,58021
7.01783,58403
7.02597,54693
7.03408,56446
7.04220,57689
7.05033,57180
7.05845,55256
7.06658,55436
7.07470,50631
7.08282,52543
7.09095,55197
7.09907,52639
7.10718,56828
7.11532,52439
7.12343,51604
7.13157,54831
7.13968,56003
7.14780,55019
7.15593,59880
7.16405,52176
7.17218,56279
7.18030,55816
7.18842,57783
7.19655,58044
7.20467,57562
7.21280,56269
7.22092,55457
7.22903,60902
7.23717,57181
7.24528,53927
7.25340,53204
7.26153,54024
7.26965,49743
7.27778,52283
7.28590,50014
7.29402,51106
7.30215,55671
7.31027,50837
7.31840,49076
7.32652,50028
7.33463,53212
7.34277,51365
7.35088,49416
7.35902,52146
7.36713,54186
7.37525,55248
7.38338,53265
7.39150,51347
7.39962,46708
7.40775,58868
7.41587,55330
7.42400,54779
7.43212,61744
7.44023,56377
7.44837,61132
7.45648,57440
7.46462,57634
7.47273,54674
7.48085,51251
7.48898,54494
7.49710,52248
7.50522,50174
7.51335,50817
7.52147,53460
7.52960,54401
7.53772,51340
7.54583,55189
7.55397,57213
7.56208,47709
7.57022,54140
7.57833,51689
7.58645,52517
7.59458,49707
7.60270,47496
7.61083,48503
7.61895,49087
7.62707,51167
7.63520,54428
7.64332,46227
7.65143,54887
7.65957,49070
7.66768,54461
7.67582,55650
7.68393,51411
7.69205,50671
7.70018,49057
7.70830,46492
7.71643,46312
7.72455,45540
7.73267,47563
7.74080,49847
7.74892,50033
7.75705,47297
7.76517,47978
7.77328,47479
7.78142,47656
7.78953,49106
7.79765,48927
7.80578,48346
7.81390,49252
7.82203,45022
7.83015,51027
7.83827,50795
7.84640,47996
7.85452,47334
7.86265,45461
7.87077,46980
7.87888,49361
7.88702,46726
7.89513,44025
7.90325,45290
7.91138,49693
7.91950,45631
7.92763,43640
7.93575,47725
7.94387,45369
7.95200,46643
7.96012,48341
7.96825,54051
7.97637,50472
7.98448,50545
7.99262,50083
8.00073,46785
8.00887,46080
8.01698,42491
8.02510,44859
8.03323,44069
8.04135,45633
8.04947,46645
8.05760,46501
8.06572,44642
8.07385,42954
8.08197,43825
8.09008,48704
8.09822,49792
8.10633,50575
8.11447,46817
8.12258,49977
8.13070,48807
8.13883,53567
8.14695,45003
8.15507,49491
8.16320,50693
8.17132,51593
8.17945,54911
8.18757,54709
8.19568,57400
8.20382,55690
8.21193,55573
8.22007,49497
8.22818,49794
8.23630,49569
8.24443,51072
8.25255,47008
8.26068,43809
8.26880,53607
8.27692,49362
8.28505,48395
8.29317,48272
8.30128,50292
8.30942,51536
8.31753,51150
8.32567,55263
8.33378,60008
8.34190,57392
8.35003,59830
8.35815,53813
8.36628,53828
8.37440,54164
8.38252,52946
8.39065,50746
8.39877,55400
8.40690,54822
8.41502,50629
8.42313,54226
8.43127,49569
8.43938,52740
8.44750,49021
8.45563,51427
8.46375,46057
8.47188,49196
8.48000,49621
8.48812,54428
8.49625,53171
8.50437,50582
8.51250,61988
8.52062,59508
8.52873,70296
8.53687,62317
8.54498,57960
8.55310,57491
8.56123,57816
8.56935,55016
8.57748,59211
8.58560,60960
8.59372,51361
8.60185,51530
8.60997,53681
8.61810,52403
8.62622,51961
8.63433,54092
8.64247,53995
8.65058,52471
8.65872,53258
8.66683,51998
8.67495,48710
8.68308,50299
8.69120,63952
8.69932,313912
8.70745,691781
8.71557,594525
8.72370,242948
8.73182,144557
8.73993,108487
8.74807,101450
8.75618,94655
8.76432,97030
8.77243,124083
8.78055,215449
8.78868,378380
8.79680,549755
8.80493,658916
8.81305,688786
8.82117,590471
8.82930,494516
8.83742,424351
8.84553,380834
8.85367,329677
8.86178,305273
8.86992,270574
8.87803,249115
8.88615,235623
8.89428,212325
8.90240,202395
8.91053,191671
8.91865,185521
8.92677,174372
8.93490,167184
8.94302,167235
8.95113,157548
8.95927,150377
8.96738,160067
8.97552,150567
8.98363,146936
8.99175,147250
8.99988,136576
9.00800,137150
9.01613,138290
9.02425,128438
9.03237,128792
9.04050,125626
9.04862,121809
9.05675,124589
9.06487,119439
9.07298,113539
9.08112,115154
9.08923,133869
9.09735,320666
9.10548,1008825
9.11360,1282538
9.12173,823043
9.12985,560546
9.13797,445065
9.14610,360418
9.15422,310818
9.16235,277297
9.17047,245654
9.17858,230293
9.18672,212634
9.19483,206819
9.20295,189726
9.21108,185781
9.21920,173895
9.22733,165527
9.23545,165605
9.24357,157684
9.25170,150960
9.25982,146277
9.26795,144715
9.27607,146525
9.28418,140013
9.29232,135393
9.30043,136669
9.30857,134118
9.31668,131715
9.32480,132844
9.33293,131217
9.34105,131229
9.34917,123929
9.35730,114514
9.36542,120758
9.37355,115970
9.38167,110090
9.38978,113378
9.39792,110033
9.40603,105772
9.41417,108492
9.42228,100296
9.43040,108996
9.43853,97785
9.44665,101282
9.45478,103103
9.46290,102015
9.47102,112240
9.47915,103785
9.48727,103780
9.49538,108310
9.50352,105943
9.51163,104767
9.51977,108175
9.52788,109104
9.53600,105841
9.54413,101560
9.55225,100888
9.56038,97829
9.56850,89570
9.57662,111619
9.58475,228077
9.59287,418027
9.60098,418842
9.60912,314682
9.61723,236630
9.62537,203906
9.63348,171675
9.64160,162318
9.64973,144059
9.65785,142207
9.66598,124051
9.67410,122533
9.68222,116558
9.69035,111761
9.69847,103680
9.70660,103142
9.71472,97075
9.72283,95102
9.73097,98289
9.73908,101092
9.74720,93888
9.75533,85720
9.76345,89567
9.77158,84433
9.77970,81136
9.78782,81476
9.79595,80574
9.80407,79355
9.81220,83886
9.82032,79666
9.82843,81671
9.83657,83645
9.84468,87734
9.85282,89392
9.86093,91830
9.86905,85377
9.87718,86119
9.88530,80435
9.89342,81988
9.90155,75760
9.90967,76380
9.91780,70585
9.92592,70415
9.93403,69608
9.94217,68154
9.95028,74516
9.95842,70167
9.96653,72694
9.97465,72428
9.98278,73339
9.99090,73912
9.99902,76334
10.00715,87070
10.01527,85678
10.02340,90976
10.03152,93027
10.03963,98149
10.04777,94576
10.05588,96048
10.06402,89254
10.07213,92060
10.08025,95018
10.08838,103466
10.09650,97968
10.10463,84018
10.11275,77182
10.12087,78232
10.12900,77540
10.13712,74644
10.14523,74542
10.15337,72658
10.16148,78434
10.16962,74907
10.17773,68958
10.18585,69218
10.19398,69622
10.20210,65529
10.21023,64784
10.21835,66511
10.22647,71742
10.23460,75864
10.24272,78413
10.25083,84297
10.25897,83869
10.26708,87637
10.27522,86496
10.28333,97237
10.29145,110805
10.29958,116531
10.30770,129211
10.31583,145912
10.32395,153356
10.33207,154072
10.34020,133240
10.34832,121468
10.35645,107227
10.36457,103520
10.37268,103938
10.38082,101150
10.38893,95517
10.39705,93864
10.40518,93894
10.41330,88506
10.42143,89155
10.42955,86143
10.43767,89761
10.44580,81560
10.45392,85079
10.46205,80211
10.47017,73040
10.47828,79659
10.48642,82474
10.49453,74469
10.50267,75601
10.51078,81555
10.51890,80557
10.52703,77299
10.53515,78217
10.54327,73679
10.55140,76149
10.55952,75218
10.56765,73802
10.57577,71975
10.58388,74836
10.59202,76304
10.60013,75763
10.60827,74920
10.61638,74094
10.62450,75594
10.63263,73128
10.64075,73860
10.64888,70406
10.65700,66211
10.66512,70516
10.67325,73637
10.68137,70444
10.68948,70471
10.69762,67077
10.70573,71893
10.71387,72010
10.72198,71816
10.73010,69124
10.73823,69183
10.74635,69236
10.75448,70544
10.76260,67878
10.77072,69539
10.77885,71283
10.78697,66958
10.79508,68767
10.80322,70246
10.81133,64922
10.81947,68253
10.82758,63494
10.83570,64268
10.84383,65095
10.85195,69465
10.86008,62917
10.86820,60959
10.87632,63476
10.88445,57434
10.89257,65578
10.90070,61698
10.90882,64318
10.91693,63716
10.92507,66207
10.93318,67033
10.94130,58523
10.94943,61527
10.95755,61031
10.96568,63223
10.97380,61132
10.98192,67446
10.99005,61050
10.99817,62410
11.00630,62283
11.01442,63503
11.02253,62661
11.03067,66975
11.03878,57729
11.04690,56972
11.05503,56318
11.06315,56946
11.07128,58804
11.07940,60479
11.08752,57290
11.09565,59517
11.10377,56598
11.11190,55198
11.12002,58537
11.12813,53108
11.13627,67098
11.14438,86115
11.15252,117889
11.16063,120836
11.16875,117209
11.17688,106762
11.18500,95363
11.19312,100175
11.20125,106294
11.20937,114894
11.21750,101506
11.22562,101807
11.23373,94861
11.24187,89048
11.24998,77917
11.25812,78004
11.26623,72718
11.27435,65919
11.28248,67323
11.29060,62678
11.29873,64857
11.30685,65520
11.31497,60219
11.32310,69350
11.33122,58343
11.33933,72232
11.34747,62971
11.35558,61865
11.36372,60165
11.37183,62299
11.37995,58873
11.38808,62336
11.39620,61888
11.40433,57315
11.41245,64162
11.42057,59481
11.42870,58553
11.43682,63690
11.44493,55171
11.45307,50872
11.46118,58569
11.46932,61482
11.47743,57072
11.48555,59409
11.49368,55641
11.50180,56332
11.50993,56490
11.51805,60629
11.52617,61735
11.53430,55043
11.54242,58974
11.55055,56359
11.55867,57250
11.56678,58031
11.57492,55048
11.58303,60531
11.59115,58670
11.59928,59481
11.60740,66039
11.61553,57407
11.62365,56759
11.63177,55968
11.63990,55825
11.64802,65352
11.65615,55951
11.66427,59179
11.67238,56747
11.68052,54684
11.68863,53091
11.69677,57857
11.70488,55393
11.71300,56591
11.72113,54485
11.72925,57052
11.73737,61572
11.74550,62440
11.75362,56490
11.76175,70223
11.76987,66136
11.77798,58609
11.78612,61508
11.79423,60983
11.80237,57847
11.81048,54654
11.81860,55825
11.82673,57523
11.83485,58097
11.84297,57416
11.85110,58574
11.85922,57919
11.86735,54637
11.87547,55517
11.88358,54641
11.89172,54058
11.89983,55905
11.90797,51133
11.91608,56072
11.92420,54609
11.93233,53377
11.94045,49364
11.94858,50608
11.95670,54645
11.96482,58524
11.97295,50981
11.98107,62135
11.98918,56486
11.99732,51103
12.00543,56483
12.01357,59303
12.02168,52815
12.02980,55712
12.03793,54819
12.04605,54605
12.05418,56905
12.06230,58229
12.07042,61672
12.07855,55570
12.08667,54714
12.09478,56050
12.10292,55811
12.11103,56873
12.11917,51520
12.12728,55442
12.13540,56699
12.14353,55347
12.15165,54472
12.15978,57916
12.16790,57126
12.17602,56944
12.18415,54922
12.19227,57961
12.20040,56479
12.20852,55428
12.21663,59143
12.22477,59495
12.23288,59778
12.24100,60853
12.24913,55087
12.25725,58428
12.26538,53514
12.27350,55795
12.28162,55582
12.28975,55943
12.29787,50869
12.30600,54788
12.31412,55303
12.32223,55781
12.33037,53174
12.33848,53630
12.34662,57979
12.35473,53553
12.36285,56157
12.37098,57868
12.37910,57248
12.38722,58033
12.39535,51847
12.40347,52498
12.41160,58978
12.41972,56772
12.42783,60532
12.43597,61392
12.44408,59502
12.45222,58981
12.46033,59141
12.46845,58012
12.47658,55519
12.48470,52118
12.49282,56099
12.50095,53226
12.50907,54585
12.51720,54533
12.52532,53860
12.53343,55471
12.54157,56438
12.54968,56433
12.55782,54910
12.56593,52524
12.57405,51388
12.58218,52943
12.59030,57219
12.59843,49904
12.60655,56055
12.61467,52460
12.62280,56386
12.63092,54097
12.63903,56340
12.64717,56096
12.65528,57390
12.66342,56487
12.67153,61004
12.67965,52318
12.68778,53133
12.69590,54661
12.70403,53794
12.71215,54723
12.72027,59341
12.72840,63117
12.73652,66254
12.74465,68484
12.75277,71872
12.76088,73792
12.76902,69991
12.77713,65198
12.78525,60503
12.79338,60223
12.80150,55702
12.80963,58289
12.81775,53875
12.82587,57746
12.83400,60544
12.84212,58721
12.85025,59159
12.85837,58462
12.86648,53701
12.87462,55238
12.88273,52669
12.89085,59166
12.89898,51498
12.90710,51299
12.91523,49847
12.92335,51857
12.93147,49636
12.93960,49373
12.94772,50974
12.95585,48137
12.96397,46851
12.97208,50409
12.98022,50586
12.98833,51900
12.99647,51770
13.00458,47479
13.01270,50270
13.02083,53403
13.02895,56661
13.03707,47917
13.04520,51281
13.05332,51297
13.06145,47249
13.06957,50756
13.07768,50857
13.08582,53524
13.09393,53412
13.10207,50950
13.11018,50399
13.11830,49573
13.12643,51924
13.13455,50348
13.14268,50237
13.15080,50904
13.15892,52694
13.16705,52150
13.17517,59255
13.18328,56727
13.19142,47115
13.19953,54562
13.20767,56269
13.21578,58244
13.22390,57812
13.23203,62638
13.24015,58856
13.24828,56747
13.25640,54155
13.26452,48853
13.27265,53254
13.28077,56419
13.28888,51111
13.29702,50364
13.30513,52565
13.31327,58362
13.32138,51820
13.32950,47498
13.33763,51027
13.34575,51125
13.35388,48968
13.36200,52268
13.37012,47438
13.37825,49384
13.38637,44810
13.39450,48156
13.40262,48210
13.41073,48228
13.41887,55197
13.42698,48381
13.43510,50842
13.44323,48037
13.45135,48406
13.45948,48628
13.46760,51480
13.47572,57549
13.48385,47502
13.49197,47335
13.50010,49996
13.50822,46255
13.51633,50957
13.52447,50254
13.53258,48446
13.54070,47167
13.54883,44507
13.55695,48594
13.56508,51713
13.57320,47651
13.58132,51237
13.58945,49950
13.59757,46363
13.60570,48836
13.61382,45035
13.62193,51011
13.63007,51962
13.63818,47182
13.64632,45767
13.65443,50832
13.66255,49555
13.67068,47549
13.67880,49671
13.68692,52819
13.69505,48411
13.70317,47507
13.71130,48030
13.71942,50719
13.72753,47305
13.73567,48737
13.74378,46040
13.75192,48883
13.76003,49211
13.76815,47769
13.77628,49962
13.78440,49127
13.79253,55479
13.80065,49895
13.80877,51975
13.81690,53036
13.82502,51955
13.83313,53968
13.84127,48806
13.84938,48293
13.85752,44944
13.86563,47956
13.87375,55581
13.88188,53107
13.89000,50639
13.89813,48257
13.90625,49982
13.91437,52061
13.92250,49455
13.93062,58240
13.93873,53409
13.94687,52651
13.95498,57146
13.96312,55531
13.97123,55141
13.97935,55165
13.98748,50829
13.99560,53830
14.00373,48233
14.01185,63583
14.01997,51164
14.02810,48713
14.03622,52822
14.04435,51700
14.05247,49692
14.06058,54696
14.06872,57830
14.07683,57205
14.08495,56346
14.09308,57901
14.10120,58752
14.10933,55925
14.11745,58883
14.12557,51742
14.13370,52085
14.14182,51994
14.14995,51948
14.15807,56607
14.16618,51867
14.17432,52206
14.18243,60691
14.19057,75556
14.19868,103986
14.20680,152498
14.21493,212269
14.22305,248749
14.23117,257780
14.23930,243805
14.24742,216638
14.25555,194785
14.26367,172835
14.27178,150376
14.27992,137875
14.28803,127875
14.29617,131853
14.30428,109134
14.31240,101539
14.32053,99674
14.32865,94756
14.33677,90299
14.34490,85313
14.35302,86787
14.36115,82577
14.36927,72523
14.37738,70515
14.38552,61625
14.39363,60689
14.40177,61576
14.40988,56493
14.41800,52751
14.42613,54259
14.43425,60022
14.44238,61852
14.45050,60491
14.45862,56480
14.46675,53681
14.47487,53070
14.48298,52490
14.49112,53126
14.49923,51171
14.50737,55597
14.51548,53818
14.52360,54212
14.53173,50211
14.53985,58725
14.54798,52795
14.55610,54267
14.56422,54067
14.57235,53816
14.58047,54046
14.58858,52501
14.59672,50343
14.60483,52834
14.61297,50480
14.62108,48633
14.62920,48993
14.63733,46732
14.64545,49953
14.65358,50913
14.66170,52783
14.66982,53455
14.67795,47706
14.68607,53763
14.69420,46161
14.70232,49558
14.71043,50816
14.71857,50196
14.72668,47774
14.73480,47878
14.74293,48401
14.75105,47620
14.75918,48237
14.76730,48095
14.77542,54449
14.78355,45038
14.79167,49438
14.79980,52255
14.80792,46216
14.81603,56380
14.82417,63794
14.83228,72372
14.84042,80426
14.84853,88719
14.85665,87448
14.86478,84286
14.87290,84250
14.88102,82566
14.88915,83037
14.89727,81220
14.90540,75434
14.91352,77114
14.92163,79882
14.92977,76373
14.93788,72229
14.94602,72969
14.95413,71002
14.96225,68519
14.97038,66562
14.97850,63558
14.98662,67766
14.99475,59246
15.00287,66707
15.01100,62524
15.01912,62374
15.02723,62225
15.03537,58317
15.04348,63046
15.05162,62938
15.05973,62972
15.06785,58796
15.07598,59598
15.08410,55759
15.09223,55892
15.10035,57514
15.10847,60226
15.11660,57161
15.12472,58611
15.13283,52596
15.14097,52970
15.14908,53615
15.15722,52839
15.16533,50942
15.17345,50401
15.18158,45266
15.18970,48380
15.19783,50377
15.20595,48131
15.21407,46510
15.22220,47645
15.23032,54303
15.23845,233616
15.24657,607082
15.25468,527810
15.26282,224863
15.27093,124557
15.27905,104494
15.28718,91193
15.29530,90169
15.30343,92592
15.31155,77339
15.31967,75347
15.32780,67999
15.33592,67105
15.34405,68186
15.35217,69361
15.36028,64132
15.36842,58695
15.37653,61893
15.38465,56613
15.39278,55208
15.40090,55825
15.40903,60504
15.41715,126311
15.42527,574325
15.43340,953660
15.44152,573674
15.44965,380973
15.45777,294455
15.46588,249606
15.47402,225182
15.48213,191971
15.49027,167936
15.49838,162554
15.50650,162431
15.51463,137720
15.52275,131164
15.53087,123333
15.53900,116781
15.54712,123437
15.55525,115120
15.56337,172365
15.57148,357620
15.57962,368609
15.58773,265962
15.59587,207018
15.60398,183633
15.61210,170274
15.62023,158517
15.62835,146351
15.63647,144211
15.64460,138697
15.65272,126116
15.66085,121555
15.66897,114430
15.67708,113150
15.68522,106653
15.69333,101051
15.70147,101371
15.70958,106597
15.71770,97782
15.72583,99215
15.73395,87757
15.74208,92411
15.75020,90258
15.75832,92624
15.76645,93298
15.77457,94299
15.78268,92225
15.79082,90001
15.79893,91624
15.80707,95046
15.81518,90425
15.82330,102166
15.83143,100232
15.83955,95929
15.84768,88853
15.85580,90038
15.86392,90556
15.87205,83980
15.88017,83424
15.88830,91741
15.89642,113266
15.90453,125937
15.91267,133831
15.92078,125115
15.92890,110158
15.93703,108089
15.94515,101130
15.95328,97234
15.96140,99608
15.96952,94954
15.97765,95797
15.98577,97196
15.99390,91320
16.00202,100084
16.01013,110360
16.01827,126009
16.02638,160744
16.03452,195866
16.04263,213656
16.05075,181766
16.05888,156412
16.06700,142221
16.07512,123324
16.08325,108387
16.09137,107608
16.09950,102435
16.10762,100981
16.11573,94536
16.12387,97963
16.13198,93637
16.14012,87208
16.14823,91871
16.15635,88461
16.16448,83433
16.17260,81953
16.18072,85083
16.18885,82375
16.19697,81068
16.20510,89066
16.21322,84787
16.22133,81893
16.22947,79615
16.23758,79248
16.24572,82558
16.25383,78159
16.26195,79861
16.27008,78159
16.27820,73718
16.28633,77054
16.29445,82526
16.30257,79995
16.31070,74030
16.31882,77782
16.32693,78108
16.33507,80526
16.34318,79108
16.35132,78804
16.35943,74155
16.36755,70499
16.37568,72192
16.38380,72571
16.39193,76179
16.40005,72812
16.40817,70173
16.41630,70793
16.42442,69738
16.43253,68768
16.44067,71529
16.44878,72613
16.45692,69838
16.46503,71870
16.47315,74926
16.48128,73545
16.48940,78486
16.49753,72096
16.50565,73494
16.51377,72570
16.52190,74557
16.53002,80977
16.53815,73106
16.54627,72604
16.55438,71547
16.56252,71845
16.57063,66220
16.57875,73640
16.58688,67811
16.59500,71026
16.60313,68727
16.61125,73936
16.61937,73551
16.62750,69522
16.63562,68173
16.64375,69357
16.65187,67907
16.65998,66478
16.66812,68012
16.67623,72843
16.68437,71677
16.69248,62921
16.70060,66156
16.70873,64180
16.71685,63520
16.72497,65541
16.73310,67268
16.74122,64393
16.74935,64456
16.75747,64216
16.76558,63157
16.77372,63981
16.78183,64519
16.78997,63313
16.79808,60303
16.80620,56955
16.81433,56684
16.82245,60521
16.83057,68006
16.83870,68862
16.84682,58886
16.85495,61082
16.86307,64002
16.87118,59322
16.87932,60917
16.88743,56552
16.89557,59615
16.90368,60351
16.91180,60093
16.91993,60819
16.92805,61827
16.93618,59272
16.94430,66138
16.95242,67328
16.96055,66159
16.96867,66040
16.97678,68559
16.98492,62230
16.99303,62644
17.00117,59177
17.00928,63137
17.01740,60120
17.02553,61158
17.03365,57275
17.04178,58653
17.04990,58073
17.05802,61383
17.06615,58528
17.07427,58910
17.08240,61809
17.09052,58913
17.09863,57347
17.10677,57694
17.11488,56912
17.12300,60288
17.13113,55299
17.13925,60683
17.14738,53986
17.15550,62306
17.16362,52665
17.17175,55717
17.17987,56010
17.18800,56049
17.19612,54885
17.20423,56977
17.21237,55425
17.22048,57047
17.22860,59751
17.23673,57272
17.24485,59742
17.25298,60098
17.26110,57513
17.26922,56822
17.27735,56578
17.28547,57380
17.29360,54422
17.30172,54005
17.30983,57377
17.31797,58437
17.32608,57012
17.33422,59751
17.34233,55831
17.35045,58845
17.35858,59981
17.36670,66401
17.37482,69334
17.38295,75564
17.39107,70640
17.39920,68581
17.40732,61143
17.41543,62058
17.42357,67865
17.43168,66450
17.43982,55973
17.44793,61079
17.45605,59713
17.46418,57284
17.47230,58876
17.48042,60266
17.48855,70214
17.49667,67676
17.50480,61484
17.51292,64565
17.52103,66422
17.52917,61396
17.53728,62565
17.54542,67061
17.55353,62380
17.56165,55921
17.56978,62549
17.57790,62456
17.58603,57883
17.59415,68308
17.60227,57718
17.61040,56142
17.61852,55442
17.62663,60437
17.63477,58522
17.64288,57723
17.65102,60068
17.65913,58084
17.66725,62099
17.67538,60665
17.68350,64980
17.69163,65432
17.69975,66852
17.70787,65726
17.71600,69567
17.72412,64912
17.73225,67017
17.74037,70215
17.74848,65321
17.75662,65272
17.76473,62238
17.77285,64647
17.78098,64397
17.78910,61264
17.79723,58630
17.80535,57040
17.81347,62891
17.82160,63205
17.82972,63621
17.83785,68715
17.84597,72032
17.85408,73088
17.86222,72619
17.87033,71342
17.87845,65893
17.88658,76505
17.89470,64439
17.90283,58197
17.91095,55837
17.91907,59148
17.92720,71260
17.93532,57545
17.94345,56853
17.95157,56982
17.95968,63009
17.96782,57022
17.97593,56257
17.98407,59132
17.99218,54698
18.00030,55092
18.00843,57286
18.01655,52301
18.02467,53953
18.03280,53498
18.04092,55960
18.04905,52384
18.05717,54381
18.06528,57658
18.07342,63705
18.08153,59945
18.08967,68181
18.09778,70870
18.10590,77967
18.11403,76316
18.12215,82029
18.13028,76935
18.13840,77791
18.14652,74690
18.15465,76777
18.16277,76608
18.17088,73344
18.17902,69838
18.18713,72572
18.19527,70556
18.20338,66498
18.21150,65801
18.21963,66502
18.22775,65680
18.23588,69838
18.24400,63670
18.25212,73567
18.26025,74373
18.26837,78056
18.27648,76829
18.28462,78004
18.29273,70701
18.30087,67382
18.30898,64239
18.31710,61451
18.32523,59343
18.33335,60629
18.34148,53846
18.34960,56822
18.35772,56281
18.36585,60091
18.37397,59069
18.38210,56527
18.39022,60334
18.39833,57512
18.40647,57593
18.41458,55954
18.42270,57091
18.43083,54365
18.43895,51309
18.44708,63061
18.45520,55480
18.46332,56236
18.47145,54108
18.47957,51135
18.48770,54778
18.49582,52747
18.50393,49788
18.51207,50655
18.52018,53860
18.52830,54801
18.53643,49251
18.54455,51143
18.55268,61813
18.56080,54247
18.56892,55754
18.57705,52893
18.58517,59449
18.59330,59990
18.60142,53173
18.60953,52731
18.61767,54032
18.62578,54344
18.63392,52194
18.64203,55042
18.65015,57819
18.65828,52463
18.66640,51402
18.67452,54373
18.68265,52583
18.69077,49696
18.69890,55484
18.70702,50706
18.71513,52819
18.72327,51670
18.73138,49643
18.73952,51865
18.74763,49206
18.75575,48797
18.76388,52692
18.77200,59305
18.78013,49845
18.78825,46241
18.79637,49894
18.80450,52180
18.81262,52573
18.82073,46932
18.82887,49856
18.83698,46232
18.84512,48692
18.85323,49097
18.86135,53407
18.86948,52840
18.87760,53384
18.88573,51030
18.89385,52736
18.90197,55816
18.91010,48281
18.91822,52237
18.92633,48434
18.93447,52027
18.94258,49117
18.95072,53792
18.95883,51034
18.96695,54242
18.97508,53367
18.98320,50396
18.99133,50981
18.99945,50105
19.00757,52883
19.01570,51037
19.02382,46190
19.03195,48393
19.04007,52048
19.04818,49279
19.05632,52274
19.06443,48040
19.07255,51114
19.08068,49390
19.08880,53583
19.09693,55932
19.10505,62985
19.11317,68682
19.12130,69780
19.12942,68460
19.13755,70989
19.14567,64718
19.15378,64229
19.16192,66005
19.17003,64155
19.17817,59829
19.18628,59090
19.19440,61377
19.20253,63334
19.21065,66004
19.21877,59499
19.22690,54971
19.23502,57234
19.24315,57275
19.25127,58887
19.25938,58727
19.26752,74068
19.27563,78536
19.28377,108745
19.29188,129427
19.30000,144380
19.30813,156385
19.31625,154418
19.32437,142154
19.33250,111623
19.34062,95830
19.34875,87237
19.35687,86417
19.36498,79006
19.37312,75511
19.38123,67358
19.38937,71451
19.39748,69234
19.40560,67736
19.41373,65374
19.42185,68409
19.42998,66553
19.43810,66905
19.44622,64678
19.45435,65580
19.46247,65228
19.47058,64480
19.47872,61849
19.48683,67546
19.49497,81532
19.50308,90440
19.51120,118654
19.51933,148841
19.52745,175817
19.53558,171075
19.54370,151294
19.55182,126561
19.55995,100166
19.56807,79325
19.57620,71611
19.58432,67048
19.59243,61725
19.60057,61337
19.60868,61238
19.61680,59397
19.62493,60882
19.63305,72632
19.64118,96283
19.64930,146099
19.65742,213298
19.66555,301033
19.67367,402355
19.68180,459519
19.68992,466382
19.69803,420306
19.70617,326772
19.71428,251913
19.72240,190587
19.73053,151934
19.73865,135696
19.74678,115578
19.75490,100351
19.76302,90052
19.77115,83281
19.77927,81841
19.78740,85203
19.79552,76545
19.80363,83807
19.81177,70869
19.81988,73706
19.82802,67875
19.83613,67741
19.84425,67018
19.85238,67629
19.86050,67950
19.86862,74236
19.87675,93774
19.88487,123101
19.89300,184234
19.90112,272084
19.90923,390672
19.91737,495011
19.92548,600802
19.93362,642695
19.94173,682747
19.94985,684465
19.95798,663897
19.96610,659109
19.97422,633541
19.98235,626957
19.99047,604614
19.99860,560668
20.00672,527358
20.01483,499763
20.02297,492830
20.03108,468214
20.03922,439235
20.04733,403411
20.05545,337252
20.06358,293285
20.07170,244334
20.07983,208269
20.08795,178801
20.09607,173061
20.10420,157199
20.11232,158121
20.12043,153667
20.12857,146128
20.13668,134540
20.14482,149258
20.15293,137104
20.16105,141513
20.16918,132684
20.17730,136234
20.18543,131547
20.19355,133491
20.20167,133790
20.20980,130450
20.21792,128273
20.22605,124675
20.23417,128365
20.24228,132492
20.25042,147219
20.25853,183076
20.26665,254264
20.27478,337305
20.28290,452562
20.29103,515979
20.29915,572624
20.30727,529118
20.31540,438050
20.32352,362340
20.33165,275577
20.33977,223505
20.34788,185791
20.35602,154782
20.36413,147911
20.37225,138244
20.38038,131465
20.38850,121522
20.39663,126593
20.40475,134246
20.41287,151949
20.42100,167989
20.42912,196724
20.43725,215776
20.44537,243804
20.45348,263115
20.46162,274457
20.46973,286818
20.47787,270529
20.48598,265103
20.49410,231692
20.50223,202610
20.51035,186678
20.51847,180309
20.52660,168347
20.53472,158420
20.54285,158115
20.55097,159106
20.55908,151219
20.56722,154810
20.57533,144997
20.58347,138360
20.59158,143686
20.59970,141595
20.60783,137777
20.61595,144644
20.62408,139552
20.63220,141343
20.64032,138849
20.64845,140375
20.65657,140962
20.66468,131246
20.67282,134773
20.68093,127749
20.68907,125622
20.69718,132970
20.70530,121434
20.71343,123945
20.72155,121297
20.72968,125706
20.73780,122217
20.74592,127269
20.75405,120163
20.76217,121813
20.77028,115749
20.77842,119327
20.78653,112554
20.79467,112528
20.80278,110917
20.81090,112055
20.81903,113128
20.82715,119351
20.83528,115722
20.84340,116594
20.85152,116693
20.85965,110682
20.86777,112175
20.87590,111660
20.88402,113139
20.89213,103583
20.90027,108689
20.90838,103521
20.91650,113870
20.92463,102652
20.93275,99985
20.94088,101173
20.94900,96919
20.95712,98220
20.96525,104840
20.97337,105050
20.98150,101796
20.98962,106371
20.99773,101165
21.00587,99118
21.01398,107924
21.02210,96586
21.03023,96599
21.03835,99617
21.04648,94471
21.05460,102037
21.06272,91905
21.07085,98630
21.07897,100736
21.08710,96871
21.09522,94730
21.10333,95702
21.11147,91997
21.11958,94526
21.12772,90190
21.13583,96217
21.14395,86638
21.15208,88172
21.16020,92990
21.16832,98388
21.17645,92741
21.18457,94358
21.19270,96373
21.20082,108841
21.20893,114522
21.21707,123637
21.22518,130491
21.23332,125403
21.24143,115327
21.24955,109537
21.25768,109662
21.26580,105493
21.27393,110597
21.28205,101062
21.29017,97913
21.29830,95391
21.30642,91044
21.31453,94295
21.32267,90633
21.33078,96074
21.33892,92809
21.34703,93759
21.35515,85143
21.36328,94075
21.37140,83787
21.37953,88101
21.38765,87357
21.39577,82889
21.40390,88473
21.41202,87507
21.42015,85962
21.42827,85897
21.43638,90996
21.44452,93477
21.45263,93647
21.46075,91978
21.46888,95346
21.47700,97757
21.48513,100319
21.49325,105455
21.50137,101448
21.50950,92963
21.51762,84744
21.52575,84681
21.53387,80242
21.54198,81583
21.55012,81558
21.55823,78133
21.56635,83595
21.57448,81291
21.58260,71831
21.59073,76518
21.59885,77577
21.60697,80763
21.61510,84719
21.62322,98797
21.63135,113450
21.63947,135821
21.64758,155562
21.65572,170736
21.66383,170565
21.67197,160667
21.68008,141296
21.68820,118384
21.69633,101085
21.70445,91020
21.71257,90608
21.72070,88329
21.72882,84696
21.73695,88826
21.74507,89790
21.75318,90491
21.76132,87934
21.76943,89186
21.77757,86396
21.78568,83411
21.79380,81076
21.80193,83569
21.81005,81482
21.81817,93418
21.82630,92861
21.83442,112804
21.84255,120448
21.85067,145912
21.85878,141159
21.86692,125500
21.87503,111802
21.88317,91775
21.89128,75689
21.89940,71417
21.90753,64947
21.91565,64053
21.92378,60717
21.93190,63373
21.94002,67685
21.94815,67679
21.95627,68587
21.96438,70968
21.97252,59289
21.98063,62652
21.98877,62954
21.99688,70108
22.00500,64646
22.01313,65468
22.02125,64429
22.02938,64642
22.03750,62789
22.04562,59487
22.05375,63875
22.06187,59199
22.07000,64978
22.07812,61351
22.08623,65731
22.09437,60126
22.10248,66217
22.11060,64679
22.11873,64450
22.12685,59860
22.13498,54766
22.14310,62368
22.15122,64636
22.15935,60987
22.16747,67224
22.17560,64245
22.18372,68325
22.19183,62669
22.19997,62443
22.20808,61130
22.21620,64238
22.22433,73417
22.23245,69618
22.24058,77164
22.24870,77587
22.25682,75182
22.26495,69921
22.27307,66870
22.28120,68101
22.28932,67808
22.29743,58027
22.30557,61743
22.31368,67394
22.32182,68925
22.32993,66393
22.33805,71306
22.34618,73892
22.35430,71388
22.36242,72458
22.37055,70702
22.37867,71782
22.38680,75160
22.39492,71568
22.40303,72107
22.41117,74083
22.41928,71397
22.42742,77126
22.43553,66659
22.44365,69311
22.45178,69670
22.45990,70371
22.46803,72571
22.47615,70397
22.48427,67111
22.49240,66332
22.50052,65807
22.50863,62057
22.51677,61843
22.52488,56785
22.53302,59190
22.54113,54528
22.54925,57969
22.55738,60687
22.56550,59262
22.57363,59386
22.58175,61258
22.58987,60217
22.59800,62914
22.60612,61876
22.61423,56652
22.62237,56591
22.63048,53857
22.63862,52237
22.64673,54063
22.65485,54355
22.66298,58164
22.67110,54968
22.67923,56807
22.68735,55729
22.69547,53075
22.70360,53890
22.71172,55681
22.71985,58155
22.72797,56679
22.73608,55104
22.74422,58491
22.75233,57091
22.76045,52496
22.76858,52544
22.77670,48694
22.78483,46498
22.79295,55451
22.80107,54684
22.80920,49858
22.81732,48223
22.82545,58625
22.83357,51642
22.84168,53885
22.84982,53840
22.85793,60303
22.86605,61341
22.87418,57547
22.88230,57818
22.89043,63972
22.89855,58266
22.90667,63008
22.91480,71347
22.92292,86152
22.93105,85773
22.93917,107902
22.94728,113972
22.95542,119469
22.96353,120299
22.97167,109745
22.97978,104386
22.98790,110020
22.99603,100363
23.00415,92054
23.01227,87290
23.02040,77363
23.02852,70030
23.03665,72510
23.04477,60328
23.05288,59394
23.06102,58484
23.06913,57392
23.07727,66354
23.08538,56660
23.09350,56197
23.10163,56194
23.10975,57891
23.11788,55636
23.12600,54150
23.13412,53985
23.14225,55977
23.15037,52499
23.15848,52867
23.16662,51120
23.17473,53072
23.18287,56404
23.19098,55101
23.19910,52773
23.20723,51616
23.21535,53483
23.22348,54121
23.23160,55137
23.23972,55958
23.24785,54558
23.25597,53365
23.26408,54832
23.27222,55491
23.28033,56154
23.28847,54346
23.29658,56790
23.30470,50078
23.31283,56068
23.32095,55673
23.32908,54867
23.33720,53495
23.34532,48393
23.35345,52258
23.36157,49767
23.36970,52053
23.37782,50488
23.38593,52142
23.39407,48262
23.40218,55381
23.41030,51833
23.41843,51018
23.42655,50476
23.43468,59174
23.44280,55171
23.45092,50323
23.45905,53436
23.46717,52132
23.47530,48734
23.48342,48235
23.49153,49884
23.49967,47353
23.50778,48656
23.51592,46359
23.52403,47757
23.53215,50377
23.54028,50981
23.54840,46400
23.55652,55143
23.56465,52636
23.57277,54216
23.58090,52717
23.58902,49691
23.59713,53362
23.60527,55205
23.61338,51128
23.62152,52426
23.62963,56650
23.63775,55713
23.64588,57750
23.65400,61418
23.66212,68681
23.67025,77524
23.67837,88836
23.68650,93234
23.69462,96808
23.70273,104941
23.71087,92862
23.71898,93853
23.72712,85837
23.73523,88177
23.74335,95451
23.75148,169093
23.75960,401186
23.76773,994273
23.77585,2169156
23.78397,3744055
23.79210,5010394
23.80022,5608558
23.80833,5284348
23.81647,4265959
23.82458,3165198
23.83272,2267548
23.84083,1639356
23.84895,1140686
23.85708,851231
23.86520,676304
23.87333,577288
23.88145,587918
23.88957,635100
23.89770,774541
23.90582,954642
23.91393,1071779
23.92207,1037797
23.93018,936461
23.93832,814517
23.94643,657945
23.95455,545704
23.96268,443562
23.97080,402075
23.97893,332547
23.98705,282952
23.99517,255924
24.00330,250699
24.01142,237600
24.01955,219741
24.02767,200795
24.03578,207057
24.04392,193510
24.05203,182352
24.06015,173033
24.06828,178478
24.07640,160720
24.08453,165695
24.09265,159102
24.10077,151240
24.10890,141174
24.11702,150085
24.12515,140007
24.13327,150404
24.14138,147531
24.14952,150080
24.15763,159661
24.16577,155005
24.17388,148034
24.18200,136463
24.19013,134510
24.19825,127106
24.20637,128337
24.21450,129500
24.22262,139742
24.23075,142782
24.23887,139658
24.24698,139133
24.25512,133465
24.26323,126922
24.27137,119413
24.27948,112798
24.28760,112440
24.29573,111082
24.30385,111124
24.31197,108316
24.32010,102626
24.32822,99150
24.33635,96874
24.34447,96716
24.35258,94883
24.36072,89789
24.36883,91640
24.37697,96785
24.38508,97116
24.39320,108113
24.40133,116518
24.40945,139815
24.41758,147926
24.42570,142184
24.43382,137605
24.44195,123320
24.45007,107683
24.45818,99156
24.46632,97869
24.47443,111284
24.48257,157853
24.49068,246134
24.49880,410536
24.50693,603267
24.51505,763495
24.52318,824623
24.53130,794221
24.53942,676431
24.54755,548010
24.55567,416026
24.56380,342787
24.57192,282912
24.58003,230731
24.58817,195246
24.59628,173143
24.60440,162746
24.61253,156514
24.62065,144962
24.62878,145202
24.63690,132987
24.64502,138019
24.65315,130065
24.66127,127671
24.66940,125213
24.67752,125233
24.68563,125304
24.69377,115415
24.70188,114886
24.71000,104640
24.71813,96975
24.72625,96904
24.73438,91102
24.74250,97939
24.75062,89909
24.75875,88476
24.76687,84491
24.77500,88338
24.78312,83149
24.79123,82534
24.79937,86702
24.80748,84677
24.81562,82789
24.82373,78781
24.83185,82038
24.83998,80579
24.84810,83374
24.85622,73722
24.86435,80705
24.87247,84089
24.88060,81887
24.88872,80058
24.89683,82501
24.90497,84492
24.91308,78959
24.92122,80172
24.92933,78261
24.93745,74361
24.94558,73472
24.95370,74726
24.96183,77386
24.96995,71005
24.97807,72496
24.98620,70015
24.99432,70017
25.00243,67237
25.01057,63383
25.01868,62666
25.02682,66754
25.03493,59504
25.04305,60980
25.05118,58507
25.05930,59487
25.06743,65870
25.07555,62626
25.08367,63486
25.09180,65637
25.09992,63390
25.10803,63873
25.11617,71958
25.12428,72309
25.13242,83285
25.14053,95985
25.14865,105535
25.15678,128081
25.16490,136738
25.17303,143758
25.18115,127656
25.18927,114495
25.19740,110656
25.20552,94092
25.21365,87744
25.22177,85058
25.22988,70481
25.23802,75126
25.24613,69993
25.25425,70046
25.26238,65890
25.27050,71521
25.27863,72043
25.28675,71991
25.29487,70369
25.30300,76950
25.31112,80133
25.31925,77375
25.32737,81131
25.33548,82872
25.34362,79095
25.35173,82874
25.35985,69992
25.36798,65395
25.37610,66016
25.38423,62191
25.39235,64642
25.40047,61918
25.40860,61974
25.41672,63400
25.42485,58349
25.43297,59118
25.44108,59800
25.44922,60489
25.45733,53414
25.46547,65886
25.47358,64354
25.48170,70807
25.48983,73256
25.49795,76526
25.50607,78159
25.51420,72131
25.52232,73929
25.53045,71497
25.53857,66302
25.54668,64399
25.55482,59767
25.56293,56364
25.57107,62277
25.57918,61259
25.58730,58653
25.59543,57239
25.60355,56458
25.61168,60415
25.61980,59701
25.62792,58123
25.63605,62939
25.64417,57971
25.65228,59958
25.66042,62073
25.66853,62971
25.67667,63445
25.68478,63688
25.69290,62554
25.70103,64446
25.70915,61783
25.71728,58830
25.72540,66073
25.73352,63853
25.74165,62383
25.74977,61628
25.75788,63548
25.76602,61670
25.77413,62288
25.78227,66723
25.79038,64626
25.79850,60897
25.80663,66915
25.81475,59341
25.82288,63594
25.83100,69776
25.83912,68384
25.84725,68537
25.85537,64754
25.86350,63042
25.87162,62448
25.87973,59581
25.88787,58220
25.89598,64201
25.90410,64066
25.91223,68308
25.92035,63136
25.92848,59956
25.93660,65405
25.94472,57026
25.95285,62924
25.96097,63554
25.96910,63924
25.97722,63459
25.98533,60470
25.99347,65101
26.00158,59845
26.00972,62993
26.01783,58101
26.02595,60685
26.03408,64602
26.04220,59577
26.05032,58265
26.05845,62753
26.06657,64960
26.07470,64747
26.08282,60994
26.09093,67200
26.09907,62467
26.10718,61012
26.11532,68666
26.12343,66783
26.13155,70049
26.13968,72643
26.14780,79654
26.15592,75196
26.16405,82035
26.17217,80960
26.18030,75141
26.18842,71941
26.19653,68449
26.20467,68536
26.21278,60858
26.22092,62955
26.22903,60775
26.23715,57996
26.24528,58078
26.25340,59697
26.26153,56900
26.26965,55162
26.27777,59181
26.28590,57331
26.29402,64018
26.30213,59946
26.31027,61691
26.31838,53503
26.32652,56601
26.33463,53773
26.34275,53118
26.35088,51283
26.35900,57488
26.36713,54426
26.37525,54995
26.38337,60224
26.39150,62259
26.39962,56084
26.40773,65709
26.41587,62965
26.42398,63218
26.43212,65478
26.44023,64108
26.44835,61473
26.45648,57550
26.46460,54364
26.47273,54203
26.48085,53392
26.48897,51815
26.49710,53886
26.50522,51434
26.51335,56797
26.52147,51192
26.52958,48867
26.53772,55560
26.54583,50651
26.55395,46017
26.56208,52244
26.57020,49997
26.57833,53856
26.58645,50961
26.59457,47426
26.60270,47030
26.61082,50840
26.61895,50861
26.62707,48720
26.63518,49050
26.64332,50134
26.65143,53475
26.65957,56611
26.66768,57995
26.67580,57769
26.68393,56262
26.69205,55809
26.70017,62406
26.70830,58401
26.71642,56855
26.72455,53825
26.73267,54105
26.74078,54288
26.74892,62049
26.75703,54774
26.76517,60877
26.77328,57562
26.78140,59705
26.78953,62450
26.79765,57973
26.80578,62771
26.81390,64583
26.82202,55517
26.83015,59082
26.83827,61630
26.84638,61023
26.85452,54627
26.86263,61980
26.87077,65381
26.87888,63886
26.88700,64090
26.89513,63713
26.90325,67676
26.91138,64746
26.91950,64702
26.92762,61937
26.93575,62307
26.94387,65707
26.95198,70357
26.96012,81454
26.96823,110223
26.97637,174829
26.98448,330433
26.99260,679240
27.00073,1291714
27.00885,2225008
27.01698,3304705
27.02510,4089605
27.03322,4326652
27.04135,4082741
27.04947,3362241
27.05760,2664656
27.06572,2143055
27.07383,1718941
27.08197,1357202
27.09008,1065705
27.09820,830483
27.10633,673946
27.11445,551891
27.12258,453637
27.13070,414004
27.13882,356640
27.14695,312671
27.15507,294029
27.16320,274187
27.17132,249383
27.17943,231389
27.18757,223723
27.19568,217041
27.20380,197747
27.21193,189904
27.22005,187190
27.22818,174204
27.23630,166445
27.24442,155437
27.25255,157335
27.26067,165425
27.26880,157101
27.27692,182116
27.28503,207925
27.29317,261981
27.30128,316011
27.30942,364776
27.31753,400075
27.32565,400750
27.33378,393759
27.34190,372686
27.35002,331802
27.35815,278173
27.36627,245195
27.37440,213595
27.38252,197752
27.39063,176427
27.39877,168521
27.40688,152283
27.41502,148862
27.42313,136560
27.43125,134385
27.43938,124735
27.44750,126512
27.45563,115858
27.46375,118653
27.47187,115197
27.48000,105373
27.48812,108549
27.49623,110021
27.50437,106469
27.51248,104988
27.52062,99902
27.52873,97328
27.53685,104175
27.54498,102156
27.55310,106832
27.56123,97778
27.56935,93648
27.57747,98289
27.58560,91511
27.59372,89151
27.60183,91078
27.60997,88335
27.61808,93461
27.62622,89383
27.63433,92050
27.64245,87522
27.65058,87237
27.65870,81490
27.66683,81457
27.67495,83941
27.68307,79797
27.69120,79136
27.69932,77334
27.70745,77387
27.71557,80133
27.72368,82889
27.73182,81083
27.73993,77600
27.74805,73513
27.75618,78892
27.76430,73709
27.77243,76929
27.78055,70188
27.78867,74283
27.79680,73054
27.80492,71496
27.81305,73288
27.82117,74607
27.82928,76884
27.83742,71721
27.84553,72793
27.85367,76938
27.86178,78362
27.86990,69211
27.87803,67320
27.88615,74576
27.89427,65643
27.90240,68315
27.91052,67464
27.91865,70598
27.92677,64490
27.93488,67792
27.94302,67136
27.95113,64663
27.95927,63959
27.96738,61035
27.97550,62279
27.98363,65261
27.99175,63886
27.99987,61958
28.00800,64881
28.01612,60350
28.02425,59001
28.03237,59793
28.04048,58192
28.04862,59487
28.05673,63246
28.06487,65009
28.07298,59957
28.08110,62615
28.08923,60142
28.09735,61917
28.10548,62806
28.11360,60245
28.12172,57816
28.12985,58568
28.13797,56521
28.14608,57914
28.15422,58739
28.16233,55917
28.17047,54894
28.17858,57998
28.18670,58615
28.19483,59177
28.20295,65515
28.21108,69615
28.21920,67270
28.22732,72218
28.23545,74638
28.24357,71303
28.25168,68816
28.25982,62574
28.26793,64289
28.27607,61540
28.28418,66890
28.29230,62072
28.30043,76952
28.30855,102670
28.31668,135321
28.32480,209077
28.33292,295979
28.34105,396260
28.34917,557928
28.35730,697129
28.36542,820325
28.37353,913694
28.38167,964835
28.38978,953350
28.39790,906961
28.40603,858151
28.41415,751311
28.42228,676440
28.43040,595377
28.43852,496775
28.44665,433240
28.45477,385865
28.46290,348453
28.47102,297488
28.47913,271797
28.48727,240874
28.49538,225651
28.50352,210946
28.51163,199025
28.51975,205032
28.52788,197016
28.53600,211081
28.54412,202975
28.55225,217323
28.56037,216283
28.56850,215824
28.57662,215616
28.58473,204845
28.59287,202330
28.60098,212001
28.60912,193495
28.61723,188668
28.62535,184786
28.63348,172834
28.64160,170126
28.64972,165605
28.65785,159005
28.66597,156965
28.67410,153101
28.68222,140064
28.69033,145581
28.69847,131985
28.70658,130840
28.71472,122256
28.72283,112500
28.73095,117481
28.73908,115581
28.74720,109006
28.75533,103823
28.76345,114478
28.77157,110561
28.77970,121544
28.78782,125517
28.79593,130476
28.80407,123106
28.81218,117021
28.82032,107266
28.82843,102337
28.83655,98104
28.84468,90026
28.85280,94704
28.86093,89630
28.86905,93069
28.87717,93071
28.88530,89743
28.89342,91072
28.90155,86588
28.90967,83716
28.91778,87973
28.92592,90008
28.93403,86188
28.94215,94168
28.95028,82211
28.95840,84775
28.96653,84215
28.97465,80825
28.98277,82016
28.99090,80196
28.99902,92391
29.00715,86030
29.01527,84258
29.02338,77577
29.03152,81059
29.03963,75451
29.04775,83761
29.05588,74618
29.06400,71723
29.07213,77911
29.08025,80725
29.08837,74739
29.09650,75785
29.10462,71319
29.11275,78166
29.12087,74961
29.12898,72012
29.13712,74742
29.14523,71515
29.15337,75537
29.16148,75779
29.16960,73974
29.17773,70127
29.18585,70230
29.19397,80120
29.20210,71418
29.21022,74014
29.21835,71016
29.22647,76820
29.23458,75762
29.24272,69090
29.25083,70157
29.25897,73695
29.26708,69900
29.27520,73025
29.28333,71042
29.29145,70718
29.29957,72017
29.30770,79576
29.31582,69119
29.32395,65755
29.33207,71568
29.34018,72259
29.34832,67408
29.35643,70786
29.36457,71985
29.37268,66522
29.38080,67993
29.38893,65784
29.39705,66975
29.40518,68572
29.41330,65059
29.42142,69053
29.42955,67531
29.43767,69613
29.44578,66316
29.45392,66132
29.46203,68393
29.47017,62755
29.47828,65241
29.48640,70362
29.49453,77602
29.50265,76465
29.51078,76952
29.51890,81605
29.52702,77660
29.53515,76458
29.54327,76918
29.55140,71823
29.55952,65292
29.56763,61780
29.57577,57824
29.58388,63210
29.59200,60748
29.60013,67934
29.60825,66215
29.61638,61928
29.62450,62028
29.63262,66212
29.64075,58433
29.64887,62106
29.65700,59688
29.66512,60374
29.67323,59905
29.68137,56841
29.68948,57452
29.69760,58384
29.70573,58390
29.71385,60729
29.72198,54692
29.73010,65658
29.73822,57116
29.74635,57850
29.75447,59189
29.76260,57484
29.77072,61111
29.77883,56162
29.78697,55052
29.79508,59850
29.80322,57945
29.81133,58304
29.81945,55249
29.82758,56943
29.83570,55821
29.84382,54323
29.85195,61226
29.86007,56265
29.86820,59096
29.87632,58587
29.88443,67964
29.89257,77743
29.90068,90182
29.90882,89046
29.91693,90580
29.92505,94057
29.93318,92317
29.94130,84856
29.94943,91424
29.95755,96786
29.96567,116799
29.97380,140098
29.98192,162252
29.99003,195697
29.99817,229572
30.00628,256693
30.01442,305230
30.02253,330363
30.03065,348657
30.03878,343847
30.04690,361295
30.05503,349895
30.06315,347689
30.07127,330522
30.07940,316862
30.08752,300380
30.09563,294680
30.10377,269942
30.11188,247156
30.12002,240690
30.12813,226846
30.13625,211318
30.14438,203252
30.15250,186965
30.16063,178478
30.16875,179023
30.17687,160479
30.18500,155683
30.19312,154529
30.20125,138851
30.20937,135669
30.21748,130846
30.22562,131626
30.23373,123917
30.24185,113581
30.24998,117193
30.25810,110200
30.26623,102773
30.27435,103101
30.28247,98293
30.29060,99248
30.29872,98477
30.30685,91439
30.31497,86112
30.32308,89761
30.33122,82957
30.33933,87593
30.34747,82240
30.35558,86525
30.36370,85824
30.37183,78054
30.37995,76522
30.38807,73950
30.39620,77527
30.40432,78464
30.41245,77431
30.42057,73784
30.42868,73396
30.43682,73673
30.44493,73801
30.45307,72717
30.46118,78360
30.46930,68896
30.47743,73806
30.48555,67939
30.49367,71543
30.50180,65125
30.50992,70762
30.51805,64632
30.52617,70849
30.53428,65432
30.54242,67097
30.55053,63669
30.55867,70714
30.56678,61874
30.57490,66628
30.58303,68964
30.59115,64205
30.59928,63473
30.60740,65055
30.61552,63917
30.62365,62742
30.63177,64538
30.63988,69036
30.64802,66388
30.65613,59735
30.66427,61848
30.67238,62373
30.68050,60253
30.68863,56757
30.69675,58759
30.70488,55519
30.71300,53657
30.72112,57457
30.72925,63011
30.73737,62123
30.74548,54257
30.75362,63409
30.76173,59958
30.76987,60962
30.77798,57906
30.78610,55083
30.79423,60981
30.80235,65843
30.81048,62264
30.81860,61917
30.82672,70347
30.83485,69994
30.84297,65101
30.85110,65871
30.85922,59097
30.86733,59096
30.87547,65739
30.88358,62254
30.89170,57020
30.89983,57765
30.90795,59739
30.91608,56330
30.92420,56716
30.93232,54731
30.94045,53765
30.94857,53734
30.95670,54961
30.96482,56067
30.97293,56395
30.98107,52822
30.98918,49920
30.99732,58227
31.00543,54675
31.01355,59365
31.02168,56427
31.02980,61258
31.03792,61346
31.04605,70158
31.05417,62726
31.06230,63629
31.07042,65094
31.07853,61593
31.08667,68932
31.09478,70754
31.10292,79242
31.11103,86558
31.11915,84017
31.12728,83348
31.13540,77212
31.14352,73981
31.15165,73227
31.15977,68120
31.16790,65090
31.17602,61382
31.18413,64365
31.19227,68426
31.20038,76478
31.20852,78369
31.21663,80688
31.22475,89727
31.23288,85624
31.24100,89950
31.24913,89079
31.25725,88470
31.26537,76806
31.27350,76254
31.28162,73654
31.28973,66456
31.29787,64232
31.30598,64492
31.31412,67110
31.32223,61166
31.33035,60800
31.33848,59032
31.34660,59173
31.35473,58800
31.36285,59488
31.37097,61449
31.37910,65755
31.38722,62480
31.39535,63526
31.40347,66200
31.41158,66876
31.41972,70127
31.42783,68951
31.43595,66816
31.44408,63081
31.45220,62277
31.46033,61523
31.46845,57923
31.47657,64217
31.48470,60094
31.49282,60527
31.50095,56217
31.50907,58390
31.51718,57996
31.52532,49481
31.53343,56522
31.54155,52912
31.54968,55898
31.55780,57242
31.56593,58541
31.57405,51263
31.58217,54313
31.59030,51578
31.59842,52573
31.60655,54114
31.61467,55479
31.62278,53131
31.63092,52561
31.63903,54176
31.64717,53757
31.65528,59958
31.66340,59662
31.67153,55270
31.67965,52654
31.68777,54467
31.69590,56503
31.70402,51558
31.71215,56237
31.72027,52306
31.72838,48378
31.73652,53508
31.74463,55626
31.75277,49382
31.76088,49787
31.76900,56431
31.77713,54166
31.78525,57530
31.79337,62108
31.80150,53537
31.80962,55145
31.81775,56645
31.82587,56582
31.83398,57430
31.84212,54390
31.85023,56111
31.85837,59726
31.86648,68627
31.87460,66357
31.88273,69511
31.89085,69103
31.89898,66626
31.90710,71917
31.91522,75462
31.92335,88095
31.93147,100368
31.93958,115733
31.94772,133075
31.95583,147210
31.96397,163956
31.97208,177126
31.98020,183276
31.98833,194688
31.99645,194631
32.00458,192027
32.01270,184982
32.02082,176393
32.02895,171239
32.03707,163177
32.04520,143672
32.05332,141092
32.06143,133262
32.06957,128440
32.07768,123955
32.08580,120776
32.09393,119121
32.10205,114855
32.11018,116292
32.11830,105885
32.12642,96830
32.13455,93190
32.14267,83233
32.15080,78473
32.15892,81694
32.16703,78172
32.17517,78453
32.18328,77653
32.19142,72613
32.19953,71359
32.20765,66827
32.21578,66000
32.22390,67802
32.23202,73053
32.24015,68926
32.24827,68109
32.25640,66032
32.26452,61685
32.27263,65970
32.28077,64042
32.28888,67632
32.29702,66162
32.30513,62217
32.31325,64702
32.32138,61928
32.32950,65092
32.33762,59811
32.34575,62555
32.35387,61675
32.36200,58178
32.37012,64846
32.37823,60696
32.38637,61553
32.39448,63359
32.40262,62614
32.41073,63901
32.41885,54829
32.42698,58521
32.43510,61075
32.44323,59118
32.45135,59791
32.45947,55332
32.46760,57169
32.47572,54076
32.48383,57401
32.49197,52089
32.50008,59886
32.50822,54842
32.51633,56214
32.52445,56163
32.53258,54712
32.54070,53209
32.54883,62491
32.55695,54760
32.56507,54498
32.57320,58079
32.58132,54849
32.58943,55241
32.59757,56550
32.60568,59220
32.61382,54886
32.62193,53232
32.63005,61998
32.63818,53053
32.64630,56846
32.65443,52757
32.66255,57810
32.67067,63665
32.67880,71248
32.68692,71755
32.69505,76011
32.70317,68813
32.71128,72485
32.71942,62795
32.72753,66934
32.73565,62757
32.74378,56418
32.75190,54627
32.76003,56286
32.76815,54443
32.77627,60448
32.78440,55677
32.79252,57765
32.80065,52566
32.80877,55790
32.81688,55670
32.82502,51114
32.83313,54943
32.84127,51898
32.84938,52426
32.85750,55389
32.86563,53699
32.87375,54022
32.88187,54536
32.89000,55005
32.89812,52258
32.90625,53220
32.91437,53380
32.92248,55600
32.93062,52181
32.93873,51783
32.94687,49359
32.95498,52212
32.96310,55618
32.97123,47705
32.97935,47544
32.98747,52138
32.99560,53060
33.00372,52854
33.01185,51020
33.01997,48470
33.02808,51578
33.03622,54535
33.04433,47820
33.05247,48119
33.06058,53711
33.06870,52801
33.07683,55741
33.08495,50711
33.09308,54218
33.10120,59520
33.10932,61909
33.11745,62728
33.12557,69859
33.13368,70499
33.14182,70947
33.14993,68066
33.15807,58392
33.16618,60455
33.17430,58732
33.18243,53977
33.19055,54325
33.19868,51270
33.20680,56729
33.21492,55738
33.22305,65208
33.23117,63124
33.23930,61517
33.24742,56205
33.25553,56510
33.26367,50000
33.27178,49502
33.27990,58466
33.28803,52272
33.29615,53597
33.30428,53271
33.31240,50737
33.32052,53117
33.32865,49373
33.33677,50621
33.34490,54529
33.35302,50240
33.36113,49028
33.36927,55061
33.37738,47247
33.38550,50998
33.39363,54294
33.40175,46755
33.40988,49142
33.41800,47645
33.42612,50681
33.43425,45615
33.44237,48235
33.45050,49817
33.45862,51643
33.46673,47673
33.47487,51306
33.48298,54459
33.49112,50711
33.49923,54299
33.50735,55060
33.51548,56085
33.52360,49532
33.53172,50752
33.53985,53567
33.54797,52243
33.55610,50911
33.56422,55782
33.57233,50376
33.58047,56014
33.58858,53470
33.59672,51934
33.60483,50782
33.61295,49499
33.62108,52786
33.62920,52455
33.63732,45467
33.64545,48864
33.65357,53571
33.66170,51970
33.66982,54852
33.67793,50858
33.68607,53048
33.69418,46727
33.70232,48007
33.71043,52189
33.71855,53391
33.72668,54633
33.73480,49444
33.74293,49481
33.75105,47604
33.75917,45987
33.76730,49117
33.77542,50874
33.78353,44354
33.79167,46447
33.79978,50550
33.80792,48845
33.81603,47246
33.82415,54025
33.83228,47947
33.84040,55013
33.84853,53436
33.85665,53088
33.86477,51812
33.87290,56905
33.88102,52676
33.88915,52250
33.89727,56892
33.90538,49813
33.91352,51072
33.92163,53003
33.92975,46857
33.93788,51438
33.94600,52421
33.95413,54472
33.96225,53423
33.97037,53825
33.97850,54392
33.98662,51434
33.99475,48405
34.00287,55153
34.01098,51525
34.01912,48791
34.02723,52928
34.03535,50093
34.04348,47420
34.05160,49983
34.05973,46210
34.06785,55922
34.07597,48788
34.08410,48974
34.09222,48839
34.10035,51785
34.10847,49886
34.11658,51383
34.12472,48394
34.13283,48890
34.14097,51583
34.14908,56054
34.15720,53966
34.16533,50847
34.17345,46010
34.18157,48565
34.18970,50481
34.19782,50009
34.20595,49900
34.21407,49341
34.22218,49523
34.23032,50124
34.23843,49731
34.24657,49324
34.25468,49187
34.26280,49459
34.27093,52146
34.27905,47110
34.28718,49768
34.29530,50591
34.30342,47383
34.31155,49013
34.31967,50147
34.32778,49692
34.33592,49558
34.34403,48593
34.35217,52321
34.36028,49612
34.36840,47589
34.37653,45489
34.38465,50082
34.39278,48470
34.40090,51374
34.40902,50908
34.41715,46690
34.42527,49310
34.43338,46084
34.44152,47332
34.44963,48589
34.45777,44492
34.46588,50113
34.47400,42465
34.48213,50659
34.49025,47205
34.49838,48301
34.50650,51186
34.51462,49819
34.52275,58013
34.53087,72646
34.53900,79737
34.54712,89169
34.55523,104746
34.56337,123102
34.57148,127380
34.57960,131405
34.58773,134177
34.59585,119080
34.60398,111137
34.61210,108869
34.62022,96463
34.62835,88877
34.63647,90393
34.64460,82147
34.65272,79647
34.66083,73330
34.66897,72031
34.67708,67895
34.68520,75530
34.69333,67622
34.70145,63607
34.70958,66383
34.71770,67698
34.72582,65733
34.73395,68279
34.74207,61857
34.75020,63613
34.75832,64918
34.76643,62404
34.77457,59961
34.78268,62744
34.79082,63564
34.79893,61077
34.80705,58437
34.81518,56819
34.82330,58822
34.83142,64038
34.83955,53846
34.84767,54169
34.85580,54839
34.86392,54727
34.87203,55858
34.88017,58862
34.88828,57223
34.89642,56749
34.90453,56806
34.91265,54356
34.92078,54673
34.92890,56421
34.93703,57982
34.94515,52928
34.95327,60995
34.96140,65130
34.96952,72554
34.97763,75162
34.98577,80343
34.99388,81124
35.00202,77993
35.01013,75564
35.01825,71397
35.02638,65882
35.03450,61933
35.04263,58953
35.05075,62249
35.05887,61323
35.06700,57916
35.07512,56873
35.08323,61581
35.09137,61678
35.09948,60317
35.10762,53948
35.11573,62932
35.12385,57298
35.13198,61270
35.14010,58081
35.14823,57282
35.15635,65030
35.16447,63775
35.17260,63856
35.18072,68685
35.18885,61829
35.19697,58126
35.20508,61123
35.21322,57535
35.22133,60021
35.22945,53121
35.23758,57128
35.24570,56228
35.25383,62172
35.26195,65823
35.27007,57222
35.27820,60332
35.28632,65449
35.29445,64373
35.30257,58324
35.31068,62923
35.31882,59855
35.32693,57922
35.33507,58751
35.34318,52481
35.35130,53060
35.35943,53755
35.36755,51050
35.37567,49258
35.38380,52393
35.39192,57551
35.40005,58268
35.40817,58111
35.41628,55899
35.42442,56850
35.43253,52267
35.44067,54844
35.44878,58202
35.45690,58188
35.46503,62707
35.47315,65301
35.48127,58070
35.48940,62256
35.49752,61767
35.50565,61076
35.51377,58287
35.52188,55026
35.53002,54625
35.53813,60417
35.54627,54882
35.55438,56168
35.56250,54974
35.57063,55051
35.57875,56255
35.58688,63932
35.59500,62736
35.60312,59189
35.61125,57651
35.61937,60784
35.62748,58701
35.63562,57738
35.64373,54271
35.65187,57833
35.65998,59006
35.66810,58528
35.67623,63362
35.68435,62186
35.69248,62848
35.70060,68009
35.70872,64444
35.71685,66576
35.72497,65910
35.73310,66503
35.74122,59651
35.74933,60332
35.75747,53368
35.76558,57681
35.77370,57138
35.78183,57554
35.78995,58951
35.79808,61366
35.80620,57905
35.81432,58935
35.82245,58158
35.83057,55842
35.83870,57315
35.84682,61124
35.85493,62396
35.86307,59405
35.87118,58655
35.87930,63122
35.88743,58498
35.89555,58210
35.90368,54757
35.91180,57116
35.91992,59540
35.92805,55093
35.93617,60144
35.94430,58918
35.95242,56400
35.96053,56501
35.96867,56310
35.97678,57424
35.98492,58910
35.99303,57507
36.00115,57861
36.00928,60309
36.01740,65632
36.02552,62666
36.03365,59404
36.04177,59977
36.04990,69965
36.05802,62587
36.06613,58420
36.07427,59240
36.08238,58364
36.09052,59314
36.09863,56417
36.10675,55875
36.11488,55559
36.12300,55089
36.13112,60191
36.13925,57291
36.14737,59074
36.15550,56686
36.16362,59360
36.17173,57963
36.17987,56079
36.18798,56807
36.19612,57755
36.20423,59491
36.21235,58800
36.22048,57810
36.22860,58435
36.23673,54665
36.24485,54465
36.25297,55761
36.26110,60516
36.26922,57533
36.27733,53745
36.28547,56495
36.29358,57861
36.30172,60385
36.30983,59602
36.31795,67452
36.32608,71995
36.33420,75357
36.34233,74519
36.35045,67459
36.35857,70893
36.36670,63355
36.37482,60875
36.38295,52946
36.39107,59644
36.39918,65323
36.40732,58260
36.41543,64603
36.42355,58018
36.43168,57205
36.43980,63439
36.44793,62379
36.45605,55829
36.46417,52004
36.47230,56863
36.48042,63598
36.48855,55904
36.49667,58219
36.50478,55924
36.51292,54287
36.52103,55038
36.52915,56278
36.53728,61018
36.54540,57669
36.55353,59244
36.56165,57883
36.56977,57391
36.57790,59451
36.58602,61786
36.59415,57953
36.60227,59008
36.61038,60584
36.61852,52343
36.62663,54356
36.63477,63953
36.64288,49649
36.65100,57144
36.65913,59620
36.66725,61055
36.67537,59160
36.68350,61590
36.69162,61976
36.69975,59756
36.70787,63047
36.71598,62864
36.72412,63030
36.73223,63511
36.74037,58618
36.74848,58486
36.75660,56745
36.76473,56903
36.77285,54617
36.78098,63517
36.78910,58474
36.79722,59414
36.80535,55095
36.81347,58635
36.82158,55683
36.82972,53527
36.83783,54606
36.84597,61262
36.85408,55797
36.86220,56342
36.87033,61513
36.87845,54840
36.88658,58786
36.89470,57206
36.90282,54374
36.91095,55213
36.91907,60180
36.92718,56653
36.93532,54995
36.94343,61614
36.95157,58161
36.95968,59532
36.96780,59528
36.97593,60136
36.98405,56442
36.99218,56040
37.00030,56274
37.00842,58189
37.01655,55533
37.02467,60169
37.03280,57072
37.04092,62313
37.04903,63137
37.05717,65854
37.06528,58077
37.07340,58289
37.08153,65638
37.08965,62694
37.09778,57722
37.10590,58160
37.11402,62429
37.12215,60061
37.13027,57341
37.13840,62325
37.14652,62109
37.15463,62336
37.16277,61910
37.17088,62101
37.17900,62674
37.18713,60209
37.19525,63518
37.20338,62159
37.21150,64715
37.21962,62364
37.22775,66809
37.23587,63451
37.24400,64911
37.25212,64988
37.26023,65323
37.26837,64983
37.27648,61861
37.28462,65935
37.29273,66358
37.30085,63804
37.30898,63666
37.31710,65939
37.32522,62294
37.33335,73852
37.34147,74056
37.34960,80633
37.35772,88013
37.36583,101431
37.37397,103821
37.38208,114581
37.39022,100554
37.39833,99189
37.40645,94852
37.41458,89827
37.42270,88042
37.43083,83332
37.43895,76666
37.44707,78368
37.45520,75652
37.46332,81532
37.47143,76279
37.47957,75369
37.48768,76010
