Z:\data\JTB-E02\BACandBLUE\JTB-E02-208-17.D Thu Mar 14 15:57:17 2019
Start of data points
2.09522,57053
2.10333,60509
2.11145,57035
2.11958,58331
2.12770,57601
2.13583,55855
2.14395,52335
2.15207,49308
2.16020,51391
2.16832,49563
2.17643,50796
2.18457,50975
2.19268,49225
2.20082,48400
2.20893,48302
2.21705,46162
2.22518,47651
2.23330,48369
2.24143,45567
2.24955,47840
2.25767,46877
2.26580,75733
2.27392,1000161
2.28203,3885782
2.29017,2930625
2.29828,1130938
2.30642,773005
2.31453,669655
2.32265,578460
2.33078,508958
2.33890,455470
2.34703,401683
2.35515,357884
2.36327,337001
2.37140,321760
2.37952,302563
2.38765,277498
2.39577,265878
2.40388,253610
2.41202,234764
2.42013,237737
2.42825,237556
2.43638,224765
2.44450,214583
2.45263,207099
2.46075,197581
2.46887,195680
2.47700,186987
2.48512,190203
2.49325,212622
2.50137,216519
2.50948,200898
2.51762,188750
2.52573,187935
2.53387,178071
2.54198,178822
2.55010,236216
2.55823,1094650
2.56635,2631147
2.57447,1728844
2.58260,790952
2.59072,547998
2.59885,461590
2.60697,443689
2.61508,586619
2.62322,613752
2.63133,449581
2.63947,366516
2.64758,326831
2.65570,300279
2.66383,281944
2.67195,264759
2.68007,247351
2.68820,235333
2.69632,234387
2.70445,225120
2.71257,220872
2.72068,217563
2.72882,207285
2.73693,209036
2.74507,207691
2.75318,205443
2.76130,194023
2.76943,195066
2.77755,192508
2.78568,203036
2.79380,226645
2.80192,212365
2.81005,206758
2.81817,191378
2.82628,189947
2.83442,192024
2.84253,187752
2.85067,177329
2.85878,178975
2.86690,170558
2.87503,174938
2.88315,167304
2.89128,164353
2.89940,166130
2.90752,159838
2.91565,159339
2.92377,158923
2.93190,166808
2.94002,160738
2.94813,150091
2.95627,154809
2.96438,152254
2.97250,154030
2.98063,150490
2.98875,140664
2.99688,144875
3.00500,145691
3.01312,150452
3.02125,145524
3.02937,145334
3.03750,145770
3.04562,138804
3.05373,145670
3.06187,140056
3.06998,139172
3.07810,139205
3.08623,174846
3.09435,347453
3.10248,1016067
3.11060,3062943
3.11872,4472527
3.12685,3208958
3.13497,2063029
3.14310,1583792
3.15122,1308765
3.15933,1086458
3.16747,909077
3.17558,779861
3.18372,684346
3.19183,618880
3.19995,548091
3.20808,511030
3.21620,510655
3.22432,498295
3.23245,446517
3.24057,392099
3.24870,364649
3.25682,334183
3.26493,312509
3.27307,299782
3.28118,288036
3.28932,352295
3.29743,810862
3.30555,2253410
3.31368,4271285
3.32180,4790984
3.32992,3741402
3.33805,2491083
3.34617,1767093
3.35430,1428554
3.36242,1192089
3.37053,1046694
3.37867,911520
3.38678,820515
3.39492,748093
3.40303,670213
3.41115,630483
3.41928,604152
3.42740,535192
3.43553,513498
3.44365,492158
3.45177,479358
3.45990,448036
3.46802,440811
3.47613,450271
3.48427,462275
3.49238,428083
3.50052,408223
3.50863,393617
3.51675,376770
3.52488,354581
3.53300,341521
3.54113,332585
3.54925,319266
3.55737,312489
3.56550,300652
3.57362,295651
3.58175,289773
3.58987,274502
3.59798,282553
3.60612,272180
3.61423,263349
3.62235,273401
3.63048,270392
3.63860,263643
3.64673,262874
3.65485,254015
3.66297,243138
3.67110,233222
3.67922,235898
3.68735,245140
3.69547,242438
3.70358,226688
3.71172,226015
3.71983,230326
3.72795,220615
3.73608,217831
3.74420,215539
3.75233,215803
3.76045,212378
3.76857,220335
3.77670,214654
3.78482,210039
3.79295,218323
3.80107,308840
3.80918,897292
3.81732,2371405
3.82543,3324386
3.83357,2663657
3.84168,1731409
3.84980,1243834
3.85793,1019120
3.86605,866653
3.87417,758762
3.88230,684573
3.89042,615565
3.89855,562267
3.90667,530256
3.91478,485595
3.92292,469229
3.93103,444941
3.93917,414991
3.94728,418371
3.95540,513926
3.96353,767807
3.97165,1086126
3.97978,1064715
3.98790,784582
3.99602,617827
4.00415,817209
4.01227,1535726
4.02038,2232402
4.02852,2098086
4.03663,1409621
4.04477,874869
4.05288,639060
4.06100,514116
4.06913,453745
4.07725,415317
4.08538,377315
4.09350,346689
4.10162,332162
4.10975,318038
4.11787,298735
4.12598,304377
4.13412,290996
4.14223,300875
4.15037,344368
4.15848,367519
4.16660,347000
4.17473,347517
4.18285,336210
4.19098,322934
4.19910,291873
4.20722,267646
4.21535,291909
4.22347,459683
4.23160,866175
4.23972,1154515
4.24783,1029940
4.25597,786866
4.26408,600566
4.27220,497776
4.28033,421423
4.28845,369116
4.29658,324656
4.30470,305162
4.31282,290998
4.32095,264223
4.32907,257178
4.33720,252270
4.34532,241901
4.35343,233913
4.36157,221074
4.36968,227177
4.37780,220486
4.38593,215269
4.39405,210541
4.40218,203919
4.41030,201463
4.41842,194917
4.42655,196354
4.43467,191098
4.44280,190767
4.45092,187306
4.45903,180628
4.46717,180539
4.47528,178687
4.48342,181010
4.49153,176126
4.49965,179326
4.50778,174076
4.51590,174437
4.52402,176294
4.53215,164587
4.54027,166115
4.54840,163537
4.55652,167483
4.56463,166356
4.57277,163007
4.58088,171083
4.58902,163731
4.59713,167067
4.60525,162547
4.61338,168967
4.62150,165126
4.62963,167115
4.63775,165439
4.64587,154543
4.65400,150902
4.66212,155890
4.67023,153547
4.67837,152358
4.68648,150278
4.69462,152302
4.70273,149994
4.71085,154510
4.71898,156083
4.72710,154778
4.73523,141974
4.74335,152524
4.75147,145232
4.75960,146435
4.76772,145777
4.77585,142175
4.78397,143041
4.79208,145216
4.80022,137820
4.80833,143963
4.81645,150675
4.82458,155113
4.83270,170967
4.84083,191344
4.84895,220099
4.85707,208014
4.86520,184951
4.87332,168615
4.88145,155385
4.88957,154388
4.89768,145841
4.90582,148690
4.91393,134064
4.92205,134496
4.93018,142401
4.93830,163766
4.94643,289166
4.95455,606832
4.96267,1160478
4.97080,1636026
4.97892,1778713
4.98705,1551005
4.99517,1197598
5.00328,895404
5.01142,733541
5.01953,616226
5.02767,539539
5.03578,490262
5.04390,442076
5.05203,409395
5.06015,379477
5.06827,360450
5.07640,341122
5.08452,327616
5.09265,311114
5.10077,298030
5.10888,292553
5.11702,283943
5.12513,272141
5.13327,264777
5.14138,254035
5.14950,255916
5.15763,248906
5.16575,246308
5.17387,238936
5.18200,239820
5.19012,233713
5.19825,229276
5.20637,229061
5.21448,225155
5.22262,236043
5.23073,220280
5.23887,227679
5.24698,236482
5.25510,237244
5.26323,216207
5.27135,207950
5.27948,190914
5.28760,191732
5.29572,188819
5.30385,187209
5.31197,182003
5.32008,179389
5.32822,185525
5.33633,200393
5.34447,226886
5.35258,236265
5.36070,218846
5.36883,199819
5.37695,176276
5.38508,181258
5.39320,174369
5.40132,162068
5.40945,169041
5.41757,170072
5.42570,164229
5.43382,164746
5.44193,168435
5.45007,168800
5.45818,164475
5.46630,157764
5.47443,161909
5.48255,149467
5.49068,148445
5.49880,152538
5.50692,151709
5.51505,161741
5.52317,168948
5.53130,174802
5.53942,172091
5.54753,154856
5.55567,150343
5.56378,143671
5.57190,149538
5.58003,150402
5.58815,182174
5.59628,204143
5.60440,204973
5.61252,191997
5.62065,168847
5.62877,162599
5.63690,160107
5.64502,155639
5.65313,147843
5.66127,151698
5.66938,150381
5.67752,166206
5.68563,192738
5.69375,230436
5.70188,271078
5.71000,254640
5.71812,224090
5.72625,181311
5.73437,168449
5.74250,155635
5.75062,154966
5.75873,144042
5.76687,140087
5.77498,147440
5.78312,143175
5.79123,134706
5.79935,137053
5.80748,133366
5.81560,130354
5.82373,133273
5.83185,125683
5.83997,126121
5.84810,122993
5.85622,127761
5.86433,130947
5.87247,128825
5.88058,120753
5.88872,124413
5.89683,122805
5.90495,122846
5.91308,114670
5.92120,98680
5.92933,99990
5.93745,101256
5.94557,101452
5.95370,94613
5.96182,100773
5.96993,107538
5.97807,112527
5.98618,129473
5.99432,140920
6.00243,136434
6.01055,124001
6.01868,115426
6.02680,105077
6.03493,106571
6.04305,99895
6.05117,95152
6.05930,95707
6.06742,94231
6.07555,91352
6.08367,95695
6.09178,88126
6.09992,92610
6.10803,84459
6.11615,87361
6.12428,90785
6.13240,93077
6.14053,98215
6.14865,103329
6.15677,114813
6.16490,122983
6.17302,128106
6.18115,125741
6.18927,120301
6.19738,112891
6.20552,114761
6.21363,117775
6.22175,117943
6.22988,121966
6.23800,124348
6.24613,125031
6.25425,121431
6.26237,125054
6.27050,132056
6.27862,129970
6.28675,126236
6.29487,123811
6.30298,129760
6.31112,132225
6.31923,133953
6.32737,138080
6.33548,141274
6.34360,144188
6.35173,146400
6.35985,148608
6.36797,149698
6.37610,148376
6.38422,143602
6.39235,154694
6.40047,153696
6.40858,155777
6.41672,159305
6.42483,155524
6.43297,157196
6.44108,168912
6.44920,163069
6.45733,161662
6.46545,173629
6.47358,169466
6.48170,166806
6.48982,164673
6.49795,179050
6.50607,173711
6.51418,177336
6.52232,171643
6.53043,178183
6.53857,187241
6.54668,176590
6.55480,184637
6.56293,185951
6.57105,176612
6.57918,190146
6.58730,179147
6.59542,190817
6.60355,189940
6.61167,199349
6.61978,187331
6.62792,201309
6.63603,213425
6.64417,399911
6.65228,1469621
6.66040,5529852
6.66853,1.352527E+07
6.67665,2.132538E+07
6.68478,2.379009E+07
6.69290,1.9938E+07
6.70102,1.336532E+07
6.70915,8239994
6.71727,5490408
6.72540,4213500
6.73352,3417534
6.74163,2864208
6.74977,2469536
6.75788,2145939
6.76600,1944069
6.77413,1766128
6.78225,1606231
6.79038,1599655
6.79850,1429158
6.80662,1312608
6.81475,1233575
6.82287,1147967
6.83100,1083412
6.83912,1019968
6.84723,965619
6.85537,922415
6.86348,864068
6.87162,800064
6.87973,749391
6.88785,709612
6.89598,678749
6.90410,638350
6.91222,607819
6.92035,581551
6.92847,550924
6.93660,520720
6.94472,500266
6.95283,476419
6.96097,464603
6.96908,450850
6.97722,458780
6.98533,450632
6.99345,422030
7.00158,392400
7.00970,325389
7.01782,280600
7.02595,227463
7.03407,189836
7.04220,158123
7.05032,197707
7.05843,309557
7.06657,429336
7.07468,512695
7.08282,537797
7.09093,522872
7.09905,505984
7.10718,503344
7.11530,494228
7.12343,467827
7.13155,459618
7.13967,446417
7.14780,437553
7.15592,432655
7.16403,415918
7.17217,413131
7.18028,407185
7.18842,396147
7.19653,378609
7.20465,372297
7.21278,361612
7.22090,365217
7.22903,428522
7.23715,604678
7.24527,936266
7.25340,1338319
7.26152,1560562
7.26963,1294195
7.27777,932582
7.28588,673302
7.29402,512148
7.30213,441838
7.31025,383875
7.31838,351311
7.32650,322729
7.33463,289465
7.34275,289926
7.35087,281379
7.35900,270391
7.36712,259628
7.37525,267336
7.38337,258046
7.39148,262976
7.39962,253217
7.40773,258565
7.41585,246269
7.42398,243809
7.43210,244419
7.44023,234338
7.44835,233303
7.45647,221322
7.46460,231930
7.47272,219474
7.48085,211861
7.48897,209669
7.49708,204257
7.50522,201113
7.51333,201665
7.52147,199820
7.52958,196838
7.53770,195108
7.54583,191572
7.55395,186297
7.56207,183253
7.57020,180274
7.57832,179413
7.58645,182170
7.59457,171696
7.60268,174220
7.61082,172498
7.61893,172501
7.62707,170749
7.63518,174329
7.64330,162857
7.65143,166010
7.65955,165232
7.66767,163355
7.67580,163280
7.68392,158807
7.69205,155556
7.70017,162626
7.70828,155198
7.71642,148442
7.72453,153365
7.73267,148277
7.74078,142581
7.74890,147755
7.75703,143314
7.76515,139394
7.77328,143513
7.78140,145811
7.78952,144785
7.79765,142586
7.80577,143202
7.81388,140168
7.82202,140202
7.83013,138170
7.83827,138893
7.84638,135436
7.85450,124692
7.86263,136195
7.87075,139503
7.87888,136661
7.88700,134457
7.89512,137579
7.90325,134623
7.91137,119925
7.91950,135193
7.92762,156578
7.93573,204909
7.94387,278832
7.95198,376522
7.96010,374572
7.96823,336025
7.97635,273922
7.98448,201730
7.99260,165130
8.00072,142951
8.00885,127518
8.01697,126161
8.02510,122686
8.03322,116395
8.04133,120006
8.04947,120152
8.05758,114410
8.06570,117352
8.07383,113101
8.08195,115475
8.09008,118348
8.09820,110984
8.10632,98537
8.11445,110349
8.12257,102473
8.13070,108987
8.13882,108917
8.14693,108365
8.15507,106083
8.16318,111059
8.17132,103245
8.17943,111057
8.18755,102581
8.19568,103385
8.20380,92218
8.21192,92722
8.22005,103056
8.22817,102004
8.23630,98707
8.24442,100223
8.25253,96323
8.26067,92943
8.26878,93226
8.27692,92214
8.28503,90912
8.29315,95237
8.30128,96156
8.30940,95430
8.31753,96170
8.32565,101339
8.33377,97083
8.34190,100082
8.35002,93837
8.35813,92548
8.36627,91238
8.37438,94722
8.38252,92759
8.39063,92917
8.39875,82902
8.40688,70188
8.41500,60502
8.42313,60380
8.43125,64052
8.43937,63428
8.44750,72051
8.45562,76959
8.46373,97321
8.47187,102287
8.47998,95572
8.48812,84912
8.49623,74225
8.50435,65923
8.51248,65486
8.52060,60633
8.52873,69984
8.53685,101095
8.54497,183433
8.55310,350982
8.56122,543641
8.56935,664456
8.57747,631594
8.58558,473407
8.59372,307997
8.60183,185877
8.60995,132974
8.61808,103123
8.62620,97826
8.63433,91723
8.64245,91541
8.65057,85005
8.65870,78821
8.66682,77860
8.67495,71253
8.68307,76684
8.69118,76323
8.69932,76684
8.70743,76362
8.71555,75913
8.72368,77122
8.73180,67454
8.73993,68502
8.74805,78665
8.75617,122814
8.76430,287752
8.77242,699607
8.78055,1471500
8.78867,2472843
8.79678,3096060
8.80492,2940085
8.81303,2209391
8.82117,1380596
8.82928,791054
8.83740,482302
8.84553,347939
8.85365,289967
8.86177,280800
8.86990,252657
8.87802,231784
8.88615,208310
8.89427,196266
8.90238,177840
8.91052,167148
8.91863,154178
8.92677,146864
8.93488,143165
8.94300,132757
8.95113,127674
8.95925,124929
8.96738,125507
8.97550,122022
8.98362,114403
8.99175,120537
8.99987,115739
9.00798,119821
9.01612,106648
9.02423,110138
9.03237,109692
9.04048,104547
9.04860,104287
9.05673,99396
9.06485,102587
9.07298,96454
9.08110,93428
9.08922,97966
9.09735,91099
9.10547,94798
9.11358,92268
9.12172,91753
9.12983,88919
9.13797,85265
9.14608,88282
9.15420,84642
9.16233,89118
9.17045,83267
9.17858,81435
9.18670,78803
9.19482,82560
9.20295,78180
9.21107,79506
9.21920,82598
9.22732,79158
9.23543,85651
9.24357,88991
9.25168,103505
9.25980,102595
9.26793,101270
9.27605,94723
9.28418,93180
9.29230,82909
9.30042,77948
9.30855,77697
9.31667,75344
9.32480,70562
9.33292,70561
9.34103,70609
9.34917,67813
9.35728,68573
9.36542,69450
9.37353,69335
9.38165,67305
9.38978,69171
9.39790,65298
9.40602,63401
9.41415,70776
9.42227,66592
9.43040,62709
9.43852,66414
9.44663,65239
9.45477,60541
9.46288,62181
9.47102,61074
9.47913,59391
9.48725,63281
9.49538,62748
9.50350,79225
9.51162,93718
9.51975,115242
9.52787,130834
9.53600,122361
9.54412,116674
9.55223,107234
9.56037,99864
9.56848,94452
9.57662,91719
9.58473,84988
9.59285,76155
9.60098,73137
9.60910,70943
9.61723,63174
9.62535,57301
9.63347,46628
9.64160,49837
9.64972,50828
9.65783,52164
9.66597,57091
9.67408,57300
9.68222,56109
9.69033,53123
9.69845,47876
9.70658,49412
9.71470,48211
9.72283,45531
9.73095,42504
9.73907,48717
9.74720,43622
9.75532,40814
9.76343,43476
9.77157,43993
9.77968,45191
9.78782,44544
9.79593,41620
9.80405,48211
9.81218,40934
9.82030,42051
9.82843,44777
9.83655,42467
9.84467,43249
9.85280,41319
9.86092,41160
9.86905,43400
9.87717,42198
9.88528,47844
9.89342,46155
9.90153,47332
9.90965,51122
9.91778,46998
9.92590,51004
9.93403,55310
9.94215,62271
9.95027,62866
9.95840,70121
9.96652,68178
9.97465,69016
9.98277,57296
9.99088,55969
9.99902,54546
10.00713,61772
10.01527,55947
10.02338,57912
10.03150,54433
10.03963,55671
10.04775,50715
10.05587,49736
10.06400,43526
10.07212,46911
10.08025,45700
10.08837,44859
10.09648,49110
10.10462,50429
10.11273,47383
10.12087,45560
10.12898,47172
10.13710,44580
10.14523,43683
10.15335,40182
10.16148,41993
10.16960,40227
10.17772,42726
10.18585,44926
10.19397,42145
10.20208,36817
10.21022,40005
10.21833,41467
10.22647,42753
10.23458,42299
10.24270,52220
10.25083,55130
10.25895,73428
10.26708,130188
10.27520,302505
10.28332,846060
10.29145,2075969
10.29957,4147155
10.30768,6990755
10.31582,1.049893E+07
10.32393,1.457267E+07
10.33207,2.019026E+07
10.34018,2.820425E+07
10.34830,3.772662E+07
10.35643,4.801072E+07
10.36455,5.73004E+07
10.37268,6.539829E+07
10.38080,7.128714E+07
10.38892,7.630339E+07
10.39705,7.991019E+07
10.40517,7.896806E+07
10.41330,6.161581E+07
10.42142,2.2296E+07
10.42953,5534484
10.43767,2859185
10.44578,2356252
10.45390,2056466
10.46203,1887162
10.47015,1698409
10.47828,1554820
10.48640,1436237
10.49452,1331797
10.50265,1247671
10.51077,1170124
10.51890,1111857
10.52702,1035089
10.53513,977827
10.54327,904743
10.55138,865488
10.55950,821730
10.56763,798206
10.57575,751752
10.58388,712801
10.59200,677879
10.60012,655004
10.60825,634070
10.61637,598455
10.62450,568550
10.63262,553936
10.64073,530045
10.64887,519358
10.65698,493780
10.66512,473356
10.67323,463846
10.68135,441102
10.68948,437932
10.69760,429663
10.70572,409298
10.71385,408394
10.72197,387050
10.73010,370095
10.73822,361145
10.74633,358440
10.75447,347753
10.76258,330010
10.77072,327150
10.77883,303055
10.78695,313667
10.79508,297105
10.80320,306484
10.81133,286437
10.81945,277950
10.82757,272311
10.83570,267399
10.84382,262055
10.85193,255127
10.86007,250611
10.86818,241872
10.87632,232705
10.88443,232836
10.89255,233096
10.90068,222241
10.90880,209890
10.91693,219930
10.92505,208389
10.93317,199955
10.94130,201785
10.94942,201746
10.95753,201929
10.96567,200199
10.97378,195846
10.98192,188131
10.99003,179417
10.99815,180156
11.00628,175760
11.01440,174137
11.02253,168792
11.03065,173141
11.03877,167832
11.04690,159292
11.05502,155864
11.06315,162264
11.07127,156615
11.07938,156818
11.08752,151901
11.09563,153642
11.10375,140269
11.11188,145540
11.12000,126891
11.12813,115393
11.13625,99440
11.14437,85070
11.15250,73732
11.16062,71310
11.16875,74479
11.17687,71474
11.18498,72866
11.19312,74756
11.20123,69055
11.20937,65486
11.21748,63129
11.22560,61541
11.23373,59514
11.24185,60307
11.24997,58308
11.25810,54585
11.26622,58341
11.27435,55979
11.28247,55639
11.29058,49485
11.29872,52857
11.30683,52948
11.31497,53851
11.32308,55443
11.33120,53014
11.33933,52926
11.34745,49788
11.35557,51236
11.36370,52318
11.37182,53443
11.37995,52531
11.38807,50527
11.39618,48097
11.40432,52950
11.41243,49040
11.42057,46426
11.42868,48381
11.43680,47736
11.44493,45313
11.45305,49598
11.46118,47489
11.46930,57891
11.47742,48914
11.48555,54341
11.49367,72835
11.50178,91902
11.50992,103739
11.51803,104683
11.52617,109897
11.53428,104892
11.54240,111635
11.55053,116590
11.55865,131997
11.56678,118849
11.57490,98622
11.58302,82026
11.59115,68625
11.59927,67166
11.60738,59637
11.61552,53955
11.62363,53676
11.63177,56802
11.63988,52874
11.64800,53946
11.65613,49828
11.66425,51646
11.67238,50506
11.68050,54395
11.68862,55473
11.69675,53624
11.70487,54173
11.71300,56784
11.72112,57441
11.72923,53733
11.73737,51022
11.74548,50517
11.75360,47257
11.76173,53927
11.76985,52376
11.77798,46714
11.78610,49523
11.79422,51137
11.80235,44915
11.81047,48486
11.81860,41903
11.82672,49971
11.83483,46056
11.84297,45558
11.85108,51587
11.85922,45214
11.86733,42515
11.87545,47057
11.88358,51791
11.89170,49730
11.89982,42848
11.90795,50739
11.91607,51057
11.92420,53946
11.93232,51587
11.94043,57127
11.94857,56241
11.95668,52726
11.96482,51723
11.97293,50132
11.98105,51818
11.98918,46605
11.99730,49255
12.00542,67640
12.01355,71761
12.02167,83242
12.02980,82791
12.03792,76749
12.04603,71916
12.05417,62440
12.06228,54582
12.07042,51385
12.07853,50794
12.08665,45972
12.09478,53469
12.10290,52185
12.11103,43621
12.11915,43444
12.12727,55602
12.13540,48266
12.14352,46680
12.15163,52600
12.15977,46438
12.16788,44499
12.17602,46881
12.18413,46856
12.19225,44498
12.20038,41928
12.20850,47128
12.21663,46530
12.22475,45239
12.23287,47689
12.24100,46630
12.24912,43168
12.25725,42418
12.26537,46337
12.27348,57377
12.28162,50565
12.28973,46136
12.29785,52044
12.30598,43622
12.31410,44636
12.32223,38010
12.33035,39947
12.33847,39861
12.34660,36980
12.35472,44085
12.36285,47387
12.37097,41649
12.37908,41617
12.38722,40969
12.39533,45209
12.40345,42708
12.41158,41812
12.41970,44040
12.42783,44843
12.43595,46760
12.44407,47701
12.45220,46864
12.46032,44515
12.46845,44158
12.47657,43255
12.48468,41143
12.49282,39373
12.50093,35541
12.50907,42637
12.51718,40741
12.52530,35487
12.53343,36752
12.54155,38744
12.54967,45217
12.55780,49270
12.56592,67676
12.57405,80185
12.58217,84560
12.59028,84147
12.59842,76261
12.60653,61024
12.61467,53166
12.62278,49686
12.63090,51102
12.63903,46226
12.64715,47884
12.65527,46679
12.66340,43422
12.67152,42952
12.67965,38321
12.68777,40100
12.69588,45496
12.70402,39599
12.71213,38581
12.72027,38248
12.72838,43015
12.73650,44609
12.74463,41152
12.75275,49553
12.76088,43842
12.76900,42915
12.77712,39616
12.78525,40275
12.79337,39136
12.80148,36956
12.80962,37931
12.81773,38639
12.82587,38397
12.83398,39766
12.84210,34699
12.85023,35469
12.85835,36846
12.86648,36842
12.87460,35022
12.88272,40648
12.89085,38551
12.89897,40710
12.90710,39018
12.91522,36775
12.92333,33795
12.93147,34405
12.93958,33234
12.94770,34273
12.95583,34498
12.96395,36196
12.97208,40784
12.98020,38849
12.98832,41775
12.99645,45968
13.00457,44808
13.01270,45591
13.02082,39673
13.02893,37644
13.03707,37185
13.04518,35660
13.05330,37501
13.06143,32941
13.06955,36067
13.07768,34841
13.08580,39007
13.09392,40985
13.10205,43200
13.11017,44653
13.11830,43788
13.12642,38960
13.13453,40228
13.14267,36346
13.15078,39507
13.15892,37082
13.16703,38154
13.17515,37895
13.18328,40792
13.19140,41293
13.19952,43927
13.20765,43874
13.21577,43089
13.22390,41316
13.23202,40513
13.24013,40385
13.24827,38358
13.25638,39447
13.26452,36215
13.27263,41590
13.28075,34306
13.28888,38115
13.29700,37773
13.30513,35294
13.31325,38661
13.32137,41194
13.32950,35431
13.33762,34421
13.34573,35550
13.35387,35524
13.36198,31609
13.37012,34123
13.37823,35388
13.38635,32680
13.39448,34733
13.40260,33440
13.41073,32382
13.41885,34400
13.42697,34936
13.43510,35207
13.44322,32415
13.45133,37074
13.45947,34829
13.46758,32009
13.47572,35165
13.48383,36804
13.49195,36250
13.50008,36210
13.50820,31638
13.51633,37428
13.52445,38551
13.53257,35560
13.54070,33468
13.54882,34102
13.55695,35657
13.56507,39045
13.57318,40612
13.58132,39307
13.58943,36926
13.59755,37416
13.60568,29165
13.61380,30236
13.62193,32402
13.63005,35864
13.63817,35498
13.64630,34379
13.65442,38818
13.66255,28322
13.67067,33091
13.67878,30568
13.68692,32867
13.69503,36044
13.70317,33180
13.71128,33639
13.71940,34018
13.72753,33597
13.73565,30830
13.74377,37617
13.75190,46047
13.76002,51445
13.76815,69487
13.77627,98334
13.78438,125657
13.79252,144936
13.80063,134214
13.80877,117570
13.81688,95693
13.82500,79763
13.83313,60822
13.84125,63028
13.84937,48495
13.85750,46403
13.86562,48905
13.87375,51002
13.88187,46596
13.88998,42363
13.89812,40097
13.90623,39805
13.91437,39131
13.92248,41241
13.93060,41570
13.93873,42039
13.94685,45766
13.95498,54541
13.96310,67976
13.97122,102240
13.97935,145383
13.98747,200003
13.99558,235878
14.00372,220570
14.01183,213606
14.01997,165651
14.02808,126530
14.03620,103975
14.04433,86632
14.05245,81227
14.06058,71527
14.06870,71077
14.07682,69807
14.08495,63588
14.09307,60795
14.10118,64620
14.10932,67165
14.11743,56140
14.12557,55369
14.13368,54830
14.14180,50540
14.14993,57174
14.15805,53879
14.16618,53959
14.17430,52464
14.18242,54271
14.19055,57708
14.19867,70240
14.20680,91180
14.21492,118739
14.22303,150341
14.23117,169108
14.23928,165261
14.24740,160048
14.25553,148943
14.26365,141404
14.27178,125983
14.27990,113234
14.28802,99573
14.29615,95524
14.30427,87797
14.31240,81390
14.32052,81222
14.32863,72711
14.33677,77846
14.34488,75209
14.35302,69268
14.36113,67231
14.36925,65796
14.37738,66450
14.38550,55966
14.39362,47553
14.40175,47787
14.40987,43843
14.41800,45859
14.42612,45542
14.43423,42357
14.44237,43109
14.45048,40909
14.45862,44349
14.46673,43873
14.47485,39856
14.48298,37573
14.49110,40481
14.49922,37010
14.50735,38960
14.51547,37633
14.52360,41338
14.53172,47066
14.53983,43288
14.54797,40840
14.55608,42786
14.56422,39365
14.57233,36361
14.58045,40468
14.58858,35811
14.59670,37454
14.60483,37128
14.61295,34556
14.62107,30946
14.62920,35977
14.63732,36971
14.64543,37610
14.65357,35157
14.66168,34176
14.66982,34037
14.67793,33961
14.68605,32933
14.69418,31067
14.70230,33418
14.71043,37483
14.71855,36970
14.72667,37224
14.73480,33189
14.74292,35986
14.75105,40064
14.75917,39234
14.76728,31680
14.77542,37916
14.78353,36531
14.79165,34175
14.79978,40269
14.80790,35860
14.81603,34185
14.82415,42094
14.83227,41235
14.84040,45388
14.84852,45247
14.85665,46613
14.86477,43218
14.87288,48139
14.88102,41579
14.88913,40883
14.89725,42703
14.90538,42800
14.91350,37411
14.92163,37568
14.92975,35945
14.93787,35160
14.94600,32389
14.95412,35713
14.96225,38394
14.97037,35198
14.97848,39294
14.98662,33787
14.99473,38817
15.00287,38718
15.01098,35546
15.01910,33931
15.02723,35649
15.03535,37653
15.04347,33703
15.05160,34291
15.05972,33321
15.06785,37287
15.07597,42714
15.08408,34350
15.09222,38633
15.10033,34295
15.10847,33143
15.11658,34107
15.12470,32614
15.13283,31108
15.14095,34685
15.14907,34869
15.15720,34285
15.16532,34564
15.17345,36303
15.18157,33991
15.18968,32345
15.19782,35283
15.20593,35237
15.21407,31520
15.22218,32431
15.23030,31336
15.23843,34777
15.24655,35709
15.25468,32529
15.26280,32763
15.27092,35630
15.27905,33429
15.28717,33556
15.29528,32962
15.30342,32946
15.31153,31520
15.31967,33771
15.32778,28898
15.33590,33325
15.34403,30353
15.35215,32353
15.36028,32791
15.36840,33158
15.37652,30001
15.38465,33010
15.39277,33435
15.40090,27311
15.40902,30338
15.41713,34281
15.42527,32343
15.43338,30920
15.44150,31296
15.44963,32213
15.45775,31161
15.46588,29694
15.47400,31967
15.48212,29019
15.49025,34043
15.49837,46048
15.50650,81610
15.51462,197623
15.52273,493995
15.53087,1119341
15.53898,2478191
15.54710,4423789
15.55523,5557392
15.56335,5670255
15.57148,4701777
15.57960,3283863
15.58772,2131238
15.59585,1407142
15.60397,1011804
15.61210,777722
15.62022,632844
15.62833,530268
15.63647,433053
15.64458,370744
15.65272,326263
15.66083,275914
15.66895,247293
15.67708,219678
15.68520,200683
15.69332,186933
15.70145,170519
15.70957,160425
15.71770,146264
15.72582,146639
15.73393,129163
15.74207,119657
15.75018,124265
15.75832,111353
15.76643,106141
15.77455,112455
15.78268,112882
15.79080,109881
15.79893,106309
15.80705,107893
15.81517,101772
15.82330,91288
15.83142,87637
15.83953,86478
15.84767,83386
15.85578,72565
15.86392,81671
15.87203,82632
15.88015,82794
15.88828,88684
15.89640,94571
15.90453,100819
15.91265,96037
15.92077,93865
15.92890,77363
15.93702,74397
15.94513,66340
15.95327,66259
15.96138,64542
15.96952,65862
15.97763,76427
15.98575,76676
15.99388,84387
16.00200,81221
16.01013,80061
16.01825,76389
16.02637,70782
16.03450,65987
16.04262,65921
16.05075,64517
16.05887,56344
16.06698,56341
16.07512,53700
16.08323,51808
16.09135,52111
16.09948,50074
16.10760,47804
16.11573,46679
16.12385,46918
16.13197,47226
16.14010,44198
16.14822,45668
16.15635,46962
16.16447,47505
16.17258,45475
16.18072,44905
16.18883,46150
16.19695,38706
16.20508,42084
16.21320,46184
16.22133,44457
16.22945,39134
16.23757,42481
16.24570,42295
16.25382,42379
16.26195,41863
16.27007,41952
16.27818,41986
16.28632,43693
16.29443,43125
16.30257,40307
16.31068,42348
16.31880,39263
16.32693,41160
16.33505,36143
16.34317,41692
16.35130,46461
16.35942,52792
16.36755,60636
16.37567,80470
16.38378,86532
16.39192,100127
16.40003,90842
16.40817,73875
16.41628,66428
16.42440,58854
16.43253,52114
16.44065,50356
16.44878,46601
16.45690,43698
16.46502,45461
16.47315,42581
16.48127,41949
16.48938,40282
16.49752,38373
16.50563,39992
16.51377,44300
16.52188,40858
16.53000,41957
16.53813,41244
16.54625,38661
16.55438,36027
16.56250,38281
16.57062,39719
16.57875,38907
16.58687,42500
16.59500,44508
16.60312,46784
16.61123,52703
16.61937,55729
16.62748,56431
16.63560,58441
16.64373,55196
16.65185,47133
16.65998,41194
16.66810,40740
16.67622,39245
16.68435,38614
16.69247,40035
16.70060,38068
16.70872,36586
16.71683,36849
16.72497,36646
16.73308,37906
16.74120,34975
16.74933,37394
16.75745,36804
16.76558,30017
16.77370,33683
16.78182,33690
16.78995,33348
16.79807,35670
16.80620,34116
16.81432,37350
16.82243,32947
16.83057,38648
16.83868,34454
16.84682,31960
16.85493,36069
16.86305,31041
16.87118,32471
16.87930,32926
16.88742,35135
16.89555,34839
16.90367,35278
16.91180,33508
16.91992,35077
16.92803,33345
16.93617,33017
16.94428,29145
16.95242,30765
16.96053,33528
16.96865,31161
16.97678,30062
16.98490,31603
16.99302,33206
17.00115,34758
17.00927,31480
17.01740,33765
17.02552,32333
17.03363,33692
17.04177,34677
17.04988,34695
17.05802,28762
17.06613,32771
17.07425,32634
17.08238,33278
17.09050,35292
17.09863,33491
17.10675,30245
17.11487,33497
17.12300,30848
17.13112,33177
17.13923,41526
17.14737,35892
17.15548,34584
17.16362,37878
17.17173,34107
17.17985,31605
17.18798,31228
17.19610,33428
17.20423,33922
17.21235,29737
17.22047,28904
17.22860,30970
17.23672,30958
17.24485,37579
17.25297,32197
17.26108,32269
17.26922,32295
17.27733,30302
17.28545,29906
17.29358,33406
17.30170,32448
17.30983,32835
17.31795,33919
17.32607,36435
17.33420,33113
17.34232,33742
17.35045,35286
17.35857,37162
17.36668,39301
17.37482,37008
17.38293,36945
17.39105,38101
17.39918,39363
17.40730,38196
17.41543,37474
17.42355,37052
17.43167,35560
17.43980,34185
17.44792,35060
17.45605,34417
17.46417,33322
17.47228,38867
17.48042,34920
17.48853,35915
17.49667,32691
17.50478,33622
17.51290,35424
17.52103,31779
17.52915,37109
17.53727,35861
17.54540,34440
17.55352,33019
17.56165,36190
17.56977,34930
17.57788,30167
17.58602,38717
17.59413,36615
17.60227,32501
17.61038,38766
17.61850,37112
17.62663,37094
17.63475,42167
17.64288,49996
17.65100,79981
17.65912,116150
17.66725,155670
17.67537,187631
17.68348,195723
17.69162,188182
17.69973,154190
17.70787,122420
17.71598,93949
17.72410,81530
17.73223,63749
17.74035,65144
17.74848,58102
17.75660,52980
17.76472,54367
17.77285,57583
17.78097,49715
17.78908,50794
17.79722,45306
17.80533,50652
17.81347,47772
17.82158,43353
17.82970,46072
17.83783,44467
17.84595,45121
17.85408,42914
17.86220,43071
17.87032,44790
17.87845,38854
17.88657,39456
17.89470,38186
17.90282,35264
17.91093,32866
17.91907,35797
17.92718,36000
17.93530,33832
17.94343,36870
17.95155,32157
17.95968,38721
17.96780,41293
17.97592,31792
17.98405,32038
17.99217,31615
18.00030,32017
18.00842,31829
18.01653,32956
18.02467,36408
18.03278,35856
18.04090,38302
18.04903,38464
18.05715,39936
18.06528,43096
18.07340,36498
18.08152,38776
18.08965,43164
18.09777,39615
18.10590,41932
18.11402,43848
18.12213,47075
18.13027,46002
18.13838,43515
18.14652,44781
18.15463,44949
18.16275,44481
18.17088,45665
18.17900,45571
18.18712,48885
18.19525,49040
18.20337,52227
18.21150,48750
18.21962,45795
18.22773,43317
18.23587,40116
18.24398,35472
18.25212,38353
18.26023,40904
18.26835,38662
18.27648,37224
18.28460,37286
18.29273,36175
18.30085,37430
18.30897,35371
18.31710,33422
18.32522,35763
18.33333,34498
18.34147,34792
18.34958,33661
18.35772,35604
18.36583,30629
18.37395,34340
18.38208,34105
18.39020,31970
18.39833,34871
18.40645,35450
18.41457,34607
18.42270,35654
18.43082,29154
18.43893,33252
18.44707,33784
18.45518,31379
18.46332,35202
18.47143,32289
18.47955,30831
18.48768,34151
18.49580,33624
18.50393,31323
18.51205,30438
18.52017,32854
18.52830,28087
18.53642,32089
18.54455,29730
18.55267,33865
18.56078,29697
18.56892,31153
18.57703,34195
18.58515,36692
18.59328,37629
18.60140,43959
18.60953,44247
18.61765,41109
18.62577,41838
18.63390,39062
18.64202,37984
18.65015,37927
18.65827,36593
18.66638,33705
18.67452,35314
18.68263,33372
18.69077,34410
18.69888,30511
18.70700,31605
18.71513,35165
18.72325,30708
18.73137,32558
18.73950,30120
18.74762,33477
18.75575,30223
18.76387,32836
18.77198,32253
18.78012,28869
18.78823,32536
18.79637,31093
18.80448,30681
18.81260,30750
18.82073,31444
18.82885,34790
18.83697,30671
18.84510,31320
18.85322,39056
18.86135,32112
18.86947,33658
18.87758,29461
18.88572,31209
18.89383,33544
18.90197,30803
18.91008,29890
18.91820,33781
18.92633,35444
18.93445,44523
18.94258,52970
18.95070,65976
18.95882,78464
18.96695,95366
18.97507,105090
18.98318,98484
18.99132,88770
18.99943,77917
19.00757,62988
19.01568,55660
19.02380,52887
19.03193,48248
19.04005,45352
19.04818,41680
19.05630,50703
19.06442,46774
19.07255,44452
19.08067,45502
19.08880,50966
19.09692,56000
19.10503,61743
19.11317,69162
19.12128,70327
19.12940,71599
19.13753,65638
19.14565,66922
19.15378,65728
19.16190,65599
19.17002,60060
19.17815,66976
19.18627,69936
19.19440,66815
19.20252,70133
19.21063,63854
19.21877,58848
19.22688,51700
19.23500,48431
19.24313,47846
19.25125,42079
19.25938,45739
19.26750,45053
19.27562,44611
19.28375,45264
19.29187,49253
19.30000,49798
19.30812,48714
19.31623,49981
19.32437,50119
19.33248,54830
19.34062,54020
19.34873,54606
19.35685,50767
19.36498,53645
19.37310,45616
19.38122,45789
19.38935,45860
19.39747,44387
19.40560,43474
19.41372,39721
19.42183,40729
19.42997,36581
19.43808,39644
19.44622,40340
19.45433,38998
19.46245,34217
19.47058,41635
19.47870,35503
19.48682,36629
19.49495,40766
19.50307,49328
19.51120,63442
19.51932,81170
19.52743,98937
19.53557,103739
19.54368,98072
19.55182,82865
19.55993,63998
19.56805,54070
19.57618,43093
19.58430,39658
19.59243,39922
19.60055,36921
19.60867,38786
19.61680,36168
19.62492,35224
19.63303,42093
19.64117,42225
19.64928,61651
19.65742,80583
19.66553,109104
19.67365,146810
19.68178,184209
19.68990,183111
19.69803,169064
19.70615,147207
19.71427,120292
19.72240,97915
19.73052,87790
19.73865,78364
19.74677,71890
19.75488,70912
19.76302,60237
19.77113,56409
19.77925,51514
19.78738,51157
19.79550,49690
19.80363,48694
19.81175,49850
19.81987,49268
19.82800,45434
19.83612,45188
19.84425,40484
19.85237,44316
19.86048,46382
19.86862,46799
19.87673,65554
19.88485,102130
19.89298,168038
19.90110,259517
19.90923,393143
19.91735,514781
19.92547,625804
19.93360,676524
19.94172,715191
19.94985,729169
19.95797,692801
19.96608,677445
19.97422,651444
19.98233,621089
19.99047,586968
19.99858,579550
20.00670,547440
20.01483,538914
20.02295,522966
20.03107,497813
20.03920,455353
20.04732,421391
20.05545,371442
20.06357,303704
20.07168,234094
20.07982,198039
20.08793,158475
20.09607,136848
20.10418,125493
20.11230,120323
20.12043,116125
20.12855,109302
20.13668,108798
20.14480,101627
20.15292,104750
20.16105,109887
20.16917,105999
20.17728,105648
20.18542,109053
20.19353,101459
20.20167,105698
20.20978,96588
20.21790,91901
20.22603,88248
20.23415,87694
20.24228,84047
20.25040,91980
20.25852,97856
20.26665,116447
20.27477,150429
20.28288,184628
20.29102,218742
20.29913,231228
20.30727,228911
20.31538,204674
20.32350,169771
20.33163,143058
20.33975,128541
20.34788,102184
20.35600,81293
20.36412,79237
20.37225,65094
20.38037,64507
20.38850,52904
20.39662,46139
20.40473,42909
20.41287,44500
20.42098,49144
20.42910,51197
20.43723,53512
20.44535,61969
20.45348,75303
20.46160,76951
20.46972,77422
20.47785,70690
20.48597,60142
20.49410,67949
20.50222,59947
20.51033,53193
20.51847,45916
20.52658,41374
20.53470,40806
20.54283,40584
20.55095,38939
20.55908,38678
20.56720,43261
20.57532,41554
20.58345,42823
20.59157,38971
20.59970,38760
20.60782,38710
20.61593,40086
20.62407,40043
20.63218,37645
20.64032,37867
20.64843,44456
20.65655,36407
20.66468,41344
20.67280,35091
20.68092,37602
20.68905,37823
20.69717,36402
20.70530,33362
20.71342,37946
20.72153,42006
20.72967,38639
20.73778,39646
20.74592,36585
20.75403,37058
20.76215,40800
20.77028,34547
20.77840,41014
20.78653,39333
20.79465,45225
20.80277,39773
20.81090,37733
20.81902,41156
20.82713,38524
20.83527,38129
20.84338,36253
20.85152,39420
20.85963,44309
20.86775,35535
20.87588,38385
20.88400,36735
20.89213,41803
20.90025,38529
20.90837,36802
20.91650,40116
20.92462,39772
20.93275,42748
20.94087,43101
20.94898,40717
20.95712,38933
20.96523,35050
20.97335,38844
20.98148,35349
20.98960,35779
20.99773,36420
21.00585,35580
21.01397,36041
21.02210,38086
21.03022,38418
21.03835,33932
21.04647,37527
21.05458,40990
21.06272,38297
21.07083,39216
21.07895,43001
21.08708,43815
21.09520,36503
21.10333,35877
21.11145,36083
21.11957,40978
21.12770,41722
21.13582,40757
21.14395,42092
21.15207,48661
21.16018,49107
21.16832,51382
21.17643,51565
21.18457,49588
21.19268,47524
21.20080,44211
21.20893,43266
21.21705,41028
21.22517,38715
21.23330,39206
21.24142,41594
21.24955,40670
21.25767,41492
21.26578,42229
21.27392,43470
21.28203,38593
21.29017,41297
21.29828,37636
21.30640,40668
21.31453,37386
21.32265,38964
21.33077,36843
21.33890,37443
21.34702,35960
21.35515,41010
21.36327,38768
21.37138,39247
21.37952,42158
21.38763,46952
21.39577,41894
21.40388,39766
21.41200,38534
21.42013,40558
21.42825,39310
21.43638,43526
21.44450,38790
21.45262,37720
21.46075,36799
21.46887,36530
21.47698,33976
21.48512,38340
21.49323,36855
21.50137,35908
21.50948,37940
21.51760,38258
21.52573,35941
21.53385,36463
21.54198,37460
21.55010,33618
21.55822,34741
21.56635,35420
21.57447,36386
21.58258,37956
21.59072,41222
21.59883,36499
21.60697,36317
21.61508,34146
21.62320,37365
21.63133,45014
21.63945,50683
21.64758,57577
21.65570,70344
21.66382,65945
21.67195,64534
21.68007,56342
21.68820,54297
21.69632,48819
21.70443,43450
21.71257,39004
21.72068,39714
21.72880,38236
21.73693,39400
21.74505,37648
21.75318,35888
21.76130,40847
21.76942,37295
21.77755,39251
21.78567,40297
21.79380,41772
21.80192,36074
21.81003,38138
21.81817,42759
21.82628,45518
21.83442,51993
21.84253,57815
21.85065,69280
21.85878,74621
21.86690,80996
21.87502,74702
21.88315,65697
21.89127,55604
21.89940,49404
21.90752,41077
21.91563,40744
21.92377,35690
21.93188,37497
21.94002,36369
21.94813,36187
21.95625,32402
21.96438,35461
21.97250,38420
21.98063,36180
21.98875,36886
21.99687,30730
22.00500,34813
22.01312,30515
22.02123,34026
22.02937,33640
22.03748,32137
22.04562,35973
22.05373,36054
22.06185,35187
22.06998,33719
22.07810,31088
22.08623,33257
22.09435,32851
22.10247,33628
22.11060,34115
22.11872,30877
22.12683,33761
22.13497,36431
22.14308,32366
22.15122,32794
22.15933,36438
22.16745,33504
22.17558,33663
22.18370,34761
22.19183,34879
22.19995,34330
22.20807,37549
22.21620,36394
22.22432,36457
22.23245,34900
22.24057,37014
22.24868,39868
22.25682,35267
22.26493,43304
22.27305,48311
22.28118,54583
22.28930,69201
22.29743,84180
22.30555,108284
22.31367,127835
22.32180,152210
22.32992,161685
22.33805,158755
22.34617,166284
22.35428,146101
22.36242,129617
22.37053,107104
22.37865,90926
22.38678,77746
22.39490,69345
22.40303,64993
22.41115,58356
22.41927,54179
22.42740,52698
22.43552,46296
22.44365,47736
22.45177,46455
22.45988,43907
22.46802,38362
22.47613,41673
22.48427,39451
22.49238,40908
22.50050,38492
22.50863,36561
22.51675,36968
22.52487,36861
22.53300,36913
22.54112,40131
22.54925,34920
22.55737,41343
22.56548,38961
22.57362,34973
22.58173,38142
22.58987,37443
22.59798,36087
22.60610,32471
22.61423,33885
22.62235,31145
22.63048,31622
22.63860,32433
22.64672,33362
22.65485,37100
22.66297,35695
22.67108,39334
22.67922,42637
22.68733,46663
22.69547,44929
22.70358,51413
22.71170,46192
22.71983,47845
22.72795,44477
22.73608,40163
22.74420,40895
22.75232,37209
22.76045,36431
22.76857,37066
22.77668,35790
22.78482,34416
22.79293,33919
22.80107,30488
22.80918,32220
22.81730,33710
22.82543,32691
22.83355,33429
22.84168,32824
22.84980,33190
22.85792,34046
22.86605,35130
22.87417,34151
22.88230,35933
22.89042,37229
22.89853,35376
22.90667,37819
22.91478,42845
22.92290,45200
22.93103,54885
22.93915,55694
22.94728,64951
22.95540,72308
22.96352,71428
22.97165,67060
22.97977,64644
22.98790,65918
22.99602,61890
23.00413,56072
23.01227,63851
23.02038,49875
23.02852,41927
23.03663,44981
23.04475,37908
23.05288,41205
23.06100,40168
23.06912,37113
23.07725,40364
23.08537,39473
23.09350,40928
23.10162,39100
23.10973,36564
23.11787,30847
23.12598,32609
23.13412,33728
23.14223,37015
23.15035,36365
23.15848,32222
23.16660,37999
23.17472,35361
23.18285,30723
23.19097,32640
23.19910,29826
23.20722,30072
23.21533,35880
23.22347,31141
23.23158,32137
23.23972,37222
23.24783,39222
23.25595,41226
23.26408,47160
23.27220,49961
23.28033,45912
23.28845,43328
23.29657,41530
23.30470,39976
23.31282,42470
23.32093,37924
23.32907,32210
23.33718,33073
23.34532,31223
23.35343,35614
23.36155,38723
23.36968,40396
23.37780,37375
23.38593,40806
23.39405,36841
23.40217,35726
23.41030,37308
23.41842,38667
23.42653,36854
23.43467,35739
23.44278,36039
23.45092,38199
23.45903,37188
23.46715,31180
23.47528,38922
23.48340,38521
23.49153,36812
23.49965,37860
23.50777,34835
23.51590,36190
23.52402,39823
23.53215,39414
23.54027,38146
23.54838,35879
23.55652,36686
23.56463,38126
23.57275,42285
23.58088,45169
23.58900,51912
23.59713,59422
23.60525,63184
23.61337,74960
23.62150,79059
23.62962,83680
23.63775,103622
23.64587,141552
23.65398,209318
23.66212,307420
23.67023,398903
23.67837,442091
23.68648,428159
23.69460,375345
23.70273,297205
23.71085,224267
23.71897,172823
23.72710,137062
23.73522,116371
23.74335,98501
23.75147,94365
23.75958,121546
23.76772,209919
23.77583,421763
23.78397,837158
23.79208,1535584
23.80020,2150446
23.80833,2428582
23.81645,2319985
23.82457,1941957
23.83270,1502226
23.84082,1116966
23.84895,822091
23.85707,632072
23.86518,474473
23.87332,406575
23.88143,337040
23.88957,289238
23.89768,261371
23.90580,227411
23.91393,204020
23.92205,185002
23.93018,183716
23.93830,160036
23.94642,158407
23.95455,148020
23.96267,135732
23.97078,131751
23.97892,128960
23.98703,117511
23.99517,115560
24.00328,112131
24.01140,113488
24.01953,110054
24.02765,115521
24.03578,115371
24.04390,118595
24.05202,128081
24.06015,123222
24.06827,120537
24.07640,110028
24.08452,109339
24.09263,98907
24.10077,87112
24.10888,85839
24.11700,77438
24.12513,79557
24.13325,82430
24.14138,81890
24.14950,81665
24.15762,81266
24.16575,89435
24.17387,88492
24.18200,80077
24.19012,79447
24.19823,77521
24.20637,73870
24.21448,76549
24.22260,73000
24.23073,81035
24.23885,74805
24.24698,80157
24.25510,74675
24.26322,71093
24.27135,64353
24.27947,63928
24.28760,58384
24.29572,61563
24.30383,58336
24.31197,61161
24.32008,57096
24.32822,57495
24.33633,52569
24.34445,52698
24.35258,49373
24.36070,55365
24.36882,52206
24.37695,55302
24.38507,58102
24.39320,59043
24.40132,61245
24.40943,79414
24.41757,89442
24.42568,89962
24.43382,88168
24.44193,81389
24.45005,66570
24.45818,59700
24.46630,51723
24.47443,50739
24.48255,49741
24.49067,48948
24.49880,48049
24.50692,51318
24.51503,54328
24.52317,60937
24.53128,61291
24.53942,63617
24.54753,61665
24.55565,53826
24.56378,56101
24.57190,52179
24.58003,51177
24.58815,48874
24.59627,51580
24.60440,48653
24.61252,48891
24.62063,48241
24.62877,48827
24.63688,46942
24.64502,50229
24.65313,48202
24.66125,46563
24.66938,46715
24.67750,51685
24.68563,44330
24.69375,48996
24.70187,44868
24.71000,46440
24.71812,53685
24.72625,44855
24.73437,49086
24.74248,50621
24.75062,43092
24.75873,40059
24.76685,39442
24.77498,42757
24.78310,39853
24.79123,37276
24.79935,38871
24.80747,41139
24.81560,43093
24.82372,37106
24.83185,38405
24.83997,37864
24.84808,40197
24.85622,37609
24.86433,36508
24.87245,42374
24.88058,37917
24.88870,38570
24.89683,40679
24.90495,41805
24.91307,38116
24.92120,38566
24.92932,36908
24.93745,38497
24.94557,41722
24.95368,38642
24.96182,36440
24.96993,39772
24.97807,39737
24.98618,34240
24.99430,31872
25.00243,34999
25.01055,37603
25.01867,36970
25.02680,42764
25.03492,35962
25.04305,33243
25.05117,33025
25.05928,34638
25.06742,38356
25.07553,36632
25.08367,41119
25.09178,39538
25.09990,37190
25.10803,35376
25.11615,36888
25.12428,36809
25.13240,38662
25.14052,39513
25.14865,38820
25.15677,43285
25.16488,40836
25.17302,44337
25.18113,42591
25.18927,48166
25.19738,44687
25.20550,42034
25.21363,40304
25.22175,42034
25.22988,34746
25.23800,37999
25.24612,38169
25.25425,35989
25.26237,37181
25.27048,38999
25.27862,38869
25.28673,39905
25.29487,40871
25.30298,38563
25.31110,40924
25.31923,43190
25.32735,45499
25.33548,44090
25.34360,42929
25.35172,44874
25.35985,40760
25.36797,39804
25.37610,39908
25.38422,38448
25.39233,35369
25.40047,36135
25.40858,35598
25.41670,34554
25.42483,36328
25.43295,35269
25.44108,33737
25.44920,32616
25.45732,37135
25.46545,37803
25.47357,40442
25.48170,35441
25.48982,39072
25.49793,40567
25.50607,43540
25.51418,44793
25.52232,39546
25.53043,36775
25.53855,36133
25.54668,36160
25.55480,32885
25.56292,31968
25.57105,34691
25.57917,34056
25.58730,30830
25.59542,33001
25.60353,31557
25.61167,37717
25.61978,35949
25.62792,47829
25.63603,50986
25.64415,62150
25.65228,71528
25.66040,70187
25.66852,71611
25.67665,61439
25.68477,56141
25.69290,50103
25.70102,46268
25.70913,38884
25.71727,39333
25.72538,37709
25.73352,40443
25.74163,41825
25.74975,44964
25.75788,40058
25.76600,45474
25.77413,42299
25.78225,40349
25.79037,38209
25.79850,42746
25.80662,38397
25.81473,38889
25.82287,41544
25.83098,47329
25.83912,50877
25.84723,54179
25.85535,52773
25.86348,49770
25.87160,50061
25.87973,42380
25.88785,35554
25.89597,38174
25.90410,34289
25.91222,36740
25.92033,34075
25.92847,35401
25.93658,33950
25.94472,35854
25.95283,36511
25.96095,33738
25.96908,31881
25.97720,32325
25.98533,30235
25.99345,36108
26.00157,29052
26.00970,31554
26.01782,33921
26.02595,31083
26.03407,31200
26.04218,38003
26.05032,28965
26.05843,32454
26.06655,31129
26.07468,32694
26.08280,29424
26.09093,33385
26.09905,33130
26.10717,34358
26.11530,32519
26.12342,40697
26.13155,40529
26.13967,42266
26.14778,43972
26.15592,46830
26.16403,44910
26.17217,49780
26.18028,43938
26.18840,40215
26.19653,41670
26.20465,38160
26.21277,35059
26.22090,36181
26.22902,32350
26.23715,33061
26.24527,31465
26.25338,29705
26.26152,34107
26.26963,33474
26.27777,33556
26.28588,33277
26.29400,35364
26.30213,33522
26.31025,34800
26.31837,40567
26.32650,40789
26.33462,38013
26.34275,34780
26.35087,35465
26.35898,34869
26.36712,31556
26.37523,28936
26.38337,32345
26.39148,35592
26.39960,38771
26.40773,32031
26.41585,33926
26.42398,33340
26.43210,33398
26.44022,33341
26.44835,34592
26.45647,31336
26.46458,31017
26.47272,27786
26.48083,29057
26.48897,30346
26.49708,30129
26.50520,31311
26.51333,32994
26.52145,28112
26.52958,35321
26.53770,31498
26.54582,29438
26.55395,29600
26.56207,30265
26.57020,29450
26.57832,28651
26.58643,28304
26.59457,29514
26.60268,35414
26.61080,30085
26.61893,33198
26.62705,29429
26.63518,30001
26.64330,29296
26.65142,30715
26.65955,30395
26.66767,33946
26.67580,34409
26.68392,37714
26.69203,36733
26.70017,36879
26.70828,34997
26.71640,32439
26.72453,33939
26.73265,30313
26.74078,32140
26.74890,29474
26.75702,29564
26.76515,29880
26.77327,29958
26.78140,31521
26.78952,31450
26.79763,30917
26.80577,33906
26.81388,30754
26.82202,37011
26.83013,36829
26.83825,37702
26.84638,34419
26.85450,32660
26.86262,34436
26.87075,34588
26.87887,37110
26.88700,35244
26.89512,37988
26.90323,33034
26.91137,34178
26.91948,32340
26.92762,33343
26.93573,31504
26.94385,31493
26.95198,32872
26.96010,33100
26.96822,32160
26.97635,37807
26.98447,50417
26.99260,71098
27.00072,119993
27.00883,172874
27.01697,243745
27.02508,322279
27.03322,388871
27.04133,404806
27.04945,391885
27.05758,359373
27.06570,300621
27.07383,237199
27.08195,202450
27.09007,167690
27.09820,145154
27.10632,119002
27.11443,110456
27.12257,95536
27.13068,93944
27.13882,83726
27.14693,85285
27.15505,79557
27.16318,71743
27.17130,70716
27.17943,70187
27.18755,64418
27.19567,66420
27.20380,67429
27.21192,61143
27.22005,59747
27.22817,61390
27.23628,57499
27.24442,56331
27.25253,51926
27.26065,54355
27.26878,51927
27.27690,54116
27.28503,50451
27.29315,49583
27.30127,47385
27.30940,47975
27.31752,45782
27.32565,45058
27.33377,46279
27.34188,47398
27.35002,44431
27.35813,42832
27.36627,45157
27.37438,43833
27.38250,44385
27.39063,51395
27.39875,51631
27.40687,49811
27.41500,46333
27.42312,42251
27.43125,44786
27.43937,43858
27.44748,42155
27.45562,38796
27.46373,40043
27.47187,45247
27.47998,43426
27.48810,40287
27.49623,40212
27.50435,43459
27.51247,39606
27.52060,40258
27.52872,39928
27.53685,38645
27.54497,42678
27.55308,39970
27.56122,40226
27.56933,40439
27.57747,37630
27.58558,36833
27.59370,37626
27.60183,38489
27.60995,40481
27.61808,37706
27.62620,37979
27.63432,45209
27.64245,40727
27.65057,40511
27.65868,35000
27.66682,35785
27.67493,35441
27.68307,35498
27.69118,35670
27.69930,34810
27.70743,36426
27.71555,30942
27.72368,36109
27.73180,31040
27.73992,34992
27.74805,33069
27.75617,34555
27.76428,33585
27.77242,37172
27.78053,34053
27.78867,31271
27.79678,36189
27.80490,37168
27.81303,35572
27.82115,35169
27.82928,38352
27.83740,37223
27.84552,36552
27.85365,36633
27.86177,37089
27.86990,38229
27.87802,34100
27.88613,34107
27.89427,33087
27.90238,33954
27.91050,34688
27.91863,31287
27.92675,33497
27.93488,33062
27.94300,35746
27.95112,34273
27.95925,33050
27.96737,33045
27.97550,31449
27.98362,34502
27.99173,30887
27.99987,35576
28.00798,34576
28.01612,32677
28.02423,32566
28.03235,38898
28.04048,34225
28.04860,31295
28.05672,33895
28.06485,35124
28.07297,34728
28.08110,39095
28.08922,29747
28.09733,31542
28.10547,30431
28.11358,32860
28.12172,32742
28.12983,33493
28.13795,34140
28.14608,32131
28.15420,31793
28.16232,35613
28.17045,34065
28.17857,32017
28.18670,35883
28.19482,41307
28.20293,54659
28.21107,58797
28.21918,73011
28.22732,84960
28.23543,86967
28.24355,91335
28.25168,85850
28.25980,65684
28.26793,60688
28.27605,54070
28.28417,46440
28.29230,42772
28.30042,39934
28.30853,39793
28.31667,42845
28.32478,42462
28.33292,44307
28.34103,45448
28.34915,54387
28.35728,65028
28.36540,74994
28.37353,80218
28.38165,91042
28.38977,94600
28.39790,101145
28.40602,106287
28.41415,97951
28.42227,97529
28.43038,95216
28.43852,87735
28.44663,78821
28.45475,72141
28.46288,71699
28.47100,68818
28.47913,67378
28.48725,59087
28.49537,61380
28.50350,54588
28.51162,55192
28.51975,54681
28.52787,53716
28.53598,48605
28.54412,51529
28.55223,43649
28.56035,48732
28.56848,45926
28.57660,43744
28.58473,45870
28.59285,43044
28.60097,45484
28.60910,50027
28.61722,45359
28.62535,51885
28.63347,51240
28.64158,61200
28.64972,76292
28.65783,84164
28.66597,93623
28.67408,96741
28.68220,102122
28.69033,88099
28.69845,73604
28.70657,72182
28.71470,55432
28.72282,50014
28.73095,45166
28.73907,46924
28.74718,40246
28.75532,43333
28.76343,39314
28.77157,51103
28.77968,52864
28.78780,54610
28.79593,59369
28.80405,59191
28.81217,53477
28.82030,46942
28.82842,40982
28.83655,42061
28.84467,37916
28.85278,38392
28.86092,35331
28.86903,36685
28.87717,39438
28.88528,37489
28.89340,37127
28.90153,37699
28.90965,34639
28.91778,37868
28.92590,33565
28.93402,36297
28.94215,39472
28.95027,41492
28.95838,44877
28.96652,48821
28.97463,42349
28.98277,43928
28.99088,43902
28.99900,42379
29.00713,45912
29.01525,40749
29.02338,37320
29.03150,35197
29.03962,32853
29.04775,35775
29.05587,31918
29.06400,32814
29.07212,34547
29.08023,32501
29.08837,37785
29.09648,35048
29.10460,32970
29.11273,36903
29.12085,35247
29.12898,37408
29.13710,36312
29.14522,36317
29.15335,38835
29.16147,39621
29.16960,36560
29.17772,34713
29.18583,35104
29.19397,36839
29.20208,39266
29.21020,38400
29.21833,40209
29.22645,40489
29.23458,38472
29.24270,37214
29.25082,35435
29.25895,36567
29.26707,36937
29.27520,37651
29.28332,39722
29.29143,34740
29.29957,36940
29.30768,35205
29.31582,34761
29.32393,33601
29.33205,36094
29.34018,33725
29.34830,32645
29.35642,34261
29.36455,39303
29.37267,32649
29.38080,35580
29.38892,38652
29.39703,40028
29.40517,44261
29.41328,45658
29.42142,53680
29.42953,54149
29.43765,55212
29.44578,54477
29.45390,54531
29.46203,49406
29.47015,39472
29.47827,47611
29.48640,37562
29.49452,39617
29.50263,40001
29.51077,44353
29.51888,45249
29.52702,37658
29.53513,41256
29.54325,35046
29.55138,38680
29.55950,41415
29.56763,36178
29.57575,37376
29.58387,35663
29.59200,33833
29.60012,34780
29.60823,33409
29.61637,35094
29.62448,36213
29.63262,33773
29.64073,35988
29.64885,37296
29.65698,32160
29.66510,38474
29.67323,32562
29.68135,33327
29.68947,36823
29.69760,34687
29.70572,32710
29.71385,34750
29.72197,36214
29.73008,38280
29.73822,36688
29.74633,39262
29.75445,34720
29.76258,37015
29.77070,33922
29.77883,34130
29.78695,34135
29.79507,32471
29.80320,32597
29.81132,28458
29.81945,31428
29.82757,32828
29.83568,31767
29.84382,34760
29.85193,35361
29.86005,42594
29.86818,74710
29.87630,143007
29.88443,284494
29.89255,523236
29.90067,821268
29.90880,1080370
29.91692,1084815
29.92505,936313
29.93317,667620
29.94128,416714
29.94942,237904
29.95753,139037
29.96567,97890
29.97378,82003
29.98190,81756
29.99003,72800
29.99815,77913
30.00627,75738
30.01440,81268
30.02252,79383
30.03065,85742
30.03877,90681
30.04688,86986
30.05502,87950
30.06313,94597
30.07127,88138
30.07938,87405
30.08750,83349
30.09563,81585
30.10375,78133
30.11188,69634
30.12000,70012
30.12812,70391
30.13625,68741
30.14437,70486
30.15248,65685
30.16062,62883
30.16873,61169
30.17687,64237
30.18498,56789
30.19310,54442
30.20123,51191
30.20935,57204
30.21748,50826
30.22560,51906
30.23372,52811
30.24185,46722
30.24997,45917
30.25808,46824
30.26622,44326
30.27433,45705
30.28247,44075
30.29058,49077
30.29870,45433
30.30683,41081
30.31495,44441
30.32308,42320
30.33120,43416
30.33932,43234
30.34745,39843
30.35557,39757
30.36370,43685
30.37182,43133
30.37993,44513
30.38807,49045
30.39618,44916
30.40430,40962
30.41243,39126
30.42055,40218
30.42868,37711
30.43680,36589
30.44492,36981
30.45305,36343
30.46117,45780
30.46930,38360
30.47742,34302
30.48553,39843
30.49367,36569
30.50178,42580
30.50992,35898
30.51803,35547
30.52615,36221
30.53428,38899
30.54240,34429
30.55052,35104
30.55865,37881
30.56677,36692
30.57490,34230
30.58302,37586
30.59113,37947
30.59927,37918
30.60738,34896
30.61552,32324
30.62363,36683
30.63175,37569
30.63988,34251
30.64800,35255
30.65612,37781
30.66425,40839
30.67237,33348
30.68050,35439
30.68862,33158
30.69673,35164
30.70487,33982
30.71298,30398
30.72112,37042
30.72923,39821
30.73735,38632
30.74548,38272
30.75360,38116
30.76173,44045
30.76985,48480
30.77797,74239
30.78610,122367
30.79422,213068
30.80233,377109
30.81047,555691
30.81858,737764
30.82672,756961
30.83483,638954
30.84295,498221
30.85108,340939
30.85920,201087
30.86733,124007
30.87545,91141
30.88357,75289
30.89170,67696
30.89982,54465
30.90795,56299
30.91607,54009
30.92418,55185
30.93232,51295
30.94043,52263
30.94855,53877
30.95668,56051
30.96480,47254
30.97293,46703
30.98105,45873
30.98917,47397
30.99730,43836
31.00542,43209
31.01355,46062
31.02167,48000
31.02978,51724
31.03792,52916
31.04603,51554
31.05415,54653
31.06228,54559
31.07040,52360
31.07853,57290
31.08665,65015
31.09477,86112
31.10290,115836
31.11102,139924
31.11915,162909
31.12727,155765
31.13538,132797
31.14352,106899
31.15163,84059
31.15977,67558
31.16788,56361
31.17600,51108
31.18413,54177
31.19225,53966
31.20037,63113
31.20850,69032
31.21662,70808
31.22475,79634
31.23287,87800
31.24098,81141
31.24912,78881
31.25723,65599
31.26537,59361
31.27348,49649
31.28160,45920
31.28973,42164
31.29785,42610
31.30597,42662
31.31410,40865
31.32222,41392
31.33035,38502
31.33847,41926
31.34658,38685
31.35472,41204
31.36283,39785
31.37097,42192
31.37908,48914
31.38720,53637
31.39533,53302
31.40345,57136
31.41158,56357
31.41970,53132
31.42782,51312
31.43595,48950
31.44407,47413
31.45218,46247
31.46032,46897
31.46843,42278
31.47657,44936
31.48468,37984
31.49280,44982
31.50093,35149
31.50905,37331
31.51718,38243
31.52530,42119
31.53342,38555
31.54155,38260
31.54967,41488
31.55780,38288
31.56592,34921
31.57403,32950
31.58217,36577
31.59028,38458
31.59840,38707
31.60653,42095
31.61465,38977
31.62278,39672
31.63090,41143
31.63902,40172
31.64715,37584
31.65527,39277
31.66340,35513
31.67152,37467
31.67963,39691
31.68777,38694
31.69588,39577
31.70400,36123
31.71213,36227
31.72025,34318
31.72838,37201
31.73650,41343
31.74462,34274
31.75275,36019
31.76087,37166
31.76900,32307
31.77712,41589
31.78523,38104
31.79337,36660
31.80148,35579
31.80962,45113
31.81773,38196
31.82585,39371
31.83398,47359
31.84210,43822
31.85022,41580
31.85835,41424
31.86647,43347
31.87460,46341
31.88272,46346
31.89083,49818
31.89897,45453
31.90708,50205
31.91522,43321
31.92333,52469
31.93145,50868
31.93958,57766
31.94770,56777
31.95583,62563
31.96395,63717
31.97207,64392
31.98020,70050
31.98832,74360
31.99643,70231
32.00457,74604
32.01268,74595
32.02082,71912
32.02893,78059
32.03705,73146
32.04518,71720
32.05330,59812
32.06143,62966
32.06955,59371
32.07767,62912
32.08580,58431
32.09392,57884
32.10203,53807
32.11017,53284
32.11828,52826
32.12642,43343
32.13453,48416
32.14265,43505
32.15078,45112
32.15890,45879
32.16703,42005
32.17515,41874
32.18327,42339
32.19140,40218
32.19952,38197
32.20765,40761
32.21577,44471
32.22388,44655
32.23202,39199
32.24013,43979
32.24825,42354
32.25638,42479
32.26450,44503
32.27263,47673
32.28075,44247
32.28887,47525
32.29700,45190
32.30512,43067
32.31325,41758
32.32137,37744
32.32948,44615
32.33762,47512
32.34573,49012
32.35385,57097
32.36198,55316
32.37010,58649
32.37823,57834
32.38635,52985
32.39447,53723
32.40260,47154
32.41072,43649
32.41885,43707
32.42697,39103
32.43508,39519
32.44322,39671
32.45133,39745
32.45947,39445
32.46758,38198
32.47570,37787
32.48383,37382
32.49195,38196
32.50007,37367
32.50820,38264
32.51632,37576
32.52445,36623
32.53257,39289
32.54068,40448
32.54882,37532
32.55693,42604
32.56507,39185
32.57318,36025
32.58130,40428
32.58943,37624
32.59755,38830
32.60568,32928
32.61380,37266
32.62192,37113
32.63005,35457
32.63817,33491
32.64628,34603
32.65442,36162
32.66253,41800
32.67067,47558
32.67878,44783
32.68690,50804
32.69503,49048
32.70315,51135
32.71128,51356
32.71940,45754
32.72752,44127
32.73565,43606
32.74377,43660
32.75190,41140
32.76002,37253
32.76813,35882
32.77627,40773
32.78438,32038
32.79250,38364
32.80063,36711
32.80875,35839
32.81688,37662
32.82500,37310
32.83312,36627
32.84125,36704
32.84937,36643
32.85750,35931
32.86562,34810
32.87373,39742
32.88187,36674
32.88998,35614
32.89810,36851
32.90623,33750
32.91435,33607
32.92248,33398
32.93060,34118
32.93872,37966
32.94685,38118
32.95497,37735
32.96310,34431
32.97122,34227
32.97933,36764
32.98747,35627
32.99558,35660
33.00372,34464
33.01183,34878
33.01995,32644
33.02808,35976
33.03620,38258
33.04432,37715
33.05245,37235
33.06057,36872
33.06870,36376
33.07682,37229
33.08493,47315
33.09307,65865
33.10118,107856
33.10932,192769
33.11743,336152
33.12555,461139
33.13368,526718
33.14180,485011
33.14992,357049
33.15805,235686
33.16617,135758
33.17430,88054
33.18242,69114
33.19053,52524
33.19867,46744
33.20678,48932
33.21492,47848
33.22303,50335
33.23115,48118
33.23928,44555
33.24740,44149
33.25553,41399
33.26365,39433
33.27177,42928
33.27990,41850
33.28802,41811
33.29613,41390
33.30427,42259
33.31238,41827
33.32052,40151
33.32863,39108
33.33675,40237
33.34488,44124
33.35300,41357
33.36113,44256
33.36925,38640
33.37737,42569
33.38550,35873
33.39362,41724
33.40175,38712
33.40987,39721
33.41798,38742
33.42612,38131
33.43423,38144
33.44235,35785
33.45048,40859
33.45860,36599
33.46673,42410
33.47485,40128
33.48297,40406
33.49110,39200
33.49922,40434
33.50735,36654
33.51547,36763
33.52358,40809
33.53172,33916
33.53983,36600
33.54795,37750
33.55608,36348
33.56420,37514
33.57233,37778
33.58045,36019
33.58857,36494
33.59670,39403
33.60482,39200
33.61295,44888
33.62107,41034
33.62918,42976
33.63732,44083
33.64543,42818
33.65357,39165
33.66168,39651
33.66980,40756
33.67793,39169
33.68605,37380
33.69417,42357
33.70230,37432
33.71042,40377
33.71855,39846
33.72667,39919
33.73478,41643
33.74292,36447
33.75103,37503
33.75917,36258
33.76728,41956
33.77540,39746
33.78353,45194
33.79165,38690
33.79978,37610
33.80790,34094
33.81602,38432
33.82415,37584
33.83227,41093
33.84038,45246
33.84852,42553
33.85663,41027
33.86477,44302
33.87288,47422
33.88100,42104
33.88913,43280
33.89725,38682
33.90538,41002
33.91350,40965
33.92162,37779
33.92975,41796
33.93787,42271
33.94598,39086
33.95412,36289
33.96223,42444
33.97037,40249
33.97848,37138
33.98660,38947
33.99473,39743
34.00285,38971
34.01098,38746
34.01910,38800
34.02722,39175
34.03535,38056
34.04347,36949
34.05160,37829
34.05972,37205
34.06783,36095
34.07597,38869
34.08408,37155
34.09220,36898
34.10033,35942
34.10845,37684
34.11658,38850
34.12470,38365
34.13282,38765
34.14095,38101
34.14907,36103
34.15720,38801
34.16532,40567
34.17343,36591
34.18157,44165
34.18968,37331
34.19780,37755
34.20593,37609
34.21405,39283
34.22218,39186
34.23030,40121
34.23842,40161
34.24655,46386
34.25467,48067
34.26280,44662
34.27092,46236
34.27903,50485
34.28717,44575
34.29528,46807
34.30342,43114
34.31153,40610
34.31965,41037
34.32778,37659
34.33590,35205
34.34402,40038
34.35215,39325
34.36027,37800
34.36840,39105
34.37652,37906
34.38463,35975
34.39277,36940
34.40088,39254
34.40902,40397
34.41713,42323
34.42525,40053
34.43338,38417
34.44150,39939
34.44963,38549
34.45775,38672
34.46587,34328
34.47400,38009
34.48212,38275
34.49023,38878
34.49837,36887
34.50648,43260
34.51462,36640
34.52273,42644
34.53085,45282
34.53898,47137
34.54710,53509
34.55523,51328
34.56335,63263
34.57147,66115
34.57960,61488
34.58772,58782
34.59583,62038
34.60397,62543
34.61208,57307
34.62022,54706
34.62833,58220
34.63645,52978
34.64458,46599
34.65270,48304
34.66083,42876
34.66895,45852
34.67707,47422
34.68520,45897
34.69332,44260
34.70145,49329
34.70957,41442
34.71768,41258
34.72582,47021
34.73393,46843
34.74205,42311
34.75018,42805
34.75830,47576
34.76643,41760
34.77455,46560
34.78267,38546
34.79080,41060
34.79892,39948
34.80705,41632
34.81517,41119
34.82328,41437
34.83142,39926
34.83953,39894
34.84767,39832
34.85578,39802
34.86390,46683
34.87203,35924
34.88015,41071
34.88827,40640
34.89640,38299
34.90452,44481
34.91265,41770
34.92077,41176
34.92888,41299
34.93702,46964
34.94513,54899
34.95327,73450
34.96138,110862
34.96950,159823
34.97763,231027
34.98575,293317
34.99387,305909
35.00200,277164
35.01012,218146
35.01825,141315
35.02637,102797
35.03448,65840
35.04262,62583
35.05073,59677
35.05887,52851
35.06698,54733
35.07510,51426
35.08323,50134
35.09135,55086
35.09948,52980
35.10760,51362
35.11572,48880
35.12385,49313
35.13197,46093
35.14008,51817
35.14822,49916
35.15633,50004
35.16447,49427
35.17258,48813
35.18070,51503
35.18883,49643
35.19695,43804
35.20508,44175
35.21320,48119
35.22132,44645
35.22945,41421
35.23757,41110
35.24570,42315
35.25382,47896
35.26193,47426
35.27007,47140
35.27818,47470
35.28630,47646
35.29443,52404
35.30255,52291
35.31068,46483
35.31880,46381
35.32692,45265
35.33505,48371
35.34317,47277
35.35130,45281
35.35942,38527
35.36753,39792
35.37567,39598
35.38378,41219
35.39190,46989
35.40003,42849
35.40815,42438
35.41628,44759
35.42440,47355
35.43252,46337
35.44065,44818
35.44877,40953
35.45690,46031
35.46502,45104
35.47313,49729
35.48127,46849
35.48938,48233
35.49752,47423
35.50563,45976
35.51375,46700
35.52188,50111
35.53000,51404
35.53812,46801
35.54625,44314
35.55437,41305
35.56250,43970
35.57062,44154
35.57873,42910
35.58687,43945
35.59498,49398
35.60312,46164
35.61123,53222
35.61935,49160
35.62748,48708
35.63560,47731
35.64372,47516
35.65185,47847
35.65997,51498
35.66810,50800
35.67622,48657
35.68433,44462
35.69247,45842
35.70058,46443
35.70872,45589
35.71683,48892
35.72495,38219
35.73308,41795
35.74120,44298
35.74933,41968
35.75745,45619
35.76557,47859
35.77370,48881
35.78182,43358
35.78993,46007
35.79807,47264
35.80618,45667
35.81432,43930
35.82243,43107
35.83055,47094
35.83868,44404
35.84680,41288
35.85493,46621
35.86305,50230
35.87117,42305
35.87930,46554
35.88742,44883
35.89555,44634
35.90367,44919
35.91178,45082
35.91992,42136
35.92803,47449
35.93615,44877
35.94428,41244
35.95240,44332
35.96053,43815
35.96865,44042
35.97677,43305
35.98490,44690
35.99302,45175
36.00115,46934
36.00927,46475
36.01738,43798
36.02552,44214
36.03363,41826
36.04175,43023
36.04988,48292
36.05800,46860
36.06613,42590
36.07425,44918
36.08237,46852
36.09050,47785
36.09862,44985
36.10675,44603
36.11487,40968
36.12298,45177
36.13112,43678
36.13923,46494
36.14737,46773
36.15548,46440
36.16360,46023
36.17173,43502
36.17985,44781
36.18797,40763
36.19610,43978
36.20422,45773
36.21235,45644
36.22047,42142
36.22858,39009
36.23672,45007
36.24483,44754
36.25297,45392
36.26108,43774
36.26920,46679
36.27733,41058
36.28545,40789
36.29358,47884
36.30170,44356
36.30982,45232
36.31795,45766
36.32607,54440
36.33418,52242
36.34232,59473
36.35043,53533
36.35857,50453
36.36668,46617
36.37480,44995
36.38293,48473
36.39105,47719
36.39918,49254
36.40730,46689
36.41542,43790
36.42355,44113
36.43167,48419
36.43978,43172
36.44792,43112
36.45603,42089
36.46417,42965
36.47228,45081
36.48040,42534
36.48853,39243
36.49665,45490
36.50478,43179
36.51290,42295
36.52102,43062
36.52915,46779
36.53727,43240
36.54540,42811
36.55352,43172
36.56163,44560
36.56977,47029
36.57788,45158
36.58600,44199
36.59413,41099
36.60225,43945
36.61038,44971
36.61850,43114
36.62662,46704
36.63475,45307
36.64287,44229
36.65100,49635
36.65912,45631
36.66723,46909
36.67537,44953
36.68348,45102
36.69160,48274
36.69973,47192
36.70785,45624
36.71598,46796
36.72410,45173
36.73222,45137
36.74035,44169
36.74847,46971
36.75660,48711
36.76472,44797
36.77283,44365
36.78097,47539
36.78908,44623
36.79722,45925
36.80533,45989
36.81345,47758
36.82158,44421
36.82970,42541
36.83782,42190
36.84595,41954
36.85407,44739
36.86220,41710
36.87032,44664
36.87843,46410
36.88657,42384
36.89468,49284
36.90282,50264
36.91093,50827
36.91905,51451
36.92718,50227
36.93530,48827
36.94343,44586
36.95155,47531
36.95967,47295
36.96780,43417
36.97592,42370
36.98403,44034
36.99217,47913
37.00028,45955
37.00842,49561
37.01653,46566
37.02465,43623
37.03278,47819
37.04090,45291
37.04903,46316
37.05715,47369
37.06527,47941
37.07340,46166
37.08152,47231
37.08963,43293
37.09777,48655
37.10588,51056
37.11402,48317
37.12213,49323
37.13025,47420
37.13838,47273
37.14650,52277
37.15463,49387
37.16275,45613
37.17087,51439
37.17900,48534
37.18712,52431
37.19525,47930
37.20337,51898
37.21148,52014
37.21962,55285
37.22773,53590
37.23585,50814
37.24398,52605
37.25210,50082
37.26023,50471
37.26835,54247
37.27647,47402
37.28460,48115
37.29272,48509
37.30085,43425
37.30897,49215
37.31708,54572
37.32522,51193
37.33333,50410
37.34147,55588
37.34958,61345
37.35770,58702
37.36583,60094
37.37395,63734
37.38207,65025
37.39020,61624
37.39832,67502
37.40645,57709
37.41457,58877
37.42268,54929
37.43082,55443
37.43893,54861
37.44707,56202
37.45518,50574
37.46330,50610
37.47143,59479
37.47955,57600
37.48767,54193
