C:\MassHunter\GCMS\1\data\20191125_ALKANES\JTB-E18-40-10.D Mon Nov 25 16:39:57 2019
Start of data points
2.09530	99680
2.10343	92191
2.11155	95817
2.11968	91705
2.12780	96084
2.13592	92868
2.14405	93576
2.15217	95865
2.16030	93665
2.16842	92933
2.17653	90708
2.18467	90852
2.19278	95090
2.20092	85093
2.20903	85668
2.21715	83691
2.22528	81173
2.23340	85570
2.24152	235933
2.24965	972698
2.25777	1216946
2.26590	809466
2.27402	412432
2.28213	425254
2.29027	3287630
2.29838	3.526131E+07
2.30652	8.329684E+07
2.31463	8.224429E+07
2.32275	7.176868E+07
2.33088	5.087106E+07
2.33900	3.804378E+07
2.34713	3.07056E+07
2.35525	2.931012E+07
2.36337	2.425539E+07
2.37150	2.034988E+07
2.37962	2.640684E+07
2.38773	8.992762E+07
2.39587	1.133688E+08
2.40398	1.080027E+08
2.41212	9.202941E+07
2.42023	7.364142E+07
2.42835	5.904011E+07
2.43648	4.919244E+07
2.44460	4.188339E+07
2.45273	3.545295E+07
2.46085	3.031868E+07
2.46897	2.606301E+07
2.47710	2.266687E+07
2.48522	1.983429E+07
2.49333	1.767965E+07
2.50147	1.541956E+07
2.50958	1.363262E+07
2.51772	1.384252E+07
2.52583	1.817088E+07
2.53395	2.523607E+07
2.54208	2.209221E+07
2.55020	1.337392E+07
2.55833	1.007904E+07
2.56645	1.316316E+07
2.57457	8.473202E+07
2.58270	1.218398E+08
2.59082	1.359227E+08
2.59895	1.381241E+08
2.60707	1.114811E+08
2.61518	8.265317E+07
2.62332	6.715269E+07
2.63143	5.61223E+07
2.63955	4.783712E+07
2.64768	4.121947E+07
2.65580	3.613901E+07
2.66393	3.226096E+07
2.67205	3.081615E+07
2.68017	3.063605E+07
2.68830	2.592792E+07
2.69642	2.129286E+07
2.70455	1.86452E+07
2.71267	1.744604E+07
2.72078	1.581242E+07
2.72892	1.465392E+07
2.73703	1.377856E+07
2.74515	1.293E+07
2.75328	1.225106E+07
2.76140	1.150001E+07
2.76953	1.102588E+07
2.77765	1.060042E+07
2.78577	1.015775E+07
2.79390	9778972
2.80202	9349944
2.81015	8932067
2.81827	8587650
2.82638	8246240
2.83452	8087570
2.84263	8157159
2.85077	1.038154E+07
2.85888	1.860616E+07
2.86700	2.866574E+07
2.87513	2.429204E+07
2.88325	1.33915E+07
2.89137	8509459
2.89950	7312053
2.90762	7993372
2.91575	9207647
2.92387	8508341
2.93198	6675052
2.94012	5926820
2.94823	5632689
2.95637	5458073
2.96448	5275693
2.97260	5173672
2.98073	5054464
2.98885	4987410
2.99698	4848747
3.00510	4750969
3.01322	4620318
3.02135	4546669
3.02947	4469464
3.03758	4360134
3.04572	4312855
3.05383	4227655
3.06197	4151165
3.07008	4085715
3.07820	4044706
3.08633	4043160
3.09445	3974115
3.10258	3823668
3.11070	3752566
3.11882	3691812
3.12695	3570912
3.13507	3525701
3.14320	3504494
3.15132	3455754
3.15943	3414702
3.16757	3373620
3.17568	3320808
3.18380	3259774
3.19193	3242596
3.20005	3181763
3.20818	3137715
3.21630	3125224
3.22442	3031039
3.23255	3008773
3.24067	2994387
3.24880	2946279
3.25692	2923244
3.26503	2918229
3.27317	3038810
3.28128	3207791
3.28940	3361556
3.29753	3295979
3.30565	3169497
3.31378	3088392
3.32190	3008062
3.33002	2978630
3.33815	3002202
3.34627	2970491
3.35440	2893303
3.36252	2785226
3.37063	2717428
3.37877	2665193
3.38688	2661989
3.39502	2602910
3.40313	2565797
3.41125	2543818
3.41938	2502448
3.42750	2488456
3.43562	2452896
3.44375	2441601
3.45187	2406235
3.46000	2391680
3.46812	2356311
3.47623	2327404
3.48437	2290970
3.49248	2277578
3.50062	2276550
3.50873	2258364
3.51685	2239222
3.52498	2212697
3.53310	2177883
3.54122	2158281
3.54935	2153808
3.55747	2135170
3.56560	2093706
3.57372	2082205
3.58183	2084997
3.58997	2040359
3.59808	2034791
3.60622	2027991
3.61433	2014381
3.62245	1997729
3.63058	1972563
3.63870	1956700
3.64683	1942374
3.65495	1905676
3.66307	1902005
3.67120	1868135
3.67932	1875548
3.68743	1852749
3.69557	1842460
3.70368	1845087
3.71182	1819256
3.71993	1781376
3.72805	1753138
3.73618	1777398
3.74430	1771064
3.75243	1767070
3.76055	1735389
3.76867	1719176
3.77680	1727869
3.78492	1698590
3.79305	1689217
3.80117	1674921
3.80928	1636049
3.81742	1634340
3.82553	1619591
3.83365	1630037
3.84178	1613190
3.84990	1591560
3.85803	1602276
3.86615	1560124
3.87427	1544034
3.88240	1553127
3.89052	1562088
3.89865	1545527
3.90677	1549790
3.91488	1514770
3.92302	1516175
3.93113	1496797
3.93925	1496735
3.94738	1484003
3.95550	1468764
3.96363	1468288
3.97175	1456035
3.97987	1430122
3.98800	1434993
3.99612	1428184
4.00425	1416622
4.01237	1400760
4.02048	1394302
4.02862	1384145
4.03673	1388800
4.04487	1385823
4.05298	1362552
4.06110	1358734
4.06923	1361076
4.07735	1355258
4.08547	1329885
4.09360	1306659
4.10172	1331193
4.10985	1314922
4.11797	1309092
4.12608	1318450
4.13422	1324601
4.14233	1318909
4.15047	1290911
4.15858	1277536
4.16670	1252718
4.17483	1253830
4.18295	1233634
4.19108	1241476
4.19920	1246224
4.20732	1229367
4.21545	1216560
4.22357	1215351
4.23168	1208266
4.23982	1202805
4.24793	1183352
4.25607	1183927
4.26418	1173455
4.27230	1186237
4.28043	1188733
4.28855	1166722
4.29668	1159498
4.30480	1166550
4.31292	1157008
4.32105	1126342
4.32917	1140861
4.33728	1123250
4.34542	1132033
4.35353	1142278
4.36167	1111315
4.36978	1100902
4.37790	1118410
4.38603	1088337
4.39415	1088739
4.40228	1095654
4.41040	1086554
4.41852	1068544
4.42665	1081731
4.43477	1040149
4.44290	1061239
4.45102	1056225
4.45913	1048225
4.46727	1035916
4.47538	1030849
4.48350	1041372
4.49163	1037158
4.49975	1039067
4.50788	1030321
4.51600	999736
4.52412	1025692
4.53225	1026990
4.54037	996234
4.54850	990020
4.55662	1000437
4.56473	992564
4.57287	975887
4.58098	968435
4.58910	963268
4.59723	980691
4.60535	965306
4.61348	978791
4.62160	962410
4.62972	962270
4.63785	957829
4.64597	954942
4.65410	952439
4.66222	950827
4.67033	940049
4.67847	938207
4.68658	922800
4.69472	926155
4.70283	919311
4.71095	906171
4.71908	909266
4.72720	897434
4.73532	913238
4.74345	899382
4.75157	909165
4.75970	907101
4.76782	892434
4.77593	881049
4.78407	877765
4.79218	891478
4.80032	871299
4.80843	861510
4.81655	864298
4.82468	874370
4.83280	861591
4.84093	865783
4.84905	853577
4.85717	847735
4.86530	862537
4.87342	842248
4.88153	848010
4.88967	847490
4.89778	844544
4.90592	875971
4.91403	954683
4.92215	1059836
4.93028	1151078
4.93840	1200532
4.94653	1147016
4.95465	1086619
4.96277	1054917
4.97090	1034714
4.97902	1024592
4.98713	995146
4.99527	985544
5.00338	967864
5.01152	954812
5.01963	953028
5.02775	929988
5.03588	939671
5.04400	952497
5.05213	936490
5.06025	929091
5.06837	937110
5.07650	904759
5.08462	885023
5.09275	909699
5.10087	901843
5.10898	899810
5.11712	881714
5.12523	893592
5.13335	880680
5.14148	861213
5.14960	890997
5.15773	867102
5.16585	858888
5.17397	864970
5.18210	839883
5.19022	853696
5.19835	847467
5.20647	854083
5.21458	855282
5.22272	856792
5.23083	854844
5.23897	834633
5.24708	838565
5.25520	823928
5.26333	823934
5.27145	811266
5.27957	817946
5.28770	813926
5.29582	801853
5.30395	802840
5.31207	774547
5.32018	722664
5.32832	718460
5.33643	728050
5.34457	733507
5.35268	720788
5.36080	703052
5.36893	695077
5.37705	605030
5.38517	547006
5.39330	539256
5.40142	535433
5.40955	545642
5.41767	558169
5.42578	542528
5.43392	530290
5.44203	545518
5.45017	535431
5.45828	529333
5.46640	536287
5.47453	519202
5.48265	529820
5.49078	516461
5.49890	514873
5.50702	352411
5.51515	257902
5.52327	252608
5.53138	254639
5.53952	249966
5.54763	248933
5.55577	249928
5.56388	246620
5.57200	248374
5.58013	250504
5.58825	249231
5.59638	249118
5.60450	249843
5.61262	247578
5.62075	243504
5.62887	244449
5.63700	246900
5.64512	239163
5.65323	244489
5.66137	245858
5.66948	237348
5.67760	249250
5.68573	244264
5.69385	241965
5.70198	234900
5.71010	229864
5.71822	241259
5.72635	239908
5.73447	236958
5.74260	231557
5.75072	238283
5.75883	236677
5.76697	237347
5.77508	227506
5.78320	233748
5.79133	234199
5.79945	235475
5.80758	231170
5.81570	230612
5.82382	233768
5.83195	225765
5.84007	241407
5.84820	227328
5.85632	227782
5.86443	233839
5.87257	229896
5.88068	228689
5.88882	227432
5.89693	223164
5.90505	219046
5.91318	186731
5.92130	172154
5.92942	162640
5.93755	170752
5.94567	174148
5.95380	187006
5.96192	200520
5.97003	213393
5.97817	207378
5.98628	199313
5.99442	187163
6.00253	174299
6.01065	172136
6.01878	167372
6.02690	158713
6.03502	162975
6.04315	166529
6.05127	160713
6.05940	162418
6.06752	163311
6.07563	162798
6.08377	160869
6.09188	162385
6.10002	163681
6.10813	166040
6.11625	164183
6.12438	168440
6.13250	165029
6.14063	170880
6.14875	171592
6.15687	164687
6.16500	169593
6.17312	175353
6.18123	171555
6.18937	169912
6.19748	171334
6.20562	167107
6.21373	168112
6.22185	166963
6.22998	166781
6.23810	171296
6.24623	171689
6.25435	174932
6.26247	175203
6.27060	176713
6.27872	170348
6.28685	168738
6.29497	171415
6.30308	177333
6.31122	175114
6.31933	181483
6.32745	178646
6.33558	173344
6.34370	166090
6.35183	163127
6.35995	163222
6.36807	167951
6.37620	168914
6.38432	161163
6.39245	169566
6.40057	160465
6.40868	152015
6.41682	156173
6.42493	157515
6.43305	153924
6.44118	151937
6.44930	155781
6.45743	163177
6.46555	160183
6.47367	155905
6.48180	160942
6.48992	152728
6.49805	150956
6.50617	154943
6.51428	155148
6.52242	143786
6.53053	151957
6.53867	146114
6.54678	145093
6.55490	151269
6.56303	145574
6.57115	146696
6.57927	146748
6.58740	146027
6.59552	149184
6.60365	147104
6.61177	142696
6.61988	144018
6.62802	145480
6.63613	141824
6.64427	136898
6.65238	150391
6.66050	146385
6.66863	147155
6.67675	144243
6.68488	140032
6.69300	141667
6.70112	140374
6.70925	137155
6.71737	136828
6.72548	143331
6.73362	138620
6.74173	139984
6.74987	144173
6.75798	144859
6.76610	142514
6.77423	142018
6.78235	132103
6.79048	139961
6.79860	140890
6.80672	137811
6.81485	142413
6.82297	136398
6.83108	134132
6.83922	137505
6.84733	118100
6.85547	98245
6.86358	80118
6.87170	78360
6.87983	73860
6.88795	79119
6.89608	73560
6.90420	79106
6.91232	79931
6.92045	78516
6.92857	83182
6.93670	79357
6.94482	84974
6.95293	82018
6.96107	82426
6.96918	75724
6.97730	78100
6.98543	75514
6.99355	78397
7.00168	79167
7.00980	72369
7.01792	80314
7.02605	74934
7.03417	77081
7.04230	73461
7.05042	74115
7.05853	69206
7.06667	75344
7.07478	74859
7.08290	74559
7.09103	83817
7.09915	84780
7.10728	77500
7.11540	74073
7.12352	74377
7.13165	75689
7.13977	74029
7.14790	76585
7.15602	77971
7.16413	73149
7.17227	73983
7.18038	75800
7.18852	71912
7.19663	75002
7.20475	76179
7.21288	74138
7.22100	72084
7.22912	74795
7.23725	75441
7.24537	77712
7.25350	73941
7.26162	75159
7.26973	78144
7.27787	76387
7.28598	75106
7.29412	67920
7.30223	76818
7.31035	76330
7.31848	74227
7.32660	72938
7.33473	75811
7.34285	73484
7.35097	72951
7.35910	74684
7.36722	78935
7.37533	76949
7.38347	76152
7.39158	67346
7.39972	71109
7.40783	74367
7.41595	79785
7.42408	70598
7.43220	72757
7.44033	73422
7.44845	75022
7.45657	75654
7.46470	73304
7.47282	72128
7.48093	74179
7.48907	73385
7.49718	75679
7.50532	69588
7.51343	69772
7.52155	75912
7.52968	73394
7.53780	72609
7.54593	69809
7.55405	72254
7.56217	74991
7.57030	76034
7.57842	69224
7.58655	70540
7.59467	72411
7.60278	70038
7.61092	76752
7.61903	72536
7.62715	74356
7.63528	70136
7.64340	71007
7.65153	66791
7.65965	77243
7.66777	62561
7.67590	71137
7.68402	70241
7.69215	69772
7.70027	65692
7.70838	68222
7.71652	65164
7.72463	68400
7.73277	67920
7.74088	68659
7.74900	66481
7.75713	64498
7.76525	69997
7.77337	71254
7.78150	70190
7.78962	69950
7.79775	71554
7.80587	62240
7.81398	66629
7.82212	66414
7.83023	66211
7.83837	67412
7.84648	69807
7.85460	67546
7.86273	60857
7.87085	60970
7.87897	68092
7.88710	65044
7.89522	64062
7.90335	61805
7.91147	70749
7.91958	68705
7.92772	65754
7.93583	68931
7.94397	65402
7.95208	69643
7.96020	62748
7.96833	63892
7.97645	68372
7.98458	67695
7.99270	64305
8.00082	63160
8.00895	69932
8.01707	63132
8.02518	64264
8.03332	65685
8.04143	67256
8.04957	63065
8.05768	67555
8.06580	62574
8.07393	63860
8.08205	65126
8.09018	65803
8.09830	65247
8.10642	69132
8.11455	60254
8.12267	65599
8.13078	64319
8.13892	66392
8.14703	64135
8.15517	68172
8.16328	64050
8.17140	68619
8.17953	68211
8.18765	62931
8.19578	63473
8.20390	63939
8.21202	63474
8.22015	64100
8.22827	58885
8.23640	64256
8.24452	65819
8.25263	64163
8.26077	65028
8.26888	67825
8.27700	64047
8.28513	62016
8.29325	64870
8.30138	62931
8.30950	60973
8.31762	61311
8.32575	63131
8.33387	63735
8.34200	63473
8.35012	61185
8.35823	64624
8.36637	63972
8.37448	61157
8.38262	61304
8.39073	62856
8.39885	63371
8.40698	58739
8.41510	60475
8.42322	61262
8.43135	67829
8.43947	61146
8.44760	62305
8.45572	68245
8.46383	64024
8.47197	60763
8.48008	59640
8.48822	62217
8.49633	63668
8.50445	67234
8.51258	60295
8.52070	58681
8.52883	60929
8.53695	63754
8.54507	60029
8.55320	58082
8.56132	57077
8.56943	61536
8.57757	58064
8.58568	56263
8.59382	54798
8.60193	57051
8.61005	54877
8.61818	55649
8.62630	56116
8.63443	55442
8.64255	58827
8.65067	55804
8.65880	59745
8.66692	59700
8.67503	53750
8.68317	51223
8.69128	52219
8.69942	55264
8.70753	56944
8.71565	69951
8.72378	90651
8.73190	133849
8.74003	186575
8.74815	227409
8.75627	238727
8.76440	238180
8.77252	223065
8.78065	211474
8.78877	199550
8.79688	194298
8.80502	187026
8.81313	186584
8.82125	178077
8.82938	164571
8.83750	166550
8.84563	165077
8.85375	168190
8.86187	166869
8.87000	155651
8.87812	147104
8.88625	160324
8.89437	149730
8.90248	146594
8.91062	143774
8.91873	141125
8.92685	141739
8.93498	135217
8.94310	134772
8.95123	132661
8.95935	131099
8.96747	136404
8.97560	134880
8.98372	131095
8.99185	122936
8.99997	125985
9.00808	122924
9.01622	124055
9.02433	126835
9.03247	121088
9.04058	121834
9.04870	119631
9.05683	121797
9.06495	116505
9.07307	118830
9.08120	119890
9.08932	106805
9.09745	116686
9.10557	111786
9.11368	109673
9.12182	110358
9.12993	109807
9.13807	111117
9.14618	110353
9.15430	111810
9.16243	109484
9.17055	110353
9.17868	107174
9.18680	110409
9.19492	112805
9.20305	104246
9.21117	109754
9.21928	108474
9.22742	108956
9.23553	104027
9.24367	98957
9.25178	103340
9.25990	101589
9.26803	100606
9.27615	103530
9.28428	104449
9.29240	96836
9.30052	101565
9.30865	100070
9.31677	96336
9.32488	101027
9.33302	96881
9.34113	95625
9.34927	95365
9.35738	91563
9.36550	95219
9.37363	93449
9.38175	93572
9.38988	93936
9.39800	94417
9.40612	86851
9.41425	86367
9.42237	88513
9.43050	87434
9.43862	83723
9.44673	86338
9.45487	87873
9.46298	83063
9.47110	87338
9.47923	82493
9.48735	84830
9.49548	79399
9.50360	78084
9.51172	68783
9.51985	61139
9.52797	50730
9.53610	45645
9.54422	39623
9.55233	41222
9.56047	44427
9.56858	41639
9.57672	43576
9.58483	40222
9.59295	41683
9.60108	41547
9.60920	38880
9.61732	38162
9.62545	39338
9.63357	39696
9.64170	38402
9.64982	38731
9.65793	40658
9.66607	39559
9.67418	39959
9.68232	40937
9.69043	39805
9.69855	38650
9.70668	38570
9.71480	38156
9.72292	35703
9.73105	41315
9.73917	40065
9.74730	44569
9.75542	46405
9.76353	39243
9.77167	41066
9.77978	41572
9.78792	38702
9.79603	40018
9.80415	41634
9.81228	40488
9.82040	44562
9.82853	45503
9.83665	43192
9.84477	39591
9.85290	38693
9.86102	46984
9.86913	42436
9.87727	42966
9.88538	41398
9.89352	36699
9.90163	37179
9.90975	37856
9.91788	39277
9.92600	37028
9.93413	38532
9.94225	38981
9.95037	38001
9.95850	38536
9.96662	47681
9.97473	43160
9.98287	49817
9.99098	57243
9.99912	54049
10.00723	54939
10.01535	52359
10.02348	52886
10.03160	49181
10.03973	47683
10.04785	46733
10.05597	42631
10.06410	48007
10.07222	46862
10.08035	41505
10.08847	42655
10.09658	39362
10.10472	39710
10.11283	40108
10.12095	39080
10.12908	39249
10.13720	37902
10.14533	42378
10.15345	38037
10.16157	36966
10.16970	40191
10.17782	38928
10.18595	42511
10.19407	39813
10.20218	38753
10.21032	39477
10.21843	41670
10.22657	43308
10.23468	40904
10.24280	38393
10.25093	41371
10.25905	38092
10.26717	38304
10.27530	37810
10.28342	45756
10.29155	39915
10.29967	39090
10.30778	40809
10.31592	38111
10.32403	41019
10.33217	37581
10.34028	38157
10.34840	37910
10.35653	38229
10.36465	40785
10.37277	37843
10.38090	36011
10.38902	39557
10.39715	39900
10.40527	34709
10.41338	39231
10.42152	38406
10.42963	39701
10.43777	38177
10.44588	40786
10.45400	36616
10.46213	36082
10.47025	37240
10.47838	36747
10.48650	37369
10.49462	34735
10.50275	38202
10.51087	37594
10.51898	34717
10.52712	38466
10.53523	38478
10.54337	36309
10.55148	34349
10.55960	37722
10.56773	28717
10.57585	32152
10.58398	38344
10.59210	36557
10.60022	36529
10.60835	38257
10.61647	39425
10.62460	35578
10.63272	35617
10.64083	32789
10.64897	36388
10.65708	33124
10.66520	39818
10.67333	37372
10.68145	34149
10.68958	38337
10.69770	34599
10.70582	38153
10.71395	38480
10.72207	35869
10.73020	37091
10.73832	35358
10.74643	35616
10.75457	38089
10.76268	38677
10.77080	35802
10.77893	36058
10.78705	35636
10.79518	34864
10.80330	36208
10.81142	34434
10.81955	39413
10.82767	37499
10.83580	36803
10.84392	36304
10.85203	35925
10.86017	37218
10.86828	38841
10.87642	35997
10.88453	33796
10.89265	38162
10.90078	35432
10.90890	33162
10.91702	35838
10.92515	32743
10.93327	34151
10.94140	37818
10.94952	32902
10.95763	32520
10.96577	38265
10.97388	34738
10.98202	36298
10.99013	31923
10.99825	30740
11.00638	32444
11.01450	30112
11.02262	29909
11.03075	30293
11.03887	28803
11.04700	31863
11.05512	30993
11.06323	32317
11.07137	32674
11.07948	32423
11.08762	32226
11.09573	34009
11.10385	31389
11.11198	27710
11.12010	31530
11.12823	34773
11.13635	33660
11.14447	33316
11.15260	30861
11.16072	32133
11.16883	32978
11.17697	30517
11.18508	31232
11.19322	28569
11.20133	29548
11.20945	31195
11.21758	31441
11.22570	30567
11.23383	31788
11.24195	30215
11.25007	34883
11.25820	31126
11.26632	28169
11.27445	28557
11.28257	31105
11.29068	33233
11.29882	31560
11.30693	34945
11.31505	34073
11.32318	33684
11.33130	30098
11.33943	31711
11.34755	31024
11.35567	30167
11.36380	33605
11.37192	34525
11.38005	30561
11.38817	32221
11.39628	31082
11.40442	33756
11.41253	33084
11.42065	34462
11.42878	32430
11.43690	30297
11.44503	30010
11.45315	27999
11.46127	30167
11.46940	28031
11.47752	30000
11.48565	27897
11.49377	30767
11.50188	30059
11.51002	31287
11.51813	28497
11.52627	34378
11.53438	28655
11.54250	35096
11.55063	29548
11.55875	29561
11.56687	31467
11.57500	31103
11.58312	30778
11.59125	31623
11.59937	30651
11.60748	32901
11.61562	30200
11.62373	30217
11.63187	27028
11.63998	28441
11.64810	30067
11.65623	31325
11.66435	31208
11.67248	27361
11.68060	28112
11.68872	31220
11.69685	33050
11.70497	31999
11.71308	34695
11.72122	34343
11.72933	36345
11.73747	34687
11.74558	32932
11.75370	35060
11.76183	31568
11.76995	33133
11.77808	31595
11.78620	29711
11.79432	35112
11.80245	41158
11.81057	31643
11.81868	32905
11.82682	34262
11.83493	33491
11.84307	31978
11.85118	35807
11.85930	35000
11.86743	33375
11.87555	30837
11.88368	34531
11.89180	32616
11.89992	30612
11.90805	32337
11.91617	34673
11.92430	32366
11.93242	32030
11.94053	29825
11.94867	36164
11.95678	33617
11.96490	31347
11.97303	34675
11.98115	33002
11.98928	31851
11.99740	31602
12.00552	32008
12.01365	34817
12.02177	30019
12.02990	32148
12.03802	32650
12.04613	29455
12.05427	33013
12.06238	33304
12.07052	33611
12.07863	32174
12.08675	30026
12.09488	31526
12.10300	31283
12.11112	31286
12.11925	33802
12.12737	35753
12.13550	32197
12.14362	31733
12.15173	32238
12.15987	35949
12.16798	32315
12.17612	36487
12.18423	38485
12.19235	33418
12.20048	34963
12.20860	31767
12.21672	31091
12.22485	33467
12.23297	31413
12.24110	34104
12.24922	32356
12.25733	29112
12.26547	30812
12.27358	31576
12.28172	31509
12.28983	30476
12.29795	30041
12.30608	35080
12.31420	29603
12.32233	30292
12.33045	31414
12.33857	31612
12.34670	32611
12.35482	30393
12.36293	32347
12.37107	31403
12.37918	29502
12.38732	33023
12.39543	29034
12.40355	30408
12.41168	29325
12.41980	30857
12.42793	29553
12.43605	30476
12.44417	29704
12.45230	28390
12.46042	27300
12.46853	35513
12.47667	30647
12.48478	29908
12.49292	29848
12.50103	32443
12.50915	32314
12.51728	31581
12.52540	31245
12.53353	34475
12.54165	29957
12.54977	29262
12.55790	27469
12.56602	31888
12.57415	32621
12.58227	29438
12.59038	26816
12.59852	32419
12.60663	30318
12.61475	28930
12.62288	31208
12.63100	26637
12.63913	31908
12.64725	29751
12.65537	29126
12.66350	30290
12.67162	29743
12.67975	32001
12.68787	27983
12.69598	29772
12.70412	29032
12.71223	28692
12.72037	29929
12.72848	32187
12.73660	32988
12.74473	31880
12.75285	32102
12.76097	33255
12.76910	31899
12.77722	31044
12.78535	33373
12.79347	31083
12.80158	29452
12.80972	28768
12.81783	31438
12.82597	30455
12.83408	30320
12.84220	27444
12.85033	30490
12.85845	26171
12.86657	28707
12.87470	28645
12.88282	27665
12.89095	28987
12.89907	27324
12.90718	25486
12.91532	28160
12.92343	28700
12.93157	33164
12.93968	29316
12.94780	28959
12.95593	30105
12.96405	28288
12.97218	25972
12.98030	31266
12.98842	29800
12.99655	31821
13.00467	28880
13.01278	32054
13.02092	36213
13.02903	30874
13.03717	29387
13.04528	30867
13.05340	28612
13.06153	38660
13.06965	28139
13.07778	29658
13.08590	30646
13.09402	33044
13.10215	33523
13.11027	33758
13.11840	29764
13.12652	32094
13.13463	32678
13.14277	32964
13.15088	33698
13.15900	31010
13.16713	31899
13.17525	30037
13.18338	30326
13.19150	31320
13.19962	34746
13.20775	34903
13.21587	29335
13.22400	32085
13.23212	28161
13.24023	31786
13.24837	29379
13.25648	29647
13.26460	30607
13.27273	33197
13.28085	27798
13.28898	29064
13.29710	35008
13.30522	31934
13.31335	26913
13.32147	29794
13.32960	31040
13.33772	31899
13.34583	33745
13.35397	28964
13.36208	31795
13.37022	29473
13.37833	30476
13.38645	32425
13.39458	30497
13.40270	28805
13.41082	32431
13.41895	28060
13.42707	30328
13.43520	31437
13.44332	30037
13.45143	29390
13.45957	31940
13.46768	31888
13.47582	27676
13.48393	30167
13.49205	26394
13.50018	28505
13.50830	30362
13.51642	30771
13.52455	27843
13.53267	28156
13.54080	32793
13.54892	31884
13.55703	26315
13.56517	25813
13.57328	28085
13.58142	30807
13.58953	28653
13.59765	29629
13.60578	28050
13.61390	29886
13.62203	28545
13.63015	26328
13.63827	28001
13.64640	27380
13.65452	27465
13.66263	29080
13.67077	27747
13.67888	24998
13.68702	32559
13.69513	24921
13.70325	26855
13.71138	29407
13.71950	27837
13.72763	28162
13.73575	32462
13.74387	27512
13.75200	35445
13.76012	31326
13.76825	28655
13.77637	29993
13.78448	28280
13.79262	29039
13.80073	29409
13.80885	28706
13.81698	30228
13.82510	27879
13.83323	28211
13.84135	25627
13.84947	30498
13.85760	29163
13.86572	27856
13.87385	32332
13.88197	29015
13.89008	29649
13.89822	31715
13.90633	28159
13.91447	32465
13.92258	27145
13.93070	31295
13.93883	30584
13.94695	26365
13.95507	29517
13.96320	33980
13.97132	29491
13.97945	32223
13.98757	28224
13.99568	30393
14.00382	31417
14.01193	32661
14.02007	28372
14.02818	28646
14.03630	33889
14.04443	30152
14.05255	34853
14.06067	30826
14.06880	28308
14.07692	31672
14.08505	27758
14.09317	30738
14.10128	34187
14.10942	37030
14.11753	58231
14.12567	93021
14.13378	124420
14.14190	163220
14.15003	183859
14.15815	184490
14.16628	183455
14.17440	157998
14.18252	155739
14.19065	149138
14.19877	136686
14.20688	130796
14.21502	123095
14.22313	114394
14.23127	112250
14.23938	116366
14.24750	107346
14.25563	108140
14.26375	103774
14.27188	104289
14.28000	87661
14.28812	80441
14.29625	62219
14.30437	52168
14.31248	47259
14.32062	41768
14.32873	40523
14.33687	36320
14.34498	38694
14.35310	36588
14.36123	37966
14.36935	37852
14.37748	38146
14.38560	39816
14.39372	32521
14.40185	37073
14.40997	35600
14.41810	31926
14.42622	32306
14.43433	34359
14.44247	34591
14.45058	33029
14.45870	33353
14.46683	36062
14.47495	35827
14.48308	34092
14.49120	33890
14.49932	34079
14.50745	33287
14.51557	32236
14.52370	34355
14.53182	32746
14.53993	33418
14.54807	28848
14.55618	30111
14.56432	35130
14.57243	33298
14.58055	31585
14.58868	32862
14.59680	33484
14.60492	31321
14.61305	31104
14.62117	27243
14.62930	30570
14.63742	32542
14.64553	30943
14.65367	26742
14.66178	31856
14.66992	31794
14.67803	33587
14.68615	33412
14.69428	29568
14.70240	31123
14.71052	28204
14.71865	28509
14.72677	30239
14.73490	28017
14.74302	31453
14.75113	29120
14.75927	27734
14.76738	28373
14.77552	27414
14.78363	30622
14.79175	28488
14.79988	28550
14.80800	32572
14.81613	30153
14.82425	31549
14.83237	34048
14.84050	31485
14.84862	34759
14.85673	33430
14.86487	33970
14.87298	32832
14.88112	36464
14.88923	30702
14.89735	33628
14.90548	31694
14.91360	31840
14.92173	35210
14.92985	32036
14.93797	28556
14.94610	31414
14.95422	30559
14.96235	33041
14.97047	32609
14.97858	30798
14.98672	29383
14.99483	28580
15.00295	32041
15.01108	34039
15.01920	27509
15.02733	32836
15.03545	29215
15.04357	33569
15.05170	30352
15.05982	29535
15.06795	29097
15.07607	29263
15.08418	27543
15.09232	28633
15.10043	31348
15.10855	29913
15.11668	29086
15.12480	28962
15.13293	29358
15.14105	30718
15.14917	28516
15.15730	29577
15.16542	27886
15.17355	34030
15.18167	27149
15.18978	31095
15.19792	25562
15.20603	30467
15.21417	27712
15.22228	26549
15.23040	24533
15.23853	27704
15.24665	25506
15.25477	29474
15.26290	26253
15.27102	25611
15.27915	25285
15.28727	24616
15.29538	26773
15.30352	27496
15.31163	30870
15.31977	24627
15.32788	26172
15.33600	25526
15.34413	29560
15.35225	26260
15.36037	28191
15.36850	27413
15.37662	26543
15.38475	25655
15.39287	28867
15.40098	23607
15.40912	24955
15.41723	25404
15.42537	25976
15.43348	24603
15.44160	25028
15.44973	27915
15.45785	27306
15.46598	24100
15.47410	24517
15.48222	29667
15.49035	24255
15.49847	27028
15.50658	25677
15.51472	24036
15.52283	30284
15.53097	27913
15.53908	26694
15.54720	26492
15.55533	25384
15.56345	25589
15.57158	26338
15.57970	25729
15.58782	29569
15.59595	27951
15.60407	27043
15.61220	28182
15.62032	25199
15.62843	26672
15.63657	26495
15.64468	28796
15.65280	28996
15.66093	30256
15.66905	27929
15.67718	28247
15.68530	27960
15.69342	26879
15.70155	27469
15.70967	25620
15.71780	29633
15.72592	29875
15.73403	28154
15.74217	27485
15.75028	27430
15.75840	28689
15.76653	30331
15.77465	29561
15.78278	27613
15.79090	27294
15.79902	30640
15.80715	24214
15.81527	26651
15.82340	29670
15.83152	28723
15.83963	28235
15.84777	26277
15.85588	28399
15.86402	26292
15.87213	24913
15.88025	29708
15.88838	26749
15.89650	33259
15.90462	27519
15.91275	27631
15.92087	28248
15.92900	27371
15.93712	26002
15.94523	26496
15.95337	31089
15.96148	27510
15.96962	27051
15.97773	32155
15.98585	28118
15.99398	27741
16.00210	29637
16.01023	29639
16.01835	33095
16.02647	34200
16.03460	31665
16.04272	35543
16.05083	34191
16.05897	32578
16.06708	32269
16.07522	31423
16.08333	28491
16.09145	24763
16.09958	28462
16.10770	33101
16.11583	28778
16.12395	28747
16.13207	34111
16.14020	28103
16.14832	28420
16.15643	27975
16.16457	27624
16.17268	29941
16.18082	30265
16.18893	29010
16.19705	29601
16.20518	31275
16.21330	28884
16.22143	29673
16.22955	28602
16.23767	33479
16.24580	26614
16.25392	30192
16.26205	28557
16.27017	34276
16.27828	28138
16.28642	29497
16.29453	30126
16.30265	28617
16.31078	29855
16.31890	32038
16.32703	33169
16.33515	40120
16.34327	37831
16.35140	35735
16.35952	33257
16.36765	36494
16.37577	31127
16.38388	35819
16.39202	31808
16.40013	30347
16.40825	31142
16.41638	30302
16.42450	28271
16.43263	28710
16.44075	27791
16.44887	30451
16.45700	34592
16.46512	31677
16.47325	32649
16.48137	30528
16.48948	28607
16.49762	32531
16.50573	28029
16.51387	33235
16.52198	25055
16.53010	31371
16.53823	32244
16.54635	33415
16.55447	28916
16.56260	29771
16.57072	29922
16.57885	29750
16.58697	26942
16.59508	30223
16.60322	29199
16.61133	28211
16.61947	31328
16.62758	27778
16.63570	28821
16.64383	32700
16.65195	27798
16.66008	27573
16.66820	29956
16.67632	29079
16.68445	26137
16.69257	28035
16.70068	30591
16.70882	30694
16.71693	30648
16.72507	28712
16.73318	27198
16.74130	27960
16.74943	24544
16.75755	25106
16.76568	26873
16.77380	26905
16.78192	28888
16.79005	27742
16.79817	29476
16.80628	26786
16.81442	26742
16.82253	26167
16.83067	31485
16.83878	26149
16.84690	29560
16.85503	27608
16.86315	24557
16.87128	27742
16.87940	25470
16.88752	24750
16.89565	29111
16.90377	26702
16.91190	24298
16.92002	26885
16.92813	27697
16.93627	28782
16.94438	29205
16.95250	27346
16.96063	32910
16.96875	27584
16.97688	26621
16.98500	26020
16.99312	28059
17.00125	27505
17.00937	28809
17.01750	25222
17.02562	30529
17.03373	28788
17.04187	29990
17.04998	27290
17.05812	32899
17.06623	30887
17.07435	31511
17.08248	28982
17.09060	28623
17.09872	28026
17.10685	28147
17.11497	28064
17.12310	33093
17.13122	29207
17.13933	29538
17.14747	29898
17.15558	29605
17.16372	29352
17.17183	27131
17.17995	28649
17.18808	31049
17.19620	28014
17.20432	31043
17.21245	25247
17.22057	29475
17.22870	27005
17.23682	30072
17.24493	28547
17.25307	29564
17.26118	27837
17.26932	31699
17.27743	27852
17.28555	28310
17.29368	29729
17.30180	33621
17.30993	32176
17.31805	27365
17.32617	26586
17.33430	29514
17.34242	32389
17.35053	31799
17.35867	33270
17.36678	35904
17.37492	36480
17.38303	37983
17.39115	32831
17.39928	32410
17.40740	34317
17.41553	37645
17.42365	31537
17.43177	35269
17.43990	32856
17.44802	34894
17.45615	31649
17.46427	33956
17.47238	34971
17.48052	32700
17.48863	32016
17.49675	34055
17.50488	30740
17.51300	32385
17.52113	32771
17.52925	33055
17.53737	32053
17.54550	31952
17.55362	35606
17.56175	33809
17.56987	30571
17.57798	31788
17.58612	32113
17.59423	31958
17.60235	30689
17.61048	27078
17.61860	28614
17.62673	28224
17.63485	27631
17.64297	35842
17.65110	32059
17.65922	29529
17.66735	34594
17.67547	33868
17.68358	34835
17.69172	34007
17.69983	34482
17.70797	34599
17.71608	31776
17.72420	32982
17.73233	32801
17.74045	36893
17.74857	33361
17.75670	31416
17.76482	30576
17.77295	29850
17.78107	30027
17.78918	29182
17.79732	38332
17.80543	33457
17.81357	29910
17.82168	32899
17.82980	29724
17.83793	30029
17.84605	30595
17.85417	32944
17.86230	29788
17.87042	27346
17.87855	32179
17.88667	29465
17.89478	29376
17.90292	29925
17.91103	30408
17.91917	28461
17.92728	28986
17.93540	27581
17.94353	31280
17.95165	28393
17.95978	28785
17.96790	28773
17.97602	30320
17.98415	27612
17.99227	31653
18.00038	30377
18.00852	29169
18.01663	37185
18.02477	32037
18.03288	28272
18.04100	30140
18.04913	33712
18.05725	29238
18.06538	31509
18.07350	31773
18.08162	30349
18.08975	29770
18.09787	32347
18.10600	30679
18.11412	31195
18.12223	32729
18.13037	30351
18.13848	32041
18.14660	27561
18.15473	29730
18.16285	31266
18.17098	31208
18.17910	27385
18.18722	29774
18.19535	29843
18.20347	29334
18.21160	30076
18.21972	26837
18.22783	30364
18.23597	31543
18.24408	32419
18.25220	28117
18.26033	29424
18.26845	29265
18.27658	30800
18.28470	30225
18.29282	28272
18.30095	27940
18.30907	27788
18.31720	28621
18.32532	27911
18.33343	27760
18.34157	31564
18.34968	29757
18.35782	28438
18.36593	27448
18.37405	29504
18.38218	30858
18.39030	30454
18.39842	29748
18.40655	27329
18.41467	28459
18.42280	30150
18.43092	28090
18.43903	27487
18.44717	30341
18.45528	28277
18.46342	26612
18.47153	27757
18.47965	27440
18.48778	33583
18.49590	28315
18.50403	27358
18.51215	28909
18.52027	30269
18.52840	26705
18.53652	30188
18.54463	29082
18.55277	32225
18.56088	28853
18.56902	27879
18.57713	27187
18.58525	34737
18.59338	31757
18.60150	33078
18.60963	30278
18.61775	29590
18.62587	31293
18.63400	28778
18.64212	29567
18.65023	25818
18.65837	28421
18.66648	30936
18.67462	27098
18.68273	26596
18.69085	30306
18.69898	30145
18.70710	30735
18.71523	26034
18.72335	27709
18.73147	26704
18.73960	25120
18.74772	31771
18.75585	29096
18.76397	25382
18.77208	27915
18.78022	27162
18.78833	28974
18.79645	28241
18.80458	24250
18.81270	28529
18.82083	24224
18.82895	27660
18.83707	28552
18.84520	25967
18.85332	25172
18.86145	27895
18.86957	28677
18.87768	33058
18.88582	30714
18.89393	26818
18.90205	26623
18.91018	31973
18.91830	29460
18.92643	26713
18.93455	30303
18.94267	29346
18.95080	29092
18.95892	31842
18.96705	31818
18.97517	30163
18.98328	32500
18.99142	33391
18.99953	29717
19.00767	29704
19.01578	31065
19.02390	30393
19.03203	30523
19.04015	30500
19.04827	33105
19.05640	35357
19.06452	30950
19.07265	31292
19.08077	35414
19.08888	33354
19.09702	35780
19.10513	35223
19.11327	39120
19.12138	40900
19.12950	34843
19.13763	39222
19.14575	32844
19.15388	36469
19.16200	34342
19.17012	39934
19.17825	37031
19.18637	35908
19.19448	37851
19.20262	34422
19.21073	30148
19.21887	32002
19.22698	33942
19.23510	32145
19.24323	28621
19.25135	30536
19.25948	32603
19.26760	34701
19.27572	35044
19.28385	41081
19.29197	45246
19.30010	41296
19.30822	44253
19.31633	43697
19.32447	38159
19.33258	36206
19.34070	37104
19.34883	36706
19.35695	39843
19.36508	37983
19.37320	38482
19.38132	36563
19.38945	37018
19.39757	42822
19.40570	51567
19.41382	71621
19.42193	102695
19.43007	129490
19.43818	153900
19.44630	159331
19.45443	138706
19.46255	108694
19.47068	76995
19.47880	61467
19.48692	51266
19.49505	51953
19.50317	45913
19.51130	39621
19.51942	37190
19.52753	39757
19.53567	37412
19.54378	36919
19.55192	32903
19.56003	32181
19.56815	31252
19.57628	32235
19.58440	31467
19.59252	32937
19.60065	32288
19.60877	36005
19.61690	35864
19.62502	48357
19.63313	61946
19.64127	79844
19.64938	97030
19.65752	109880
19.66563	115443
19.67375	110976
19.68188	98416
19.69000	92292
19.69812	78442
19.70625	77618
19.71437	71742
19.72250	56864
19.73062	56692
19.73873	48487
19.74687	44363
19.75498	40632
19.76312	37171
19.77123	35595
19.77935	37017
19.78748	38492
19.79560	35290
19.80373	35216
19.81185	33320
19.81997	36972
19.82810	34583
19.83622	32601
19.84433	32073
19.85247	33795
19.86058	32958
19.86872	35962
19.87683	36587
19.88495	43320
19.89308	47264
19.90120	56225
19.90933	64049
19.91745	55186
19.92557	56124
19.93370	58936
19.94182	51979
19.94995	49540
19.95807	47582
19.96618	51018
19.97432	48052
19.98243	47439
19.99055	42615
19.99868	43838
20.00680	44459
20.01493	43783
20.02305	40978
20.03117	41180
20.03930	41051
20.04742	36677
20.05555	32446
20.06367	32024
20.07178	30726
20.07992	34213
20.08803	34305
20.09615	31236
20.10428	35470
20.11240	31174
20.12053	32832
20.12865	33843
20.13677	29546
20.14490	32837
20.15302	30501
20.16115	32852
20.16927	32783
20.17738	33560
20.18552	31491
20.19363	31966
20.20177	39467
20.20988	36674
20.21800	42535
20.22613	53244
20.23425	74503
20.24237	89638
20.25050	109177
20.25862	110054
20.26675	118129
20.27487	109089
20.28298	105174
20.29112	87309
20.29923	78028
20.30737	62362
20.31548	53511
20.32360	49426
20.33173	44789
20.33985	44219
20.34798	39280
20.35610	41944
20.36422	38865
20.37235	37503
20.38047	40974
20.38858	45333
20.39672	46551
20.40483	54230
20.41297	56982
20.42108	56399
20.42920	57540
20.43733	51127
20.44545	50478
20.45358	48544
20.46170	41453
20.46982	38286
20.47795	41132
20.48607	35104
20.49418	33296
20.50232	34676
20.51043	31582
20.51857	34709
20.52668	33811
20.53480	32965
20.54293	31565
20.55105	30234
20.55918	31897
20.56730	29439
20.57542	32350
20.58355	31039
20.59167	29868
20.59980	30023
20.60792	29674
20.61603	31550
20.62417	29437
20.63228	32054
20.64040	31820
20.64853	27054
20.65665	31771
20.66478	31742
20.67290	29460
20.68102	31231
20.68915	33886
20.69727	34417
20.70540	32384
20.71352	29158
20.72163	28694
20.72977	32798
20.73788	29444
20.74600	28954
20.75413	29924
20.76225	30342
20.77038	30190
20.77850	30300
20.78662	28756
20.79475	30758
20.80287	31294
20.81100	31022
20.81912	29714
20.82723	32930
20.83537	31647
20.84348	29923
20.85162	30616
20.85973	30094
20.86785	29432
20.87598	30169
20.88410	29627
20.89222	30384
20.90035	27978
20.90847	30261
20.91660	30575
20.92472	28813
20.93283	26824
20.94097	26095
20.94908	29966
20.95722	29308
20.96533	27918
20.97345	29068
20.98158	28612
20.98970	27693
20.99783	26422
21.00595	28913
21.01407	29183
21.02220	26327
21.03032	30963
21.03843	35902
21.04657	31567
21.05468	27539
21.06282	28934
21.07093	28143
21.07905	25603
21.08718	26094
21.09530	27000
21.10343	30958
21.11155	31994
21.11967	32707
21.12780	36579
21.13592	30030
21.14403	32335
21.15217	34839
21.16028	30567
21.16842	28990
21.17653	32201
21.18465	28871
21.19278	28198
21.20090	31002
21.20903	30402
21.21715	35095
21.22527	33088
21.23340	32524
21.24152	29934
21.24965	26753
21.25777	28536
21.26588	33415
21.27402	30801
21.28213	29992
21.29025	32679
21.29838	33201
21.30650	27819
21.31463	34242
21.32275	33240
21.33087	30350
21.33900	28842
21.34712	29122
21.35525	25672
21.36337	29031
21.37148	28019
21.37962	30110
21.38773	34142
21.39587	32075
21.40398	30252
21.41210	28127
21.42023	28161
21.42835	27630
21.43647	28086
21.44460	28998
21.45272	26547
21.46085	27089
21.46897	31137
21.47708	29369
21.48522	30812
21.49333	30653
21.50147	29798
21.50958	28885
21.51770	28998
21.52583	29999
21.53395	34137
21.54207	31721
21.55020	33321
21.55832	34859
21.56645	39615
21.57457	50879
21.58268	50360
21.59082	56394
21.59893	60177
21.60707	56453
21.61518	50681
21.62330	46103
21.63143	40487
21.63955	39204
21.64768	39070
21.65580	34696
21.66392	31766
21.67205	32415
21.68017	31827
21.68828	30562
21.69642	32475
21.70453	31890
21.71267	32156
21.72078	30514
21.72890	34711
21.73703	30262
21.74515	32547
21.75328	40068
21.76140	42908
21.76952	46978
21.77765	51924
21.78577	61561
21.79388	58269
21.80202	55096
21.81013	49230
21.81827	43169
21.82638	39894
21.83450	38693
21.84263	38416
21.85075	33085
21.85888	34141
21.86700	30606
21.87512	30599
21.88325	34176
21.89137	30527
21.89950	30235
21.90762	27241
21.91573	29376
21.92387	30115
21.93198	29020
21.94010	27459
21.94823	31967
21.95635	29766
21.96448	31079
21.97260	29767
21.98072	28667
21.98885	30547
21.99697	29624
22.00510	30220
22.01322	27566
22.02133	36003
22.02947	32854
22.03758	33194
22.04572	33889
22.05383	31578
22.06195	29505
22.07008	32542
22.07820	32232
22.08632	31099
22.09445	31263
22.10257	28539
22.11070	32897
22.11882	27826
22.12693	32648
22.13507	31730
22.14318	36996
22.15132	34232
22.15943	34004
22.16755	37275
22.17568	44207
22.18380	36443
22.19192	42906
22.20005	35049
22.20817	34458
22.21630	33042
22.22442	29965
22.23253	31121
22.24067	29608
22.24878	29529
22.25692	28970
22.26503	30916
22.27315	30455
22.28128	29357
22.28940	28654
22.29753	27749
22.30565	30393
22.31377	31241
22.32190	31635
22.33002	30545
22.33813	28754
22.34627	36336
22.35438	28956
22.36252	34355
22.37063	30662
22.37875	29780
22.38688	29366
22.39500	27471
22.40313	29019
22.41125	29018
22.41937	29734
22.42750	32159
22.43562	29418
22.44375	29294
22.45187	29962
22.45998	32560
22.46812	31723
22.47623	32028
22.48435	30688
22.49248	28450
22.50060	30325
22.50873	27704
22.51685	29563
22.52497	29876
22.53310	29210
22.54122	30613
22.54935	29688
22.55747	30511
22.56558	30483
22.57372	29934
22.58183	28266
22.58995	33884
22.59808	27495
22.60620	29783
22.61433	26985
22.62245	29255
22.63057	27825
22.63870	28837
22.64682	30496
22.65495	29221
22.66307	29294
22.67118	28065
22.67932	29700
22.68743	30735
22.69557	31133
22.70368	32648
22.71180	37661
22.71993	27751
22.72805	31805
22.73617	31205
22.74430	30326
22.75242	29951
22.76055	30959
22.76867	29846
22.77678	30222
22.78492	32917
22.79303	29865
22.80117	30606
22.80928	27578
22.81740	28722
22.82553	29507
22.83365	28129
22.84178	29045
22.84990	32825
22.85802	36220
22.86615	34733
22.87427	38304
22.88238	37648
22.89052	44621
22.89863	47908
22.90677	53584
22.91488	67855
22.92300	79214
22.93113	77993
22.93925	79959
22.94738	81896
22.95550	77089
22.96362	74255
22.97175	69755
22.97987	63741
22.98798	57910
22.99612	58155
23.00423	49220
23.01237	45109
23.02048	45957
23.02860	35802
23.03673	35045
23.04485	36403
23.05298	35076
23.06110	34645
23.06922	34526
23.07735	36698
23.08547	36078
23.09360	34281
23.10172	35431
23.10983	32472
23.11797	32449
23.12608	34394
23.13420	29794
23.14233	30882
23.15045	28786
23.15858	30208
23.16670	31604
23.17482	34282
23.18295	30776
23.19107	33341
23.19920	31808
23.20732	30779
23.21543	31981
23.22357	32218
23.23168	29893
23.23980	30176
23.24793	31232
23.25605	29953
23.26418	26098
23.27230	30963
23.28042	28824
23.28855	31791
23.29667	28271
23.30480	30297
23.31292	27782
23.32103	29084
23.32917	27976
23.33728	31154
23.34542	30689
23.35353	32433
23.36165	31230
23.36978	34796
23.37790	30410
23.38602	29312
23.39415	30630
23.40227	30619
23.41040	30133
23.41852	32198
23.42663	31174
23.43477	32311
23.44288	29397
23.45102	26916
23.45913	30360
23.46725	29436
23.47538	27320
23.48350	30923
23.49163	28490
23.49975	25342
23.50787	31607
23.51600	27139
23.52412	29586
23.53223	31109
23.54037	28834
23.54848	30323
23.55662	32921
23.56473	33893
23.57285	35739
23.58098	34567
23.58910	39436
23.59723	31617
23.60535	35230
23.61347	34265
23.62160	35188
23.62972	33859
23.63783	32855
23.64597	37200
23.65408	35241
23.66222	38126
23.67033	38653
23.67845	31503
23.68658	39051
23.69470	37193
23.70283	37795
23.71095	35791
23.71907	39160
23.72720	46178
23.73532	66423
23.74345	119989
23.75157	209184
23.75968	352160
23.76782	504318
23.77593	649336
23.78405	687984
23.79218	656762
23.80030	562159
23.80843	465018
23.81655	365017
23.82467	303529
23.83280	234941
23.84092	199609
23.84905	173569
23.85717	143531
23.86528	133890
23.87342	120037
23.88153	104965
23.88967	101771
23.89778	93429
23.90590	91987
23.91403	81403
23.92215	78038
23.93027	75493
23.93840	79324
23.94652	72639
23.95465	68538
23.96277	68313
23.97088	62303
23.97902	61550
23.98713	58053
23.99527	59909
24.00338	55368
24.01150	58151
24.01963	56650
24.02775	56511
24.03587	56063
24.04400	54596
24.05212	60133
24.06025	62360
24.06837	59497
24.07648	60148
24.08462	55474
24.09273	56420
24.10087	51936
24.10898	49246
24.11710	52172
24.12523	56294
24.13335	54117
24.14148	60082
24.14960	58741
24.15772	53452
24.16585	54247
24.17397	51447
24.18208	49872
24.19022	46217
24.19833	49753
24.20647	51439
24.21458	43698
24.22270	43399
24.23083	42352
24.23895	41376
24.24708	43904
24.25520	41634
24.26332	41787
24.27145	46715
24.27957	48235
24.28768	52601
24.29582	70477
24.30393	79303
24.31207	105540
24.32018	113297
24.32830	105950
24.33643	93533
24.34455	70854
24.35268	50659
24.36080	48155
24.36892	40297
24.37705	42959
24.38517	36210
24.39330	39231
24.40142	42777
24.40953	40511
24.41767	49173
24.42578	53606
24.43390	53922
24.44203	52059
24.45015	56267
24.45828	53482
24.46640	46448
24.47452	38801
24.48265	42165
24.49077	42927
24.49890	41153
24.50702	39043
24.51513	38866
24.52327	36296
24.53138	36151
24.53952	36418
24.54763	36708
24.55575	35316
24.56388	38550
24.57200	37314
24.58012	36374
24.58825	38553
24.59637	34830
24.60450	37683
24.61262	31852
24.62073	35806
24.62887	36173
24.63698	39667
24.64512	39331
24.65323	42228
24.66135	39695
24.66948	43224
24.67760	36582
24.68573	35501
24.69385	32814
24.70197	33904
24.71010	33595
24.71822	37483
24.72633	36313
24.73447	35636
24.74258	34089
24.75072	35423
24.75883	36126
24.76695	32046
24.77508	32777
24.78320	34202
24.79133	31109
24.79945	33788
24.80757	32524
24.81570	31112
24.82382	35761
24.83193	33838
24.84007	34133
24.84818	34400
24.85632	34048
24.86443	33144
24.87255	34721
24.88068	31581
24.88880	32337
24.89693	31111
24.90505	31492
24.91317	34467
24.92130	31455
24.92942	32787
24.93755	32644
24.94567	27632
24.95378	32902
24.96192	32676
24.97003	29371
24.97815	32170
24.98628	33926
24.99440	29283
25.00253	33913
25.01065	27409
25.01877	33515
25.02690	31824
25.03502	32182
25.04315	28841
25.05127	30247
25.05938	30245
25.06752	32431
25.07563	30178
25.08375	30844
25.09188	31681
25.10000	35496
25.10813	35697
25.11625	34645
25.12437	35073
25.13250	43643
25.14062	43895
25.14875	42052
25.15687	43522
25.16498	38592
25.17312	36570
25.18123	38671
25.18937	33522
25.19748	35077
25.20560	33601
25.21373	30303
25.22185	30103
25.22997	30127
25.23810	32027
25.24622	28176
25.25435	29081
25.26247	30202
25.27058	34503
25.27872	35740
25.28683	37875
25.29497	40666
25.30308	48582
25.31120	48570
25.31933	47126
25.32745	47198
25.33558	45994
25.34370	43738
25.35182	44257
25.35995	37357
25.36807	34725
25.37618	33268
25.38432	36718
25.39243	36829
25.40057	40642
25.40868	37487
25.41680	38248
25.42493	37916
25.43305	33051
25.44118	32699
25.44930	31261
25.45742	30100
25.46555	26313
25.47367	31087
25.48178	29689
25.48992	31780
25.49803	30768
25.50617	28431
25.51428	30806
25.52240	28789
25.53053	29458
25.53865	33705
25.54678	31471
25.55490	31175
25.56302	33421
25.57115	30247
25.57927	28688
25.58740	30145
25.59552	31242
25.60363	32295
25.61177	28471
25.61988	29074
25.62800	30107
25.63613	25993
25.64425	30746
25.65238	26363
25.66050	26736
25.66862	27909
25.67675	25633
25.68487	28573
25.69300	28858
25.70112	28142
25.70923	25940
25.71737	28704
25.72548	29165
25.73362	26438
25.74173	28662
25.74985	29633
25.75798	33479
25.76610	28088
25.77422	26885
25.78235	27019
25.79047	26766
25.79860	25914
25.80672	26775
25.81483	27146
25.82297	27947
25.83108	28904
25.83922	26938
25.84733	27606
25.85545	26370
25.86358	26667
25.87170	27682
25.87982	27703
25.88795	24803
25.89607	24101
25.90420	28502
25.91232	26403
25.92043	34164
25.92857	31747
25.93668	37467
25.94482	34215
25.95293	32751
25.96105	36013
25.96918	33399
25.97730	31034
25.98543	30497
25.99355	26661
26.00167	27044
26.00980	26620
26.01792	29296
26.02603	29303
26.03417	30075
26.04228	26513
26.05042	27063
26.05853	27673
26.06665	27387
26.07478	28651
26.08290	27820
26.09103	27390
26.09915	29159
26.10727	31202
26.11540	33421
26.12352	38277
26.13163	42399
26.13977	45981
26.14788	42796
26.15602	39855
26.16413	37667
26.17225	40962
26.18038	37517
26.18850	38277
26.19663	34177
26.20475	30501
26.21287	32696
26.22100	31351
26.22912	29273
26.23725	30172
26.24537	29082
26.25348	30433
26.26162	28489
26.26973	25794
26.27785	30913
26.28598	29094
26.29410	26447
26.30223	24977
26.31035	25709
26.31847	31278
26.32660	28003
26.33472	29559
26.34285	24221
26.35097	27269
26.35908	28795
26.36722	28669
26.37533	23910
26.38347	29593
26.39158	28324
26.39970	29358
26.40783	28810
26.41595	27280
26.42407	29629
26.43220	29569
26.44032	27697
26.44845	30828
26.45657	31151
26.46468	27018
26.47282	32006
26.48093	25961
26.48907	27382
26.49718	29324
26.50530	30211
26.51343	26409
26.52155	26894
26.52967	25989
26.53780	29903
26.54592	29846
26.55405	29555
26.56217	28243
26.57028	24827
26.57842	27689
26.58653	25931
26.59467	26863
26.60278	27552
26.61090	29851
26.61903	28154
26.62715	27586
26.63528	24291
26.64340	26256
26.65152	29335
26.65965	29802
26.66777	26800
26.67588	25572
26.68402	27131
26.69213	27138
26.70027	34181
26.70838	26555
26.71650	25757
26.72463	23509
26.73275	27688
26.74088	26017
26.74900	26693
26.75712	27456
26.76525	28035
26.77337	30709
26.78150	29660
26.78962	31821
26.79773	34927
26.80587	30231
26.81398	25884
26.82210	32108
26.83023	29801
26.83835	25278
26.84648	29119
26.85460	27624
26.86272	26765
26.87085	26443
26.87897	27051
26.88710	26492
26.89522	29878
26.90333	31120
26.91147	25467
26.91958	24957
26.92770	29976
26.93583	28752
26.94395	32094
26.95208	37919
26.96020	56291
26.96832	83053
26.97645	114675
26.98457	150572
26.99270	179647
27.00082	194130
27.00893	196500
27.01707	186332
27.02518	175019
27.03332	145804
27.04143	126698
27.04955	110023
27.05768	93234
27.06580	86752
27.07392	78133
27.08205	71154
27.09017	63629
27.09830	55472
27.10642	56027
27.11453	53323
27.12267	52455
27.13078	53362
27.13892	51563
27.14703	49204
27.15515	50892
27.16328	51100
27.17140	50787
27.17952	50500
27.18765	51365
27.19577	47422
27.20390	46201
27.21202	42709
27.22013	42133
27.22827	40221
27.23638	36757
27.24452	39030
27.25263	35363
27.26075	37008
27.26888	37431
27.27700	38727
27.28513	35858
27.29325	35643
27.30137	32151
27.30950	35355
27.31762	35814
27.32573	37240
27.33387	35129
27.34198	38076
27.35012	33379
27.35823	32333
27.36635	35513
27.37448	29601
27.38260	35200
27.39073	35386
27.39885	34572
27.40697	38595
27.41510	32031
27.42322	35102
27.43135	33755
27.43947	31438
27.44758	34546
27.45572	35410
27.46383	39027
27.47195	33053
27.48008	35619
27.48820	30321
27.49633	34170
27.50445	33786
27.51257	34013
27.52070	34334
27.52882	31801
27.53695	34018
27.54507	33124
27.55318	29800
27.56132	31432
27.56943	29401
27.57755	35441
27.58568	32033
27.59380	28253
27.60193	33817
27.61005	30106
27.61817	29766
27.62630	28769
27.63442	29357
27.64255	29819
27.65067	29917
27.65878	29638
27.66692	31227
27.67503	27633
27.68317	28721
27.69128	28971
27.69940	31678
27.70753	33534
27.71565	29179
27.72377	28353
27.73190	33157
27.74002	31785
27.74815	29540
27.75627	28596
27.76438	30829
27.77252	31626
27.78063	29551
27.78877	36704
27.79688	31983
27.80500	34664
27.81313	33004
27.82125	32688
27.82938	31947
27.83750	37713
27.84562	39150
27.85375	35707
27.86187	35980
27.86998	35423
27.87812	31624
27.88623	29924
27.89437	31218
27.90248	26313
27.91060	28730
27.91873	29419
27.92685	31949
27.93498	31494
27.94310	28758
27.95122	31555
27.95935	28767
27.96747	29585
27.97558	31037
27.98372	30789
27.99183	29413
27.99997	30029
28.00808	28260
28.01620	27835
28.02433	32576
28.03245	29917
28.04058	28993
28.04870	27490
28.05682	31616
28.06495	30855
28.07307	29601
28.08120	32500
28.08932	31628
28.09743	34131
28.10557	40759
28.11368	42931
28.12180	39769
28.12993	38130
28.13805	36436
28.14618	31462
28.15430	32752
28.16242	31281
28.17055	32770
28.17867	27743
28.18680	35452
28.19492	25490
28.20303	27571
28.21117	28076
28.21928	31936
28.22742	28747
28.23553	28250
28.24365	29949
28.25178	31567
28.25990	34255
28.26802	42041
28.27615	46064
28.28427	49883
28.29240	58746
28.30052	65868
28.30863	69777
28.31677	70741
28.32488	71872
28.33302	74379
28.34113	71405
28.34925	74805
28.35738	66916
28.36550	65584
28.37362	58289
28.38175	56210
28.38987	57261
28.39800	53937
28.40612	50399
28.41423	48791
28.42237	42949
28.43048	44677
28.43862	45024
28.44673	45185
28.45485	40845
28.46298	39830
28.47110	41495
28.47923	39597
28.48735	42874
28.49547	38834
28.50360	36432
28.51172	37711
28.51983	37643
28.52797	37969
28.53608	35995
28.54422	38798
28.55233	41310
28.56045	37555
28.56858	33882
28.57670	34185
28.58483	33860
28.59295	34346
28.60107	38278
28.60920	39425
28.61732	34417
28.62543	39074
28.63357	42079
28.64168	47927
28.64982	57699
28.65793	59877
28.66605	74094
28.67418	79651
28.68230	85374
28.69043	82087
28.69855	68220
28.70667	60182
28.71480	45212
28.72292	41855
28.73105	40704
28.73917	33590
28.74728	36366
28.75542	33139
28.76353	32923
28.77165	33038
28.77978	31121
28.78790	31077
28.79603	32276
28.80415	32681
28.81227	31797
28.82040	31855
28.82852	31890
28.83665	31934
28.84477	34150
28.85288	35245
28.86102	42826
28.86913	34584
28.87727	29670
28.88538	33898
28.89350	34549
28.90163	33356
28.90975	37610
28.91787	31513
28.92600	32940
28.93412	35286
28.94225	35539
28.95037	36114
28.95848	39048
28.96662	36609
28.97473	37011
28.98287	33033
28.99098	33648
28.99910	33265
29.00723	32345
29.01535	32147
29.02347	32749
29.03160	32997
29.03972	32731
29.04785	36533
29.05597	30847
29.06408	28917
29.07222	30948
29.08033	29912
29.08847	32181
29.09658	32876
29.10470	30206
29.11283	31302
29.12095	29032
29.12908	31236
29.13720	31459
29.14532	38440
29.15345	34832
29.16157	38055
29.16968	31737
29.17782	30918
29.18593	29757
29.19407	33218
29.20218	34078
29.21030	34706
29.21843	32316
29.22655	35035
29.23468	33030
29.24280	30181
29.25092	32880
29.25905	30432
29.26717	30401
29.27530	37047
29.28342	32867
29.29153	28844
29.29967	31146
29.30778	32769
29.31590	34355
29.32403	32020
29.33215	30096
29.34028	32347
29.34840	31783
29.35652	27990
29.36465	32269
29.37277	31269
29.38090	36028
29.38902	36898
29.39713	36129
29.40527	36476
29.41338	33366
29.42150	36179
29.42963	34434
29.43775	29727
29.44588	29225
29.45400	31149
29.46212	30887
29.47025	33510
29.47837	38631
29.48650	35067
29.49462	41885
29.50273	41605
29.51087	44074
29.51898	39429
29.52712	40015
29.53523	38207
29.54335	30931
29.55148	33410
29.55960	31821
29.56772	34087
29.57585	28251
29.58397	33035
29.59210	30898
29.60022	35347
29.60833	34135
29.61647	36874
29.62458	32713
29.63272	32811
29.64083	33628
29.64895	33324
29.65708	31560
29.66520	32104
29.67332	30578
29.68145	26009
29.68957	28921
29.69770	29099
29.70582	30112
29.71393	28713
29.72207	30102
29.73018	33021
29.73832	28086
29.74643	29031
29.75455	31926
29.76268	29005
29.77080	30058
29.77893	27916
29.78705	26552
29.79517	25363
29.80330	25417
29.81142	27676
29.81953	29901
29.82767	27347
29.83578	27128
29.84392	29491
29.85203	28588
29.86015	31205
29.86828	33913
29.87640	39123
29.88453	42585
29.89265	49908
29.90077	48819
29.90890	55041
29.91702	57278
29.92515	59277
29.93327	60607
29.94138	63441
29.94952	63250
29.95763	63197
29.96575	67215
29.97388	64940
29.98200	67556
29.99013	65438
29.99825	61397
30.00637	57032
30.01450	56673
30.02262	51047
30.03075	48994
30.03887	51256
30.04698	50939
30.05512	52069
30.06323	48246
30.07137	45618
30.07948	46841
30.08760	47067
30.09573	47106
30.10385	41585
30.11197	41669
30.12010	38743
30.12822	40002
30.13635	36992
30.14447	34821
30.15258	37167
30.16072	39891
30.16883	43146
30.17697	39500
30.18508	35905
30.19320	42606
30.20133	43101
30.20945	36807
30.21757	34344
30.22570	36420
30.23382	40387
30.24195	32943
30.25007	33552
30.25818	38005
30.26632	37462
30.27443	36102
30.28257	40267
30.29068	41865
30.29880	40722
30.30693	39713
30.31505	37278
30.32318	37645
30.33130	41843
30.33942	37669
30.34755	36447
30.35567	37884
30.36378	35799
30.37192	36725
30.38003	34537
30.38817	36276
30.39628	34492
30.40440	33456
30.41253	39560
30.42065	34803
30.42878	37072
30.43690	32560
30.44502	32735
30.45315	33182
30.46127	36150
30.46938	33633
30.47752	36313
30.48563	36335
30.49377	33427
30.50188	33199
30.51000	29439
30.51813	33737
30.52625	31579
30.53438	30881
30.54250	28803
30.55062	33303
30.55875	35138
30.56687	32810
30.57500	33048
30.58312	33564
30.59123	28918
30.59937	34816
30.60748	35333
30.61560	31399
30.62373	31090
30.63185	31350
30.63998	32587
30.64810	29317
30.65622	33274
30.66435	31025
30.67247	29773
30.68060	37361
30.68872	30713
30.69683	31180
30.70497	31663
30.71308	31054
30.72122	28941
30.72933	36262
30.73745	32024
30.74558	32855
30.75370	34456
30.76182	32983
30.76995	33444
30.77807	36335
30.78620	38323
30.79432	42401
30.80243	38941
30.81057	40093
30.81868	36679
30.82682	33546
30.83493	35372
30.84305	35645
30.85118	35460
30.85930	30204
30.86742	30455
30.87555	32711
30.88367	31560
30.89180	32318
30.89992	29700
30.90803	29964
30.91617	38692
30.92428	30868
30.93242	31008
30.94053	32638
30.94865	33371
30.95678	32348
30.96490	29233
30.97303	30190
30.98115	31737
30.98927	32699
30.99740	30960
31.00552	31794
31.01363	34450
31.02177	34840
31.02988	39792
31.03802	36725
31.04613	34950
31.05425	32885
31.06238	32740
31.07050	35268
31.07863	47475
31.08675	46486
31.09487	49563
31.10300	37508
31.11112	38116
31.11925	37399
31.12737	37137
31.13548	38764
31.14362	38385
31.15173	36621
31.15985	41977
31.16798	57318
31.17610	67994
31.18423	81748
31.19235	105336
31.20047	117134
31.20860	126100
31.21672	118738
31.22485	102401
31.23297	84802
31.24108	68919
31.24922	51935
31.25733	42412
31.26545	38331
31.27358	38854
31.28170	37868
31.28983	37942
31.29795	40882
31.30607	40304
31.31420	37587
31.32232	36652
31.33045	40642
31.33857	40377
31.34668	35776
31.35482	33581
31.36293	35883
31.37107	34470
31.37918	35507
31.38730	35570
31.39543	32692
31.40355	37615
31.41167	32341
31.41980	29699
31.42792	34802
31.43605	32516
31.44417	34093
31.45228	35271
31.46042	34367
31.46853	33475
31.47667	33266
31.48478	31427
31.49290	36675
31.50103	34988
31.50915	30780
31.51727	34790
31.52540	32458
31.53352	29877
31.54165	33726
31.54977	32311
31.55788	33031
31.56602	30805
31.57413	30878
31.58227	31951
31.59038	33307
31.59850	32212
31.60663	29772
31.61475	33719
31.62288	32423
31.63100	33581
31.63912	38252
31.64725	34886
31.65537	32886
31.66348	40377
31.67162	33768
31.67973	34308
31.68787	34180
31.69598	31506
31.70410	33130
31.71223	33108
31.72035	31267
31.72848	33135
31.73660	30678
31.74472	32564
31.75285	34352
31.76097	37154
31.76910	37419
31.77722	40353
31.78533	41404
31.79347	40611
31.80158	45781
31.80970	46430
31.81783	49613
31.82595	49106
31.83408	54755
31.84220	59973
31.85032	63320
31.85845	73767
31.86657	77297
31.87470	69361
31.88282	69769
31.89093	68848
31.89907	65613
31.90718	65829
31.91530	58806
31.92343	60500
31.93155	58968
31.93968	61368
31.94780	58616
31.95592	59641
31.96405	64895
31.97217	59131
31.98030	58722
31.98842	57416
31.99653	53828
32.00467	49250
32.01278	48253
32.02092	46137
32.02903	47216
32.03715	47160
32.04528	42956
32.05340	42002
32.06152	42569
32.06965	43466
32.07777	39427
32.08590	42993
32.09402	36428
32.10213	42052
32.11027	40945
32.11838	40172
32.12652	39237
32.13463	39047
32.14275	38506
32.15088	40982
32.15900	40026
32.16713	39565
32.17525	40666
32.18337	38232
32.19150	37284
32.19962	37312
32.20773	40005
32.21587	40307
32.22398	36930
32.23212	39131
32.24023	40165
32.24835	38667
32.25648	36950
32.26460	38818
32.27273	36755
32.28085	39566
32.28897	44562
32.29710	38491
32.30522	37878
32.31333	37513
32.32147	41399
32.32958	45094
32.33772	41916
32.34583	42183
32.35395	42407
32.36208	36628
32.37020	39937
32.37833	36410
32.38645	41084
32.39457	40231
32.40270	34487
32.41082	39352
32.41895	38642
32.42707	37404
32.43518	38660
32.44332	39487
32.45143	37602
32.45955	37965
32.46768	37934
32.47580	39094
32.48393	36753
32.49205	41503
32.50017	38817
32.50830	39119
32.51642	36902
32.52455	38778
32.53267	39424
32.54078	39866
32.54892	47637
32.55703	55686
32.56517	63060
32.57328	68683
32.58140	60325
32.58953	53133
32.59765	51582
32.60577	43329
32.61390	40351
32.62202	41055
32.63015	39274
32.63827	37721
32.64638	40202
32.65452	41735
32.66263	39490
32.67077	38205
32.67888	41166
32.68700	42547
32.69513	43622
32.70325	45474
32.71137	48455
32.71950	46274
32.72762	47403
32.73575	44667
32.74387	44410
32.75198	41838
32.76012	39268
32.76823	39011
32.77637	41911
32.78448	35687
32.79260	34674
32.80073	36185
32.80885	36907
32.81698	36672
32.82510	40255
32.83322	42334
32.84135	38911
32.84947	40413
32.85758	37987
32.86572	41378
32.87383	37497
32.88197	37228
32.89008	41393
32.89820	40561
32.90633	41396
32.91445	38765
32.92258	40382
32.93070	36276
32.93882	34785
32.94695	36511
32.95507	40352
32.96318	40263
32.97132	39883
32.97943	46632
32.98757	39496
32.99568	38512
33.00380	39883
33.01193	39109
33.02005	38124
33.02818	40262
33.03630	35577
33.04442	38669
33.05255	35585
33.06067	43024
33.06880	38785
33.07692	42160
33.08503	47625
33.09317	48182
33.10128	57045
33.10940	54071
33.11753	53414
33.12565	48506
33.13378	47601
33.14190	44407
33.15002	45527
33.15815	46416
33.16627	42738
33.17440	38755
33.18252	38449
33.19063	38124
33.19877	33340
33.20688	37777
33.21502	40383
33.22313	36229
33.23125	39270
33.23938	39077
33.24750	39098
33.25562	37860
33.26375	45309
33.27187	39196
33.28000	42308
33.28812	41771
33.29623	39373
33.30437	38507
33.31248	39963
33.32062	37551
33.32873	38271
33.33685	37593
33.34498	37693
33.35310	37614
33.36122	38998
33.36935	43029
33.37747	37084
33.38560	40062
33.39372	37439
33.40183	37183
33.40997	40837
33.41808	37779
33.42622	37689
33.43433	38023
33.44245	41025
33.45058	38890
33.45870	39040
33.46683	35839
33.47495	37229
33.48307	38258
33.49120	35812
33.49932	39272
33.50743	42136
33.51557	41261
33.52368	34622
33.53182	40808
33.53993	38405
33.54805	39950
33.55618	38449
33.56430	39589
33.57243	37898
33.58055	38231
33.58867	40153
33.59680	39810
33.60492	43582
33.61305	41160
33.62117	42168
33.62928	41221
33.63742	38821
33.64553	42333
33.65365	42020
33.66178	39393
33.66990	40557
33.67803	40969
33.68615	43308
33.69427	42166
33.70240	38160
33.71052	43809
33.71865	38932
33.72677	40662
33.73488	40873
33.74302	38289
33.75113	41746
33.75925	39463
33.76738	40458
33.77550	45327
33.78363	40242
33.79175	39540
33.79987	38373
33.80800	43755
33.81612	39417
33.82425	42043
33.83237	42915
33.84048	43056
33.84862	41861
33.85673	39970
33.86487	41590
33.87298	43647
33.88110	42247
33.88923	46019
33.89735	46597
33.90547	42656
33.91360	38702
33.92172	46552
33.92985	45028
33.93797	40694
33.94608	38254
33.95422	42926
33.96233	39919
33.97047	38544
33.97858	42243
33.98670	41716
33.99483	44642
34.00295	40015
34.01107	37866
34.01920	44587
34.02732	43126
34.03545	43251
34.04357	39100
34.05168	41245
34.05982	40589
34.06793	39142
34.07607	37823
34.08418	41333
34.09230	40261
34.10043	38619
34.10855	43001
34.11668	41330
34.12480	43867
34.13292	43984
34.14105	45776
34.14917	42256
34.15728	41876
34.16542	45310
34.17353	45382
34.18167	40068
34.18978	43550
34.19790	41527
34.20603	39453
34.21415	40501
34.22228	42252
34.23040	45367
34.23852	44865
34.24665	42738
34.25477	41633
34.26290	40810
34.27102	42643
34.27913	44000
34.28727	41879
34.29538	45738
34.30350	45293
34.31163	41340
34.31975	45234
34.32788	51780
34.33600	43057
34.34412	40049
34.35225	45252
34.36037	44412
34.36850	44298
34.37662	42030
34.38473	46702
34.39287	43342
34.40098	44315
34.40912	43469
34.41723	45388
34.42535	50494
34.43348	56485
34.44160	62225
34.44972	71131
34.45785	73306
34.46597	80643
34.47410	84886
34.48222	81819
34.49033	79579
34.49847	77157
34.50658	73947
34.51472	70725
34.52283	64908
34.53095	64735
34.53908	58809
34.54720	55471
34.55532	61751
34.56345	54992
34.57157	56328
34.57970	53872
34.58782	52360
34.59593	53317
34.60407	53893
34.61218	50271
34.62032	51858
34.62843	53372
34.63655	53603
34.64468	49129
34.65280	46531
34.66093	53192
34.66905	48321
34.67717	46993
34.68530	51359
34.69342	48409
34.70153	48626
34.70967	47324
34.71778	47659
34.72592	50016
34.73403	46964
34.74215	48666
34.75028	47764
34.75840	45611
34.76653	50337
34.77465	47765
34.78277	45233
34.79090	47946
34.79902	45470
34.80713	47942
34.81527	46755
34.82338	46786
34.83152	47638
34.83963	44292
34.84775	46480
34.85588	42827
34.86400	47134
34.87213	46668
34.88025	51468
34.88837	46704
34.89650	50896
34.90462	47422
34.91275	47516
34.92087	45534
34.92898	50042
34.93712	47230
34.94523	47137
34.95335	48597
34.96148	46462
34.96960	46231
34.97773	51491
34.98585	53299
34.99397	46729
35.00210	46236
35.01022	47987
35.01835	46145
35.02647	43805
35.03458	49894
35.04272	52414
35.05083	46793
35.05897	55152
35.06708	47975
35.07520	45899
35.08333	46152
35.09145	49132
35.09957	45963
35.10770	43005
35.11582	47425
35.12395	45759
35.13207	47846
35.14018	46729
35.14832	46177
35.15643	48355
35.16457	54897
35.17268	49730
35.18080	48539
35.18893	47090
35.19705	48079
35.20517	50848
35.21330	43988
35.22142	49548
35.22955	47459
35.23767	50033
35.24578	50278
35.25392	47656
35.26203	49625
35.27017	51417
35.27828	46819
35.28640	45716
35.29453	46892
35.30265	46955
35.31078	43169
35.31890	43992
35.32702	50466
35.33515	43883
35.34327	48041
35.35138	48044
35.35952	45487
35.36763	49752
35.37577	49584
35.38388	49728
35.39200	48373
35.40013	50875
35.40825	53985
35.41638	53086
35.42450	54445
35.43262	56727
35.44075	60407
35.44887	64117
35.45700	66211
35.46512	61000
35.47323	67432
35.48137	63402
35.48948	64607
35.49760	61131
35.50573	56716
35.51385	56677
35.52198	55669
35.53010	58005
35.53822	57332
35.54635	57814
35.55447	56678
35.56260	62457
35.57072	65589
35.57883	64774
35.58697	56052
35.59508	57856
35.60320	55983
35.61133	54503
35.61945	56994
35.62758	54619
35.63570	51381
35.64382	49983
35.65195	48916
35.66007	53076
35.66820	49718
35.67632	56260
35.68443	52888
35.69257	54747
35.70068	52595
35.70882	56024
35.71693	52097
35.72505	51548
35.73318	54083
35.74130	50896
35.74942	49140
35.75755	50718
35.76567	55451
35.77380	58290
35.78192	55126
35.79003	56080
35.79817	51865
35.80628	55299
35.81442	54487
35.82253	49852
35.83065	53957
35.83878	55481
35.84690	55110
35.85502	51742
35.86315	49111
35.87127	50750
35.87940	50394
35.88752	49443
35.89563	53145
35.90377	57268
35.91188	53371
35.92002	53978
35.92813	56040
35.93625	48961
35.94438	53075
35.95250	49917
35.96063	51543
35.96875	50580
35.97687	57000
35.98500	57349
35.99312	61656
36.00123	71794
36.00937	75510
36.01748	78521
36.02562	67945
36.03373	72473
36.04185	63886
36.04998	66432
36.05810	64045
36.06623	57533
36.07435	59222
36.08247	56432
36.09060	52557
36.09872	56264
36.10685	53075
36.11497	55771
36.12308	54822
36.13122	56820
36.13933	58198
36.14745	57578
36.15558	59810
36.16370	57951
36.17183	57932
36.17995	60851
36.18807	62784
36.19620	71721
36.20432	77501
36.21245	89460
36.22057	85364
36.22868	87261
36.23682	73805
36.24493	67483
36.25305	61267
36.26118	60188
36.26930	55916
36.27743	52595
36.28555	55601
36.29367	55356
36.30180	60309
36.30992	54155
36.31805	56840
36.32617	54027
36.33428	56558
36.34242	55515
36.35053	61365
36.35867	60460
36.36678	59212
36.37490	60637
36.38303	62792
36.39115	64964
36.39927	62278
36.40740	65598
36.41552	58408
36.42365	62272
36.43177	56221
36.43988	60546
36.44802	59658
36.45613	58224
36.46427	50990
36.47238	56858
36.48050	57137
36.48863	60380
36.49675	52177
36.50488	56453
36.51300	58973
36.52112	59222
36.52925	58783
36.53737	60801
36.54548	62186
36.55362	66182
36.56173	63716
36.56987	64457
36.57798	62716
36.58610	61085
36.59423	59422
36.60235	57047
36.61048	57029
36.61860	58223
36.62672	60069
36.63485	59830
36.64297	57745
36.65108	61770
36.65922	55868
36.66733	61247
36.67547	59774
36.68358	62532
36.69170	62483
36.69983	60038
36.70795	61116
36.71608	67044
36.72420	57217
36.73232	59878
36.74045	63475
36.74857	58202
36.75670	58281
36.76482	62203
36.77293	62824
36.78107	56925
36.78918	61162
36.79730	58714
36.80543	56767
36.81355	58884
36.82168	61678
36.82980	60316
36.83792	62829
36.84605	59684
36.85417	59726
36.86230	56179
36.87042	55340
36.87853	58419
36.88667	58774
36.89478	62634
36.90290	62949
36.91103	61481
36.91915	61707
36.92728	59008
36.93540	57861
36.94352	55311
36.95165	59205
36.95977	63056
36.96790	56932
36.97602	62949
36.98413	59254
36.99227	66837
37.00038	63600
37.00852	66007
37.01663	68159
37.02475	63965
37.03288	66313
37.04100	73516
37.04912	65654
37.05725	65367
37.06537	68315
37.07350	64215
37.08162	68569
37.08973	65071
37.09787	68719
37.10598	70523
37.11412	73687
37.12223	67334
37.13035	73136
37.13848	71870
37.14660	72619
37.15473	70664
37.16285	72320
37.17097	73737
37.17910	74394
37.18722	77653
37.19533	83305
37.20347	76891
37.21158	82105
37.21972	82104
37.22783	92530
37.23595	96799
37.24408	106318
37.25220	121823
37.26033	136942
37.26845	140945
37.27657	140814
37.28470	136989
37.29282	136062
37.30093	133925
37.30907	128478
37.31718	130984
37.32532	130151
37.33343	136066
37.34155	135874
37.34968	147889
37.35780	147421
37.36593	152884
37.37405	173403
37.38217	183268
37.39030	196169
37.39842	211731
37.40655	229031
37.41467	255203
37.42278	285498
37.43092	312726
37.43903	361738
37.44715	392392
37.45528	459905
37.46340	496426
37.47153	569754
37.47965	641649
37.48777	704772
