Z:\data\JTB-E02\BACandBLUE\JTB-E02-206-13.D Wed Mar 13 14:00:43 2019
Start of data points
2.09518	55838
2.10332	57828
2.11143	50961
2.11955	58738
2.12768	50941
2.13580	51803
2.14393	51398
2.15205	50371
2.16017	50358
2.16830	54233
2.17642	46094
2.18455	48257
2.19267	46905
2.20078	45232
2.20892	48643
2.21703	43488
2.22515	40636
2.23328	44269
2.24140	44264
2.24953	41302
2.25765	45904
2.26577	55955
2.27390	378312
2.28202	1573962
2.29015	1542399
2.29827	706525
2.30638	412427
2.31452	314584
2.32263	273245
2.33077	239783
2.33888	219492
2.34700	202147
2.35513	180667
2.36325	156353
2.37137	160803
2.37950	148359
2.38762	137556
2.39575	134122
2.40387	130074
2.41198	130287
2.42012	130678
2.42823	185300
2.43637	148301
2.44448	126483
2.45260	124879
2.46073	117770
2.46885	111991
2.47698	103406
2.48510	100110
2.49322	106547
2.50135	103088
2.50947	104024
2.51758	97174
2.52572	95589
2.53383	94470
2.54197	94826
2.55008	92244
2.55820	125806
2.56633	313139
2.57445	446455
2.58258	346011
2.59070	275791
2.59882	242809
2.60695	270577
2.61507	507138
2.62318	642782
2.63132	447206
2.63943	309327
2.64757	250661
2.65568	211058
2.66380	195000
2.67193	171917
2.68005	161315
2.68818	152026
2.69630	142162
2.70442	138899
2.71255	142715
2.72067	134614
2.72880	129440
2.73692	125223
2.74503	121568
2.75317	125475
2.76128	119471
2.76940	113330
2.77753	110356
2.78565	108854
2.79378	116621
2.80190	120004
2.81002	111630
2.81815	120742
2.82627	115785
2.83440	115718
2.84252	119682
2.85063	108763
2.85877	105142
2.86688	105220
2.87502	103480
2.88313	103189
2.89125	101452
2.89938	101805
2.90750	97950
2.91562	92508
2.92375	93800
2.93187	88870
2.94000	95587
2.94812	90643
2.95623	93136
2.96437	96664
2.97248	108073
2.98062	108650
2.98873	107680
2.99685	103612
3.00498	110594
3.01310	107132
3.02122	103117
3.02935	97269
3.03747	94109
3.04560	84553
3.05372	91397
3.06183	91750
3.06997	91493
3.07808	106706
3.08622	257389
3.09433	1026680
3.10245	2261402
3.11058	3667048
3.11870	4944934
3.12683	3974933
3.13495	2562804
3.14307	1901527
3.15120	1503321
3.15932	1196754
3.16743	988595
3.17557	828988
3.18368	706031
3.19182	591529
3.19993	526793
3.20805	465508
3.21618	402916
3.22430	369775
3.23243	330842
3.24055	302238
3.24867	281747
3.25680	257006
3.26492	238616
3.27305	228000
3.28117	212859
3.28928	259343
3.29742	664451
3.30553	2127644
3.31365	4538484
3.32178	5682872
3.32990	4789695
3.33803	3246748
3.34615	2215025
3.35427	1643971
3.36240	1285474
3.37052	1060764
3.37865	892452
3.38677	763993
3.39488	683448
3.40302	605387
3.41113	555662
3.41925	513946
3.42738	480479
3.43550	430286
3.44363	411925
3.45175	390166
3.45987	369053
3.46800	366544
3.47612	386684
3.48425	396498
3.49237	362790
3.50048	334347
3.50862	319327
3.51673	311461
3.52487	284113
3.53298	284455
3.54110	276748
3.54923	256378
3.55735	262068
3.56547	256460
3.57360	311870
3.58172	421968
3.58985	438495
3.59797	383311
3.60608	316789
3.61422	295471
3.62233	287437
3.63047	278244
3.63858	283378
3.64670	265455
3.65483	258420
3.66295	228004
3.67107	222599
3.67920	215187
3.68732	217546
3.69545	201893
3.70357	205448
3.71168	201005
3.71982	207122
3.72793	196151
3.73607	193830
3.74418	181976
3.75230	187272
3.76043	187890
3.76855	181139
3.77668	187502
3.78480	183618
3.79292	179828
3.80105	252850
3.80917	695875
3.81728	1988583
3.82542	3163604
3.83353	2881275
3.84167	1906312
3.84978	1343248
3.85790	1070127
3.86603	923133
3.87415	805895
3.88228	714415
3.89040	643378
3.89852	596801
3.90665	544472
3.91477	505378
3.92290	465775
3.93102	442137
3.93913	416042
3.94727	464993
3.95538	843740
3.96350	2130651
3.97163	3792655
3.97975	4196713
3.98788	3011982
3.99600	2138605
4.00412	3378009
4.01225	8486357
4.02037	1.521158E+07
4.02850	1.62649E+07
4.03662	1.127567E+07
4.04473	6242307
4.05287	3714000
4.06098	2562222
4.06910	1907449
4.07723	1517132
4.08535	1252721
4.09348	1044848
4.10160	906370
4.10972	801295
4.11785	707405
4.12597	655334
4.13410	597115
4.14222	564437
4.15033	536469
4.15847	525507
4.16658	519597
4.17472	502716
4.18283	511676
4.19095	487107
4.19908	435955
4.20720	391994
4.21532	356186
4.22345	366386
4.23157	415325
4.23970	471386
4.24782	437898
4.25593	375415
4.26407	338552
4.27218	313195
4.28032	293307
4.28843	294488
4.29655	264086
4.30468	259001
4.31280	245236
4.32093	248162
4.32905	248674
4.33717	247150
4.34530	255196
4.35342	244981
4.36153	240941
4.36967	232434
4.37778	223687
4.38592	214135
4.39403	214061
4.40215	206711
4.41028	203451
4.41840	204381
4.42653	203189
4.43465	207090
4.44277	200125
4.45090	195158
4.45902	189650
4.46713	194526
4.47527	190411
4.48338	182754
4.49152	185580
4.49963	180301
4.50775	175244
4.51588	179794
4.52400	166393
4.53213	175554
4.54025	166921
4.54837	166304
4.55650	171673
4.56462	161597
4.57275	165446
4.58087	161005
4.58898	162888
4.59712	157929
4.60523	154536
4.61335	162579
4.62148	154985
4.62960	155529
4.63773	152264
4.64585	152166
4.65397	147104
4.66210	150605
4.67022	148082
4.67835	148864
4.68647	152009
4.69458	152681
4.70272	149876
4.71083	148614
4.71895	142870
4.72708	137376
4.73520	145081
4.74333	138423
4.75145	135585
4.75957	136202
4.76770	137110
4.77582	131993
4.78395	137002
4.79207	137528
4.80018	146648
4.80832	164050
4.81643	170547
4.82457	171143
4.83268	169867
4.84080	176806
4.84893	182630
4.85705	189895
4.86517	180733
4.87330	165979
4.88142	161093
4.88955	155863
4.89767	143206
4.90578	136589
4.91392	136717
4.92203	143008
4.93017	141744
4.93828	147265
4.94640	212751
4.95453	401977
4.96265	777381
4.97078	1166562
4.97890	1372586
4.98702	1269891
4.99515	1055085
5.00327	831591
5.01138	652468
5.01952	545875
5.02763	477141
5.03577	423335
5.04388	378245
5.05200	352340
5.06013	337070
5.06825	321765
5.07638	302012
5.08450	281957
5.09262	280032
5.10075	272419
5.10887	259043
5.11700	245233
5.12512	245881
5.13323	229889
5.14137	230146
5.14948	233269
5.15760	222136
5.16573	229219
5.17385	229067
5.18198	214424
5.19010	219241
5.19822	212089
5.20635	204260
5.21447	203716
5.22260	206289
5.23072	210938
5.23883	228237
5.24697	241394
5.25508	221895
5.26320	217510
5.27133	195305
5.27945	190767
5.28758	176563
5.29570	170563
5.30382	171227
5.31195	167191
5.32007	169031
5.32820	168743
5.33632	212225
5.34443	248376
5.35257	277304
5.36068	254505
5.36882	223274
5.37693	198706
5.38505	203978
5.39318	222439
5.40130	211264
5.40942	200175
5.41755	187932
5.42567	181209
5.43380	177855
5.44192	172413
5.45003	167465
5.45817	159697
5.46628	160327
5.47442	151076
5.48253	158049
5.49065	146177
5.49878	148590
5.50690	152789
5.51502	156076
5.52315	160594
5.53127	166091
5.53940	165665
5.54752	160884
5.55563	144228
5.56377	152872
5.57188	150155
5.58002	161642
5.58813	200042
5.59625	246839
5.60438	256535
5.61250	231541
5.62063	198324
5.62875	184906
5.63687	179374
5.64500	166056
5.65312	167067
5.66123	160786
5.66937	148455
5.67748	154218
5.68562	174954
5.69373	199082
5.70185	223433
5.70998	234746
5.71810	197678
5.72623	177420
5.73435	158308
5.74247	145271
5.75060	148555
5.75872	141279
5.76685	137658
5.77497	139616
5.78308	135016
5.79122	128439
5.79933	127564
5.80745	129411
5.81558	119579
5.82370	122127
5.83183	128895
5.83995	132401
5.84807	125897
5.85620	126741
5.86432	119701
5.87245	124012
5.88057	118199
5.88868	129003
5.89682	115092
5.90493	113499
5.91305	104071
5.92118	100606
5.92930	96629
5.93743	93541
5.94555	93338
5.95367	96019
5.96180	108494
5.96992	152385
5.97805	248638
5.98617	369511
5.99428	446448
6.00242	426558
6.01053	329858
6.01867	243118
6.02678	176720
6.03490	159688
6.04303	144920
6.05115	141259
6.05927	126893
6.06740	129690
6.07552	116291
6.08365	116520
6.09177	117979
6.09988	109550
6.10802	111501
6.11613	114164
6.12427	108819
6.13238	112610
6.14050	123841
6.14863	114176
6.15675	119481
6.16488	128678
6.17300	123412
6.18112	124142
6.18925	125338
6.19737	125021
6.20548	124858
6.21362	127376
6.22173	125542
6.22987	135706
6.23798	134895
6.24610	131114
6.25423	133816
6.26235	135827
6.27048	135848
6.27860	140116
6.28672	136920
6.29485	140198
6.30297	137308
6.31108	146842
6.31922	143841
6.32733	148436
6.33547	155252
6.34358	152688
6.35170	157834
6.35983	157592
6.36795	155087
6.37608	157253
6.38420	157148
6.39232	160495
6.40045	161188
6.40857	160647
6.41670	158700
6.42482	157661
6.43293	168943
6.44107	161102
6.44918	169076
6.45730	180648
6.46543	180351
6.47355	183218
6.48168	174918
6.48980	173371
6.49792	175757
6.50605	174908
6.51417	180734
6.52230	181406
6.53042	184359
6.53853	182218
6.54667	182072
6.55478	180277
6.56290	187561
6.57103	189918
6.57915	184356
6.58728	191350
6.59540	194072
6.60352	184703
6.61165	198820
6.61977	203222
6.62790	200386
6.63602	203678
6.64413	283309
6.65227	697265
6.66038	2282638
6.66852	5736911
6.67663	9623779
6.68475	1.079123E+07
6.69288	8748791
6.70100	5568235
6.70912	3421337
6.71725	2231127
6.72537	1704432
6.73350	1415694
6.74162	1188225
6.74973	1036057
6.75787	909676
6.76598	816226
6.77412	714512
6.78223	636441
6.79035	599740
6.79848	549343
6.80660	506123
6.81473	466887
6.82285	431228
6.83097	408112
6.83910	386444
6.84722	371781
6.85533	366427
6.86347	369180
6.87158	363030
6.87972	343383
6.88783	315845
6.89595	274035
6.90408	244066
6.91220	232748
6.92033	202319
6.92845	200600
6.93657	186239
6.94470	178601
6.95282	169851
6.96093	165949
6.96907	171609
6.97718	197660
6.98532	223588
6.99343	219181
7.00155	209599
7.00968	183376
7.01780	194519
7.02593	207354
7.03405	214700
7.04217	209316
7.05030	204667
7.05842	202647
7.06655	192121
7.07467	189564
7.08278	186937
7.09092	183536
7.09903	177831
7.10715	172786
7.11528	162855
7.12340	160850
7.13153	159901
7.13965	163193
7.14777	173766
7.15590	211544
7.16402	249092
7.17215	270072
7.18027	291007
7.18838	239387
7.19652	203746
7.20463	177165
7.21277	155205
7.22088	154934
7.22900	159731
7.23713	162375
7.24525	164685
7.25337	155986
7.26150	145171
7.26962	134711
7.27775	130016
7.28587	125286
7.29398	122783
7.30212	112766
7.31023	115950
7.31837	115234
7.32648	109321
7.33460	111635
7.34273	109837
7.35085	111046
7.35897	102717
7.36710	102936
7.37522	105854
7.38335	106634
7.39147	105462
7.39958	104158
7.40772	105249
7.41583	101425
7.42397	96324
7.43208	96495
7.44020	108234
7.44833	95337
7.45645	96664
7.46458	94700
7.47270	94045
7.48082	89224
7.48895	92305
7.49707	86635
7.50518	86018
7.51332	90489
7.52143	84895
7.52957	82888
7.53768	87954
7.54580	84277
7.55393	82500
7.56205	78399
7.57018	79162
7.57830	81873
7.58642	81148
7.59455	79822
7.60267	79305
7.61080	81346
7.61892	80148
7.62703	73233
7.63517	74094
7.64328	76319
7.65140	75974
7.65953	73932
7.66765	72841
7.67578	75730
7.68390	76123
7.69202	78094
7.70015	73350
7.70827	74542
7.71640	68789
7.72452	66938
7.73263	74174
7.74077	71087
7.74888	69198
7.75700	78791
7.76513	74051
7.77325	72428
7.78138	84657
7.78950	79683
7.79762	82809
7.80575	82252
7.81387	78312
7.82200	79374
7.83012	74172
7.83823	72322
7.84637	65016
7.85448	68641
7.86262	64168
7.87073	64055
7.87885	62411
7.88698	65014
7.89510	64693
7.90322	60063
7.91135	67088
7.91947	73611
7.92760	97911
7.93572	176238
7.94383	294602
7.95197	418472
7.96008	448381
7.96822	390261
7.97633	290269
7.98445	195337
7.99258	131726
8.00070	104083
8.00882	96202
8.01695	86303
8.02507	80956
8.03320	74726
8.04132	73698
8.04943	70901
8.05757	69285
8.06568	71080
8.07382	70873
8.08193	66574
8.09005	67033
8.09818	63223
8.10630	59521
8.11443	63600
8.12255	63382
8.13067	64326
8.13880	62682
8.14692	69264
8.15503	73032
8.16317	73329
8.17128	72548
8.17942	65307
8.18753	68640
8.19565	60941
8.20378	65117
8.21190	63605
8.22003	63345
8.22815	60619
8.23627	61375
8.24440	65467
8.25252	63938
8.26065	58451
8.26877	56921
8.27688	51339
8.28502	58334
8.29313	57984
8.30125	56070
8.30938	57790
8.31750	59474
8.32563	68854
8.33375	66433
8.34187	68583
8.35000	61936
8.35812	65585
8.36625	62728
8.37437	67917
8.38248	75266
8.39062	77830
8.39873	72174
8.40685	72267
8.41498	60486
8.42310	58693
8.43123	55034
8.43935	52591
8.44747	59002
8.45560	55470
8.46372	63313
8.47185	62708
8.47997	64708
8.48808	68117
8.49622	64073
8.50433	57038
8.51247	59751
8.52058	60519
8.52870	82239
8.53683	142368
8.54495	245036
8.55307	368666
8.56120	418209
8.56932	384888
8.57745	292163
8.58557	196370
8.59368	134658
8.60182	104155
8.60993	97532
8.61807	92354
8.62618	88886
8.63430	83284
8.64243	81124
8.65055	72406
8.65868	69327
8.66680	65841
8.67492	63221
8.68305	66428
8.69117	63829
8.69928	64491
8.70742	67476
8.71553	65135
8.72367	66974
8.73178	58982
8.73990	59296
8.74803	58536
8.75615	66317
8.76428	106549
8.77240	227095
8.78052	484771
8.78865	858589
8.79677	1244818
8.80488	1401547
8.81302	1225044
8.82113	852652
8.82927	547340
8.83738	342026
8.84550	243836
8.85363	205611
8.86175	201160
8.86988	185915
8.87800	174012
8.88612	158330
8.89425	151467
8.90237	135664
8.91050	129502
8.91862	120714
8.92673	121490
8.93487	113340
8.94298	116488
8.95110	106891
8.95923	108648
8.96735	101740
8.97548	104876
8.98360	96774
8.99172	97432
8.99985	103786
9.00797	97442
9.01610	101092
9.02422	90748
9.03233	91768
9.04047	83935
9.04858	83314
9.05670	89248
9.06483	84317
9.07295	84646
9.08108	87269
9.08920	87931
9.09732	94716
9.10545	99602
9.11357	111554
9.12170	113230
9.12982	107047
9.13793	103814
9.14607	90965
9.15418	84105
9.16232	84105
9.17043	77583
9.17855	77933
9.18668	76180
9.19480	74127
9.20292	76125
9.21105	79035
9.21917	74073
9.22730	76690
9.23542	70749
9.24353	80264
9.25167	80338
9.25978	80390
9.26792	79764
9.27603	75617
9.28415	85615
9.29228	74575
9.30040	73075
9.30853	72325
9.31665	70720
9.32477	71395
9.33290	67656
9.34102	73854
9.34913	72594
9.35727	75280
9.36538	70668
9.37352	65394
9.38163	62615
9.38975	63086
9.39788	65852
9.40600	64621
9.41413	60268
9.42225	61936
9.43037	67550
9.43850	62144
9.44662	72170
9.45473	70619
9.46287	76126
9.47098	67636
9.47912	70360
9.48723	59872
9.49535	66549
9.50348	65365
9.51160	70483
9.51973	79562
9.52785	92439
9.53597	104613
9.54410	104267
9.55222	107183
9.56035	108990
9.56847	97824
9.57658	100152
9.58472	90985
9.59283	84817
9.60095	81980
9.60908	78319
9.61720	71595
9.62533	59429
9.63345	55781
9.64157	52058
9.64970	53588
9.65782	49161
9.66595	50149
9.67407	46738
9.68218	47211
9.69032	48102
9.69843	45383
9.70657	44989
9.71468	45516
9.72280	46901
9.73093	48630
9.73905	45821
9.74717	46253
9.75530	42652
9.76342	38461
9.77155	42517
9.77967	42027
9.78778	45156
9.79592	42532
9.80403	41532
9.81217	42154
9.82028	41497
9.82840	45875
9.83653	40966
9.84465	45486
9.85277	44525
9.86090	45812
9.86902	46212
9.87715	45824
9.88527	48914
9.89338	45407
9.90152	49048
9.90963	42816
9.91777	42885
9.92588	44816
9.93400	44759
9.94213	52371
9.95025	62231
9.95838	64773
9.96650	74523
9.97462	69631
9.98275	67147
9.99087	65205
9.99898	55227
10.00712	55509
10.01523	56117
10.02337	62244
10.03148	60020
10.03960	56460
10.04773	55070
10.05585	48339
10.06398	49098
10.07210	49860
10.08022	51175
10.08835	55420
10.09647	61648
10.10458	63733
10.11272	63873
10.12083	60775
10.12897	54039
10.13708	51723
10.14520	47842
10.15333	48465
10.16145	47892
10.16958	45469
10.17770	44510
10.18582	42817
10.19395	38642
10.20207	42538
10.21020	42611
10.21832	44272
10.22643	44763
10.23457	48083
10.24268	52099
10.25080	55407
10.25893	56309
10.26705	52088
10.27518	51936
10.28330	47906
10.29142	50978
10.29955	47834
10.30767	50984
10.31580	46960
10.32392	52243
10.33203	51463
10.34017	49640
10.34828	59105
10.35642	55755
10.36453	55804
10.37265	65569
10.38078	63056
10.38890	62357
10.39702	55659
10.40515	60673
10.41327	57824
10.42140	52713
10.42952	53293
10.43763	55046
10.44577	42367
10.45388	46054
10.46202	42895
10.47013	41984
10.47825	46330
10.48638	41676
10.49450	39295
10.50263	43583
10.51075	43055
10.51887	45907
10.52700	40346
10.53512	44233
10.54323	44255
10.55137	38887
10.55948	39528
10.56762	39365
10.57573	46775
10.58385	44881
10.59198	45117
10.60010	45933
10.60823	49178
10.61635	44803
10.62447	38830
10.63260	44752
10.64072	40460
10.64883	36956
10.65697	42102
10.66508	39796
10.67322	42640
10.68133	40654
10.68945	39584
10.69758	39990
10.70570	38751
10.71383	40434
10.72195	38950
10.73007	37761
10.73820	39258
10.74632	40733
10.75445	43541
10.76257	43429
10.77068	43458
10.77882	42879
10.78693	43264
10.79505	44953
10.80318	42891
10.81130	39953
10.81943	41692
10.82755	42306
10.83567	37063
10.84380	38863
10.85192	37386
10.86005	38213
10.86817	40039
10.87628	40153
10.88442	37967
10.89253	36286
10.90065	35221
10.90878	36059
10.91690	35507
10.92503	34924
10.93315	33055
10.94127	35110
10.94940	33195
10.95752	39463
10.96565	39560
10.97377	40113
10.98188	40267
10.99002	40414
10.99813	35920
11.00627	35130
11.01438	35076
11.02250	40150
11.03063	37182
11.03875	35239
11.04687	36048
11.05500	38624
11.06312	35924
11.07125	32065
11.07937	33976
11.08748	31432
11.09562	33335
11.10373	32763
11.11187	32694
11.11998	33286
11.12810	36432
11.13623	30541
11.14435	29619
11.15248	34137
11.16060	33155
11.16872	35838
11.17685	41742
11.18497	43430
11.19308	42934
11.20122	47740
11.20933	45785
11.21747	44306
11.22558	43652
11.23370	37875
11.24183	38158
11.24995	36306
11.25808	36885
11.26620	36107
11.27432	37693
11.28245	33712
11.29057	32817
11.29868	37581
11.30682	37985
11.31493	38447
11.32307	43188
11.33118	35501
11.33930	37478
11.34743	35105
11.35555	34297
11.36368	42317
11.37180	36137
11.37992	34388
11.38805	38636
11.39617	35224
11.40430	35562
11.41242	31597
11.42053	35101
11.42867	32648
11.43678	30992
11.44490	31961
11.45303	33183
11.46115	35176
11.46928	32942
11.47740	41700
11.48552	58584
11.49365	73035
11.50177	101103
11.50990	110135
11.51802	108013
11.52613	91225
11.53427	76559
11.54238	63320
11.55052	55985
11.55863	51876
11.56675	46462
11.57488	43685
11.58300	42416
11.59112	39245
11.59925	40294
11.60737	41049
11.61550	45063
11.62362	39008
11.63173	41309
11.63987	42017
11.64798	40261
11.65612	34447
11.66423	36837
11.67235	36865
11.68048	42821
11.68860	43886
11.69672	55529
11.70485	62505
11.71297	64837
11.72110	61758
11.72922	56000
11.73733	50808
11.74547	48142
11.75358	47436
11.76172	43871
11.76983	39274
11.77795	42695
11.78608	42907
11.79420	40139
11.80233	36901
11.81045	40872
11.81857	40039
11.82670	39467
11.83482	45248
11.84293	46039
11.85107	52915
11.85918	56615
11.86732	57745
11.87543	56420
11.88355	61886
11.89168	54287
11.89980	48189
11.90793	45110
11.91605	43629
11.92417	45335
11.93230	46702
11.94042	46045
11.94853	44497
11.95667	42492
11.96478	38013
11.97292	39155
11.98103	41053
11.98915	39293
11.99728	44336
12.00540	57081
12.01353	66245
12.02165	73322
12.02977	82793
12.03790	68575
12.04602	57168
12.05415	52525
12.06227	48350
12.07038	41454
12.07852	40232
12.08663	39240
12.09475	37688
12.10288	36619
12.11100	39185
12.11913	38985
12.12725	40663
12.13537	41194
12.14350	36645
12.15162	40508
12.15975	41380
12.16787	36501
12.17598	36828
12.18412	35923
12.19223	37696
12.20037	35754
12.20848	36370
12.21660	34970
12.22473	38272
12.23285	36540
12.24097	35476
12.24910	36649
12.25722	40053
12.26535	35020
12.27347	33271
12.28158	34746
12.28972	37299
12.29783	37647
12.30597	34978
12.31408	34573
12.32220	33365
12.33033	39892
12.33845	33465
12.34657	35316
12.35470	35687
12.36282	33788
12.37095	31850
12.37907	36081
12.38718	35467
12.39532	37022
12.40343	33260
12.41157	34392
12.41968	34241
12.42780	36388
12.43593	39942
12.44405	42325
12.45218	41735
12.46030	42716
12.46842	37235
12.47655	37687
12.48467	36654
12.49278	35175
12.50092	33075
12.50903	33478
12.51717	35569
12.52528	30009
12.53340	33587
12.54153	36964
12.54965	38442
12.55778	38514
12.56590	39024
12.57402	40724
12.58215	41080
12.59027	41121
12.59840	38644
12.60652	39701
12.61463	43404
12.62277	40000
12.63088	38086
12.63900	43708
12.64713	39049
12.65525	38559
12.66338	40866
12.67150	36144
12.67962	35222
12.68775	34051
12.69587	31111
12.70400	36166
12.71212	34103
12.72023	37125
12.72837	41969
12.73648	48181
12.74460	48076
12.75273	47004
12.76085	44867
12.76898	41115
12.77710	36434
12.78522	34969
12.79335	34385
12.80147	32997
12.80960	32265
12.81772	33050
12.82583	33313
12.83397	34837
12.84208	36892
12.85022	31059
12.85833	32637
12.86645	31560
12.87458	30800
12.88270	33047
12.89082	36649
12.89895	37264
12.90707	37191
12.91520	37250
12.92332	39064
12.93143	33086
12.93957	31826
12.94768	31369
12.95582	34751
12.96393	31911
12.97205	33383
12.98018	36793
12.98830	39881
12.99643	39290
13.00455	36085
13.01267	33592
13.02080	36999
13.02892	37328
13.03703	34190
13.04517	36374
13.05328	38792
13.06142	38012
13.06953	36374
13.07765	36445
13.08578	33817
13.09390	35380
13.10203	36604
13.11015	33059
13.11827	34930
13.12640	31634
13.13452	35892
13.14263	29747
13.15077	34159
13.15888	36684
13.16702	34610
13.17513	35717
13.18325	37721
13.19138	39550
13.19950	36393
13.20763	40720
13.21575	43656
13.22387	38109
13.23200	35285
13.24012	36724
13.24825	34860
13.25637	34023
13.26448	38600
13.27262	34144
13.28073	33226
13.28885	29230
13.29698	36738
13.30510	29955
13.31323	34017
13.32135	34836
13.32947	34717
13.33760	35454
13.34572	32373
13.35385	33958
13.36197	35221
13.37008	36034
13.37822	28929
13.38633	26951
13.39445	30241
13.40258	34736
13.41070	32585
13.41883	30375
13.42695	32310
13.43507	28590
13.44320	31974
13.45132	29246
13.45945	30892
13.46757	30902
13.47568	30445
13.48382	28414
13.49193	31310
13.50007	34102
13.50818	30439
13.51630	28110
13.52443	29231
13.53255	29753
13.54067	28804
13.54880	34286
13.55692	36884
13.56505	37233
13.57317	38164
13.58128	41648
13.58942	39948
13.59753	34790
13.60567	35709
13.61378	32070
13.62190	30888
13.63003	28425
13.63815	33077
13.64628	29670
13.65440	32616
13.66252	28807
13.67065	30174
13.67877	30016
13.68688	28407
13.69502	32914
13.70313	30095
13.71127	32786
13.71938	36664
13.72750	38662
13.73563	35416
13.74375	45435
13.75188	44785
13.76000	54634
13.76812	70697
13.77625	106164
13.78437	118685
13.79248	128408
13.80062	123945
13.80873	101137
13.81687	83263
13.82498	61785
13.83310	52313
13.84123	48462
13.84935	41983
13.85748	44115
13.86560	43202
13.87372	40015
13.88185	43315
13.88997	38990
13.89810	42284
13.90622	43342
13.91433	36560
13.92247	37594
13.93058	39799
13.93870	41577
13.94683	39725
13.95495	48565
13.96308	59400
13.97120	81528
13.97932	109527
13.98745	140461
13.99557	151057
14.00370	157136
14.01182	126781
14.01993	101566
14.02807	79851
14.03618	67929
14.04432	62731
14.05243	62267
14.06055	62463
14.06868	57007
14.07680	54735
14.08492	49599
14.09305	53052
14.10117	49015
14.10930	46776
14.11742	47616
14.12553	46258
14.13367	46746
14.14178	41580
14.14992	42737
14.15803	44080
14.16615	50352
14.17428	46059
14.18240	46032
14.19052	49976
14.19865	64016
14.20677	83618
14.21490	111539
14.22302	143980
14.23113	146324
14.23927	151195
14.24738	137280
14.25552	118885
14.26363	109463
14.27175	96434
14.27988	87858
14.28800	85707
14.29613	77847
14.30425	76855
14.31237	70370
14.32050	69705
14.32862	64776
14.33673	63216
14.34487	59494
14.35298	56968
14.36112	54852
14.36923	59101
14.37735	53859
14.38548	53002
14.39360	48747
14.40173	47784
14.40985	50501
14.41797	47195
14.42610	48798
14.43422	41980
14.44233	41063
14.45047	42536
14.45858	35634
14.46672	43610
14.47483	38267
14.48295	41733
14.49108	39261
14.49920	36104
14.50733	38226
14.51545	39902
14.52357	36381
14.53170	38055
14.53982	41038
14.54795	37190
14.55607	39863
14.56418	37745
14.57232	36085
14.58043	36526
14.58855	32003
14.59668	33994
14.60480	34753
14.61293	31465
14.62105	30953
14.62917	33600
14.63730	33925
14.64542	35494
14.65355	30676
14.66167	33628
14.66978	33424
14.67792	32111
14.68603	29025
14.69417	33474
14.70228	35235
14.71040	34527
14.71853	30755
14.72665	31923
14.73477	32217
14.74290	35455
14.75102	32578
14.75915	33806
14.76727	37057
14.77538	33655
14.78352	34139
14.79163	35348
14.79977	36915
14.80788	32014
14.81600	36633
14.82413	36043
14.83225	35786
14.84038	43069
14.84850	42833
14.85662	48764
14.86475	43406
14.87287	46780
14.88098	41379
14.88912	41202
14.89723	44817
14.90537	40643
14.91348	41069
14.92160	39141
14.92973	40772
14.93785	43024
14.94598	43690
14.95410	46113
14.96222	45236
14.97035	43345
14.97847	45960
14.98658	42218
14.99472	45318
15.00283	41206
15.01097	41478
15.01908	43207
15.02720	40535
15.03533	41031
15.04345	39008
15.05158	38249
15.05970	37513
15.06782	39252
15.07595	38121
15.08407	38837
15.09220	37334
15.10032	36524
15.10843	34930
15.11657	38280
15.12468	39496
15.13280	32513
15.14093	35861
15.14905	32659
15.15718	33128
15.16530	35081
15.17342	38830
15.18155	36118
15.18967	34577
15.19780	33064
15.20592	34086
15.21403	34446
15.22217	29517
15.23028	30494
15.23840	32780
15.24653	30768
15.25465	32695
15.26278	31344
15.27090	34231
15.27902	28202
15.28715	32045
15.29527	34763
15.30340	29841
15.31152	32630
15.31963	33649
15.32777	31733
15.33588	33077
15.34402	29552
15.35213	28322
15.36025	29151
15.36838	29866
15.37650	28437
15.38462	31852
15.39275	31196
15.40087	30685
15.40900	29236
15.41712	31810
15.42523	32841
15.43337	30266
15.44148	32514
15.44962	31733
15.45773	29347
15.46585	29727
15.47398	32310
15.48210	34040
15.49022	27249
15.49835	30072
15.50647	36949
15.51460	39496
15.52272	54438
15.53083	87820
15.53897	119786
15.54708	162094
15.55522	205538
15.56333	203093
15.57145	183744
15.57958	139662
15.58770	102940
15.59583	69890
15.60395	54315
15.61207	47027
15.62020	43502
15.62832	41662
15.63643	38199
15.64457	41162
15.65268	36920
15.66082	33987
15.66893	34696
15.67705	33295
15.68518	32141
15.69330	32154
15.70143	33958
15.70955	30315
15.71767	31879
15.72580	32147
15.73392	30988
15.74205	33843
15.75017	33321
15.75828	34934
15.76642	32717
15.77453	37013
15.78265	40251
15.79078	49816
15.79890	50676
15.80703	52551
15.81515	51256
15.82327	47825
15.83140	41887
15.83952	42029
15.84765	40664
15.85577	37402
15.86388	33737
15.87202	36629
15.88013	35382
15.88827	38695
15.89638	38594
15.90450	42920
15.91263	41425
15.92075	41651
15.92887	41099
15.93700	40152
15.94512	37576
15.95325	38815
15.96137	41093
15.96948	52942
15.97762	51797
15.98573	56049
15.99387	69428
16.00198	68926
16.01010	69629
16.01823	64198
16.02635	70551
16.03447	74626
16.04260	74889
16.05072	67514
16.05885	58827
16.06697	56281
16.07508	45931
16.08322	44070
16.09133	43163
16.09947	44721
16.10758	43423
16.11570	39431
16.12383	40449
16.13195	38506
16.14008	41720
16.14820	39766
16.15632	35696
16.16445	37746
16.17257	38081
16.18068	36482
16.18882	37385
16.19693	38054
16.20507	34736
16.21318	35513
16.22130	37242
16.22943	34722
16.23755	36550
16.24568	34529
16.25380	35514
16.26192	33837
16.27005	33778
16.27817	36242
16.28628	36707
16.29442	36676
16.30253	38543
16.31067	40591
16.31878	33829
16.32690	35526
16.33503	33563
16.34315	38140
16.35128	43391
16.35940	48781
16.36752	57730
16.37565	65252
16.38377	76666
16.39190	87214
16.40002	82343
16.40813	73141
16.41627	62852
16.42438	54114
16.43250	44918
16.44063	43949
16.44875	40944
16.45688	40543
16.46500	40061
16.47312	38113
16.48125	36272
16.48937	40128
16.49750	36923
16.50562	41253
16.51373	40725
16.52187	38013
16.52998	37695
16.53812	38503
16.54623	34915
16.55435	38242
16.56248	42529
16.57060	37970
16.57872	33644
16.58685	34455
16.59497	38743
16.60310	45932
16.61122	52068
16.61933	53579
16.62747	55746
16.63558	52770
16.64372	50947
16.65183	50294
16.65995	43174
16.66808	40218
16.67620	37016
16.68432	35292
16.69245	39238
16.70057	35069
16.70870	34865
16.71682	33539
16.72493	34216
16.73307	34313
16.74118	36906
16.74932	34687
16.75743	32241
16.76555	30888
16.77368	32231
16.78180	36440
16.78993	36361
16.79805	37612
16.80617	32893
16.81430	30750
16.82242	30244
16.83053	29330
16.83867	34030
16.84678	31549
16.85492	30525
16.86303	28825
16.87115	32877
16.87928	33896
16.88740	32333
16.89553	30591
16.90365	32292
16.91177	30211
16.91990	27764
16.92802	30901
16.93615	29949
16.94427	31876
16.95238	29642
16.96052	27305
16.96863	30155
16.97675	30989
16.98488	29251
16.99300	28033
17.00113	29393
17.00925	28707
17.01737	28381
17.02550	27910
17.03362	26697
17.04175	28618
17.04987	31203
17.05798	28922
17.06612	29821
17.07423	30581
17.08235	32501
17.09048	29666
17.09860	31787
17.10673	32016
17.11485	36255
17.12297	34022
17.13110	33953
17.13922	34317
17.14735	35676
17.15547	32384
17.16358	33550
17.17172	35177
17.17983	28226
17.18797	34904
17.19608	32779
17.20420	30426
17.21233	33903
17.22045	31861
17.22857	32468
17.23670	32760
17.24482	30741
17.25295	28683
17.26107	28601
17.26918	32359
17.27732	32604
17.28543	29685
17.29357	30249
17.30168	27650
17.30980	27946
17.31793	28728
17.32605	31488
17.33417	33979
17.34230	30356
17.35042	33420
17.35855	38044
17.36667	35757
17.37478	33988
17.38292	42108
17.39103	37741
17.39917	36956
17.40728	39033
17.41540	33807
17.42353	37058
17.43165	35646
17.43978	40689
17.44790	37056
17.45602	40551
17.46415	37380
17.47227	37930
17.48038	37592
17.48852	38894
17.49663	35319
17.50477	33301
17.51288	36521
17.52100	32735
17.52913	34937
17.53725	35510
17.54538	36483
17.55350	36809
17.56162	34960
17.56975	34590
17.57787	31297
17.58600	33885
17.59412	36275
17.60223	32746
17.61037	35739
17.61848	34615
17.62660	34944
17.63473	41748
17.64285	54590
17.65098	76427
17.65910	113282
17.66722	163598
17.67535	201090
17.68347	218809
17.69160	194840
17.69972	168775
17.70783	130300
17.71597	96578
17.72408	84050
17.73220	76538
17.74033	65170
17.74845	60058
17.75658	54514
17.76470	56410
17.77282	50609
17.78095	46867
17.78907	49705
17.79720	49376
17.80532	45270
17.81343	51373
17.82157	54016
17.82968	50383
17.83782	53033
17.84593	55266
17.85405	53136
17.86218	46866
17.87030	46800
17.87842	48816
17.88655	43988
17.89467	40293
17.90280	42420
17.91092	40150
17.91903	35947
17.92717	38502
17.93528	35900
17.94342	33981
17.95153	36791
17.95965	34362
17.96778	33343
17.97590	34935
17.98403	34943
17.99215	31152
18.00027	35554
18.00840	35097
18.01652	33157
18.02463	34642
18.03277	37531
18.04088	38351
18.04902	34665
18.05713	32293
18.06525	36118
18.07338	39026
18.08150	43215
18.08963	48761
18.09775	55785
18.10587	66018
18.11400	66174
18.12212	69285
18.13023	58949
18.13837	55066
18.14648	52276
18.15462	51169
18.16273	49706
18.17085	51145
18.17898	52872
18.18710	51789
18.19523	56777
18.20335	51301
18.21147	51629
18.21960	47676
18.22772	46716
18.23585	43040
18.24397	43134
18.25208	40016
18.26022	46656
18.26833	41526
18.27645	37709
18.28458	39096
18.29270	39555
18.30083	36493
18.30895	35336
18.31707	35690
18.32520	35612
18.33332	35037
18.34145	34416
18.34957	35481
18.35768	37301
18.36582	36401
18.37393	35071
18.38207	34855
18.39018	38248
18.39830	37518
18.40643	36707
18.41455	33514
18.42267	31926
18.43080	37797
18.43892	32219
18.44705	32539
18.45517	34231
18.46328	31487
18.47142	33978
18.47953	34326
18.48767	33530
18.49578	37730
18.50390	34712
18.51203	34545
18.52015	32510
18.52827	28688
18.53640	34186
18.54452	31059
18.55265	29617
18.56077	30696
18.56888	32128
18.57702	33304
18.58513	33760
18.59327	35764
18.60138	36761
18.60950	35890
18.61763	34262
18.62575	36658
18.63388	36534
18.64200	38118
18.65012	37673
18.65825	38973
18.66637	34912
18.67448	36716
18.68262	37900
18.69073	38458
18.69887	36129
18.70698	32125
18.71510	35394
18.72323	33477
18.73135	32616
18.73948	32755
18.74760	33324
18.75572	33624
18.76385	32184
18.77197	30827
18.78008	32054
18.78822	34537
18.79633	33221
18.80447	32742
18.81258	32331
18.82070	35807
18.82883	30417
18.83695	32217
18.84508	33475
18.85320	31645
18.86132	32930
18.86945	32128
18.87757	28924
18.88570	33715
18.89382	30202
18.90193	30529
18.91007	31890
18.91818	33004
18.92630	31985
18.93443	30450
18.94255	32586
18.95068	34219
18.95880	32029
18.96692	32262
18.97505	34281
18.98317	34520
18.99130	33892
18.99942	34588
19.00753	39519
19.01567	33350
19.02378	29428
19.03192	37440
19.04003	33620
19.04815	35650
19.05628	34646
19.06440	34448
19.07252	30826
19.08065	33818
19.08877	39206
19.09690	45386
19.10502	53489
19.11313	63925
19.12127	67281
19.12938	66030
19.13752	66674
19.14563	67068
19.15375	67353
19.16188	64916
19.17000	69654
19.17812	69773
19.18625	77206
19.19437	77997
19.20250	78830
19.21062	76926
19.21873	69012
19.22687	64237
19.23498	59104
19.24312	51945
19.25123	44643
19.25935	44944
19.26748	43681
19.27560	44606
19.28373	42901
19.29185	49897
19.29997	51028
19.30810	59200
19.31622	52239
19.32433	57408
19.33247	62803
19.34058	65749
19.34872	66467
19.35683	60749
19.36495	57561
19.37308	58517
19.38120	54298
19.38933	49218
19.39745	46340
19.40557	46724
19.41370	39631
19.42182	44707
19.42995	41656
19.43807	42948
19.44618	41643
19.45432	38117
19.46243	36028
19.47055	37834
19.47868	39150
19.48680	37862
19.49493	47875
19.50305	51818
19.51117	63429
19.51930	82818
19.52742	95057
19.53555	102550
19.54367	100034
19.55178	88268
19.55992	64320
19.56803	52787
19.57615	46906
19.58428	41147
19.59240	37588
19.60053	39010
19.60865	36693
19.61677	39213
19.62490	39714
19.63302	41580
19.64115	41392
19.64927	51815
19.65738	79977
19.66552	110990
19.67363	147830
19.68177	178276
19.68988	189107
19.69800	183721
19.70613	157183
19.71425	125300
19.72237	106337
19.73050	93871
19.73862	73771
19.74675	74589
19.75487	61071
19.76298	57564
19.77112	54217
19.77923	51961
19.78737	47226
19.79548	44949
19.80360	55119
19.81173	47225
19.81985	51809
19.82797	47655
19.83610	52516
19.84422	62485
19.85235	132169
19.86047	419644
19.86858	1310281
19.87672	3794000
19.88483	8841001
19.89297	1.706739E+07
19.90108	2.509113E+07
19.90920	3.173398E+07
19.91733	3.455672E+07
19.92545	3.206447E+07
19.93358	2.629096E+07
19.94170	1.845447E+07
19.94982	1.210134E+07
19.95795	8040745
19.96607	5922881
19.97418	4848530
19.98232	4173627
19.99043	3718169
19.99857	3407148
20.00668	3114349
20.01480	2823471
20.02293	2671788
20.03105	2458783
20.03918	2199215
20.04730	1988547
20.05542	1695936
20.06355	1395064
20.07167	1048903
20.07980	805819
20.08792	605091
20.09603	465068
20.10417	417085
20.11228	378228
20.12040	348621
20.12853	327474
20.13665	342209
20.14478	316176
20.15290	302932
20.16102	290388
20.16915	285817
20.17727	292970
20.18540	278372
20.19352	270414
20.20163	253517
20.20977	250613
20.21788	232627
20.22600	225920
20.23413	211545
20.24225	207459
20.25038	207032
20.25850	200148
20.26662	216679
20.27475	228784
20.28287	246694
20.29100	268803
20.29912	279549
20.30723	274249
20.31537	254102
20.32348	247385
20.33162	214765
20.33973	193599
20.34785	165086
20.35598	133758
20.36410	109605
20.37222	90252
20.38035	82134
20.38847	71668
20.39660	66752
20.40472	60636
20.41283	59785
20.42097	58034
20.42908	67834
20.43722	65720
20.44533	72686
20.45345	78612
20.46158	87957
20.46970	91853
20.47783	86282
20.48595	90007
20.49407	79556
20.50220	72311
20.51032	64405
20.51843	62140
20.52657	59705
20.53468	51490
20.54282	52227
20.55093	53506
20.55905	51250
20.56718	52860
20.57530	52867
20.58343	58456
20.59155	53399
20.59967	51337
20.60780	50672
20.61592	49247
20.62403	52434
20.63217	46850
20.64028	54923
20.64842	51945
20.65653	50214
20.66465	47458
20.67278	51441
20.68090	45096
20.68903	43289
20.69715	51461
20.70527	47953
20.71340	45458
20.72152	45538
20.72965	49894
20.73777	46090
20.74588	49186
20.75402	46997
20.76213	45666
20.77025	45930
20.77838	47633
20.78650	46176
20.79463	45198
20.80275	49804
20.81087	48656
20.81900	47650
20.82712	46742
20.83525	43495
20.84337	48023
20.85148	47046
20.85962	46885
20.86773	44711
20.87585	41583
20.88398	46903
20.89210	46412
20.90023	48112
20.90835	43644
20.91647	40564
20.92460	45621
20.93272	36687
20.94085	44520
20.94897	42379
20.95708	45260
20.96522	44977
20.97333	39527
20.98147	41027
20.98958	44221
20.99770	41577
21.00583	43536
21.01395	45609
21.02207	49398
21.03020	49424
21.03832	49345
21.04645	45456
21.05457	48420
21.06268	47501
21.07082	53103
21.07893	48221
21.08707	44114
21.09518	49228
21.10330	42526
21.11143	41315
21.11955	43116
21.12768	42073
21.13580	44088
21.14392	42884
21.15205	39232
21.16017	43587
21.16828	42933
21.17642	45882
21.18453	43946
21.19267	47397
21.20078	44739
21.20890	42600
21.21703	44260
21.22515	43230
21.23328	43230
21.24140	38426
21.24952	43834
21.25765	45209
21.26577	44880
21.27390	47956
21.28202	45026
21.29013	47083
21.29827	46360
21.30638	42942
21.31450	45235
21.32263	42252
21.33075	42202
21.33888	39917
21.34700	42479
21.35512	41772
21.36325	41503
21.37137	39580
21.37950	41787
21.38762	39375
21.39573	41625
21.40387	41119
21.41198	41126
21.42010	39513
21.42823	41728
21.43635	39306
21.44448	44742
21.45260	42719
21.46072	44054
21.46885	42303
21.47697	40108
21.48510	37479
21.49322	37818
21.50133	36869
21.50947	39963
21.51758	36289
21.52572	40370
21.53383	34686
21.54195	41596
21.55008	40612
21.55820	36531
21.56632	42279
21.57445	38245
21.58257	43117
21.59070	41956
21.59882	39014
21.60693	42348
21.61507	39491
21.62318	42427
21.63132	44701
21.63943	52095
21.64755	62530
21.65568	68045
21.66380	62621
21.67192	66133
21.68005	59160
21.68817	58623
21.69630	45261
21.70442	43178
21.71253	38437
21.72067	39446
21.72878	38913
21.73692	38853
21.74503	40651
21.75315	42796
21.76128	40815
21.76940	42030
21.77753	40174
21.78565	42302
21.79377	39014
21.80190	38983
21.81002	41678
21.81813	37669
21.82627	41098
21.83438	48848
21.84252	59349
21.85063	65639
21.85875	73161
21.86688	70560
21.87500	71207
21.88313	61220
21.89125	58294
21.89937	51694
21.90750	47375
21.91562	45441
21.92375	42547
21.93187	42489
21.93998	37538
21.94812	45086
21.95623	37645
21.96435	38643
21.97248	42088
21.98060	36471
21.98873	39908
21.99685	37079
22.00497	34731
22.01310	42935
22.02122	32228
22.02935	34163
22.03747	34684
22.04558	33810
22.05372	34221
22.06183	35902
22.06995	32360
22.07808	34719
22.08620	35049
22.09433	35122
22.10245	38219
22.11057	36935
22.11870	38609
22.12682	40038
22.13495	37996
22.14307	34589
22.15118	34325
22.15932	36286
22.16743	36596
22.17557	36632
22.18368	37978
22.19180	38958
22.19993	37685
22.20805	36390
22.21617	36019
22.22430	36465
22.23242	37892
22.24055	39585
22.24867	38834
22.25678	41376
22.26492	39967
22.27303	38527
22.28117	37368
22.28928	38331
22.29740	41656
22.30553	46725
22.31365	60818
22.32178	82836
22.32990	108860
22.33802	137212
22.34615	163721
22.35427	164583
22.36238	142514
22.37052	116093
22.37863	99688
22.38677	77812
22.39488	67321
22.40300	61185
22.41113	58770
22.41925	55656
22.42738	48594
22.43550	49111
22.44362	45720
22.45175	45498
22.45987	37441
22.46798	44760
22.47612	38304
22.48423	36331
22.49237	35638
22.50048	36970
22.50860	34758
22.51673	37291
22.52485	37736
22.53298	35114
22.54110	40091
22.54922	40264
22.55735	36338
22.56547	36588
22.57360	34628
22.58172	40676
22.58983	44156
22.59797	37072
22.60608	33007
22.61420	35649
22.62233	36589
22.63045	31685
22.63858	35947
22.64670	30688
22.65482	35228
22.66295	35273
22.67107	37549
22.67920	46843
22.68732	49428
22.69543	51218
22.70357	57245
22.71168	53687
22.71980	50693
22.72793	49298
22.73605	43838
22.74418	41903
22.75230	39492
22.76042	39363
22.76855	36768
22.77667	39059
22.78480	33668
22.79292	34796
22.80103	35744
22.80917	32195
22.81728	37700
22.82542	32057
22.83353	31987
22.84165	31286
22.84978	36054
22.85790	40032
22.86602	36605
22.87415	35629
22.88227	38683
22.89040	37545
22.89852	36657
22.90663	40339
22.91477	48172
22.92288	52162
22.93102	63974
22.93913	71918
22.94725	81069
22.95538	89092
22.96350	85918
22.97163	92483
22.97975	80734
22.98787	78933
22.99600	77072
23.00412	67918
23.01223	63144
23.02037	59970
23.02848	52178
23.03662	57444
23.04473	46274
23.05285	47291
23.06098	44466
23.06910	43499
23.07723	36659
23.08535	41727
23.09347	37354
23.10160	40975
23.10972	39795
23.11783	43509
23.12597	38202
23.13408	36526
23.14222	35225
23.15033	34500
23.15845	33982
23.16658	34703
23.17470	32801
23.18283	34955
23.19095	35519
23.19907	36262
23.20720	38060
23.21532	37790
23.22345	35580
23.23157	37239
23.23968	37989
23.24782	38570
23.25593	44373
23.26405	49108
23.27218	49465
23.28030	52604
23.28843	47352
23.29655	46743
23.30467	44875
23.31280	41495
23.32092	38185
23.32905	34259
23.33717	41083
23.34528	36316
23.35342	42129
23.36153	43175
23.36967	45240
23.37778	47836
23.38590	45915
23.39403	45200
23.40215	44192
23.41027	47979
23.41840	46478
23.42652	44956
23.43465	44009
23.44277	44997
23.45088	45557
23.45902	50312
23.46713	46623
23.47527	44322
23.48338	43714
23.49150	44525
23.49963	47027
23.50775	46512
23.51587	45408
23.52400	40716
23.53212	45275
23.54025	44236
23.54837	48254
23.55648	47509
23.56462	59114
23.57273	60907
23.58087	64998
23.58898	66120
23.59710	78095
23.60523	77542
23.61335	84405
23.62148	96261
23.62960	90652
23.63772	116924
23.64585	178657
23.65397	266309
23.66208	413262
23.67022	548164
23.67833	660770
23.68647	639786
23.69458	559161
23.70270	416139
23.71083	303793
23.71895	215286
23.72708	161357
23.73520	125384
23.74332	111821
23.75145	105544
23.75957	150008
23.76768	276252
23.77582	621361
23.78393	1347171
23.79207	2363048
23.80018	3251478
23.80830	3693336
23.81643	3523394
23.82455	2880546
23.83268	2141704
23.84080	1581530
23.84892	1106256
23.85705	812883
23.86517	649831
23.87330	517724
23.88142	423506
23.88953	368090
23.89767	333291
23.90578	301193
23.91390	261029
23.92203	247220
23.93015	224666
23.93828	208968
23.94640	189648
23.95452	182939
23.96265	168706
23.97077	163878
23.97890	156935
23.98702	148897
23.99513	141723
24.00327	132598
24.01138	137085
24.01952	131663
24.02763	134360
24.03575	143274
24.04388	151821
24.05200	159290
24.06012	162862
24.06825	159607
24.07637	148505
24.08450	134103
24.09262	128671
24.10073	120644
24.10887	111516
24.11698	106513
24.12512	98874
24.13323	97230
24.14135	94732
24.14948	98094
24.15760	92961
24.16572	101825
24.17385	92937
24.18197	94617
24.19010	87858
24.19822	78425
24.20633	77884
24.21447	80809
24.22258	84096
24.23072	81709
24.23883	83633
24.24695	84131
24.25508	87805
24.26320	78882
24.27133	71195
24.27945	74099
24.28757	73761
24.29570	65914
24.30382	65767
24.31193	66517
24.32007	66215
24.32818	60096
24.33632	64544
24.34443	62376
24.35255	62240
24.36068	63651
24.36880	60669
24.37693	59277
24.38505	60751
24.39317	65808
24.40130	71393
24.40942	81854
24.41755	93462
24.42567	94365
24.43378	92348
24.44192	81961
24.45003	70151
24.45815	67334
24.46628	64405
24.47440	67478
24.48253	71310
24.49065	77605
24.49877	83820
24.50690	81792
24.51502	77931
24.52315	76812
24.53127	88516
24.53938	92394
24.54752	99452
24.55563	108577
24.56375	122414
24.57188	125036
24.58000	114949
24.58813	108834
24.59625	98008
24.60437	92074
24.61250	87282
24.62062	80481
24.62875	75897
24.63687	65632
24.64498	71951
24.65312	65820
24.66123	64077
24.66937	67131
24.67748	59780
24.68560	61352
24.69373	62946
24.70185	61343
24.70997	56494
24.71810	52387
24.72622	55003
24.73435	48537
24.74247	55035
24.75058	49299
24.75872	51049
24.76683	53463
24.77497	53860
24.78308	48986
24.79120	45266
24.79933	45684
24.80745	47826
24.81558	49330
24.82370	46994
24.83182	48836
24.83995	45912
24.84807	46233
24.85618	49989
24.86432	50003
24.87243	57779
24.88057	58384
24.88868	60865
24.89680	57910
24.90493	57793
24.91305	57202
24.92118	51792
24.92930	49091
24.93742	48853
24.94555	49716
24.95367	45543
24.96178	44831
24.96992	42252
24.97803	43464
24.98617	43203
24.99428	43800
25.00240	43367
25.01053	37676
25.01865	38579
25.02678	42382
25.03490	40995
25.04302	41529
25.05115	40618
25.05927	40268
25.06740	45291
25.07552	43554
25.08363	42941
25.09177	41079
25.09988	46479
25.10800	40306
25.11613	42932
25.12425	44921
25.13238	40972
25.14050	48132
25.14862	51783
25.15675	56873
25.16487	63230
25.17300	64415
25.18112	62892
25.18923	61772
25.19737	56316
25.20548	54062
25.21360	52088
25.22173	51335
25.22985	47841
25.23798	45834
25.24610	47075
25.25422	43230
25.26235	45849
25.27047	44940
25.27860	46981
25.28672	44253
25.29483	44249
25.30297	46429
25.31108	52263
25.31922	54431
25.32733	55125
25.33545	53946
25.34358	61908
25.35170	48904
25.35982	49713
25.36795	45509
25.37607	46839
25.38420	47318
25.39232	47476
25.40043	39626
25.40857	43374
25.41668	41957
25.42482	42877
25.43293	39282
25.44105	40534
25.44918	40759
25.45730	34920
25.46543	39078
25.47355	42224
25.48167	40074
25.48980	42313
25.49792	43901
25.50603	45417
25.51417	44399
25.52228	43079
25.53042	41285
25.53853	40684
25.54665	40921
25.55478	38202
25.56290	35974
25.57103	39645
25.57915	37717
25.58727	37512
25.59540	39468
25.60352	37856
25.61163	36107
25.61977	39159
25.62788	38862
25.63602	36561
25.64413	42065
25.65225	45472
25.66038	40934
25.66850	47566
25.67663	49003
25.68475	45277
25.69287	41607
25.70100	42151
25.70912	38928
25.71725	41491
25.72537	39711
25.73348	42024
25.74162	47294
25.74973	44641
25.75785	48633
25.76598	52634
25.77410	52110
25.78223	51442
25.79035	40461
25.79847	38781
25.80660	40891
25.81472	41694
25.82285	48177
25.83097	49775
25.83908	52148
25.84722	53017
25.85533	47257
25.86347	46942
25.87158	49888
25.87970	45638
25.88783	38335
25.89595	36843
25.90407	35460
25.91220	36799
25.92032	39011
25.92845	39022
25.93657	43677
25.94468	38341
25.95282	38142
25.96093	37801
25.96907	34654
25.97718	35555
25.98530	35368
25.99343	31267
26.00155	31669
26.00967	34238
26.01780	32836
26.02592	35268
26.03405	35183
26.04217	36708
26.05028	34250
26.05842	38381
26.06653	33970
26.07467	35319
26.08278	34507
26.09090	35064
26.09903	43289
26.10715	36722
26.11528	35515
26.12340	41806
26.13152	44213
26.13965	45038
26.14777	47527
26.15588	48131
26.16402	50033
26.17213	48332
26.18027	54166
26.18838	53665
26.19650	47016
26.20463	44352
26.21275	41372
26.22088	42526
26.22900	44347
26.23712	36965
26.24525	34848
26.25337	35181
26.26148	34654
26.26962	33935
26.27773	36650
26.28587	36555
26.29398	40537
26.30210	39093
26.31023	36319
26.31835	37112
26.32648	41172
26.33460	37822
26.34272	35556
26.35085	39692
26.35897	36180
26.36710	32573
26.37522	32081
26.38333	40453
26.39147	34074
26.39958	33963
26.40770	34715
26.41583	37789
26.42395	35433
26.43208	35966
26.44020	40087
26.44832	36897
26.45645	35009
26.46457	34686
26.47270	32843
26.48082	33005
26.48893	35436
26.49707	31640
26.50518	33900
26.51332	32695
26.52143	32199
26.52955	33146
26.53768	31824
26.54580	34839
26.55392	32599
26.56205	32851
26.57017	30351
26.57830	29553
26.58642	31336
26.59453	36787
26.60267	36942
26.61078	33364
26.61892	30588
26.62703	30281
26.63515	33903
26.64328	34941
26.65140	31522
26.65953	32762
26.66765	37941
26.67577	43090
26.68390	45753
26.69202	42917
26.70013	39258
26.70827	41636
26.71638	42715
26.72452	38383
26.73263	37664
26.74075	38083
26.74888	39986
26.75700	38806
26.76513	39131
26.77325	39988
26.78137	35724
26.78950	39809
26.79762	37510
26.80573	37217
26.81387	37065
26.82198	41129
26.83012	43578
26.83823	36861
26.84635	36431
26.85448	41067
26.86260	36302
26.87073	44201
26.87885	38567
26.88697	43256
26.89510	39319
26.90322	42969
26.91135	36327
26.91947	36309
26.92758	38060
26.93572	36995
26.94383	45180
26.95195	41499
26.96008	36221
26.96820	41865
26.97633	49499
26.98445	65877
26.99257	96332
27.00070	156299
27.00882	246444
27.01695	388109
27.02507	545594
27.03318	662167
27.04132	704975
27.04943	682527
27.05755	623763
27.06568	513690
27.07380	406388
27.08193	317460
27.09005	241841
27.09817	203613
27.10630	171475
27.11442	147602
27.12255	138549
27.13067	134196
27.13878	120503
27.14692	115538
27.15503	104524
27.16317	103729
27.17128	103918
27.17940	98758
27.18753	94528
27.19565	84897
27.20377	84427
27.21190	79961
27.22002	77192
27.22815	75369
27.23627	73124
27.24438	72157
27.25252	72102
27.26063	68876
27.26877	66101
27.27688	64533
27.28500	57727
27.29313	62354
27.30125	61279
27.30938	62647
27.31750	66307
27.32562	58771
27.33375	56939
27.34187	65496
27.34998	58343
27.35812	57282
27.36623	55997
27.37437	53612
27.38248	56584
27.39060	54060
27.39873	53730
27.40685	46880
27.41498	45048
27.42310	53692
27.43122	48496
27.43935	51040
27.44747	49678
27.45558	48519
27.46372	47383
27.47183	52112
27.47997	48717
27.48808	48968
27.49620	48161
27.50433	45302
27.51245	45813
27.52058	47432
27.52870	47665
27.53682	49197
27.54495	46641
27.55307	50244
27.56120	49799
27.56932	47477
27.57743	45338
27.58557	44154
27.59368	50303
27.60180	46254
27.60993	48747
27.61805	52530
27.62618	49997
27.63430	48984
27.64242	46440
27.65055	53948
27.65867	48064
27.66680	42714
27.67492	44269
27.68303	40829
27.69117	44080
27.69928	44132
27.70742	42756
27.71553	43100
27.72365	38492
27.73178	41374
27.73990	37255
27.74802	40699
27.75615	37551
27.76427	41196
27.77240	41718
27.78052	38219
27.78863	36142
27.79677	38737
27.80488	39891
27.81302	40884
27.82113	40500
27.82925	42711
27.83738	42515
27.84550	41151
27.85362	44170
27.86175	43324
27.86987	44219
27.87800	45385
27.88612	44504
27.89423	45427
27.90237	42492
27.91048	36248
27.91862	40131
27.92673	39841
27.93485	41834
27.94298	40114
27.95110	36971
27.95923	39055
27.96735	35557
27.97547	41792
27.98360	43298
27.99172	42270
27.99983	39244
28.00797	38896
28.01608	39548
28.02422	36973
28.03233	38260
28.04045	38593
28.04858	39447
28.05670	36626
28.06483	37554
28.07295	37793
28.08107	40112
28.08920	39212
28.09732	44021
28.10543	41078
28.11357	45061
28.12168	47322
28.12982	41414
28.13793	41220
28.14605	41417
28.15418	38084
28.16230	39837
28.17043	38108
28.17855	39680
28.18667	36257
28.19480	35124
28.20292	36281
28.21105	39093
28.21917	42482
28.22728	45572
28.23542	41506
28.24353	41241
28.25165	43422
28.25978	42877
28.26790	37049
28.27603	38714
28.28415	40341
28.29227	38632
28.30040	40824
28.30852	46927
28.31665	49032
28.32477	49016
28.33288	56797
28.34102	62489
28.34913	77059
28.35727	92785
28.36538	115057
28.37350	132050
28.38163	148498
28.38975	148874
28.39787	159521
28.40600	154570
28.41412	153764
28.42225	144766
28.43037	127594
28.43848	122490
28.44662	110269
28.45473	103471
28.46287	98066
28.47098	95220
28.47910	90975
28.48723	77918
28.49535	81102
28.50347	74821
28.51160	66302
28.51972	70110
28.52785	60559
28.53597	65127
28.54408	57995
28.55222	57481
28.56033	54785
28.56847	57598
28.57658	62910
28.58470	55567
28.59283	50448
28.60095	52115
28.60908	52751
28.61720	51451
28.62532	52837
28.63345	52064
28.64157	54463
28.64968	51434
28.65782	57866
28.66593	57610
28.67407	60491
28.68218	56104
28.69030	62492
28.69843	56181
28.70655	53482
28.71468	49893
28.72280	52330
28.73092	47512
28.73905	48392
28.74717	43615
28.75530	47375
28.76342	49285
28.77153	46058
28.77967	53961
28.78778	55185
28.79590	54283
28.80403	58077
28.81215	57723
28.82028	48447
28.82840	46807
28.83652	44364
28.84465	44465
28.85277	42554
28.86090	46374
28.86902	42001
28.87713	43134
28.88527	42302
28.89338	44138
28.90150	45820
28.90963	42616
28.91775	41757
28.92588	41154
28.93400	43012
28.94212	43853
28.95025	43738
28.95837	49793
28.96650	54574
28.97462	53114
28.98273	55345
28.99087	52628
28.99898	47588
29.00712	45325
29.01523	43992
29.02335	43963
29.03148	42177
29.03960	40918
29.04772	43429
29.05585	41246
29.06397	40983
29.07210	40173
29.08022	40906
29.08833	42628
29.09647	42749
29.10458	43369
29.11272	40582
29.12083	41888
29.12895	41601
29.13708	39471
29.14520	40353
29.15332	40845
29.16145	41207
29.16957	42225
29.17770	42773
29.18582	42867
29.19393	40513
29.20207	42303
29.21018	44187
29.21832	44249
29.22643	45533
29.23455	48838
29.24268	45376
29.25080	46873
29.25893	43927
29.26705	48352
29.27517	49536
29.28330	48869
29.29142	46730
29.29953	45861
29.30767	42133
29.31578	41727
29.32392	40232
29.33203	37568
29.34015	37914
29.34828	37351
29.35640	39350
29.36453	38656
29.37265	36537
29.38077	40120
29.38890	38093
29.39702	38515
29.40515	40207
29.41327	37805
29.42138	40339
29.42952	41710
29.43763	41267
29.44575	39010
29.45388	40512
29.46200	35499
29.47013	35685
29.47825	38629
29.48637	42489
29.49450	41461
29.50262	45265
29.51075	47164
29.51887	46837
29.52698	45500
29.53512	46311
29.54323	44069
29.55135	41197
29.55948	42144
29.56760	42127
29.57573	41190
29.58385	37769
29.59197	36700
29.60010	38578
29.60822	39589
29.61635	37960
29.62447	40074
29.63258	39737
29.64072	35847
29.64883	40150
29.65697	37785
29.66508	37330
29.67320	33875
29.68133	37236
29.68945	37005
29.69757	36990
29.70570	40162
29.71382	37306
29.72195	35642
29.73007	37294
29.73818	39208
29.74632	42201
29.75443	39541
29.76257	41577
29.77068	43046
29.77880	39288
29.78693	35942
29.79505	35824
29.80318	35939
29.81130	39683
29.81942	36331
29.82755	36116
29.83567	31550
29.84378	34056
29.85192	32696
29.86003	37488
29.86817	38653
29.87628	45063
29.88440	54180
29.89253	68039
29.90065	87005
29.90878	102732
29.91690	104856
29.92502	103792
29.93315	83079
29.94127	71505
29.94938	62894
29.95752	51067
29.96563	52555
29.97377	56433
29.98188	59515
29.99000	64016
29.99813	71030
30.00625	78035
30.01438	85291
30.02250	89798
30.03062	96561
30.03875	95620
30.04687	102758
30.05500	94518
30.06312	93110
30.07123	95182
30.07937	93240
30.08748	93724
30.09560	86957
30.10373	85026
30.11185	83418
30.11998	81098
30.12810	75248
30.13622	73443
30.14435	74941
30.15247	74983
30.16060	66420
30.16872	66295
30.17683	63244
30.18497	61100
30.19308	54811
30.20122	51176
30.20933	57910
30.21745	56526
30.22558	54115
30.23370	54756
30.24182	53657
30.24995	49681
30.25807	54020
30.26620	47292
30.27432	53070
30.28243	46648
30.29057	47800
30.29868	45661
30.30682	51282
30.31493	46232
30.32305	46840
30.33118	45906
30.33930	41738
30.34742	42345
30.35555	40680
30.36367	43155
30.37180	43894
30.37992	46185
30.38803	41974
30.39617	38930
30.40428	43650
30.41242	39390
30.42053	42714
30.42865	40559
30.43678	40011
30.44490	40241
30.45303	40193
30.46115	40453
30.46927	41618
30.47740	40463
30.48552	41285
30.49363	37874
30.50177	39299
30.50988	37857
30.51802	41718
30.52613	39183
30.53425	34989
30.54238	39726
30.55050	41056
30.55863	42763
30.56675	42775
30.57487	38595
30.58300	37562
30.59112	37293
30.59923	40019
30.60737	38142
30.61548	38254
30.62362	38680
30.63173	35194
30.63985	37969
30.64798	36284
30.65610	36366
30.66423	37421
30.67235	35796
30.68047	40792
30.68860	37790
30.69672	37238
30.70485	44999
30.71297	37415
30.72108	38168
30.72922	36885
30.73733	38735
30.74545	39218
30.75358	35758
30.76170	35682
30.76983	38895
30.77795	35881
30.78607	37909
30.79420	34698
30.80232	45364
30.81045	46237
30.81857	43224
30.82668	46227
30.83482	46896
30.84293	44326
30.85107	41345
30.85918	42879
30.86730	39872
30.87543	42404
30.88355	36899
30.89167	36868
30.89980	37006
30.90792	34627
30.91605	38204
30.92417	39150
30.93228	39392
30.94042	37886
30.94853	38878
30.95667	37967
30.96478	34380
30.97290	38737
30.98103	36394
30.98915	36151
30.99727	35197
31.00540	35570
31.01352	39407
31.02165	46672
31.02977	65142
31.03788	66929
31.04602	63580
31.05413	71589
31.06227	68130
31.07038	63961
31.07850	58327
31.08663	65470
31.09475	83956
31.10288	118786
31.11100	149551
31.11912	180088
31.12725	175308
31.13537	148323
31.14348	124120
31.15162	89506
31.15973	65576
31.16787	56019
31.17598	51644
31.18410	46238
31.19223	46039
31.20035	55445
31.20848	67861
31.21660	76926
31.22472	90203
31.23285	89514
31.24097	84021
31.24910	79965
31.25722	70692
31.26533	63298
31.27347	58447
31.28158	48105
31.28970	41481
31.29783	38645
31.30595	38495
31.31408	40361
31.32220	37114
31.33032	38046
31.33845	40784
31.34657	35353
31.35470	39696
31.36282	43276
31.37093	44734
31.37907	49482
31.38718	53817
31.39530	55509
31.40343	53153
31.41155	54289
31.41968	54190
31.42780	49509
31.43592	45488
31.44405	49444
31.45217	42160
31.46030	38699
31.46842	37458
31.47653	39105
31.48467	41001
31.49278	40775
31.50092	37371
31.50903	36962
31.51715	39772
31.52528	42978
31.53340	42474
31.54152	42928
31.54965	39186
31.55777	34570
31.56590	45804
31.57402	37392
31.58213	41541
31.59027	39028
31.59838	38697
31.60652	38764
31.61463	38672
31.62275	36091
31.63088	38419
31.63900	39454
31.64712	39113
31.65525	38712
31.66337	37845
31.67150	41150
31.67962	46374
31.68773	41895
31.69587	38520
31.70398	43223
31.71212	40023
31.72023	34797
31.72835	39628
31.73648	43038
31.74460	37696
31.75273	42518
31.76085	37058
31.76897	40444
31.77710	40526
31.78522	39344
31.79333	43890
31.80147	43192
31.80958	42010
31.81772	43715
31.82583	46047
31.83395	50843
31.84208	44522
31.85020	50467
31.85833	47037
31.86645	44129
31.87457	47209
31.88270	46407
31.89082	47589
31.89895	47537
31.90707	48383
31.91518	48816
31.92332	53903
31.93143	55219
31.93955	62839
31.94768	61984
31.95580	65251
31.96393	72048
31.97205	74240
31.98017	71139
31.98830	71762
31.99642	74541
32.00455	75891
32.01267	73128
32.02078	72481
32.02892	68789
32.03703	65961
32.04515	64416
32.05328	60654
32.06140	59409
32.06953	59847
32.07765	57411
32.08577	53751
32.09390	60909
32.10202	60802
32.11015	51497
32.11827	53009
32.12638	53043
32.13452	48860
32.14263	47202
32.15077	52132
32.15888	47556
32.16700	42931
32.17513	49220
32.18325	45075
32.19137	41721
32.19950	47338
32.20762	43728
32.21575	42041
32.22387	40419
32.23198	41780
32.24012	42326
32.24823	42947
32.25637	44886
32.26448	40363
32.27260	44499
32.28073	43029
32.28885	45932
32.29698	47422
32.30510	44556
32.31322	41604
32.32135	41998
32.32947	43610
32.33758	43226
32.34572	44895
32.35383	45646
32.36197	42401
32.37008	42634
32.37820	47510
32.38633	44649
32.39445	44245
32.40258	42340
32.41070	37564
32.41882	40895
32.42695	43634
32.43507	43242
32.44318	38971
32.45132	39163
32.45943	37990
32.46757	36280
32.47568	37807
32.48380	37311
32.49193	38949
32.50005	36249
32.50818	39582
32.51630	40110
32.52442	40080
32.53255	36327
32.54067	38009
32.54880	38825
32.55692	39042
32.56503	42240
32.57317	42563
32.58128	40675
32.58940	37319
32.59753	41975
32.60565	38628
32.61378	37990
32.62190	37530
32.63002	39489
32.63815	40111
32.64627	38031
32.65440	39294
32.66252	37785
32.67063	40743
32.67877	46592
32.68688	47595
32.69500	53220
32.70313	50388
32.71125	50257
32.71938	47356
32.72750	44349
32.73562	41678
32.74375	40057
32.75187	38656
32.76000	40178
32.76812	39635
32.77623	38004
32.78437	37210
32.79248	34296
32.80062	36861
32.80873	37661
32.81685	39002
32.82498	38403
32.83310	37655
32.84122	34966
32.84935	38358
32.85747	35079
32.86560	35789
32.87372	37864
32.88183	37786
32.88997	37664
32.89808	37430
32.90622	41136
32.91433	35075
32.92245	36920
32.93058	37086
32.93870	35122
32.94683	36253
32.95495	35254
32.96307	37912
32.97120	37637
32.97932	37827
32.98743	32864
32.99557	34984
33.00368	39378
33.01182	37775
33.01993	34625
33.02805	38411
33.03618	42481
33.04430	40067
33.05243	40316
33.06055	37257
33.06867	38485
33.07680	39596
33.08492	40425
33.09305	42956
33.10117	45428
33.10928	51698
33.11742	60607
33.12553	71062
33.13365	68686
33.14178	63956
33.14990	60745
33.15803	48921
33.16615	43437
33.17427	44118
33.18240	40423
33.19052	39759
33.19865	37678
33.20677	38379
33.21488	38248
33.22302	41557
33.23113	42877
33.23925	35638
33.24738	43558
33.25550	40371
33.26363	41953
33.27175	42683
33.27987	43151
33.28800	43550
33.29612	40285
33.30425	36553
33.31237	38143
33.32048	41701
33.32862	37985
33.33673	38741
33.34487	40610
33.35298	41541
33.36110	36301
33.36923	38547
33.37735	45340
33.38547	35404
33.39360	37240
33.40172	37622
33.40985	35951
33.41797	36622
33.42608	35755
33.43422	36418
33.44233	38696
33.45047	35348
33.45858	38237
33.46670	38112
33.47483	39180
33.48295	44521
33.49107	38226
33.49920	39122
33.50732	36327
33.51545	35907
33.52357	38045
33.53168	39526
33.53982	37089
33.54793	38352
33.55607	39107
33.56418	40447
33.57230	38945
33.58043	37934
33.58855	41651
33.59668	42348
33.60480	37068
33.61292	38482
33.62105	38252
33.62917	41325
33.63728	39264
33.64542	40305
33.65353	38261
33.66167	43252
33.66978	41220
33.67790	41875
33.68603	43399
33.69415	37905
33.70228	39657
33.71040	42439
33.71852	36336
33.72665	35390
33.73477	34773
33.74290	38710
33.75102	36717
33.75913	40037
33.76727	34100
33.77538	39004
33.78350	37845
33.79163	33777
33.79975	40652
33.80788	35045
33.81600	35454
33.82412	38293
33.83225	36821
33.84037	38667
33.84850	38318
33.85662	39417
33.86473	40165
33.87287	44377
33.88098	44985
33.88910	42385
33.89723	42049
33.90535	42872
33.91348	41802
33.92160	43358
33.92972	41252
33.93785	44483
33.94597	42318
33.95410	39162
33.96222	41346
33.97033	42441
33.97847	41734
33.98658	38549
33.99472	42720
34.00283	41499
34.01095	37554
34.01908	35875
34.02720	39036
34.03532	40318
34.04345	37371
34.05157	42528
34.05970	39578
34.06782	40712
34.07593	41242
34.08407	39885
34.09218	39156
34.10032	42184
34.10843	38645
34.11655	39986
34.12468	40215
34.13280	38565
34.14093	37948
34.14905	36760
34.15717	43405
34.16530	38836
34.17342	38410
34.18153	36191
34.18967	37033
34.19778	39228
34.20592	38590
34.21403	35782
34.22215	37132
34.23028	40327
34.23840	38821
34.24653	38307
34.25465	39703
34.26277	38035
34.27090	38234
34.27902	38077
34.28713	37012
34.29527	40429
34.30338	42819
34.31152	43643
34.31963	43237
34.32775	38172
34.33588	38622
34.34400	42134
34.35213	36417
34.36025	40125
34.36837	42068
34.37650	38990
34.38462	39234
34.39275	41040
34.40087	37893
34.40898	38636
34.41712	44390
34.42523	40155
34.43335	39760
34.44148	40098
34.44960	38347
34.45773	45404
34.46585	37149
34.47397	39279
34.48210	39896
34.49022	39582
34.49835	43570
34.50647	40499
34.51458	42840
34.52272	46904
34.53083	47816
34.53895	55021
34.54708	55214
34.55520	63062
34.56333	68806
34.57145	66197
34.57957	70422
34.58770	67040
34.59582	63248
34.60395	65056
34.61207	63883
34.62018	54666
34.62832	55275
34.63643	52458
34.64457	52617
34.65268	51321
34.66080	48650
34.66893	49908
34.67705	46350
34.68517	46106
34.69330	43668
34.70142	44354
34.70955	47781
34.71767	47042
34.72578	46692
34.73392	41508
34.74203	44368
34.75017	43485
34.75828	41221
34.76640	44326
34.77453	42630
34.78265	38140
34.79078	41765
34.79890	44735
34.80702	41324
34.81515	39887
34.82327	42871
34.83138	45145
34.83952	46335
34.84763	44389
34.85577	44817
34.86388	43487
34.87200	44634
34.88013	42779
34.88825	41869
34.89638	45787
34.90450	42435
34.91262	41834
34.92075	45283
34.92887	44611
34.93698	48880
34.94512	56263
34.95323	73034
34.96137	103136
34.96948	147419
34.97760	218620
34.98573	272185
34.99385	293349
35.00198	286659
35.01010	206671
35.01822	146857
35.02635	94853
35.03447	76087
35.04260	60630
35.05072	56107
35.05883	56503
35.06697	55460
35.07508	54332
35.08320	55124
35.09133	54906
35.09945	46988
35.10758	57007
35.11570	49138
35.12382	49757
35.13195	48489
35.14007	52255
35.14820	52746
35.15632	45226
35.16443	50727
35.17257	55125
35.18068	50466
35.18882	56862
35.19693	52592
35.20505	49006
35.21318	50493
35.22130	51758
35.22942	44128
35.23755	43707
35.24567	45131
35.25380	55072
35.26192	54764
35.27003	50268
35.27817	50709
35.28628	52508
35.29442	55549
35.30253	47590
35.31065	47028
35.31878	43701
35.32690	45373
35.33502	44031
35.34315	46773
35.35127	44494
35.35940	43817
35.36752	44570
35.37563	44137
35.38377	42208
35.39188	42963
35.40002	45141
35.40813	45690
35.41625	41589
35.42438	51658
35.43250	46411
35.44063	44170
35.44875	49807
35.45687	47867
35.46500	51328
35.47312	53007
35.48123	53123
35.48937	54565
35.49748	52332
35.50562	47795
35.51373	50171
35.52185	50652
35.52998	50064
35.53810	49807
35.54623	48209
35.55435	47830
35.56247	51197
35.57060	46666
35.57872	47045
35.58685	50615
35.59497	54185
35.60308	54705
35.61122	55931
35.61933	53471
35.62745	50650
35.63558	47568
35.64370	49520
35.65183	52297
35.65995	49653
35.66807	46327
35.67620	46260
35.68432	48120
35.69245	50887
35.70057	49025
35.70868	46569
35.71682	46995
35.72493	48448
35.73305	51357
35.74118	48256
35.74930	46994
35.75743	52187
35.76555	47312
35.77367	47914
35.78180	48302
35.78992	50507
35.79805	47096
35.80617	46939
35.81428	45728
35.82242	49064
35.83053	44116
35.83867	48460
35.84678	45770
35.85490	45989
35.86303	53157
35.87115	46298
35.87927	47761
35.88740	43969
35.89552	50265
35.90365	42119
35.91177	44187
35.91988	45975
35.92802	48721
35.93613	47982
35.94427	46778
35.95238	46564
35.96050	47027
35.96863	46334
35.97675	44006
35.98487	47538
35.99300	47793
36.00112	45966
36.00925	47264
36.01737	45910
36.02548	47918
36.03362	52598
36.04173	52510
36.04987	54066
36.05798	53015
36.06610	53655
36.07423	46702
36.08235	46056
36.09048	47902
36.09860	46769
36.10672	44500
36.11485	49265
36.12297	47063
36.13108	44854
36.13922	48313
36.14733	48040
36.15547	44474
36.16358	47639
36.17170	51787
36.17983	51195
36.18795	48300
36.19608	47931
36.20420	51888
36.21232	45735
36.22045	45571
36.22857	46606
36.23670	47894
36.24482	46949
36.25293	49832
36.26107	46570
36.26918	46640
36.27730	50689
36.28543	46975
36.29355	48580
36.30168	44898
36.30980	48331
36.31792	47946
36.32605	51071
36.33417	56645
36.34230	53618
36.35042	57689
36.35853	55736
36.36667	51510
36.37478	48431
36.38290	45111
36.39103	46929
36.39915	48070
36.40728	41849
36.41540	51148
36.42352	50016
36.43165	48660
36.43977	55528
36.44790	50926
36.45602	46685
36.46413	50741
36.47227	47248
36.48038	43372
36.48852	48380
36.49663	47177
36.50475	40640
36.51288	46424
36.52100	46404
36.52912	48338
36.53725	47358
36.54537	47670
36.55350	49762
36.56162	45041
36.56973	45444
36.57787	45284
36.58598	48989
36.59412	45312
36.60223	47470
36.61035	45956
36.61848	47016
36.62660	44716
36.63473	44645
36.64285	48419
36.65097	47458
36.65910	48338
36.66722	46785
36.67533	43479
36.68347	46973
36.69158	50517
36.69972	50206
36.70783	50194
36.71595	50629
36.72408	49448
36.73220	48567
36.74033	53940
36.74845	45999
36.75657	46633
36.76470	46916
36.77282	47331
36.78093	50054
36.78907	48949
36.79718	47767
36.80532	49750
36.81343	46638
36.82155	45344
36.82968	47878
36.83780	46961
36.84593	48285
36.85405	42107
36.86217	47764
36.87030	44456
36.87842	47468
36.88655	58245
36.89467	44933
36.90278	49673
36.91092	49262
36.91903	47738
36.92715	49508
36.93528	55877
36.94340	45542
36.95153	51198
36.95965	50679
36.96777	50764
36.97590	47822
36.98402	51035
36.99215	50176
37.00027	50159
37.00838	50999
37.01652	50882
37.02463	51686
37.03275	50053
37.04088	47303
37.04900	48898
37.05713	48913
37.06525	53905
37.07337	49759
37.08150	50576
37.08962	51647
37.09775	51954
37.10587	48489
37.11398	50373
37.12212	48177
37.13023	50938
37.13837	48424
37.14648	49211
37.15460	51688
37.16273	54185
37.17085	51317
37.17897	54256
37.18710	57846
37.19522	51343
37.20335	50863
37.21147	54882
37.21958	52937
37.22772	54029
37.23583	52820
37.24397	55646
37.25208	53023
37.26020	52618
37.26833	53345
37.27645	52451
37.28458	53968
37.29270	49202
37.30082	51783
37.30895	46489
37.31707	53065
37.32518	54869
37.33332	55098
37.34143	55784
37.34957	60356
37.35768	60254
37.36580	60718
37.37393	63915
37.38205	66118
37.39018	62939
37.39830	60792
37.40642	61653
37.41455	59590
37.42267	64273
37.43080	59492
37.43892	57865
37.44703	55177
37.45517	56536
37.46328	55450
37.47140	58492
37.47953	57306
37.48765	50130
