C:\MassHunter\GCMS\1\data\JTB-E02\BACandBLUE\JTB-E18-014-10.D Tue Jun 25 14:30:00 2019
Start of data points
2.09522,68200
2.10333,70576
2.11147,71767
2.11958,70169
2.12770,67844
2.13583,70371
2.14395,71125
2.15208,67824
2.16020,60979
2.16832,69766
2.17645,67240
2.18457,65683
2.19270,63270
2.20082,62927
2.20893,62614
2.21707,61260
2.22518,59716
2.23330,60614
2.24143,58536
2.24955,60386
2.25768,59325
2.26580,61737
2.27392,115791
2.28205,862428
2.29017,1657232
2.29830,801589
2.30642,361499
2.31453,281315
2.32267,236284
2.33078,213925
2.33892,262126
2.34703,392183
2.35515,243791
2.36328,183426
2.37140,169704
2.37952,155048
2.38765,144833
2.39577,150829
2.40390,132547
2.41202,136259
2.42013,126100
2.42827,130620
2.43638,131531
2.44452,122617
2.45263,123942
2.46075,121685
2.46888,117566
2.47700,114860
2.48512,113824
2.49325,122184
2.50137,174329
2.50950,160955
2.51762,129290
2.52573,122674
2.53387,127806
2.54198,112284
2.55012,117866
2.55823,137756
2.56635,236832
2.57448,269673
2.58260,185754
2.59073,146493
2.59885,142421
2.60697,133951
2.61510,211399
2.62322,319334
2.63133,277743
2.63947,203525
2.64758,170668
2.65572,148967
2.66383,140637
2.67195,137454
2.68008,130622
2.68820,123495
2.69633,119830
2.70445,122420
2.71257,118695
2.72070,120640
2.72882,121881
2.73693,113416
2.74507,113290
2.75318,108570
2.76132,112024
2.76943,115911
2.77755,111181
2.78568,145281
2.79380,263291
2.80193,270709
2.81005,189076
2.81817,171359
2.82630,196971
2.83442,216299
2.84255,248135
2.85067,223715
2.85878,160479
2.86692,142079
2.87503,139189
2.88315,129676
2.89128,125636
2.89940,121164
2.90753,118032
2.91565,113757
2.92377,107778
2.93190,116236
2.94002,105974
2.94815,116105
2.95627,110871
2.96438,108282
2.97252,103558
2.98063,107007
2.98877,108876
2.99688,115819
3.00500,131203
3.01313,138022
3.02125,123549
3.02937,124198
3.03750,110263
3.04562,112749
3.05375,109397
3.06187,112974
3.06998,135543
3.07812,135868
3.08623,126607
3.09437,184837
3.10248,482663
3.11060,1886390
3.11873,3889572
3.12685,3350212
3.13497,1979799
3.14310,1338509
3.15122,1053356
3.15935,861100
3.16747,724061
3.17558,676635
3.18372,713043
3.19183,950010
3.19997,1845313
3.20808,2163598
3.21620,1502563
3.22433,1033490
3.23245,855982
3.24058,724968
3.24870,619977
3.25682,566025
3.26495,501912
3.27307,449881
3.28118,418356
3.28932,460021
3.29743,1030074
3.30557,3213870
3.31368,6682920
3.32180,8145253
3.32993,6463585
3.33805,4231065
3.34618,2845214
3.35430,2148308
3.36242,1729396
3.37055,1432478
3.37867,1242369
3.38680,1057462
3.39492,945646
3.40303,864962
3.41117,798543
3.41928,729769
3.42740,687093
3.43553,627703
3.44365,619637
3.45178,591914
3.45990,561003
3.46802,543274
3.47615,551909
3.48427,563929
3.49240,537843
3.50052,514391
3.50863,479332
3.51677,458839
3.52488,440373
3.53300,444804
3.54113,457053
3.54925,445407
3.55738,450400
3.56550,417201
3.57362,385976
3.58175,377839
3.58987,377455
3.59800,366421
3.60612,373515
3.61423,364251
3.62237,347077
3.63048,385374
3.63862,440297
3.64673,490781
3.65485,479318
3.66298,471808
3.67110,1234457
3.67922,4676586
3.68735,9387188
3.69547,9249359
3.70360,5593062
3.71172,3245343
3.71983,2393131
3.72797,1966666
3.73608,1680571
3.74422,1468287
3.75233,1327936
3.76045,1238002
3.76858,1110637
3.77670,1042724
3.78482,976962
3.79295,926381
3.80107,899472
3.80920,1116197
3.81732,1868881
3.82543,2622293
3.83357,2336964
3.84168,1636153
3.84982,1248634
3.85793,1079140
3.86605,970052
3.87418,897073
3.88230,822982
3.89043,773985
3.89855,748210
3.90667,717139
3.91480,689183
3.92292,756275
3.93103,957306
3.93917,1109864
3.94728,1040088
3.95542,866500
3.96353,871459
3.97165,1001767
3.97978,1008230
3.98790,836118
3.99603,699845
4.00415,771206
4.01227,1227931
4.02040,1880295
4.02852,1936325
4.03665,1442743
4.04477,959575
4.05288,735332
4.06102,634105
4.06913,580094
4.07725,545496
4.08538,515574
4.09350,485221
4.10163,485576
4.10975,471101
4.11787,442334
4.12600,439651
4.13412,436334
4.14225,595681
4.15037,1114407
4.15848,1778161
4.16662,1878925
4.17473,1442898
4.18285,1080153
4.19098,855103
4.19910,713693
4.20723,691608
4.21535,1237643
4.22347,4050337
4.23160,1.037509E+07
4.23972,1.629314E+07
4.24785,1.757857E+07
4.25597,1.335413E+07
4.26408,8021092
4.27222,5253608
4.28033,3840667
4.28847,2959000
4.29658,2371636
4.30470,1998853
4.31283,1701749
4.32095,1509100
4.32907,1361453
4.33720,1292930
4.34532,1214816
4.35345,1132906
4.36157,1121043
4.36968,1106877
4.37782,1068649
4.38593,971968
4.39407,879839
4.40218,790366
4.41030,750886
4.41843,706073
4.42655,684838
4.43468,649141
4.44280,623368
4.45092,607200
4.45905,580407
4.46717,552788
4.47528,549124
4.48342,532772
4.49153,517123
4.49967,511104
4.50778,504107
4.51590,486447
4.52403,468671
4.53215,463855
4.54028,456152
4.54840,452625
4.55652,455263
4.56465,438410
4.57277,430035
4.58088,401827
4.58902,402277
4.59713,392635
4.60527,391100
4.61338,382062
4.62150,403134
4.62963,505916
4.63775,805120
4.64588,1218780
4.65400,1361189
4.66212,1137141
4.67025,832857
4.67837,652098
4.68650,543651
4.69462,506136
4.70273,453500
4.71087,431723
4.71898,400434
4.72710,373424
4.73523,371025
4.74335,351181
4.75148,341409
4.75960,331355
4.76772,325034
4.77585,321263
4.78397,315891
4.79210,314737
4.80022,343814
4.80833,385525
4.81647,396636
4.82458,382587
4.83272,359472
4.84083,363545
4.84895,389003
4.85708,405175
4.86520,371203
4.87332,334347
4.88145,315323
4.88957,308193
4.89770,307897
4.90582,305607
4.91393,292157
4.92207,287121
4.93018,317229
4.93832,461764
4.94643,925950
4.95455,1983322
4.96268,3291260
4.97080,4017968
4.97892,3769864
4.98705,2886327
4.99517,2051622
5.00330,1469454
5.01142,1163904
5.01953,971257
5.02767,944239
5.03578,1161826
5.04392,1561318
5.05203,1739412
5.06015,1544455
5.06828,1174874
5.07640,975992
5.08453,841379
5.09265,757061
5.10077,692490
5.10890,658420
5.11702,604798
5.12513,587805
5.13327,565592
5.14138,541086
5.14952,537448
5.15763,547142
5.16575,627696
5.17388,699924
5.18200,685409
5.19013,630495
5.19825,605324
5.20637,640490
5.21450,706337
5.22262,719744
5.23073,668924
5.23887,602107
5.24698,545583
5.25512,498398
5.26323,453719
5.27135,414319
5.27948,394315
5.28760,366664
5.29573,366479
5.30385,355012
5.31197,349707
5.32010,336908
5.32822,352937
5.33635,391615
5.34447,410297
5.35258,430852
5.36072,404664
5.36883,362525
5.37695,347907
5.38508,342987
5.39320,367324
5.40133,382155
5.40945,404022
5.41757,392075
5.42570,371952
5.43382,335503
5.44195,329196
5.45007,329377
5.45818,342876
5.46632,347690
5.47443,339988
5.48257,312098
5.49068,301229
5.49880,276873
5.50693,271774
5.51505,285638
5.52317,287357
5.53130,294854
5.53942,289712
5.54755,283994
5.55567,287541
5.56378,337566
5.57192,423028
5.58003,489056
5.58817,508156
5.59628,440211
5.60440,363513
5.61253,318532
5.62065,294937
5.62877,287619
5.63690,296202
5.64502,301715
5.65315,308792
5.66127,284531
5.66938,279785
5.67752,279986
5.68563,305810
5.69377,335856
5.70188,366036
5.71000,344064
5.71813,322030
5.72625,293499
5.73438,274224
5.74250,262497
5.75062,252507
5.75875,251008
5.76687,247682
5.77498,238970
5.78312,234740
5.79123,236088
5.79937,235726
5.80748,232299
5.81560,229606
5.82373,226594
5.83185,227873
5.83998,232886
5.84810,244165
5.85622,239367
5.86435,234073
5.87247,232327
5.88060,226748
5.88872,220088
5.89683,221822
5.90497,209922
5.91308,188390
5.92120,172098
5.92933,183003
5.93745,180797
5.94558,170321
5.95370,184328
5.96182,201306
5.96995,229423
5.97807,273595
5.98620,334830
5.99432,368736
6.00243,360730
6.01057,315609
6.01868,251244
6.02680,219989
6.03493,200921
6.04305,186260
6.05118,189601
6.05930,171476
6.06742,165627
6.07555,167327
6.08367,163791
6.09180,158665
6.09992,148878
6.10803,152182
6.11617,154348
6.12428,181213
6.13242,270367
6.14053,436271
6.14865,644998
6.15678,731949
6.16490,649351
6.17302,486351
6.18115,364067
6.18927,301313
6.19740,256896
6.20552,238216
6.21363,227578
6.22177,218708
6.22988,214564
6.23802,209512
6.24613,206441
6.25425,229719
6.26238,246716
6.27050,254370
6.27862,259713
6.28675,232560
6.29487,208318
6.30300,211586
6.31112,204920
6.31923,206077
6.32737,201364
6.33548,208274
6.34362,211525
6.35173,208132
6.35985,207570
6.36798,199795
6.37610,210059
6.38423,203196
6.39235,210321
6.40047,207442
6.40860,196959
6.41672,199496
6.42483,203247
6.43297,200844
6.44108,199723
6.44922,210357
6.45733,206462
6.46545,202188
6.47358,200091
6.48170,203859
6.48983,205707
6.49795,208307
6.50607,212969
6.51420,209965
6.52232,218211
6.53045,221063
6.53857,215681
6.54668,218941
6.55482,219961
6.56293,231434
6.57105,279756
6.57918,379264
6.58730,458221
6.59543,467844
6.60355,395710
6.61167,325483
6.61980,282951
6.62792,261690
6.63605,261445
6.64417,296819
6.65228,604446
6.66042,1612243
6.66853,3542693
6.67665,5502274
6.68478,5730877
6.69290,4395459
6.70103,2700619
6.70915,1654150
6.71727,1152671
6.72540,914193
6.73352,785658
6.74165,714232
6.74977,647447
6.75788,569404
6.76602,508072
6.77413,481031
6.78227,440030
6.79038,406623
6.79850,385569
6.80663,359920
6.81475,339962
6.82287,322192
6.83100,303897
6.83912,290424
6.84725,286838
6.85537,273076
6.86348,264791
6.87162,246290
6.87973,224947
6.88787,209331
6.89598,189513
6.90410,182950
6.91223,174848
6.92035,167554
6.92848,163886
6.93660,152614
6.94472,150521
6.95285,152788
6.96097,144823
6.96908,162973
6.97722,188918
6.98533,207515
6.99347,206395
7.00158,174743
7.00970,146695
7.01783,141811
7.02595,156361
7.03408,173570
7.04220,182984
7.05032,191991
7.05845,187333
7.06657,200766
7.07468,202033
7.08282,192688
7.09093,187564
7.09907,168375
7.10718,158330
7.11530,146972
7.12343,140251
7.13155,141645
7.13968,141949
7.14780,166666
7.15592,213996
7.16405,262077
7.17217,289527
7.18030,271049
7.18842,228679
7.19653,192018
7.20467,183420
7.21278,249859
7.22090,520933
7.22903,1042760
7.23715,1618185
7.24528,1780311
7.25340,1479484
7.26152,973254
7.26965,617076
7.27777,449427
7.28590,331540
7.29402,247606
7.30213,181437
7.31027,155913
7.31838,144823
7.32650,143637
7.33463,159231
7.34275,149034
7.35088,144860
7.35900,140235
7.36712,132461
7.37525,128830
7.38337,122811
7.39150,132908
7.39962,140315
7.40773,127427
7.41587,120385
7.42398,119515
7.43212,116875
7.44023,109150
7.44835,113554
7.45648,119546
7.46460,120465
7.47272,113806
7.48085,113021
7.48897,107084
7.49710,101107
7.50522,107898
7.51333,122589
7.52147,190676
7.52958,334076
7.53772,613824
7.54583,1039929
7.55395,1519067
7.56208,1879291
7.57020,1926596
7.57833,1708550
7.58645,1267955
7.59457,861809
7.60270,548734
7.61082,374598
7.61893,264421
7.62707,215858
7.63518,192647
7.64332,167057
7.65143,148294
7.65955,135946
7.66768,125423
7.67580,119074
7.68393,108413
7.69205,107223
7.70017,105938
7.70830,109018
7.71642,106128
7.72455,99192
7.73267,95750
7.74078,96997
7.74892,92527
7.75703,98119
7.76515,107423
7.77328,116975
7.78140,119059
7.78953,129552
7.79765,132672
7.80577,144407
7.81390,153409
7.82202,150493
7.83015,137595
7.83827,126155
7.84638,117984
7.85452,123550
7.86263,127642
7.87075,139985
7.87888,158413
7.88700,188697
7.89513,195358
7.90325,187987
7.91137,154756
7.91950,134631
7.92762,130316
7.93575,151575
7.94387,172980
7.95198,190331
7.96012,197958
7.96823,162908
7.97637,139281
7.98448,116919
7.99260,99712
8.00073,95590
8.00885,85901
8.01697,87957
8.02510,84715
8.03322,89177
8.04135,83016
8.04947,80466
8.05758,83513
8.06572,82421
8.07383,84553
8.08197,83746
8.09008,77878
8.09820,83038
8.10633,76088
8.11445,77201
8.12257,79323
8.13070,89905
8.13882,101143
8.14695,116868
8.15507,132653
8.16318,138134
8.17132,125676
8.17943,106085
8.18757,95847
8.19568,86304
8.20380,78847
8.21193,79017
8.22005,83715
8.22818,80052
8.23630,86367
8.24442,82475
8.25255,79012
8.26067,79618
8.26878,74340
8.27692,69832
8.28503,69280
8.29317,70629
8.30128,71402
8.30940,72347
8.31753,89312
8.32565,80007
8.33378,85632
8.34190,76747
8.35002,78442
8.35815,73992
8.36627,71326
8.37440,73610
8.38252,77273
8.39063,74835
8.39877,74095
8.40688,67713
8.41500,72137
8.42313,63223
8.43125,64090
8.43938,60277
8.44750,65598
8.45562,60656
8.46375,62180
8.47187,63981
8.48000,64715
8.48812,64492
8.49623,62652
8.50437,60442
8.51248,59294
8.52060,74417
8.52873,106061
8.53685,166122
8.54498,274286
8.55310,339793
8.56122,352754
8.56935,286741
8.57747,193280
8.58560,129751
8.59372,98292
8.60183,91009
8.60997,88079
8.61808,89016
8.62622,87633
8.63433,84536
8.64245,75694
8.65058,75025
8.65870,70764
8.66682,66596
8.67495,69213
8.68307,75820
8.69120,78557
8.69932,90154
8.70743,93782
8.71557,87609
8.72368,91715
8.73182,77004
8.73993,79804
8.74805,91461
8.75618,170853
8.76430,373082
8.77243,706554
8.78055,1110682
8.78867,1352671
8.79680,1286641
8.80492,985413
8.81303,651218
8.82117,422669
8.82928,278383
8.83742,229611
8.84553,216057
8.85365,215155
8.86178,208853
8.86990,196389
8.87803,178602
8.88615,168618
8.89427,160840
8.90240,147418
8.91052,145603
8.91863,144657
8.92677,142294
8.93488,154394
8.94302,159876
8.95113,176362
8.95925,169970
8.96738,168851
8.97550,164203
8.98363,158627
8.99175,162718
8.99987,154885
9.00800,147571
9.01612,138731
9.02425,131451
9.03237,122126
9.04048,115074
9.04862,110983
9.05673,104798
9.06485,108470
9.07298,102896
9.08110,98297
9.08923,113797
9.09735,120007
9.10547,154060
9.11360,186254
9.12172,214789
9.12985,209434
9.13797,193918
9.14608,164756
9.15422,144382
9.16233,123901
9.17045,120947
9.17858,106372
9.18670,105703
9.19483,105086
9.20295,97954
9.21107,98997
9.21920,92286
9.22732,90181
9.23545,98231
9.24357,93764
9.25168,96758
9.25982,99965
9.26793,99636
9.27607,96961
9.28418,92999
9.29230,90094
9.30043,95335
9.30855,89983
9.31667,88724
9.32480,87211
9.33292,85023
9.34105,82404
9.34917,82589
9.35728,85599
9.36542,86081
9.37353,80762
9.38167,82545
9.38978,88039
9.39790,94217
9.40603,102607
9.41415,127580
9.42228,173254
9.43040,234835
9.43852,285116
9.44665,313282
9.45477,286519
9.46288,235501
9.47102,190268
9.47913,144511
9.48727,115688
9.49538,103904
9.50350,99822
9.51163,111382
9.51975,129520
9.52788,146430
9.53600,143782
9.54412,141521
9.55225,117126
9.56037,101837
9.56848,86050
9.57662,74597
9.58473,73594
9.59287,72540
9.60098,66256
9.60910,62898
9.61723,63395
9.62535,61986
9.63348,64440
9.64160,57665
9.64972,61726
9.65785,58875
9.66597,57074
9.67410,59856
9.68222,59045
9.69033,58513
9.69847,50604
9.70658,51226
9.71470,47560
9.72283,49605
9.73095,49002
9.73908,51054
9.74720,47218
9.75532,46763
9.76345,46984
9.77157,48250
9.77970,49588
9.78782,46934
9.79593,42552
9.80407,45058
9.81218,51456
9.82032,48315
9.82843,47983
9.83655,47554
9.84468,44094
9.85280,44176
9.86092,47736
9.86905,51572
9.87717,53192
9.88530,49878
9.89342,53743
9.90153,48039
9.90967,51342
9.91778,56986
9.92592,59238
9.93403,65120
9.94215,88174
9.95028,109415
9.95840,135108
9.96652,136554
9.97465,126254
9.98277,112007
9.99090,93876
9.99902,83212
10.00713,67353
10.01527,66668
10.02338,60474
10.03152,57439
10.03963,56461
10.04775,54578
10.05588,52855
10.06400,57953
10.07213,57056
10.08025,55123
10.08837,58864
10.09650,56753
10.10462,61069
10.11273,60247
10.12087,58487
10.12898,59482
10.13712,50251
10.14523,49103
10.15335,52194
10.16148,52498
10.16960,52373
10.17773,51201
10.18585,49861
10.19397,50030
10.20210,50848
10.21022,49318
10.21835,52264
10.22647,54414
10.23458,58343
10.24272,67284
10.25083,69801
10.25895,90651
10.26708,182218
10.27520,415405
10.28333,920146
10.29145,1728286
10.29957,2691047
10.30770,3808767
10.31582,5496290
10.32395,8008562
10.33207,1.096557E+07
10.34018,1.287053E+07
10.34832,1.256691E+07
10.35643,1.006259E+07
10.36455,7118013
10.37268,5235645
10.38080,4061395
10.38893,3108605
10.39705,2171621
10.40517,1434426
10.41330,913781
10.42142,635599
10.42955,523213
10.43767,472734
10.44578,474226
10.45392,485633
10.46203,478102
10.47017,459702
10.47828,420551
10.48640,378784
10.49453,341480
10.50265,314983
10.51077,302818
10.51890,278803
10.52702,270313
10.53515,274440
10.54327,277005
10.55138,278855
10.55952,258871
10.56763,230097
10.57577,223119
10.58388,204661
10.59200,200588
10.60013,184621
10.60825,175982
10.61637,167147
10.62450,158931
10.63262,155116
10.64075,154396
10.64887,142071
10.65698,136329
10.66512,134057
10.67323,126313
10.68137,130903
10.68948,131139
10.69760,125314
10.70573,125860
10.71385,130894
10.72198,124629
10.73010,125532
10.73822,130435
10.74635,117403
10.75447,118459
10.76258,114427
10.77072,106685
10.77883,104304
10.78697,98167
10.79508,104319
10.80320,112348
10.81133,124168
10.81945,130411
10.82758,123731
10.83570,114985
10.84382,108974
10.85195,95536
10.86007,86588
10.86820,80302
10.87632,83727
10.88443,83819
10.89257,79198
10.90068,89209
10.90880,81646
10.91693,77519
10.92505,82550
10.93318,72651
10.94130,83453
10.94942,72429
10.95755,72466
10.96567,76018
10.97380,71888
10.98192,75461
10.99003,82672
10.99817,88626
11.00628,91392
11.01440,93571
11.02253,92250
11.03065,86499
11.03878,80756
11.04690,73722
11.05502,67475
11.06315,73645
11.07127,77047
11.07940,88960
11.08752,96911
11.09563,103822
11.10377,101599
11.11188,95356
11.12002,91906
11.12813,85825
11.13625,67695
11.14438,67458
11.15250,66361
11.16062,70889
11.16875,68051
11.17687,71327
11.18500,76157
11.19312,73304
11.20123,72930
11.20937,64728
11.21748,67007
11.22562,63905
11.23373,59702
11.24185,54087
11.24998,50195
11.25810,50974
11.26623,48331
11.27435,49385
11.28247,56980
11.29060,66010
11.29872,107589
11.30683,213065
11.31497,496275
11.32308,1017601
11.33122,1833232
11.33933,2665216
11.34745,3152295
11.35558,3098566
11.36370,2583894
11.37183,1849279
11.37995,1188585
11.38807,796896
11.39620,565318
11.40432,467736
11.41243,433475
11.42057,416938
11.42868,369379
11.43682,331671
11.44493,294269
11.45305,268536
11.46118,236787
11.46930,224610
11.47743,227205
11.48555,255555
11.49367,295468
11.50180,322246
11.50992,315302
11.51805,282097
11.52617,246324
11.53428,202982
11.54242,178360
11.55053,170027
11.55865,167294
11.56678,166712
11.57490,163668
11.58303,164020
11.59115,156423
11.59927,155736
11.60740,165981
11.61552,183880
11.62365,194505
11.63177,185522
11.63988,169280
11.64802,140086
11.65613,122424
11.66425,109255
11.67238,100998
11.68050,94322
11.68863,105708
11.69675,113591
11.70487,115111
11.71300,116768
11.72112,107465
11.72925,98632
11.73737,89079
11.74548,82114
11.75362,72666
11.76173,71642
11.76987,72601
11.77798,68679
11.78610,70649
11.79423,71067
11.80235,67835
11.81047,64800
11.81860,68283
11.82672,60908
11.83485,59877
11.84297,63925
11.85108,57567
11.85922,63227
11.86733,57406
11.87547,59251
11.88358,57077
11.89170,56409
11.89983,55387
11.90795,58507
11.91608,58335
11.92420,67054
11.93232,65139
11.94045,64412
11.94857,61422
11.95668,60362
11.96482,59571
11.97293,60439
11.98107,64437
11.98918,83780
11.99730,123570
12.00543,170447
12.01355,193127
12.02168,202142
12.02980,174238
12.03792,146497
12.04605,107181
12.05417,90869
12.06228,81170
12.07042,86230
12.07853,94590
12.08667,104058
12.09478,112600
12.10290,122228
12.11103,122168
12.11915,139485
12.12728,157426
12.13540,174153
12.14352,181390
12.15165,169731
12.15977,142406
12.16790,106204
12.17602,87918
12.18413,74981
12.19227,68725
12.20038,67727
12.20850,70931
12.21663,66088
12.22475,67385
12.23288,65519
12.24100,63609
12.24912,66102
12.25725,63524
12.26537,64864
12.27350,67311
12.28162,69242
12.28973,62867
12.29787,61726
12.30598,56879
12.31412,52716
12.32223,53892
12.33035,53147
12.33848,51807
12.34660,54870
12.35472,53114
12.36285,49631
12.37097,50327
12.37910,52505
12.38722,52688
12.39533,53300
12.40347,63867
12.41158,79423
12.41972,93920
12.42783,100721
12.43595,105998
12.44408,103270
12.45220,90616
12.46032,87280
12.46845,77960
12.47657,69947
12.48470,74189
12.49282,64609
12.50093,63886
12.50907,62235
12.51718,57724
12.52532,63285
12.53343,65087
12.54155,79546
12.54968,100522
12.55780,128409
12.56593,149752
12.57405,158091
12.58217,146931
12.59030,127410
12.59842,104395
12.60653,84766
12.61467,83402
12.62278,73397
12.63092,72847
12.63903,70113
12.64715,63602
12.65528,59931
12.66340,57887
12.67153,57566
12.67965,58566
12.68777,51678
12.69590,54147
12.70402,52151
12.71213,50391
12.72027,49098
12.72838,51845
12.73652,55234
12.74463,51187
12.75275,50969
12.76088,51195
12.76900,47661
12.77713,47154
12.78525,47402
12.79337,44411
12.80150,39949
12.80962,43090
12.81775,44016
12.82587,41563
12.83398,44682
12.84212,40958
12.85023,39959
12.85835,41284
12.86648,38876
12.87460,35275
12.88273,40684
12.89085,39657
12.89897,36289
12.90710,38379
12.91522,37155
12.92335,38980
12.93147,36492
12.93958,35616
12.94772,39494
12.95583,42390
12.96397,52956
12.97208,67362
12.98020,87922
12.98833,94088
12.99645,97365
13.00457,86949
13.01270,70601
13.02082,65999
13.02895,57146
13.03707,54700
13.04518,51274
13.05332,49461
13.06143,48594
13.06957,45573
13.07768,51373
13.08580,43356
13.09393,47375
13.10205,49436
13.11018,42617
13.11830,45971
13.12642,39307
13.13455,39872
13.14267,42864
13.15078,42198
13.15892,40380
13.16703,44118
13.17517,47188
13.18328,50131
13.19140,49394
13.19953,44250
13.20765,46002
13.21578,50680
13.22390,48083
13.23202,49895
13.24015,53661
13.24827,49884
13.25638,43071
13.26452,43962
13.27263,43424
13.28077,44304
13.28888,40498
13.29700,40963
13.30513,39323
13.31325,38484
13.32138,39173
13.32950,36612
13.33762,38644
13.34575,36522
13.35387,35446
13.36200,34928
13.37012,37898
13.37823,38188
13.38637,39137
13.39448,37211
13.40260,36392
13.41073,33960
13.41885,34131
13.42698,36236
13.43510,32287
13.44322,38612
13.45135,38995
13.45947,44044
13.46760,49055
13.47572,47602
13.48383,51917
13.49197,46000
13.50008,42074
13.50820,38384
13.51633,41538
13.52445,38648
13.53258,39732
13.54070,37255
13.54882,37753
13.55695,39289
13.56507,39234
13.57320,46932
13.58132,47460
13.58943,53495
13.59757,64536
13.60568,82461
13.61382,118306
13.62193,143842
13.63005,162945
13.63818,152483
13.64630,122588
13.65442,92539
13.66255,67172
13.67067,56482
13.67880,48874
13.68692,47046
13.69503,44239
13.70317,41929
13.71128,42446
13.71942,41553
13.72753,45545
13.73565,68599
13.74378,117444
13.75190,260792
13.76003,535912
13.76815,953028
13.77627,1374110
13.78440,1597479
13.79252,1580473
13.80063,1249900
13.80877,1015622
13.81688,838860
13.82502,826398
13.83313,899132
13.84125,904210
13.84938,869048
13.85750,739594
13.86563,568040
13.87375,453302
13.88187,359400
13.89000,289114
13.89812,251008
13.90623,219602
13.91437,186422
13.92248,164969
13.93062,158296
13.93873,147178
13.94685,139625
13.95498,137773
13.96310,132925
13.97123,136863
13.97935,133098
13.98747,137180
13.99560,138520
14.00372,130781
14.01185,121894
14.01997,107581
14.02808,106518
14.03622,111564
14.04433,107370
14.05245,101415
14.06058,101059
14.06870,97735
14.07683,94724
14.08495,93815
14.09307,97139
14.10120,89664
14.10932,87689
14.11745,89725
14.12557,88597
14.13368,89315
14.14182,95847
14.14993,100935
14.15807,107132
14.16618,118916
14.17430,149725
14.18243,200367
14.19055,309653
14.19867,428811
14.20680,513077
14.21492,513070
14.22305,422896
14.23117,329954
14.23928,266674
14.24742,231662
14.25553,202809
14.26367,185364
14.27178,175899
14.27990,154129
14.28803,130973
14.29615,115493
14.30427,109335
14.31240,103972
14.32052,102386
14.32865,101339
14.33677,100133
14.34488,90287
14.35302,84364
14.36113,80424
14.36927,70145
14.37738,65697
14.38550,75275
14.39363,90162
14.40175,144085
14.40988,229333
14.41800,350815
14.42612,432430
14.43425,423191
14.44237,346500
14.45048,251362
14.45862,173364
14.46673,137489
14.47487,111640
14.48298,100038
14.49110,94924
14.49923,87927
14.50735,84601
14.51548,82676
14.52360,81702
14.53172,81001
14.53985,75520
14.54797,72960
14.55608,68593
14.56422,66820
14.57233,58914
14.58047,57616
14.58858,57838
14.59670,55488
14.60483,51420
14.61295,54672
14.62108,49573
14.62920,49959
14.63732,48984
14.64545,47228
14.65357,46951
14.66170,49316
14.66982,51747
14.67793,50933
14.68607,51495
14.69418,47033
14.70230,48200
14.71043,50039
14.71855,53546
14.72668,52548
14.73480,56765
14.74292,58394
14.75105,61611
14.75917,65167
14.76730,62447
14.77542,63616
14.78353,73310
14.79167,110819
14.79978,217461
14.80792,513411
14.81603,1098192
14.82415,1948751
14.83228,2727890
14.84040,2921445
14.84852,2637997
14.85665,1942666
14.86477,1238367
14.87290,757777
14.88102,502025
14.88913,366369
14.89727,291105
14.90538,244060
14.91352,222336
14.92163,201771
14.92975,189875
14.93788,172854
14.94600,171273
14.95412,153110
14.96225,144926
14.97037,132615
14.97850,127345
14.98662,120285
14.99473,122468
15.00287,112172
15.01098,117649
15.01912,111693
15.02723,109373
15.03535,112267
15.04348,112953
15.05160,103594
15.05973,101830
15.06785,92813
15.07597,90342
15.08410,85139
15.09222,83401
15.10033,81819
15.10847,77355
15.11658,76424
15.12472,78719
15.13283,83455
15.14095,93495
15.14908,94254
15.15720,86443
15.16533,83537
15.17345,77776
15.18157,69842
15.18970,62928
15.19782,56090
15.20595,54639
15.21407,54098
15.22218,55474
15.23032,53782
15.23843,51696
15.24655,52061
15.25468,47706
15.26280,47514
15.27093,49756
15.27905,47847
15.28717,49410
15.29530,44157
15.30342,45234
15.31155,42845
15.31967,41985
15.32778,43497
15.33592,45043
15.34403,42562
15.35215,44144
15.36028,43600
15.36840,39927
15.37653,43690
15.38465,43527
15.39277,42101
15.40090,43815
15.40902,46369
15.41715,49709
15.42527,44566
15.43338,45556
15.44152,46424
15.44963,54199
15.45777,59537
15.46588,85816
15.47400,139014
15.48213,241243
15.49025,363704
15.49837,501314
15.50650,606468
15.51462,641584
15.52275,633381
15.53087,597770
15.53898,621477
15.54712,677414
15.55523,699261
15.56337,647405
15.57148,529554
15.57960,394125
15.58773,271628
15.59585,199631
15.60398,154711
15.61210,141042
15.62022,119920
15.62835,111819
15.63647,94407
15.64458,97436
15.65272,88165
15.66083,85211
15.66897,78938
15.67708,80164
15.68520,73217
15.69333,64505
15.70145,66802
15.70958,64612
15.71770,61589
15.72582,56627
15.73395,57217
15.74207,62138
15.75018,67584
15.75832,83849
15.76643,127148
15.77457,182540
15.78268,259969
15.79080,309595
15.79893,324301
15.80705,282846
15.81518,217719
15.82330,160857
15.83142,119489
15.83955,99450
15.84767,88619
15.85580,80702
15.86392,78519
15.87203,74815
15.88017,73923
15.88828,68988
15.89640,70754
15.90453,63698
15.91265,65406
15.92078,63299
15.92890,62960
15.93702,64655
15.94515,66319
15.95327,71091
15.96140,83650
15.96952,103303
15.97763,102501
15.98577,116514
15.99388,111607
16.00200,98131
16.01013,87197
16.01825,76940
16.02638,77205
16.03450,73714
16.04262,72263
16.05075,64741
16.05887,66542
16.06700,60199
16.07512,57390
16.08323,53893
16.09137,54758
16.09948,52468
16.10762,53446
16.11573,59882
16.12385,61155
16.13198,70477
16.14010,72744
16.14822,79692
16.15635,80095
16.16447,79457
16.17260,71751
16.18072,63172
16.18883,57648
16.19697,56380
16.20508,57221
16.21322,56215
16.22133,58225
16.22945,59795
16.23758,56588
16.24570,53138
16.25383,52026
16.26195,50262
16.27007,56261
16.27820,55264
16.28632,58124
16.29443,66415
16.30257,68355
16.31068,69483
16.31882,73660
16.32693,69722
16.33505,63744
16.34318,60517
16.35130,63909
16.35943,78457
16.36755,90425
16.37567,103019
16.38380,109221
16.39192,99660
16.40003,87614
16.40817,86297
16.41628,70353
16.42442,61017
16.43253,60147
16.44065,56171
16.44878,69340
16.45690,82619
16.46503,119331
16.47315,163745
16.48127,205214
16.48940,220967
16.49752,217718
16.50565,166064
16.51377,129693
16.52188,103680
16.53002,80741
16.53813,69664
16.54625,63485
16.55438,66623
16.56250,58844
16.57063,62382
16.57875,64219
16.58687,69041
16.59500,78487
16.60312,83533
16.61125,102827
16.61937,111085
16.62748,107603
16.63562,95750
16.64373,86548
16.65187,72415
16.65998,66431
16.66810,59984
16.67623,60598
16.68435,56192
16.69247,54138
16.70060,49986
16.70872,57535
16.71685,50872
16.72497,50196
16.73308,48931
16.74122,54376
16.74933,48778
16.75747,49759
16.76558,53280
16.77370,47210
16.78183,53387
16.78995,47256
16.79807,47852
16.80620,50831
16.81432,43495
16.82245,43095
16.83057,45402
16.83868,44838
16.84682,38922
16.85493,41527
16.86307,45314
16.87118,42172
16.87930,39604
16.88743,42277
16.89555,38953
16.90368,40514
16.91180,39374
16.91992,40609
16.92805,42263
16.93617,42668
16.94428,40526
16.95242,39650
16.96053,39536
16.96867,40208
16.97678,37576
16.98490,39917
16.99303,42164
17.00115,45266
17.00928,46519
17.01740,46832
17.02552,46850
17.03365,47000
17.04177,55242
17.04988,52274
17.05802,53730
17.06613,52492
17.07427,53551
17.08238,52909
17.09050,51852
17.09863,52702
17.10675,50448
17.11488,54891
17.12300,54518
17.13112,59089
17.13925,54328
17.14737,60913
17.15550,54413
17.16362,58840
17.17173,53881
17.17987,57022
17.18798,55396
17.19610,50038
17.20423,46368
17.21235,47025
17.22048,44385
17.22860,46459
17.23672,43696
17.24485,45493
17.25297,47861
17.26110,44255
17.26922,45894
17.27733,43444
17.28547,42557
17.29358,40516
17.30172,40740
17.30983,43292
17.31795,45982
17.32608,57642
17.33420,63852
17.34232,69440
17.35045,82510
17.35857,84392
17.36670,83003
17.37482,77389
17.38293,74852
17.39107,74592
17.39918,69590
17.40732,74800
17.41543,73587
17.42355,76829
17.43168,78716
17.43980,85944
17.44792,73727
17.45605,69289
17.46417,68892
17.47230,57640
17.48042,53059
17.48853,47942
17.49667,48542
17.50478,46419
17.51292,48140
17.52103,49748
17.52915,48973
17.53728,49965
17.54540,50669
17.55353,54733
17.56165,75308
17.56977,118469
17.57790,202524
17.58602,344758
17.59413,575595
17.60227,833441
17.61038,1019914
17.61852,1033400
17.62663,875452
17.63475,690527
17.64288,469339
17.65100,341040
17.65913,248798
17.66725,206429
17.67537,174542
17.68350,158602
17.69162,141983
17.69975,129727
17.70787,118899
17.71598,117300
17.72412,107133
17.73223,104561
17.74035,103614
17.74848,102656
17.75660,96784
17.76473,85644
17.77285,90013
17.78097,85215
17.78910,75334
17.79722,71604
17.80535,76680
17.81347,65001
17.82158,70572
17.82972,73203
17.83783,80375
17.84595,83420
17.85408,95940
17.86220,98930
17.87033,102765
17.87845,101962
17.88657,91318
17.89470,77018
17.90282,71038
17.91095,61852
17.91907,55550
17.92718,60294
17.93532,57146
17.94343,56868
17.95157,53589
17.95968,55495
17.96780,52564
17.97593,52570
17.98405,50832
17.99217,50457
18.00030,48453
18.00842,53383
18.01655,60701
18.02467,74241
18.03278,88016
18.04092,93051
18.04903,99707
18.05717,95829
18.06528,93214
18.07340,98293
18.08153,109577
18.08965,136322
18.09777,159529
18.10590,173833
18.11402,170535
18.12215,160444
18.13027,150706
18.13838,140739
18.14652,130538
18.15463,119666
18.16277,121692
18.17088,112128
18.17900,104752
18.18713,103348
18.19525,91318
18.20338,85624
18.21150,85299
18.21962,79489
18.22775,76353
18.23587,77167
18.24398,72145
18.25212,77377
18.26023,71336
18.26837,65115
18.27648,68634
18.28460,60474
18.29273,59556
18.30085,57187
18.30898,51861
18.31710,50460
18.32522,45209
18.33335,46218
18.34147,48719
18.34960,50242
18.35772,46030
18.36583,47472
18.37397,48520
18.38208,46900
18.39020,49553
18.39833,48374
18.40645,55037
18.41458,68319
18.42270,76969
18.43082,103911
18.43895,120126
18.44707,150392
18.45520,177354
18.46332,212564
18.47143,255465
18.47957,293863
18.48768,317529
18.49582,307517
18.50393,259119
18.51205,213623
18.52018,160624
18.52830,131701
18.53642,105480
18.54455,93139
18.55267,82679
18.56080,74727
18.56892,70037
18.57703,72944
18.58517,77912
18.59328,71983
18.60142,81157
18.60953,95471
18.61765,99171
18.62578,105591
18.63390,110571
18.64202,110015
18.65015,103731
18.65827,90241
18.66640,83674
18.67452,75415
18.68263,66209
18.69077,66412
18.69888,63516
18.70702,63851
18.71513,63271
18.72325,71485
18.73138,81733
18.73950,100025
18.74763,108474
18.75575,116861
18.76387,130384
18.77200,132774
18.78012,140421
18.78823,136478
18.79637,149635
18.80448,150195
18.81262,151657
18.82073,150356
18.82885,155869
18.83698,157296
18.84510,156520
18.85323,156727
18.86135,162510
18.86947,157356
18.87760,162705
18.88572,168319
18.89383,166469
18.90197,167111
18.91008,168169
18.91822,167848
18.92633,162675
18.93445,160471
18.94258,159389
18.95070,158162
18.95883,163795
18.96695,163934
18.97507,160780
18.98320,156515
18.99132,152920
18.99945,152200
19.00757,153294
19.01568,143006
19.02382,154114
19.03193,141500
19.04005,138587
19.04818,145945
19.05630,156295
19.06443,196905
19.07255,307201
19.08067,522655
19.08880,902706
19.09692,1382605
19.10505,1815587
19.11317,1988858
19.12128,1793673
19.12942,1402968
19.13753,1008721
19.14567,680914
19.15378,472769
19.16190,368726
19.17003,285110
19.17815,247827
19.18627,221551
19.19440,207034
19.20252,194214
19.21065,182997
19.21877,171815
19.22688,161897
19.23502,159279
19.24313,139965
19.25127,144179
19.25938,139297
19.26750,135622
19.27563,132290
19.28375,131757
19.29187,136188
19.30000,141162
19.30812,137498
19.31625,133022
19.32437,136350
19.33248,136102
19.34062,133250
19.34873,137570
19.35687,156355
19.36498,177470
19.37310,195454
19.38123,196691
19.38935,202048
19.39748,186787
19.40560,170317
19.41372,154440
19.42185,137751
19.42997,129963
19.43808,132974
19.44622,116806
19.45433,121690
19.46247,121001
19.47058,124100
19.47870,146464
19.48683,195331
19.49495,263770
19.50308,326094
19.51120,383627
19.51932,367692
19.52745,325648
19.53557,270572
19.54370,210389
19.55182,178373
19.55993,154912
19.56807,134289
19.57618,129844
19.58430,120668
19.59243,114951
19.60055,108403
19.60868,102455
19.61680,103244
19.62492,102941
19.63305,109112
19.64117,125121
19.64930,146869
19.65742,193832
19.66553,242099
19.67367,278444
19.68178,305222
19.68990,323794
19.69803,307013
19.70615,279995
19.71428,250350
19.72240,216339
19.73052,198119
19.73865,172427
19.74677,161753
19.75490,153154
19.76302,150030
19.77113,150117
19.77927,178293
19.78738,194453
19.79552,240393
19.80363,265366
19.81175,263155
19.81988,248353
19.82800,212395
19.83612,187723
19.84425,152653
19.85237,130685
19.86050,132034
19.86862,146098
19.87673,182771
19.88487,264583
19.89298,360771
19.90112,469102
19.90923,545772
19.91735,581016
19.92548,563762
19.93360,545708
19.94172,506615
19.94985,479354
19.95797,453337
19.96610,419343
19.97422,396388
19.98233,381276
19.99047,356431
19.99858,355662
20.00672,335686
20.01483,338831
20.02295,325772
20.03108,317565
20.03920,287468
20.04733,276294
20.05545,272565
20.06357,281596
20.07170,300856
20.07982,330501
20.08793,354757
20.09607,344298
20.10418,331790
20.11232,290668
20.12043,250711
20.12855,208742
20.13668,191536
20.14480,204968
20.15293,256324
20.16105,372780
20.16917,579307
20.17730,816403
20.18542,1044026
20.19355,1299002
20.20167,1408317
20.20978,1386191
20.21792,1214197
20.22603,997818
20.23415,817019
20.24228,699562
20.25040,700524
20.25853,762970
20.26665,871524
20.27477,975622
20.28290,1026466
20.29102,987735
20.29915,883125
20.30727,716391
20.31538,557921
20.32352,440615
20.33163,326845
20.33975,260147
20.34788,209763
20.35600,173069
20.36413,152055
20.37225,135486
20.38037,125740
20.38850,110780
20.39662,103057
20.40475,99933
20.41287,101551
20.42098,99313
20.42912,97767
20.43723,109987
20.44537,111742
20.45348,106854
20.46160,107037
20.46973,110262
20.47785,100616
20.48597,97847
20.49410,85358
20.50222,82913
20.51035,78175
20.51847,74366
20.52658,75846
20.53472,68430
20.54283,66603
20.55097,71149
20.55908,67434
20.56720,73116
20.57533,67567
20.58345,67106
20.59158,67092
20.59970,73444
20.60782,69924
20.61595,73357
20.62407,71833
20.63218,72378
20.64032,76524
20.64843,84545
20.65657,86945
20.66468,89312
20.67280,81541
20.68093,73551
20.68905,72198
20.69718,67013
20.70530,67581
20.71342,64693
20.72155,68975
20.72967,66637
20.73778,65911
20.74592,67664
20.75403,71691
20.76217,76804
20.77028,81045
20.77840,101447
20.78653,142095
20.79465,223575
20.80278,382688
20.81090,559767
20.81902,737812
20.82715,803531
20.83527,710218
20.84340,554372
20.85152,379121
20.85963,250729
20.86777,170883
20.87588,138062
20.88400,118861
20.89213,110948
20.90025,110245
20.90838,108926
20.91650,113323
20.92462,119457
20.93275,124714
20.94087,130408
20.94900,126225
20.95712,126774
20.96523,110960
20.97337,99344
20.98148,91576
20.98960,89909
20.99773,82636
21.00585,76101
21.01398,81066
21.02210,76877
21.03022,75269
21.03835,78278
21.04647,80420
21.05460,75306
21.06272,74832
21.07083,76861
21.07897,73015
21.08708,66339
21.09522,67096
21.10333,63218
21.11145,62318
21.11958,63726
21.12770,70593
21.13582,86208
21.14395,107163
21.15207,136115
21.16020,164528
21.16832,189722
21.17643,179346
21.18457,163043
21.19268,135219
21.20082,108940
21.20893,96551
21.21705,85901
21.22518,85046
21.23330,74106
21.24143,73212
21.24955,68986
21.25767,68607
21.26580,66974
21.27392,66127
21.28203,65437
21.29017,61352
21.29828,63324
21.30642,61572
21.31453,67588
21.32265,63461
21.33078,58133
21.33890,55773
21.34703,56174
21.35515,55130
21.36327,53982
21.37140,60079
21.37952,57057
21.38763,58204
21.39577,64296
21.40388,66483
21.41202,69742
21.42013,70620
21.42825,68484
21.43638,68417
21.44450,61818
21.45263,61788
21.46075,61997
21.46887,61276
21.47700,58988
21.48512,59955
21.49325,58960
21.50137,52545
21.50948,52255
21.51762,56736
21.52573,57680
21.53385,56596
21.54198,54611
21.55010,55652
21.55823,53865
21.56635,56371
21.57447,59699
21.58260,66029
21.59072,71646
21.59885,76657
21.60697,78074
21.61508,80709
21.62322,83709
21.63133,87352
21.63947,86031
21.64758,87760
21.65570,98501
21.66383,94094
21.67195,104020
21.68007,100384
21.68820,105049
21.69632,101778
21.70445,91272
21.71257,79947
21.72068,74271
21.72882,67139
21.73693,66502
21.74507,63460
21.75318,57971
21.76130,61766
21.76943,60366
21.77755,61799
21.78567,59505
21.79380,61527
21.80192,59566
21.81005,64950
21.81817,69606
21.82628,72989
21.83442,76057
21.84253,86823
21.85067,83047
21.85878,78260
21.86690,71931
21.87503,67065
21.88315,68245
21.89128,65247
21.89940,61723
21.90752,62377
21.91565,58436
21.92377,56895
21.93188,55450
21.94002,52423
21.94813,50575
21.95627,51318
21.96438,49702
21.97250,50847
21.98063,45937
21.98875,50829
21.99688,50307
22.00500,52766
22.01312,51541
22.02125,50416
22.02937,52887
22.03750,53448
22.04562,49159
22.05373,55121
22.06187,52009
22.06998,55386
22.07810,53108
22.08623,50297
22.09435,52316
22.10248,55073
22.11060,59748
22.11872,68143
22.12685,67473
22.13497,64371
22.14310,71528
22.15122,67607
22.15933,72094
22.16747,76411
22.17558,74431
22.18370,75263
22.19183,72365
22.19995,72463
22.20808,72879
22.21620,75924
22.22432,79597
22.23245,75760
22.24057,73673
22.24870,84002
22.25682,79761
22.26493,76938
22.27307,82600
22.28118,93717
22.28932,100637
22.29743,103768
22.30555,101565
22.31368,94800
22.32180,92500
22.32992,87526
22.33805,80816
22.34617,78505
22.35430,73517
22.36242,69700
22.37053,68203
22.37867,66282
22.38678,79203
22.39492,99164
22.40303,119410
22.41115,161650
22.41928,190859
22.42740,216976
22.43552,206912
22.44365,180335
22.45177,148958
22.45990,120857
22.46802,106197
22.47613,98105
22.48427,111924
22.49238,118210
22.50052,131140
22.50863,145707
22.51675,153657
22.52488,150961
22.53300,137340
22.54113,119181
22.54925,106576
22.55737,93735
22.56550,86762
22.57362,76944
22.58173,68326
22.58987,67909
22.59798,66139
22.60612,59960
22.61423,68691
22.62235,77089
22.63048,91368
22.63860,96396
22.64673,108057
22.65485,117383
22.66297,125747
22.67110,124799
22.67922,124346
22.68735,129719
22.69547,133239
22.70358,140485
22.71172,145802
22.71983,151006
22.72795,152449
22.73608,153983
22.74420,143857
22.75233,137602
22.76045,140264
22.76857,135625
22.77670,135375
22.78482,132289
22.79295,144481
22.80107,158454
22.80918,164918
22.81732,167385
22.82543,167578
22.83355,158533
22.84168,152376
22.84980,146097
22.85793,151086
22.86605,165387
22.87417,185182
22.88230,210525
22.89042,225830
22.89855,253008
22.90667,272142
22.91478,280685
22.92292,289045
22.93103,290467
22.93917,280901
22.94728,245809
22.95540,212995
22.96353,177370
22.97165,159753
22.97977,151903
22.98790,133019
22.99602,127486
23.00415,127303
23.01227,118151
23.02038,116966
23.02852,113703
23.03663,109823
23.04477,108144
23.05288,110785
23.06100,110041
23.06913,114391
23.07725,106250
23.08538,110763
23.09350,110338
23.10162,104546
23.10975,97704
23.11787,101569
23.12598,98865
23.13412,93749
23.14223,96639
23.15037,87469
23.15848,94757
23.16660,85988
23.17473,85084
23.18285,90515
23.19098,85138
23.19910,84719
23.20722,88521
23.21535,89216
23.22347,83502
23.23158,80933
23.23972,84369
23.24783,86689
23.25597,97186
23.26408,103206
23.27220,101771
23.28033,100166
23.28845,96557
23.29658,93107
23.30470,85200
23.31282,90915
23.32095,94972
23.32907,105700
23.33720,113950
23.34532,128320
23.35343,150076
23.36157,175326
23.36968,187090
23.37780,195651
23.38593,181126
23.39405,169307
23.40218,138550
23.41030,121318
23.41842,111528
23.42655,95546
23.43467,96448
23.44280,89101
23.45092,86005
23.45903,86270
23.46717,79659
23.47528,80813
23.48340,78504
23.49153,82755
23.49965,74065
23.50778,76675
23.51590,73750
23.52402,77071
23.53215,74057
23.54027,83591
23.54840,75215
23.55652,91052
23.56463,101671
23.57277,134771
23.58088,193146
23.58902,265091
23.59713,346421
23.60525,402752
23.61338,412241
23.62150,375939
23.62962,320226
23.63775,256306
23.64587,214836
23.65400,210825
23.66212,207977
23.67023,204917
23.67837,201893
23.68648,178209
23.69462,149114
23.70273,119282
23.71085,106715
23.71898,98705
23.72710,93719
23.73523,87154
23.74335,98021
23.75147,135602
23.75960,244175
23.76772,503853
23.77583,951450
23.78397,1560167
23.79208,2075847
23.80022,2305017
23.80833,2231368
23.81645,1953726
23.82458,1533599
23.83270,1196070
23.84083,933500
23.84895,726192
23.85707,563859
23.86520,476482
23.87332,403773
23.88145,358837
23.88957,324298
23.89768,299854
23.90582,280244
23.91393,263721
23.92205,250581
23.93018,240293
23.93830,225532
23.94643,209509
23.95455,191383
23.96267,175094
23.97080,159297
23.97892,156456
23.98705,149721
23.99517,152774
24.00328,166320
24.01142,190203
24.01953,254014
24.02765,322233
24.03578,393210
24.04390,412784
24.05203,370062
24.06015,274789
24.06827,218826
24.07640,159041
24.08452,130642
24.09265,125293
24.10077,116179
24.10888,108888
24.11702,105952
24.12513,107742
24.13327,116683
24.14138,125415
24.14950,141781
24.15763,144767
24.16575,141551
24.17387,137141
24.18200,135746
24.19012,136576
24.19825,139294
24.20637,141913
24.21448,132376
24.22262,122241
24.23073,115066
24.23887,107383
24.24698,91814
24.25510,86823
24.26323,90503
24.27135,87828
24.27947,76202
24.28760,78275
24.29572,78321
24.30385,74089
24.31197,80135
24.32008,79173
24.32822,77712
24.33633,79035
24.34447,70635
24.35258,79240
24.36070,81416
24.36883,90734
24.37695,98977
24.38508,123363
24.39320,156734
24.40132,187294
24.40945,189090
24.41757,174303
24.42568,167072
24.43382,152106
24.44193,146461
24.45007,138843
24.45818,153772
24.46630,157580
24.47443,151005
24.48255,161634
24.49068,175564
24.49880,179098
24.50692,197615
24.51505,198352
24.52317,219777
24.53130,252350
24.53942,282730
24.54753,335099
24.55567,371890
24.56378,392514
24.57190,391483
24.58003,335800
24.58815,296418
24.59628,252490
24.60440,220626
24.61252,198269
24.62065,176521
24.62877,170779
24.63690,162842
24.64502,161573
24.65313,158860
24.66127,161533
24.66938,159742
24.67750,162808
24.68563,158493
24.69375,155720
24.70188,156574
24.71000,153506
24.71812,153839
24.72625,147732
24.73437,151768
24.74250,153541
24.75062,150883
24.75873,147119
24.76687,148400
24.77498,152578
24.78312,157520
24.79123,162386
24.79935,164324
24.80748,161947
24.81560,161102
24.82372,175423
24.83185,185864
24.83997,210849
24.84810,251264
24.85622,316223
24.86433,394171
24.87247,492836
24.88058,639565
24.88872,734866
24.89683,802090
24.90495,761755
24.91308,661082
24.92120,525820
24.92933,387714
24.93745,302046
24.94557,231719
24.95370,194116
24.96182,174911
24.96993,167477
24.97807,154886
24.98618,146563
24.99432,143937
25.00243,142152
25.01055,138954
25.01868,134692
25.02680,133703
25.03493,136058
25.04305,126261
25.05117,118627
25.05930,125583
25.06742,122852
25.07553,123491
25.08367,126709
25.09178,143256
25.09992,199110
25.10803,348967
25.11615,675347
25.12428,1331904
25.13240,2204368
25.14053,3095384
25.14865,3746083
25.15677,3685689
25.16490,3171512
25.17302,2345842
25.18115,1507213
25.18927,947627
25.19738,558616
25.20552,347550
25.21363,239172
25.22175,187193
25.22988,163197
25.23800,171834
25.24613,196423
25.25425,250267
25.26237,308305
25.27050,366389
25.27862,381164
25.28675,368406
25.29487,306927
25.30298,262314
25.31112,191658
25.31923,152710
25.32735,126283
25.33548,106433
25.34360,95679
25.35173,89655
25.35985,87833
25.36797,80144
25.37610,76215
25.38422,75668
25.39235,71087
25.40047,70078
25.40858,66953
25.41672,71385
25.42483,69637
25.43297,70405
25.44108,67232
25.44920,67617
25.45733,68954
25.46545,73267
25.47357,69575
25.48170,68850
25.48982,68965
25.49795,66361
25.50607,68036
25.51418,64534
25.52232,67975
25.53043,62678
25.53857,61930
25.54668,72166
25.55480,86425
25.56293,108298
25.57105,135442
25.57918,155351
25.58730,170295
25.59542,185661
25.60355,189311
25.61167,188747
25.61978,190987
25.62792,188285
25.63603,195155
25.64417,194036
25.65228,192654
25.66040,204731
25.66853,201990
25.67665,201731
25.68478,198181
25.69290,199721
25.70102,199341
25.70915,200243
25.71727,203763
25.72538,187152
25.73352,196814
25.74163,188441
25.74977,184095
25.75788,185857
25.76600,185663
25.77413,182540
25.78225,183619
25.79038,193751
25.79850,184398
25.80662,187046
25.81475,187194
25.82287,184505
25.83100,183996
25.83912,180848
25.84723,176735
25.85537,176551
25.86348,178044
25.87160,171066
25.87973,173043
25.88785,166087
25.89598,165844
25.90410,156619
25.91222,156985
25.92035,149744
25.92847,150579
25.93660,157889
25.94472,151259
25.95283,149772
25.96097,154133
25.96908,152984
25.97722,143866
25.98533,139978
25.99345,138560
26.00158,133962
26.00970,138830
26.01782,131382
26.02595,129954
26.03407,127988
26.04220,125494
26.05032,123791
26.05843,128031
26.06657,131206
26.07468,129151
26.08282,127529
26.09093,132734
26.09905,130532
26.10718,130272
26.11530,126439
26.12342,120087
26.13155,124294
26.13967,128992
26.14780,126864
26.15592,125702
26.16403,128357
26.17217,127005
26.18028,125926
26.18842,123447
26.19653,116766
26.20465,111785
26.21278,108423
26.22090,105103
26.22903,105024
26.23715,100284
26.24527,101438
26.25340,98063
26.26152,98364
26.26963,96953
26.27777,93855
26.28588,93607
26.29402,93463
26.30213,88610
26.31025,89783
26.31838,83491
26.32650,86218
26.33463,90554
26.34275,89286
26.35087,100726
26.35900,121857
26.36712,154840
26.37525,214872
26.38337,291302
26.39148,369773
26.39962,427932
26.40773,457431
26.41585,417371
26.42398,353266
26.43210,278017
26.44023,209842
26.44835,159686
26.45647,128735
26.46460,108172
26.47272,99828
26.48085,94591
26.48897,94429
26.49708,84836
26.50522,82495
26.51333,78527
26.52145,79497
26.52958,70783
26.53770,71807
26.54583,71090
26.55395,70137
26.56207,68563
26.57020,68831
26.57832,69786
26.58645,70546
26.59457,64708
26.60268,68905
26.61082,70031
26.61893,65338
26.62707,66048
26.63518,68080
26.64330,65961
26.65143,73763
26.65955,66191
26.66767,74263
26.67580,73113
26.68392,68468
26.69205,71219
26.70017,66129
26.70828,71220
26.71642,65331
26.72453,64653
26.73267,64904
26.74078,70980
26.74890,66816
26.75703,62698
26.76515,68666
26.77327,66550
26.78140,65036
26.78952,73706
26.79765,73319
26.80577,74367
26.81388,72663
26.82202,77907
26.83013,66907
26.83827,63398
26.84638,64846
26.85450,64258
26.86263,62849
26.87075,59152
26.87888,58301
26.88700,57679
26.89512,58392
26.90325,58731
26.91137,54583
26.91948,53465
26.92762,56564
26.93573,56792
26.94387,53930
26.95198,56136
26.96010,58541
26.96823,70533
26.97635,80534
26.98448,110460
26.99260,157547
27.00072,229846
27.00885,308532
27.01697,399722
27.02510,463146
27.03322,517296
27.04133,523307
27.04947,466160
27.05758,407122
27.06570,350361
27.07383,288713
27.08195,238846
27.09008,218422
27.09820,182534
27.10632,166560
27.11445,152723
27.12257,151071
27.13070,138640
27.13882,136609
27.14693,123071
27.15507,127965
27.16318,130474
27.17130,137483
27.17943,142679
27.18755,157695
27.19568,148331
27.20380,134978
27.21192,127248
27.22005,121415
27.22817,109704
27.23630,101872
27.24442,99289
27.25253,92627
27.26067,90306
27.26878,84539
27.27692,80511
27.28503,80263
27.29315,84592
27.30128,78110
27.30940,78274
27.31752,84995
27.32565,81027
27.33377,79856
27.34190,79872
27.35002,73841
27.35813,77823
27.36627,81209
27.37438,82427
27.38252,79898
27.39063,78024
27.39875,71455
27.40688,69801
27.41500,69926
27.42313,74101
27.43125,74225
27.43937,66793
27.44750,68868
27.45562,68288
27.46373,65252
27.47187,64824
27.47998,63750
27.48812,61764
27.49623,63986
27.50435,69738
27.51248,66020
27.52060,69395
27.52873,74030
27.53685,75056
27.54497,68684
27.55310,69180
27.56122,68187
27.56933,70536
27.57747,73162
27.58558,85709
27.59372,95230
27.60183,103941
27.60995,106462
27.61808,97821
27.62620,87443
27.63433,75908
27.64245,76398
27.65057,73075
27.65870,74415
27.66682,77999
27.67495,91361
27.68307,107416
27.69118,116463
27.69932,121157
27.70743,109100
27.71555,98722
27.72368,85465
27.73180,69960
27.73993,64892
27.74805,62755
27.75617,65037
27.76430,58898
27.77242,57326
27.78055,59088
27.78867,60440
27.79678,59389
27.80492,62534
27.81303,59441
27.82115,60359
27.82928,57856
27.83740,59766
27.84553,56645
27.85365,52316
27.86177,55455
27.86990,53803
27.87802,54444
27.88615,54200
27.89427,55976
27.90238,53834
27.91052,51516
27.91863,55198
27.92677,51203
27.93488,48706
27.94300,53590
27.95113,55758
27.95925,54501
27.96737,49098
27.97550,50763
27.98362,54134
27.99175,56115
27.99987,61220
28.00798,72104
28.01612,84325
28.02423,117800
28.03237,163841
28.04048,201654
28.04860,243645
28.05673,270045
28.06485,256379
28.07298,210608
28.08110,167826
28.08922,120351
28.09735,94083
28.10547,78007
28.11358,73188
28.12172,67211
28.12983,62196
28.13797,62195
28.14608,56091
28.15420,57760
28.16233,52548
28.17045,58298
28.17858,59021
28.18670,64822
28.19482,71109
28.20295,83325
28.21107,92461
28.21918,95282
28.22732,94350
28.23543,95885
28.24357,94107
28.25168,84865
28.25980,73990
28.26793,69317
28.27605,64165
28.28418,61051
28.29230,61292
28.30042,72550
28.30855,78163
28.31667,86431
28.32480,100695
28.33292,107880
28.34103,124800
28.34917,136848
28.35728,146167
28.36540,159702
28.37353,175891
28.38165,185053
28.38978,180501
28.39790,182452
28.40602,187941
28.41415,176661
28.42227,168079
28.43040,169713
28.43852,156599
28.44663,144142
28.45477,135139
28.46288,127789
28.47102,127513
28.47913,122219
28.48725,127767
28.49538,119935
28.50350,117945
28.51162,112736
28.51975,104563
28.52787,106304
28.53600,94289
28.54412,89924
28.55223,83164
28.56037,79310
28.56848,79229
28.57662,74575
28.58473,73552
28.59285,75422
28.60098,75379
28.60910,72551
28.61722,73968
28.62535,76223
28.63347,83058
28.64160,84320
28.64972,83628
28.65783,80309
28.66597,76604
28.67408,79280
28.68222,75022
28.69033,68154
28.69845,66024
28.70658,66426
28.71470,61136
28.72283,64244
28.73095,63152
28.73907,66895
28.74720,68727
28.75532,82605
28.76343,95174
28.77157,100377
28.77968,103309
28.78782,92673
28.79593,89320
28.80405,80234
28.81218,79363
28.82030,78732
28.82843,74047
28.83655,75396
28.84467,67438
28.85280,74247
28.86092,67555
28.86903,63122
28.87717,73903
28.88528,75441
28.89342,78992
28.90153,85306
28.90965,80703
28.91778,78451
28.92590,80950
28.93403,79008
28.94215,77152
28.95027,71798
28.95840,71961
28.96652,74957
28.97465,64265
28.98277,64736
28.99088,60325
28.99902,61155
29.00713,59154
29.01525,54251
29.02338,55392
29.03150,57174
29.03963,58294
29.04775,56502
29.05587,53593
29.06400,53810
29.07212,58405
29.08025,57881
29.08837,58382
29.09648,58688
29.10462,60416
29.11273,54450
29.12087,58067
29.12898,53257
29.13710,55764
29.14523,52601
29.15335,51532
29.16147,53450
29.16960,57893
29.17772,57862
29.18585,62219
29.19397,71479
29.20208,88251
29.21022,99299
29.21833,115898
29.22647,119000
29.23458,121144
29.24270,139679
29.25083,155800
29.25895,173561
29.26708,196400
29.27520,208756
29.28332,187347
29.29145,152000
29.29957,122957
29.30768,98717
29.31582,76978
29.32393,67574
29.33207,63674
29.34018,49629
29.34830,53197
29.35643,53892
29.36455,52931
29.37268,51862
29.38080,52060
29.38892,51037
29.39705,51717
29.40517,54689
29.41328,55194
29.42142,56531
29.42953,57720
29.43767,58399
29.44578,56882
29.45390,55822
29.46203,53152
29.47015,48920
29.47828,52401
29.48640,56427
29.49452,54523
29.50265,54718
29.51077,53305
29.51890,55677
29.52702,52170
29.53513,49770
29.54327,52315
29.55138,49647
29.55950,47524
29.56763,52023
29.57575,46454
29.58388,46648
29.59200,48843
29.60012,48648
29.60825,48207
29.61637,45524
29.62450,51278
29.63262,47693
29.64073,44451
29.64887,47579
29.65698,50100
29.66510,53774
29.67323,50746
29.68135,51745
29.68948,60030
29.69760,57647
29.70572,59577
29.71385,57179
29.72197,58839
29.73010,58202
29.73822,55241
29.74633,51990
29.75447,52579
29.76258,46965
29.77072,46840
29.77883,49838
29.78695,49063
29.79508,43712
29.80320,40783
29.81132,50023
29.81945,48066
29.82757,46766
29.83570,45576
29.84382,49240
29.85193,47162
29.86007,49948
29.86818,57171
29.87632,76828
29.88443,105393
29.89255,133191
29.90068,166685
29.90880,167067
29.91693,148835
29.92505,123222
29.93317,97916
29.94130,74880
29.94942,71074
29.95753,70314
29.96567,72371
29.97378,67933
29.98192,76085
29.99003,89176
29.99815,97885
30.00628,104298
30.01440,106913
30.02253,117607
30.03065,113915
30.03877,106640
30.04690,110816
30.05502,114930
30.06313,114690
30.07127,106470
30.07938,112582
30.08752,110774
30.09563,106064
30.10375,98848
30.11188,95797
30.12000,97841
30.12813,89747
30.13625,95527
30.14437,87376
30.15250,87635
30.16062,86756
30.16875,86987
30.17687,89205
30.18498,85702
30.19312,87327
30.20123,91975
30.20935,92013
30.21748,91727
30.22560,84947
30.23373,81673
30.24185,76448
30.24997,67665
30.25810,67148
30.26622,63520
30.27435,61094
30.28247,55195
30.29058,59681
30.29872,57014
30.30683,57193
30.31497,55389
30.32308,60569
30.33120,57500
30.33933,58878
30.34745,57290
30.35557,62202
30.36370,62692
30.37182,57174
30.37995,54141
30.38807,50365
30.39618,56295
30.40432,49669
30.41243,46750
30.42057,52756
30.42868,51466
30.43680,50260
30.44493,49973
30.45305,47414
30.46117,51300
30.46930,48555
30.47742,46533
30.48555,49854
30.49367,48400
30.50178,48132
30.50992,49082
30.51803,44959
30.52617,46918
30.53428,44402
30.54240,46729
30.55053,46611
30.55865,53843
30.56678,56131
30.57490,51302
30.58302,55158
30.59115,53160
30.59927,56555
30.60738,49152
30.61552,45481
30.62363,46999
30.63177,48330
30.63988,50753
30.64800,41965
30.65613,43875
30.66425,43369
30.67238,43759
30.68050,42529
30.68862,43019
30.69675,49249
30.70487,48637
30.71298,45020
30.72112,47113
30.72923,44874
30.73737,44149
30.74548,44734
30.75360,44725
30.76173,49611
30.76985,52669
30.77798,57807
30.78610,66350
30.79422,78971
30.80235,97884
30.81047,106524
30.81860,105320
30.82672,103565
30.83483,83864
30.84297,70550
30.85108,60923
30.85920,61370
30.86733,56355
30.87545,59927
30.88358,65489
30.89170,68011
30.89982,67566
30.90795,63993
30.91607,64305
30.92420,66136
30.93232,65427
30.94043,61547
30.94857,65296
30.95668,62655
30.96482,62472
30.97293,60418
30.98105,64288
30.98918,60547
30.99730,61244
31.00542,62655
31.01355,61566
31.02167,64815
31.02980,65052
31.03792,65785
31.04603,62507
31.05417,63152
31.06228,64285
31.07042,65471
31.07853,70666
31.08665,72128
31.09478,79553
31.10290,83853
31.11102,84433
31.11915,90302
31.12727,81310
31.13540,75825
31.14352,72915
31.15163,70428
31.15977,73767
31.16788,76571
31.17602,77960
31.18413,83808
31.19225,99884
31.20038,124061
31.20850,154307
31.21663,188964
31.22475,207689
31.23287,209837
31.24100,184829
31.24912,159251
31.25723,122845
31.26537,99001
31.27348,85902
31.28162,69767
31.28973,62324
31.29785,59838
31.30598,61359
31.31410,65681
31.32223,59606
31.33035,60276
31.33847,63079
31.34660,61523
31.35472,61613
31.36285,63413
31.37097,57053
31.37908,62588
31.38722,60389
31.39533,63770
31.40345,66336
31.41158,58332
31.41970,64708
31.42783,58909
31.43595,65684
31.44407,60362
31.45220,57210
31.46032,56781
31.46845,56968
31.47657,56251
31.48468,57824
31.49282,62105
31.50093,62328
31.50905,62077
31.51718,69214
31.52530,70404
31.53343,77385
31.54155,69537
31.54967,70671
31.55780,71084
31.56592,65799
31.57405,66975
31.58217,61011
31.59028,60416
31.59842,53951
31.60653,55940
31.61467,57536
31.62278,59277
31.63090,52185
31.63903,50425
31.64715,58215
31.65527,56442
31.66340,64136
31.67152,61637
31.67965,62799
31.68777,59658
31.69588,52982
31.70402,56692
31.71213,54467
31.72027,56407
31.72838,55117
31.73650,50382
31.74463,54181
31.75275,50259
31.76088,52312
31.76900,49178
31.77712,51517
31.78525,51862
31.79337,53533
31.80148,53163
31.80962,51835
31.81773,50880
31.82587,53945
31.83398,49484
31.84210,54511
31.85023,49329
31.85835,50379
31.86648,51794
31.87460,56629
31.88272,54615
31.89085,60179
31.89897,63880
31.90708,64037
31.91522,72109
31.92333,76672
31.93147,78832
31.93958,82821
31.94770,87466
31.95583,95153
31.96395,94972
31.97208,99321
31.98020,97389
31.98832,101487
31.99645,107068
32.00457,102191
32.01270,103111
32.02082,100482
32.02893,97748
32.03707,91850
32.04518,92347
32.05330,88037
32.06143,88381
32.06955,90533
32.07768,73954
32.08580,75558
32.09392,73781
32.10205,71217
32.11017,65524
32.11830,69830
32.12642,62869
32.13453,62716
32.14267,62459
32.15078,59359
32.15890,61278
32.16703,58366
32.17515,58456
32.18328,60089
32.19140,62389
32.19952,54571
32.20765,60946
32.21577,58555
32.22390,59885
32.23202,62054
32.24013,57696
32.24827,59986
32.25638,59850
32.26452,64415
32.27263,58317
32.28075,58735
32.28888,59775
32.29700,57571
32.30512,57105
32.31325,57904
32.32137,55610
32.32950,49963
32.33762,54758
32.34573,55063
32.35387,52191
32.36198,53758
32.37012,50382
32.37823,53461
32.38635,54602
32.39448,58619
32.40260,55948
32.41073,49973
32.41885,47371
32.42697,49080
32.43510,49769
32.44322,48592
32.45133,52529
32.45947,48801
32.46758,46083
32.47572,51428
32.48383,49432
32.49195,44476
32.50008,48993
32.50820,47977
32.51633,44394
32.52445,47363
32.53257,50209
32.54070,48956
32.54882,48902
32.55693,51822
32.56507,48287
32.57318,52346
32.58132,47581
32.58943,47383
32.59755,47840
32.60568,50558
32.61380,47581
32.62193,47994
32.63005,51084
32.63817,52719
32.64630,56619
32.65442,67232
32.66255,67430
32.67067,74799
32.67878,66716
32.68692,63281
32.69503,64369
32.70315,54884
32.71128,55974
32.71940,52905
32.72753,51173
32.73565,51057
32.74377,47040
32.75190,47173
32.76002,48835
32.76815,47963
32.77627,47598
32.78438,49203
32.79252,50040
32.80063,45201
32.80877,43267
32.81688,43939
32.82500,45430
32.83313,47809
32.84125,45856
32.84937,46353
32.85750,48416
32.86562,50239
32.87375,54942
32.88187,58237
32.88998,64312
32.89812,70284
32.90623,77971
32.91437,82037
32.92248,80835
32.93060,76447
32.93873,66112
32.94685,57926
32.95497,51264
32.96310,51393
32.97122,51210
32.97935,58962
32.98747,61804
32.99558,68066
33.00372,76488
33.01183,72105
33.01997,72004
33.02808,68345
33.03620,61945
33.04433,64320
33.05245,55605
33.06058,60408
33.06870,66934
33.07682,74689
33.08495,80238
33.09307,82331
33.10118,87494
33.10932,93930
33.11743,91524
33.12557,89437
33.13368,86407
33.14180,74676
33.14993,67663
33.15805,64281
33.16618,56951
33.17430,58091
33.18242,58076
33.19055,54259
33.19867,57939
33.20678,55540
33.21492,55092
33.22303,52333
33.23117,54813
33.23928,54373
33.24740,53173
33.25553,52543
33.26365,50479
33.27178,53844
33.27990,53070
33.28802,55831
33.29615,55501
33.30427,51771
33.31240,52980
33.32052,57017
33.32863,59299
33.33677,55382
33.34488,50276
33.35300,56598
33.36113,63119
33.36925,61638
33.37738,59908
33.38550,55188
33.39362,55681
33.40175,50500
33.40987,53567
33.41800,47002
33.42612,47519
33.43423,52482
33.44237,49362
33.45048,47964
33.45862,45318
33.46673,46447
33.47485,46769
33.48298,47932
33.49110,48884
33.49922,50562
33.50735,53050
33.51547,46261
33.52360,49651
33.53172,54661
33.53983,54721
33.54797,52910
33.55608,56690
33.56422,55592
33.57233,54388
33.58045,55369
33.58858,57842
33.59670,47449
33.60482,46161
33.61295,45843
33.62107,50761
33.62920,48980
33.63732,51218
33.64543,49126
33.65357,48774
33.66168,55222
33.66982,51184
33.67793,52899
33.68605,50150
33.69418,48003
33.70230,46993
33.71043,43258
33.71855,47595
33.72667,47052
33.73480,44442
33.74292,46506
33.75103,46295
33.75917,45843
33.76728,45015
33.77542,44365
33.78353,47457
33.79165,45910
33.79978,46634
33.80790,47882
33.81603,46221
33.82415,46641
33.83227,49426
33.84040,49188
33.84852,45131
33.85665,45370
33.86477,51625
33.87288,51470
33.88102,54273
33.88913,59714
33.89725,57100
33.90538,60797
33.91350,61779
33.92163,64355
33.92975,52359
33.93787,55824
33.94600,59205
33.95412,51816
33.96225,51464
33.97037,43118
33.97848,46469
33.98662,45459
33.99473,47431
34.00285,47038
34.01098,48697
34.01910,45396
34.02723,46272
34.03535,50186
34.04347,45324
34.05160,49495
34.05972,48747
34.06785,51304
34.07597,52262
34.08408,48951
34.09222,52790
34.10033,52726
34.10847,55077
34.11658,51280
34.12470,51651
34.13283,53169
34.14095,51535
34.14907,53909
34.15720,49227
34.16532,49388
34.17345,54478
34.18157,49793
34.18968,53003
34.19782,56273
34.20593,55562
34.21407,51642
34.22218,51324
34.23030,51333
34.23843,54830
34.24655,51103
34.25467,52388
34.26280,49656
34.27092,52236
34.27905,46090
34.28717,49340
34.29528,49628
34.30342,53465
34.31153,50900
34.31967,50555
34.32778,51276
34.33590,52909
34.34403,50400
34.35215,51067
34.36028,47904
34.36840,49581
34.37652,50948
34.38465,50643
34.39277,50452
34.40088,51144
34.40902,53227
34.41713,48557
34.42527,48004
34.43338,47354
34.44150,51394
34.44963,54345
34.45775,53341
34.46588,48030
34.47400,52391
34.48212,48547
34.49025,52478
34.49837,52644
34.50650,55967
34.51462,61427
34.52273,69025
34.53087,78892
34.53898,88996
34.54710,90280
34.55523,95157
34.56335,97659
34.57148,100109
34.57960,97845
34.58772,89975
34.59585,84779
34.60397,76496
34.61210,74608
34.62022,72221
34.62833,68752
34.63647,65059
34.64458,66238
34.65272,65529
34.66083,65556
34.66895,63642
34.67708,57674
34.68520,60678
34.69332,54540
34.70145,56397
34.70957,58914
34.71770,53472
34.72582,56617
34.73393,55936
34.74207,57104
34.75018,57125
34.75832,58442
34.76643,55687
34.77455,63037
34.78268,60485
34.79080,63429
34.79892,56394
34.80705,58568
34.81517,59656
34.82330,55933
34.83142,57231
34.83953,60771
34.84767,62269
34.85578,60507
34.86392,57356
34.87203,61169
34.88015,58271
34.88828,56997
34.89640,59048
34.90453,57414
34.91265,58844
34.92077,58767
34.92890,58503
34.93702,59553
34.94513,63342
34.95327,63027
34.96138,65929
34.96952,67295
34.97763,71047
34.98575,68372
34.99388,63419
35.00200,64092
35.01013,65278
35.01825,55323
35.02637,56836
35.03450,58478
35.04262,58248
35.05073,53740
35.05887,57714
35.06698,53236
35.07512,57788
35.08323,54641
35.09135,55435
35.09948,54145
35.10760,51462
35.11573,50889
35.12385,52082
35.13197,51705
35.14010,54822
35.14822,53096
35.15635,53454
35.16447,55813
35.17258,57281
35.18072,52580
35.18883,53632
35.19695,55293
35.20508,48837
35.21320,53361
35.22133,50829
35.22945,49467
35.23757,51473
35.24570,52009
35.25382,48555
35.26195,52744
35.27007,52302
35.27818,53873
35.28632,55012
35.29443,50316
35.30257,53594
35.31068,56083
35.31880,49680
35.32693,48887
35.33505,51640
35.34317,51439
35.35130,48844
35.35942,48852
35.36755,50485
35.37567,54155
35.38378,55948
35.39192,66765
35.40003,80460
35.40817,91839
35.41628,104964
35.42440,124783
35.43253,123951
35.44065,117545
35.44877,114027
35.45690,97248
35.46502,84881
35.47315,69879
35.48127,69948
35.48938,66215
35.49752,63033
35.50563,62521
35.51377,62166
35.52188,57064
35.53000,61613
35.53813,58161
35.54625,54024
35.55438,58103
35.56250,55834
35.57062,54677
35.57875,53712
35.58687,52819
35.59498,56157
35.60312,52577
35.61123,58876
35.61937,55169
35.62748,53826
35.63560,51900
35.64373,57797
35.65185,61676
35.65998,57683
35.66810,53610
35.67622,56364
35.68435,59217
35.69247,55814
35.70060,60554
35.70872,59342
35.71683,57440
35.72497,57998
35.73308,59208
35.74120,59779
35.74933,66297
35.75745,66949
35.76558,65512
35.77370,67561
35.78182,68973
35.78995,63790
35.79807,63793
35.80620,57624
35.81432,55450
35.82243,57872
35.83057,56800
35.83868,55595
35.84680,56742
35.85493,58043
35.86305,54020
35.87118,51648
35.87930,51499
35.88742,49745
35.89555,50394
35.90367,52362
35.91180,55947
35.91992,53051
35.92803,51871
35.93617,51512
35.94428,51164
35.95242,53321
35.96053,58380
35.96865,52278
35.97678,55138
35.98490,57719
35.99302,54081
36.00115,53677
36.00927,60026
36.01740,56518
36.02552,57182
36.03363,57100
36.04177,62244
36.04988,56501
36.05802,54508
36.06613,52573
36.07425,58656
36.08238,58661
36.09050,55481
36.09862,59784
36.10675,56377
36.11487,54865
36.12300,55941
36.13112,59411
36.13923,60596
36.14737,56762
36.15548,58326
36.16362,59958
36.17173,56185
36.17985,61506
36.18798,56441
36.19610,57792
36.20423,57201
36.21235,51579
36.22047,61650
36.22860,56154
36.23672,55240
36.24483,52123
36.25297,53668
36.26108,54590
36.26922,53306
36.27733,61811
36.28545,61350
36.29358,65571
36.30170,71042
36.30983,76949
36.31795,76689
36.32607,76682
36.33420,72502
36.34232,69966
36.35045,64292
36.35857,56127
36.36668,59490
36.37482,61022
36.38293,55577
36.39105,57564
36.39918,60171
36.40730,59594
36.41543,59024
36.42355,54553
36.43167,55492
36.43980,61926
36.44792,59877
36.45605,63409
36.46417,59067
36.47228,60112
36.48042,59659
36.48853,60624
36.49665,57717
36.50478,60573
36.51290,60087
36.52103,62451
36.52915,58181
36.53727,60063
36.54540,58272
36.55352,57979
36.56165,60431
36.56977,56175
36.57788,60448
36.58602,61372
36.59413,60036
36.60227,58216
36.61038,55491
36.61850,57574
36.62663,64220
36.63475,64012
36.64287,60808
36.65100,61773
36.65912,63249
36.66725,64300
36.67537,60162
36.68348,56926
36.69162,60217
36.69973,59004
36.70787,56642
36.71598,58515
36.72410,62206
36.73223,63979
36.74035,63101
36.74848,55189
36.75660,58292
36.76472,58580
36.77285,63872
36.78097,59003
36.78908,59245
36.79722,57686
36.80533,58575
36.81347,63336
36.82158,59071
36.82970,61395
36.83783,57338
36.84595,58939
36.85408,57717
36.86220,60242
36.87032,58965
36.87845,58784
36.88657,61329
36.89468,62818
36.90282,54455
36.91093,54922
36.91907,59353
36.92718,61827
36.93530,62072
36.94343,61723
36.95155,76492
36.95968,79598
36.96780,72840
36.97592,75498
36.98405,75012
36.99217,77084
37.00030,72368
37.00842,63725
37.01653,67598
37.02467,63327
37.03278,61454
37.04090,61400
37.04903,62646
37.05715,61135
37.06528,60235
37.07340,65947
37.08152,58073
37.08965,65064
37.09777,66415
37.10590,64801
37.11402,66343
37.12213,62477
37.13027,58519
37.13838,59049
37.14652,58820
37.15463,64886
37.16275,62136
37.17088,60104
37.17900,64335
37.18712,64257
37.19525,62816
37.20337,64850
37.21150,62439
37.21962,63092
37.22773,63768
37.23587,63749
37.24398,61122
37.25212,63820
37.26023,61512
37.26835,60269
37.27648,58058
37.28460,62741
37.29272,62710
37.30085,60888
37.30897,61252
37.31710,72724
37.32522,81262
37.33333,80897
37.34147,88869
37.34958,92586
37.35772,95818
37.36583,93766
37.37395,92043
37.38208,91493
37.39020,85839
37.39833,85713
37.40645,83585
37.41457,73722
37.42270,79511
37.43082,79866
37.43893,75240
37.44707,81215
37.45518,75251
37.46332,75037
37.47143,75069
37.47955,81735
37.48768,72543
