Z:\data\JTB-E02\BACandBLUE\JTB-E18-005-08.D Wed Apr 10 13:01:57 2019
Start of data points
2.09532,129378
2.10345,130437
2.11157,121433
2.11970,123931
2.12782,133360
2.13593,131998
2.14407,138883
2.15218,144724
2.16032,148689
2.16843,153960
2.17655,157025
2.18468,155022
2.19280,149812
2.20092,154376
2.20905,153957
2.21717,156322
2.22530,156367
2.23342,153096
2.24153,148896
2.24967,149435
2.25778,157159
2.26592,152646
2.27403,150552
2.28215,162678
2.29028,181517
2.29840,181897
2.30653,177107
2.31465,181467
2.32277,174489
2.33090,174741
2.33902,176131
2.34713,171138
2.35527,177858
2.36338,173951
2.37152,174490
2.37963,174081
2.38775,174720
2.39588,175470
2.40400,177633
2.41213,173786
2.42025,175299
2.42837,176925
2.43650,174412
2.44462,177597
2.45273,173969
2.46087,178502
2.46898,175384
2.47712,184512
2.48523,178280
2.49335,189199
2.50148,177926
2.50960,179483
2.51773,172854
2.52585,185434
2.53397,182552
2.54210,185463
2.55022,186350
2.55835,183079
2.56647,181763
2.57458,177797
2.58272,184375
2.59083,177707
2.59895,186244
2.60708,172218
2.61520,183978
2.62333,186382
2.63145,182481
2.63957,180427
2.64770,179240
2.65582,191771
2.66395,187641
2.67207,180570
2.68018,181516
2.68832,194350
2.69643,178776
2.70457,182517
2.71268,178109
2.72080,182548
2.72893,181953
2.73705,184774
2.74517,182549
2.75330,177425
2.76142,182094
2.76955,182673
2.77767,177039
2.78578,180831
2.79392,186139
2.80203,182663
2.81017,184115
2.81828,174512
2.82640,183140
2.83453,172261
2.84265,178939
2.85078,175370
2.85890,173590
2.86702,173328
2.87515,174035
2.88327,175680
2.89138,175702
2.89952,174418
2.90763,176920
2.91577,177215
2.92388,181373
2.93200,175884
2.94013,176530
2.94825,177538
2.95638,181916
2.96450,175910
2.97262,181173
2.98075,181641
2.98887,175100
2.99698,182348
3.00512,188954
3.01323,185365
3.02137,177604
3.02948,189708
3.03760,181129
3.04573,176944
3.05385,187050
3.06198,183615
3.07010,174619
3.07822,170005
3.08635,175795
3.09447,179249
3.10260,180240
3.11072,187957
3.11883,188816
3.12697,184338
3.13508,187300
3.14320,189298
3.15133,179173
3.15945,187902
3.16758,183113
3.17570,189630
3.18382,182190
3.19195,179922
3.20007,179393
3.20820,175857
3.21632,175833
3.22443,184407
3.23257,173733
3.24068,180286
3.24880,186779
3.25693,181345
3.26505,179637
3.27318,181590
3.28130,183961
3.28942,183541
3.29755,186129
3.30567,191205
3.31380,207862
3.32192,230118
3.33003,267479
3.33817,289454
3.34628,295350
3.35442,295395
3.36253,299160
3.37065,291644
3.37878,284038
3.38690,278215
3.39502,273679
3.40315,269822
3.41127,275296
3.41940,268051
3.42752,258568
3.43563,256561
3.44377,252058
3.45188,240059
3.46002,246651
3.46813,239624
3.47625,237047
3.48438,231138
3.49250,234496
3.50063,216859
3.50875,219132
3.51687,223414
3.52500,209574
3.53312,215444
3.54123,213483
3.54937,208969
3.55748,206003
3.56562,206079
3.57373,200074
3.58185,194312
3.58998,199538
3.59810,197499
3.60623,197017
3.61435,210378
3.62247,194659
3.63060,192578
3.63872,186178
3.64683,190206
3.65497,204146
3.66308,197425
3.67122,193587
3.67933,196318
3.68745,192744
3.69558,199366
3.70370,198424
3.71183,193186
3.71995,198603
3.72807,188707
3.73620,191915
3.74432,194290
3.75245,197507
3.76057,186030
3.76868,192992
3.77682,186465
3.78493,187153
3.79305,190228
3.80118,192821
3.80930,187122
3.81743,181453
3.82555,188074
3.83367,176454
3.84180,187951
3.84992,187395
3.85805,183014
3.86617,187237
3.87428,182205
3.88242,184956
3.89053,186037
3.89867,185483
3.90678,182386
3.91490,184370
3.92303,174870
3.93115,184911
3.93927,183664
3.94740,187679
3.95552,180851
3.96365,188014
3.97177,187381
3.97988,188121
3.98802,187701
3.99613,190333
4.00427,184981
4.01238,183862
4.02050,190222
4.02863,191037
4.03675,195512
4.04487,198116
4.05300,201497
4.06112,193629
4.06925,192702
4.07737,187972
4.08548,187978
4.09362,186095
4.10173,184834
4.10987,178735
4.11798,181031
4.12610,183453
4.13423,183710
4.14235,185697
4.15048,181050
4.15860,185317
4.16672,174303
4.17485,179089
4.18297,179407
4.19108,186453
4.19922,186139
4.20733,185817
4.21547,184096
4.22358,189802
4.23170,184111
4.23983,188489
4.24795,197081
4.25608,188866
4.26420,194577
4.27232,192529
4.28045,191029
4.28857,193414
4.29668,188109
4.30482,190768
4.31293,187992
4.32107,181424
4.32918,183180
4.33730,188239
4.34543,178967
4.35355,178572
4.36168,174185
4.36980,187101
4.37792,178051
4.38605,183434
4.39417,190199
4.40230,186887
4.41042,176736
4.41853,187362
4.42667,191559
4.43478,178295
4.44290,176153
4.45103,179860
4.45915,184613
4.46728,180453
4.47540,181079
4.48352,175328
4.49165,175571
4.49977,184641
4.50790,181345
4.51602,179843
4.52413,181845
4.53227,174401
4.54038,179908
4.54852,182411
4.55663,180377
4.56475,175425
4.57288,173082
4.58100,184320
4.58912,177214
4.59725,172320
4.60537,181378
4.61350,175301
4.62162,180719
4.62973,179135
4.63787,181497
4.64598,178318
4.65412,179182
4.66223,174733
4.67035,175450
4.67848,178318
4.68660,180448
4.69472,171955
4.70285,178218
4.71097,176946
4.71910,170651
4.72722,169825
4.73533,180611
4.74347,171939
4.75158,173796
4.75972,175637
4.76783,169125
4.77595,173291
4.78408,184762
4.79220,180275
4.80033,178116
4.80845,168167
4.81657,173699
4.82470,174987
4.83282,176748
4.84093,173016
4.84907,178372
4.85718,172133
4.86532,179881
4.87343,175875
4.88155,177781
4.88968,175388
4.89780,175514
4.90593,178486
4.91405,173697
4.92217,180406
4.93030,171525
4.93842,167213
4.94655,177099
4.95467,176782
4.96278,179330
4.97092,202007
4.97903,215078
4.98715,228957
4.99528,232932
5.00340,235342
5.01153,228236
5.01965,233991
5.02777,228819
5.03590,226246
5.04402,223094
5.05215,214223
5.06027,213859
5.06838,207092
5.07652,213190
5.08463,207985
5.09275,207269
5.10088,196921
5.10900,194514
5.11713,195065
5.12525,198486
5.13337,193255
5.14150,189028
5.14962,186373
5.15775,189183
5.16587,182297
5.17398,184261
5.18212,186703
5.19023,185816
5.19837,177226
5.20648,186311
5.21460,182770
5.22273,180932
5.23085,184400
5.23897,179447
5.24710,173474
5.25522,174811
5.26335,176560
5.27147,180892
5.27958,173001
5.28772,170367
5.29583,165329
5.30397,164162
5.31208,163280
5.32020,170721
5.32833,169054
5.33645,163452
5.34457,159436
5.35270,166208
5.36082,168438
5.36895,160456
5.37707,163061
5.38518,163072
5.39332,164530
5.40143,163928
5.40957,156198
5.41768,166739
5.42580,166998
5.43393,160396
5.44205,153238
5.45018,160233
5.45830,159411
5.46642,159288
5.47455,160068
5.48267,163402
5.49078,156095
5.49892,166968
5.50703,152153
5.51517,162297
5.52328,158413
5.53140,154677
5.53953,156587
5.54765,161944
5.55578,155035
5.56390,154906
5.57202,152744
5.58015,153510
5.58827,158447
5.59640,156434
5.60452,152898
5.61263,154031
5.62077,154542
5.62888,156755
5.63700,154930
5.64513,159051
5.65325,158676
5.66138,153880
5.66950,153233
5.67762,162184
5.68575,151513
5.69387,154488
5.70200,167951
5.71012,159734
5.71823,149375
5.72637,149000
5.73448,152924
5.74260,154263
5.75073,147275
5.75885,161581
5.76698,148760
5.77510,156570
5.78322,154324
5.79135,150655
5.79947,149515
5.80760,148545
5.81572,155886
5.82383,152675
5.83197,146724
5.84008,150149
5.84822,145271
5.85633,150243
5.86445,153142
5.87258,148598
5.88070,152573
5.88882,147717
5.89695,148874
5.90507,142540
5.91320,128126
5.92132,110859
5.92943,105670
5.93757,103351
5.94568,102947
5.95382,97247
5.96193,101555
5.97005,100304
5.97818,100517
5.98630,97022
5.99443,102657
6.00255,101928
6.01067,101664
6.01880,97255
6.02692,100115
6.03503,94709
6.04317,100748
6.05128,97126
6.05942,102654
6.06753,95776
6.07565,96283
6.08378,95944
6.09190,96481
6.10003,99947
6.10815,93364
6.11627,96931
6.12440,101754
6.13252,100470
6.14063,100151
6.14877,100838
6.15688,103817
6.16502,109477
6.17313,113156
6.18125,102628
6.18938,103974
6.19750,113536
6.20563,109700
6.21375,110745
6.22187,106504
6.23000,112296
6.23812,108917
6.24625,112352
6.25437,114716
6.26248,115228
6.27062,111573
6.27873,111722
6.28685,118562
6.29498,114169
6.30310,114837
6.31123,115079
6.31935,117793
6.32747,109478
6.33560,106380
6.34372,111123
6.35185,104725
6.35997,105559
6.36808,109384
6.37622,103186
6.38433,97447
6.39247,97355
6.40058,101067
6.40870,102513
6.41683,103201
6.42495,95725
6.43307,97878
6.44120,100648
6.44932,96710
6.45745,98875
6.46557,98102
6.47368,96294
6.48182,96511
6.48993,98206
6.49807,98062
6.50618,101407
6.51430,95917
6.52243,95047
6.53055,95138
6.53867,95872
6.54680,92798
6.55492,98366
6.56305,100258
6.57117,97128
6.57928,97789
6.58742,99170
6.59553,95891
6.60367,95078
6.61178,93793
6.61990,90277
6.62803,101069
6.63615,94125
6.64428,92705
6.65240,92577
6.66052,93038
6.66865,93174
6.67677,98353
6.68488,89886
6.69302,88315
6.70113,90074
6.70927,89375
6.71738,89118
6.72550,91400
6.73363,99744
6.74175,94154
6.74988,85697
6.75800,90696
6.76612,85680
6.77425,90144
6.78237,96755
6.79048,91208
6.79862,95173
6.80673,93148
6.81487,91381
6.82298,88469
6.83110,89487
6.83923,88854
6.84735,86132
6.85548,83129
6.86360,79685
6.87172,67316
6.87985,61042
6.88797,55181
6.89610,55113
6.90422,51776
6.91233,53572
6.92047,54664
6.92858,52842
6.93670,53768
6.94483,56540
6.95295,53406
6.96108,52073
6.96920,56723
6.97732,53109
6.98545,54994
6.99357,51383
7.00170,51713
7.00982,53861
7.01793,56419
7.02607,56428
7.03418,55712
7.04232,55165
7.05043,49676
7.05855,50538
7.06668,54996
7.07480,53760
7.08292,50202
7.09105,52673
7.09917,56103
7.10730,56446
7.11542,56531
7.12353,56244
7.13167,50081
7.13978,52376
7.14792,56622
7.15603,54800
7.16415,52103
7.17228,51082
7.18040,53560
7.18852,53988
7.19665,55034
7.20477,52884
7.21290,50433
7.22102,53363
7.22913,54373
7.23727,53146
7.24538,48262
7.25352,53127
7.26163,51734
7.26975,51723
7.27788,54350
7.28600,57219
7.29413,52318
7.30225,51603
7.31037,52493
7.31850,50404
7.32662,53998
7.33473,49015
7.34287,51019
7.35098,55218
7.35912,50927
7.36723,51027
7.37535,49615
7.38348,51422
7.39160,51277
7.39973,52852
7.40785,48867
7.41597,48549
7.42410,57646
7.43222,52383
7.44035,53882
7.44847,58466
7.45658,54004
7.46472,50147
7.47283,52873
7.48095,53092
7.48908,51629
7.49720,51243
7.50533,50287
7.51345,51083
7.52157,49344
7.52970,49798
7.53782,58866
7.54595,48040
7.55407,51066
7.56218,49916
7.57032,52894
7.57843,48377
7.58655,52148
7.59468,49247
7.60280,55500
7.61093,51321
7.61905,51915
7.62717,58130
7.63530,54305
7.64342,53705
7.65155,53267
7.65967,55858
7.66778,52938
7.67592,53470
7.68403,52488
7.69217,54108
7.70028,53269
7.70840,52041
7.71653,53417
7.72465,57625
7.73277,47800
7.74090,50135
7.74902,48818
7.75715,48531
7.76527,53559
7.77338,52001
7.78152,51134
7.78963,51280
7.79777,48368
7.80588,52489
7.81400,51904
7.82213,49907
7.83025,51206
7.83837,51776
7.84650,55315
7.85462,50296
7.86275,51536
7.87087,48026
7.87898,49799
7.88712,48928
7.89523,48829
7.90337,48685
7.91148,49309
7.91960,51446
7.92773,50326
7.93585,51311
7.94398,49745
7.95210,50568
7.96022,49719
7.96835,50181
7.97647,53993
7.98458,58898
7.99272,70028
8.00083,73104
8.00897,73739
8.01708,83542
8.02520,83960
8.03333,86855
8.04145,81012
8.04958,84693
8.05770,82350
8.06582,86460
8.07395,83454
8.08207,85831
8.09020,86455
8.09832,87937
8.10643,83726
8.11457,81784
8.12268,87713
8.13080,88873
8.13893,85922
8.14705,82069
8.15518,88835
8.16330,82575
8.17142,87681
8.17955,91465
8.18767,81033
8.19580,88461
8.20392,89784
8.21203,93280
8.22017,87025
8.22828,86641
8.23642,89829
8.24453,86338
8.25265,85931
8.26078,88285
8.26890,87536
8.27702,86532
8.28515,87667
8.29327,82920
8.30140,90393
8.30952,84910
8.31763,87418
8.32577,90294
8.33388,87706
8.34202,83710
8.35013,82116
8.35825,82164
8.36638,87071
8.37450,79911
8.38262,86167
8.39075,85282
8.39887,84740
8.40700,86791
8.41512,85119
8.42323,85941
8.43137,84833
8.43948,85881
8.44762,90023
8.45573,88520
8.46385,88405
8.47198,91610
8.48010,90935
8.48823,86575
8.49635,91467
8.50447,88379
8.51260,87935
8.52072,92801
8.52883,85504
8.53697,93090
8.54508,86985
8.55322,89865
8.56133,88860
8.56945,85719
8.57758,86418
8.58570,83766
8.59383,86055
8.60195,87892
8.61007,87185
8.61820,86807
8.62632,83909
8.63443,86001
8.64257,87514
8.65068,85344
8.65882,89459
8.66693,88619
8.67505,89995
8.68318,86881
8.69130,95365
8.69943,83209
8.70755,90876
8.71567,88526
8.72380,89712
8.73192,86567
8.74005,88359
8.74817,87608
8.75628,90330
8.76442,87649
8.77253,89646
8.78065,92475
8.78878,88086
8.79690,97086
8.80503,100729
8.81315,108651
8.82127,109496
8.82940,114645
8.83752,107574
8.84565,104750
8.85377,102089
8.86188,104403
8.87002,100627
8.87813,94170
8.88627,84740
8.89438,89130
8.90250,89200
8.91063,86913
8.91875,89904
8.92687,88344
8.93500,86425
8.94312,86473
8.95125,86418
8.95937,81544
8.96748,87711
8.97562,84515
8.98373,82976
8.99187,82608
8.99998,83792
9.00810,83013
9.01623,80727
9.02435,78012
9.03247,77643
9.04060,75471
9.04872,81603
9.05685,78279
9.06497,75825
9.07308,78380
9.08122,75709
9.08933,78893
9.09747,75751
9.10558,71933
9.11370,77998
9.12183,72268
9.12995,72115
9.13808,67564
9.14620,74078
9.15432,74482
9.16245,71298
9.17057,72636
9.17868,75392
9.18682,68407
9.19493,72148
9.20307,73710
9.21118,71227
9.21930,69913
9.22743,70956
9.23555,72892
9.24368,69154
9.25180,69470
9.25992,71026
9.26805,68221
9.27617,64962
9.28430,66427
9.29242,65350
9.30053,68913
9.30867,69226
9.31678,67741
9.32490,69646
9.33303,73700
9.34115,64180
9.34928,68471
9.35740,69145
9.36552,69631
9.37365,64096
9.38177,65677
9.38990,65402
9.39802,64327
9.40613,64779
9.41427,62902
9.42238,62786
9.43050,60358
9.43863,64674
9.44675,68862
9.45488,64657
9.46300,67561
9.47112,64387
9.47925,68155
9.48737,60590
9.49550,64822
9.50362,61529
9.51173,62605
9.51987,59334
9.52798,66091
9.53612,62024
9.54423,61520
9.55235,66079
9.56048,56915
9.56860,55333
9.57672,46325
9.58485,50354
9.59297,47621
9.60110,43648
9.60922,43684
9.61733,48297
9.62547,47479
9.63358,44347
9.64172,45941
9.64983,46692
9.65795,44104
9.66608,47892
9.67420,43570
9.68232,45836
9.69045,43794
9.69857,42597
9.70670,40769
9.71482,43102
9.72293,44966
9.73107,43592
9.73918,42508
9.74732,37175
9.75543,41567
9.76355,43173
9.77168,42598
9.77980,45366
9.78793,44956
9.79605,41528
9.80417,39991
9.81230,36284
9.82042,39297
9.82853,39967
9.83667,42064
9.84478,44818
9.85292,43758
9.86103,42600
9.86915,42386
9.87728,43826
9.88540,39716
9.89353,39836
9.90165,41931
9.90977,39320
9.91790,42823
9.92602,41454
9.93415,44211
9.94227,44047
9.95038,39843
9.95852,40326
9.96663,43991
9.97475,36274
9.98288,44916
9.99100,39108
9.99913,38264
10.00725,41415
10.01537,40240
10.02350,42099
10.03162,48071
10.03975,43644
10.04787,43562
10.05598,42086
10.06412,44675
10.07223,46609
10.08035,44620
10.08848,41408
10.09660,40692
10.10473,44043
10.11285,41820
10.12097,42112
10.12910,38260
10.13722,39643
10.14535,41543
10.15347,40333
10.16158,38400
10.16972,38377
10.17783,39552
10.18597,38955
10.19408,39382
10.20220,40488
10.21033,40210
10.21845,41663
10.22657,37824
10.23470,40607
10.24282,36700
10.25095,39144
10.25907,40074
10.26718,39544
10.27532,40531
10.28343,38350
10.29157,39332
10.29968,37735
10.30780,42561
10.31593,42995
10.32405,45278
10.33218,43937
10.34030,41747
10.34842,44478
10.35655,47593
10.36467,43678
10.37278,45367
10.38092,41401
10.38903,40473
10.39717,41537
10.40528,43542
10.41340,41222
10.42153,45540
10.42965,41620
10.43778,41878
10.44590,46148
10.45402,44303
10.46215,41439
10.47027,42570
10.47838,42307
10.48652,40365
10.49463,42027
10.50277,39722
10.51088,41796
10.51900,39638
10.52713,40897
10.53525,41347
10.54338,40606
10.55150,43188
10.55962,43083
10.56775,37885
10.57587,38788
10.58400,34514
10.59212,38701
10.60023,39248
10.60837,42664
10.61648,39545
10.62460,37936
10.63273,36767
10.64085,42274
10.64898,43024
10.65710,38116
10.66522,37706
10.67335,37806
10.68147,41816
10.68960,36530
10.69772,39902
10.70583,42855
10.71397,39569
10.72208,41299
10.73022,39502
10.73833,41581
10.74645,36603
10.75458,40253
10.76270,41355
10.77082,39603
10.77895,39058
10.78707,39486
10.79520,39859
10.80332,37537
10.81143,38051
10.81957,38654
10.82768,37761
10.83582,38951
10.84393,41117
10.85205,39490
10.86018,42721
10.86830,40894
10.87642,40499
10.88455,48698
10.89267,37034
10.90080,39037
10.90892,38733
10.91703,44445
10.92517,40644
10.93328,40195
10.94142,42976
10.94953,39070
10.95765,41392
10.96578,37164
10.97390,42550
10.98203,41430
10.99015,39416
10.99827,38757
11.00640,44668
11.01452,40616
11.02263,39288
11.03077,40145
11.03888,39505
11.04702,36996
11.05513,40107
11.06325,41348
11.07138,39441
11.07950,39257
11.08763,44384
11.09575,38505
11.10387,39136
11.11200,39076
11.12012,36733
11.12823,39172
11.13637,40855
11.14448,41475
11.15262,39254
11.16073,44154
11.16885,39149
11.17698,41910
11.18510,40018
11.19323,43294
11.20135,37687
11.20947,41494
11.21760,37032
11.22572,40439
11.23385,40450
11.24197,38299
11.25008,37984
11.25822,39347
11.26633,38458
11.27445,41907
11.28258,38077
11.29070,42920
11.29883,40731
11.30695,37598
11.31507,39707
11.32320,36679
11.33132,40889
11.33945,40299
11.34757,41498
11.35568,37807
11.36382,39053
11.37193,38164
11.38007,36935
11.38818,38797
11.39630,42085
11.40443,37479
11.41255,37500
11.42067,39855
11.42880,40342
11.43692,40114
11.44505,39838
11.45317,36589
11.46128,40862
11.46942,38692
11.47753,38260
11.48567,42322
11.49378,39539
11.50190,36128
11.51003,36323
11.51815,40586
11.52627,37943
11.53440,42053
11.54252,40817
11.55065,39148
11.55877,39181
11.56688,37418
11.57502,36935
11.58313,36082
11.59127,37677
11.59938,38195
11.60750,37650
11.61563,37943
11.62375,41659
11.63188,40451
11.64000,41813
11.64812,40327
11.65625,38738
11.66437,38230
11.67248,36268
11.68062,38625
11.68873,38604
11.69687,38516
11.70498,42258
11.71310,38031
11.72123,37071
11.72935,40425
11.73748,43613
11.74560,39232
11.75372,37603
11.76185,36028
11.76997,37768
11.77810,38100
11.78622,40413
11.79433,36756
11.80247,36872
11.81058,38605
11.81870,39214
11.82683,39209
11.83495,39320
11.84308,38279
11.85120,40014
11.85932,37556
11.86745,40119
11.87557,35677
11.88370,38534
11.89182,39812
11.89993,37273
11.90807,36662
11.91618,39689
11.92430,36221
11.93243,35686
11.94055,40548
11.94868,37055
11.95680,39683
11.96492,37747
11.97305,36844
11.98117,38396
11.98930,37388
11.99742,44976
12.00553,41727
12.01367,42688
12.02178,43953
12.02992,45477
12.03803,43480
12.04615,40222
12.05428,46081
12.06240,39275
12.07052,37928
12.07865,39050
12.08677,37425
12.09490,41907
12.10302,37444
12.11113,38958
12.11927,44326
12.12738,42771
12.13552,34180
12.14363,38385
12.15175,40053
12.15988,41057
12.16800,38716
12.17612,38005
12.18425,41909
12.19237,36467
12.20050,37884
12.20862,40806
12.21673,35320
12.22487,37189
12.23298,39752
12.24112,38268
12.24923,36115
12.25735,41483
12.26548,39247
12.27360,40975
12.28173,38072
12.28985,33553
12.29797,38403
12.30610,37986
12.31422,37985
12.32233,41022
12.33047,39252
12.33858,41100
12.34672,39685
12.35483,39917
12.36295,36475
12.37108,35885
12.37920,35999
12.38733,39672
12.39545,39972
12.40357,40443
12.41170,36679
12.41982,37119
12.42795,38799
12.43607,35909
12.44418,35865
12.45232,35439
12.46043,40746
12.46855,40187
12.47668,37283
12.48480,35687
12.49293,34042
12.50105,34080
12.50917,36607
12.51730,36000
12.52542,36265
12.53355,36200
12.54167,32146
12.54978,39292
12.55792,34578
12.56603,35618
12.57415,34856
12.58228,36685
12.59040,38808
12.59853,35532
12.60665,38827
12.61477,36053
12.62290,33260
12.63102,34550
12.63915,36822
12.64727,36340
12.65538,34369
12.66352,35217
12.67163,33090
12.67977,36057
12.68788,39705
12.69600,36862
12.70413,31994
12.71225,33341
12.72037,35550
12.72850,40379
12.73662,33775
12.74475,37908
12.75287,32646
12.76098,31320
12.76912,32998
12.77723,34744
12.78537,37484
12.79348,34299
12.80160,36927
12.80973,32078
12.81785,34952
12.82598,35248
12.83410,35495
12.84222,34075
12.85035,35658
12.85847,39679
12.86658,35954
12.87472,40741
12.88283,35238
12.89097,36602
12.89908,34741
12.90720,31864
12.91533,31809
12.92345,32954
12.93158,31832
12.93970,32582
12.94782,36163
12.95595,36313
12.96407,37731
12.97218,36082
12.98032,38745
12.98843,37071
12.99657,36263
13.00468,36336
13.01280,37286
13.02093,38659
13.02905,38248
13.03718,39518
13.04530,41360
13.05342,34280
13.06155,36501
13.06967,41641
13.07780,35598
13.08592,34143
13.09403,34429
13.10217,33253
13.11028,37057
13.11840,32599
13.12653,36278
13.13465,38498
13.14278,36384
13.15090,38502
13.15902,38080
13.16715,37741
13.17527,40737
13.18340,34832
13.19152,36494
13.19963,37664
13.20777,37039
13.21588,36941
13.22400,39506
13.23213,35333
13.24025,39130
13.24838,36843
13.25650,35709
13.26462,39350
13.27275,35451
13.28087,34795
13.28900,37670
13.29712,34612
13.30523,37880
13.31337,38858
13.32148,35389
13.32962,38820
13.33773,32296
13.34585,36866
13.35398,38622
13.36210,37055
13.37022,39669
13.37835,37345
13.38647,36455
13.39460,35532
13.40272,41836
13.41083,41136
13.41897,36645
13.42708,36340
13.43522,33875
13.44333,35158
13.45145,37530
13.45958,36758
13.46770,35746
13.47583,36284
13.48395,35745
13.49207,36744
13.50020,37733
13.50832,40158
13.51643,40674
13.52457,39507
13.53268,41554
13.54082,42586
13.54893,43302
13.55705,43604
13.56518,41457
13.57330,39941
13.58143,45501
13.58955,38882
13.59767,46530
13.60580,43512
13.61392,43336
13.62205,39204
13.63017,43181
13.63828,43113
13.64642,38958
13.65453,43159
13.66265,42873
13.67078,43951
13.67890,44806
13.68703,44559
13.69515,45741
13.70327,42202
13.71140,40362
13.71952,43613
13.72765,42259
13.73577,41678
13.74388,41537
13.75202,46553
13.76013,42359
13.76825,46948
13.77638,48396
13.78450,48091
13.79263,47841
13.80075,43852
13.80887,45933
13.81700,47081
13.82512,43217
13.83325,46024
13.84137,44866
13.84948,49576
13.85762,45609
13.86573,47264
13.87387,43022
13.88198,50166
13.89010,45369
13.89823,43349
13.90635,46318
13.91447,45287
13.92260,45626
13.93072,43687
13.93885,47888
13.94697,43993
13.95508,46185
13.96322,42838
13.97133,45081
13.97947,48039
13.98758,42752
13.99570,51637
14.00383,51021
14.01195,45087
14.02007,46594
14.02820,45523
14.03632,44899
14.04445,46203
14.05257,46649
14.06068,49407
14.06882,48546
14.07693,53417
14.08507,66255
14.09318,73037
14.10130,78824
14.10943,85721
14.11755,88268
14.12568,86669
14.13380,89702
14.14192,89907
14.15005,90437
14.15817,91298
14.16628,90390
14.17442,98337
14.18253,90060
14.19067,101948
14.19878,94265
14.20690,97315
14.21503,100136
14.22315,102289
14.23128,100708
14.23940,100215
14.24752,92622
14.25565,90985
14.26377,85315
14.27190,79534
14.28002,75201
14.28813,73183
14.29627,73658
14.30438,73737
14.31250,66156
14.32063,66733
14.32875,65409
14.33688,66223
14.34500,61160
14.35312,59331
14.36125,54261
14.36937,51045
14.37750,49631
14.38562,42272
14.39373,41813
14.40187,43189
14.40998,41335
14.41810,37876
14.42623,43748
14.43435,41950
14.44248,43104
14.45060,42972
14.45872,44819
14.46685,40071
14.47497,43243
14.48310,38693
14.49122,41970
14.49933,36168
14.50747,41118
14.51558,41741
14.52372,38394
14.53183,43638
14.53995,40482
14.54808,41019
14.55620,39385
14.56432,39610
14.57245,39244
14.58057,40041
14.58870,37859
14.59682,38575
14.60493,37666
14.61307,41085
14.62118,39359
14.62932,41047
14.63743,38234
14.64555,41071
14.65368,38195
14.66180,42450
14.66993,39019
14.67805,42224
14.68617,39527
14.69430,40087
14.70242,38614
14.71053,37970
14.71867,38639
14.72678,39214
14.73492,41156
14.74303,37798
14.75115,35135
14.75928,42704
14.76740,39274
14.77553,38894
14.78365,37025
14.79177,39819
14.79990,36181
14.80802,38354
14.81613,37708
14.82427,38794
14.83238,39242
14.84052,42166
14.84863,43934
14.85675,39649
14.86488,38024
14.87300,41495
14.88113,40164
14.88925,38507
14.89737,42232
14.90550,40530
14.91362,36310
14.92175,40147
14.92987,37925
14.93798,37528
14.94612,36225
14.95423,38456
14.96235,37959
14.97048,38224
14.97860,33029
14.98673,35893
14.99485,42006
15.00297,37616
15.01110,36448
15.01922,40828
15.02735,36347
15.03547,38035
15.04358,39431
15.05172,41045
15.05983,40221
15.06795,36840
15.07608,36697
15.08420,41535
15.09233,37563
15.10045,38880
15.10857,39902
15.11670,35595
15.12482,37626
15.13295,36631
15.14107,37681
15.14918,37393
15.15732,38056
15.16543,40881
15.17357,38824
15.18168,37268
15.18980,35997
15.19793,34200
15.20605,35274
15.21417,35944
15.22230,37206
15.23042,35265
15.23855,42037
15.24667,35817
15.25478,32419
15.26292,34842
15.27103,33145
15.27917,35411
15.28728,35630
15.29540,36558
15.30353,36337
15.31165,32000
15.31978,30708
15.32790,33807
15.33602,40338
15.34415,33042
15.35227,38214
15.36038,34160
15.36852,35042
15.37663,32512
15.38477,37187
15.39288,37415
15.40100,38009
15.40913,35467
15.41725,35377
15.42538,35965
15.43350,36403
15.44162,35753
15.44975,37031
15.45787,32342
15.46598,38789
15.47412,35615
15.48223,33841
15.49037,38823
15.49848,38242
15.50660,35743
15.51473,34340
15.52285,39991
15.53098,35744
15.53910,36323
15.54722,31969
15.55535,36707
15.56347,36454
15.57160,37509
15.57972,33849
15.58783,35518
15.59597,37915
15.60408,40121
15.61220,34035
15.62033,33859
15.62845,33652
15.63658,30901
15.64470,37685
15.65282,30668
15.66095,33509
15.66907,34594
15.67720,36245
15.68532,34774
15.69343,37408
15.70157,35705
15.70968,32930
15.71782,37462
15.72593,37769
15.73405,35859
15.74218,34392
15.75030,32319
15.75842,32434
15.76655,35646
15.77467,38188
15.78280,38069
15.79092,40010
15.79903,34063
15.80717,36756
15.81528,35812
15.82342,34748
15.83153,36110
15.83965,36817
15.84778,38129
15.85590,37997
15.86402,36295
15.87215,37840
15.88027,37472
15.88840,36337
15.89652,39466
15.90463,32763
15.91277,37053
15.92088,34767
15.92902,39500
15.93713,38025
15.94525,35759
15.95338,35623
15.96150,31536
15.96963,39473
15.97775,37851
15.98587,39186
15.99400,41040
16.00212,36812
16.01023,38012
16.01837,36385
16.02648,35833
16.03462,38281
16.04273,35539
16.05085,39486
16.05898,40630
16.06710,35973
16.07523,33147
16.08335,35962
16.09147,38127
16.09960,39548
16.10772,40141
16.11585,39754
16.12397,40144
16.13208,37922
16.14022,37742
16.14833,39724
16.15645,39178
16.16458,39029
16.17270,38630
16.18083,38976
16.18895,39039
16.19707,36894
16.20520,36843
16.21332,37968
16.22145,39082
16.22957,40364
16.23768,37485
16.24582,34682
16.25393,37988
16.26205,38484
16.27018,37618
16.27830,38529
16.28643,35682
16.29455,35485
16.30267,38101
16.31080,35229
16.31892,38057
16.32705,36192
16.33517,39095
16.34328,41878
16.35142,39242
16.35953,42855
16.36767,38787
16.37578,41055
16.38390,37975
16.39203,38523
16.40015,42462
16.40827,38546
16.41640,41994
16.42452,36949
16.43265,39608
16.44077,39708
16.44888,40892
16.45702,38772
16.46513,38718
16.47327,40947
16.48138,39160
16.48950,40832
16.49763,36241
16.50575,37978
16.51387,37089
16.52200,35191
16.53012,34323
16.53825,37350
16.54637,37225
16.55448,39295
16.56262,44576
16.57073,44403
16.57887,37994
16.58698,37558
16.59510,37261
16.60323,39879
16.61135,41235
16.61948,38348
16.62760,37494
16.63572,40375
16.64385,37800
16.65197,38826
16.66008,35888
16.66822,37644
16.67633,36075
16.68447,40528
16.69258,38441
16.70070,38946
16.70883,38836
16.71695,36558
16.72508,35700
16.73320,37022
16.74132,38967
16.74945,42207
16.75757,38666
16.76570,38711
16.77382,38181
16.78193,35639
16.79007,32297
16.79818,35589
16.80630,37655
16.81443,38164
16.82255,38074
16.83068,42897
16.83880,38455
16.84692,36100
16.85505,34524
16.86317,36542
16.87130,40487
16.87942,41359
16.88753,37639
16.89567,34612
16.90378,34515
16.91190,38244
16.92003,37974
16.92815,39404
16.93628,37908
16.94440,41034
16.95252,40231
16.96065,36551
16.96877,39734
16.97690,39138
16.98502,42661
16.99313,38363
17.00127,36220
17.00938,37221
17.01752,42112
17.02563,36156
17.03375,39468
17.04188,40546
17.05000,42575
17.05812,38156
17.06625,35606
17.07437,36396
17.08250,41447
17.09062,37640
17.09873,35820
17.10687,39706
17.11498,40616
17.12312,39564
17.13123,38866
17.13935,38630
17.14748,38863
17.15560,44471
17.16373,47002
17.17185,42753
17.17997,41245
17.18810,40540
17.19622,44551
17.20433,44633
17.21247,45442
17.22058,44209
17.22872,43357
17.23683,44406
17.24495,46043
17.25308,42257
17.26120,44526
17.26933,43483
17.27745,44089
17.28557,47291
17.29370,45526
17.30182,40855
17.30993,45884
17.31807,46495
17.32618,40296
17.33432,50155
17.34243,41496
17.35055,45099
17.35868,45324
17.36680,45124
17.37493,47236
17.38305,44366
17.39117,46330
17.39930,48019
17.40742,45312
17.41555,49063
17.42367,45440
17.43178,44113
17.43992,45824
17.44803,46027
17.45615,47923
17.46428,44270
17.47240,48529
17.48053,42940
17.48865,46859
17.49677,46002
17.50490,44189
17.51302,41653
17.52115,41739
17.52927,46465
17.53738,42938
17.54552,48600
17.55363,42160
17.56175,45427
17.56988,46237
17.57800,42240
17.58613,46032
17.59425,44259
17.60237,45998
17.61050,45890
17.61862,44314
17.62675,42317
17.63487,39256
17.64298,41644
17.65112,44099
17.65923,42013
17.66737,46171
17.67548,44550
17.68360,43102
17.69173,44837
17.69985,46125
17.70797,42528
17.71610,44164
17.72422,41960
17.73235,41939
17.74047,45234
17.74858,38493
17.75672,44453
17.76483,42977
17.77297,37048
17.78108,38618
17.78920,42180
17.79733,43512
17.80545,42149
17.81358,38734
17.82170,38771
17.82982,42791
17.83795,43118
17.84607,39280
17.85418,38640
17.86232,43689
17.87043,43114
17.87857,40894
17.88668,41318
17.89480,41849
17.90293,35010
17.91105,38348
17.91918,37326
17.92730,41389
17.93542,38223
17.94355,36411
17.95167,35808
17.95980,34157
17.96792,37737
17.97603,40445
17.98417,38242
17.99228,45456
18.00040,37525
18.00853,39856
18.01665,38251
18.02478,42653
18.03290,36508
18.04102,36429
18.04915,38353
18.05727,39942
18.06540,41679
18.07352,44412
18.08163,45327
18.08977,44168
18.09788,48044
18.10600,47853
18.11413,42660
18.12225,47505
18.13038,45291
18.13850,43755
18.14662,42658
18.15475,49718
18.16287,46223
18.17100,43000
18.17912,43194
18.18723,45153
18.19537,37515
18.20348,41446
18.21162,40566
18.21973,42548
18.22785,41340
18.23598,39075
18.24410,38393
18.25222,35354
18.26035,32938
18.26847,37662
18.27660,38782
18.28472,40754
18.29283,40911
18.30097,37243
18.30908,40365
18.31722,37939
18.32533,40721
18.33345,36034
18.34158,38930
18.34970,37339
18.35782,40220
18.36595,41329
18.37407,35852
18.38220,33786
18.39032,37498
18.39843,37470
18.40657,37460
18.41468,40061
18.42282,38385
18.43093,40305
18.43905,38349
18.44718,39069
18.45530,38707
18.46343,42170
18.47155,41139
18.47967,35334
18.48780,38470
18.49592,43726
18.50403,37645
18.51217,39107
18.52028,37208
18.52842,39293
18.53653,37518
18.54465,35600
18.55278,39383
18.56090,37250
18.56903,35656
18.57715,41019
18.58527,39010
18.59340,40008
18.60152,35037
18.60963,41954
18.61777,31905
18.62588,38109
18.63402,38697
18.64213,39496
18.65025,41618
18.65838,36487
18.66650,38602
18.67463,40503
18.68275,39920
18.69087,42571
18.69900,39460
18.70712,37495
18.71525,39380
18.72337,41951
18.73148,39337
18.73962,38399
18.74773,36991
18.75585,37332
18.76398,39737
18.77210,36194
18.78023,32641
18.78835,37638
18.79647,40188
18.80460,44121
18.81272,36016
18.82085,43393
18.82897,39878
18.83708,36129
18.84522,40028
18.85333,38104
18.86147,37514
18.86958,39180
18.87770,34537
18.88583,38450
18.89395,37173
18.90207,41512
18.91020,41021
18.91832,38835
18.92645,38147
18.93457,35567
18.94268,38059
18.95082,40363
18.95893,38299
18.96707,43705
18.97518,39025
18.98330,42334
18.99143,43929
18.99955,41412
19.00768,41961
19.01580,38541
19.02392,45035
19.03205,43997
19.04017,46300
19.04828,42152
19.05642,41489
19.06453,44474
19.07267,47324
19.08078,45174
19.08890,43543
19.09703,43141
19.10515,45408
19.11328,48574
19.12140,47784
19.12952,46176
19.13765,47557
19.14577,48481
19.15388,43478
19.16202,45224
19.17013,45327
19.17827,46295
19.18638,48492
19.19450,46855
19.20263,47885
19.21075,45276
19.21888,43318
19.22700,49108
19.23512,46231
19.24325,43174
19.25137,44110
19.25950,45062
19.26762,38090
19.27573,44361
19.28387,44709
19.29198,41495
19.30010,45028
19.30823,43570
19.31635,42451
19.32448,46853
19.33260,43669
19.34072,45764
19.34885,41393
19.35697,41971
19.36510,46381
19.37322,45869
19.38133,45463
19.38947,45841
19.39758,44342
19.40570,50155
19.41383,47734
19.42195,50022
19.43008,52489
19.43820,56617
19.44632,54014
19.45445,53141
19.46257,59982
19.47070,55659
19.47882,59277
19.48693,65098
19.49507,78014
19.50318,90354
19.51132,105930
19.51943,111564
19.52755,114691
19.53568,99449
19.54380,86911
19.55192,78036
19.56005,60655
19.56817,56780
19.57630,52808
19.58442,48412
19.59253,51400
19.60067,47056
19.60878,50233
19.61692,52343
19.62503,52650
19.63315,50586
19.64128,59483
19.64940,56675
19.65753,61992
19.66565,63345
19.67377,68097
19.68190,67481
19.69002,70079
19.69813,62237
19.70627,61434
19.71438,60891
19.72252,59047
19.73063,57035
19.73875,54925
19.74688,52230
19.75500,51706
19.76313,48121
19.77125,50981
19.77937,48899
19.78750,57971
19.79562,55835
19.80373,48239
19.81187,54070
19.81998,52040
19.82812,50477
19.83623,51967
19.84435,52619
19.85248,54997
19.86060,54607
19.86873,55772
19.87685,59903
19.88497,67951
19.89310,60770
19.90122,67596
19.90935,71151
19.91747,66246
19.92558,76212
19.93372,75071
19.94183,71178
19.94995,67541
19.95808,71521
19.96620,67870
19.97433,66064
19.98245,64616
19.99057,69429
19.99870,70405
20.00682,62598
20.01495,63788
20.02307,62798
20.03118,64089
20.03932,60468
20.04743,64087
20.05557,61159
20.06368,60274
20.07180,63697
20.07993,58158
20.08805,59441
20.09617,61458
20.10430,61499
20.11242,62455
20.12055,61618
20.12867,61385
20.13678,61921
20.14492,61180
20.15303,59028
20.16117,61928
20.16928,57161
20.17740,62876
20.18553,65743
20.19365,70341
20.20177,69485
20.20990,66171
20.21802,69930
20.22615,65445
20.23427,73337
20.24238,73683
20.25052,83679
20.25863,81537
20.26677,94876
20.27488,100100
20.28300,101347
20.29113,103502
20.29925,108424
20.30738,96171
20.31550,93538
20.32362,87455
20.33175,81796
20.33987,74349
20.34798,69903
20.35612,63698
20.36423,62918
20.37237,60989
20.38048,60852
20.38860,60466
20.39673,60919
20.40485,65229
20.41298,57199
20.42110,60666
20.42922,60123
20.43735,67628
20.44547,63931
20.45358,65141
20.46172,62570
20.46983,59613
20.47797,62645
20.48608,60354
20.49420,60474
20.50233,55331
20.51045,56934
20.51858,52999
20.52670,52445
20.53482,54562
20.54295,51567
20.55107,51495
20.55920,49523
20.56732,47970
20.57543,52489
20.58357,53827
20.59168,49906
20.59980,51752
20.60793,48894
20.61605,50572
20.62418,49892
20.63230,49555
20.64042,49871
20.64855,50375
20.65667,49021
20.66480,49668
20.67292,51050
20.68103,51993
20.68917,46512
20.69728,47987
20.70542,52680
20.71353,47962
20.72165,48933
20.72978,50914
20.73790,47435
20.74602,50170
20.75415,53362
20.76227,48093
20.77040,52368
20.77852,47636
20.78663,47303
20.79477,49326
20.80288,49317
20.81102,52236
20.81913,49921
20.82725,48962
20.83538,48284
20.84350,53112
20.85162,53089
20.85975,48460
20.86787,49365
20.87600,50015
20.88412,45787
20.89223,48864
20.90037,48900
20.90848,45974
20.91662,50260
20.92473,45609
20.93285,53095
20.94098,48210
20.94910,49281
20.95723,48782
20.96535,48037
20.97347,49969
20.98160,50125
20.98972,46198
20.99783,48310
21.00597,45401
21.01408,43660
21.02222,44936
21.03033,45362
21.03845,46411
21.04658,44085
21.05470,46423
21.06283,47873
21.07095,45506
21.07907,47798
21.08720,46273
21.09532,45781
21.10345,45777
21.11157,46862
21.11968,44722
21.12782,47699
21.13593,50775
21.14405,45563
21.15218,49327
21.16030,48478
21.16843,53777
21.17655,48960
21.18467,47499
21.19280,51747
21.20092,47570
21.20905,47678
21.21717,50940
21.22528,51730
21.23342,50008
21.24153,52851
21.24965,48661
21.25778,52178
21.26590,52273
21.27403,51575
21.28215,49469
21.29027,51477
21.29840,52295
21.30652,48550
21.31465,52195
21.32277,51183
21.33088,51911
21.33902,52130
21.34713,46882
21.35527,48669
21.36338,47077
21.37150,51471
21.37963,48422
21.38775,50338
21.39587,45994
21.40400,47394
21.41212,49553
21.42025,46322
21.42837,47767
21.43648,49147
21.44462,49509
21.45273,45891
21.46087,48834
21.46898,45767
21.47710,45247
21.48523,44924
21.49335,48154
21.50148,43656
21.50960,45783
21.51772,47340
21.52585,43914
21.53397,48332
21.54208,44791
21.55022,48235
21.55833,49948
21.56647,47116
21.57458,52426
21.58270,49948
21.59083,52922
21.59895,49192
21.60708,53424
21.61520,53622
21.62332,52591
21.63145,59404
21.63957,56845
21.64768,60046
21.65582,66213
21.66393,63776
21.67207,59023
21.68018,56559
21.68830,55878
21.69643,55647
21.70455,52062
21.71268,58953
21.72080,52112
21.72892,49377
21.73705,52613
21.74517,54283
21.75330,54494
21.76142,52724
21.76953,54667
21.77767,49628
21.78578,52633
21.79390,49535
21.80203,52736
21.81015,54325
21.81828,56951
21.82640,59319
21.83452,58196
21.84265,67651
21.85077,64942
21.85890,62741
21.86702,65025
21.87513,62192
21.88327,58421
21.89138,52308
21.89950,51606
21.90763,54936
21.91575,50818
21.92388,47597
21.93200,45811
21.94012,48121
21.94825,48307
21.95637,51014
21.96450,50988
21.97262,48637
21.98073,49236
21.98887,47055
21.99698,49669
22.00512,46477
22.01323,44941
22.02135,45277
22.02948,49664
22.03760,42652
22.04572,44648
22.05385,50441
22.06197,46535
22.07010,45899
22.07822,44492
22.08633,47644
22.09447,48650
22.10258,44089
22.11072,48909
22.11883,47148
22.12695,48294
22.13508,45646
22.14320,46002
22.15133,48861
22.15945,49103
22.16757,44098
22.17570,52587
22.18382,51013
22.19193,50094
22.20007,45383
22.20818,47027
22.21632,50412
22.22443,52157
22.23255,47865
22.24068,50196
22.24880,53690
22.25693,53543
22.26505,51329
22.27317,52824
22.28130,49913
22.28942,47384
22.29753,49106
22.30567,49259
22.31378,45515
22.32192,48079
22.33003,56923
22.33815,46864
22.34628,44337
22.35440,46863
22.36253,48729
22.37065,52069
22.37877,46203
22.38690,43310
22.39502,46603
22.40315,47713
22.41127,49980
22.41938,45700
22.42752,49496
22.43563,45854
22.44375,47062
22.45188,50372
22.46000,50334
22.46813,44048
22.47625,49687
22.48437,48066
22.49250,51380
22.50062,46956
22.50875,45952
22.51687,44677
22.52498,42735
22.53312,46208
22.54123,43861
22.54937,43000
22.55748,43984
22.56560,44401
22.57373,48334
22.58185,48182
22.58997,46282
22.59810,47727
22.60622,44996
22.61435,47758
22.62247,45720
22.63058,49331
22.63872,46742
22.64683,52596
22.65497,48464
22.66308,53882
22.67120,48373
22.67933,47584
22.68745,46015
22.69557,50892
22.70370,49413
22.71182,45281
22.71995,50986
22.72807,46027
22.73618,50662
22.74432,48314
22.75243,55710
22.76057,46499
22.76868,47625
22.77680,51524
22.78493,46335
22.79305,49391
22.80118,47265
22.80930,49125
22.81742,52878
22.82555,49816
22.83367,50064
22.84178,54570
22.84992,57174
22.85803,58788
22.86617,60241
22.87428,67043
22.88240,64834
22.89053,68872
22.89865,65328
22.90678,73489
22.91490,69045
22.92302,68249
22.93115,74558
22.93927,72224
22.94738,70483
22.95552,67366
22.96363,68936
22.97177,65753
22.97988,60955
22.98800,60652
22.99613,62363
23.00425,56024
23.01238,54950
23.02050,59886
23.02862,51763
23.03675,49952
23.04487,51491
23.05300,48893
23.06112,45979
23.06923,47200
23.07737,52986
23.08548,48266
23.09360,47935
23.10173,47990
23.10985,48443
23.11798,49594
23.12610,47402
23.13422,46002
23.14235,46213
23.15047,46938
23.15860,49595
23.16672,44614
23.17483,47089
23.18297,44675
23.19108,44241
23.19922,43079
23.20733,49337
23.21545,45519
23.22358,43545
23.23170,45655
23.23982,47216
23.24795,46172
23.25607,45671
23.26420,42825
23.27232,45073
23.28043,46500
23.28857,46169
23.29668,47041
23.30482,48384
23.31293,48169
23.32105,46030
23.32918,43298
23.33730,50463
23.34543,46141
23.35355,46763
23.36167,51061
23.36980,49318
23.37792,51943
23.38603,50926
23.39417,50090
23.40228,46782
23.41042,46091
23.41853,49538
23.42665,50913
23.43478,47689
23.44290,48625
23.45103,46941
23.45915,50934
23.46727,50192
23.47540,51777
23.48352,46571
23.49163,50413
23.49977,50437
23.50788,49317
23.51602,49561
23.52413,50480
23.53225,46444
23.54038,47683
23.54850,47758
23.55663,46408
23.56475,43381
23.57287,46851
23.58100,50996
23.58912,53047
23.59725,51935
23.60537,49099
23.61348,53313
23.62162,54125
23.62973,54425
23.63785,51358
23.64598,53639
23.65410,53052
23.66223,53671
23.67035,53312
23.67847,52620
23.68660,51888
23.69472,54796
23.70285,48909
23.71097,49086
23.71908,50901
23.72722,44785
23.73533,48290
23.74345,49224
23.75158,50992
23.75970,45289
23.76783,60974
23.77595,68494
23.78407,78336
23.79220,92580
23.80032,110807
23.80845,112386
23.81657,116753
23.82468,111580
23.83282,96945
23.84093,85723
23.84907,79763
23.85718,75755
23.86530,75102
23.87343,62788
23.88155,61110
23.88967,57569
23.89780,59650
23.90592,62005
23.91405,57762
23.92217,57441
23.93028,52049
23.93842,54505
23.94653,57513
23.95467,52593
23.96278,54104
23.97090,52609
23.97903,52131
23.98715,53406
23.99528,51025
24.00340,52425
24.01152,49968
24.01965,54123
24.02777,54692
24.03588,53358
24.04402,53751
24.05213,62272
24.06027,54652
24.06838,49927
24.07650,47996
24.08463,48377
24.09275,48122
24.10088,46621
24.10900,49095
24.11712,50011
24.12525,48121
24.13337,48678
24.14148,56597
24.14962,54133
24.15773,54146
24.16587,52196
24.17398,52245
24.18210,53558
24.19023,48362
24.19835,51278
24.20648,47734
24.21460,49513
24.22272,51368
24.23085,55735
24.23897,54862
24.24710,50181
24.25522,52387
24.26333,51235
24.27147,53827
24.27958,48740
24.28770,43283
24.29583,50402
24.30395,45870
24.31208,46585
24.32020,49781
24.32832,47189
24.33645,48803
24.34457,48911
24.35270,47220
24.36082,50398
24.36893,47527
24.37707,50492
24.38518,57672
24.39332,62975
24.40143,71163
24.40955,82406
24.41768,87616
24.42580,87628
24.43392,74801
24.44205,63264
24.45017,55093
24.45830,54905
24.46642,52404
24.47453,50939
24.48267,49747
24.49078,49723
24.49892,55082
24.50703,58820
24.51515,55227
24.52328,59151
24.53140,58684
24.53952,53928
24.54765,54395
24.55577,53792
24.56390,49456
24.57202,46884
24.58013,45091
24.58827,48023
24.59638,49731
24.60452,47171
24.61263,50063
24.62075,47679
24.62888,49309
24.63700,48264
24.64513,47652
24.65325,48463
24.66137,48150
24.66950,48630
24.67762,44106
24.68573,46749
24.69387,50118
24.70198,46196
24.71012,46937
24.71823,47421
24.72635,43495
24.73448,45762
24.74260,46698
24.75073,45602
24.75885,46768
24.76697,45883
24.77510,42790
24.78322,46189
24.79133,44591
24.79947,44247
24.80758,44189
24.81572,41645
24.82383,42961
24.83195,45059
24.84008,45596
24.84820,44212
24.85633,45326
24.86445,43755
24.87257,41895
24.88070,46401
24.88882,47043
24.89695,49080
24.90507,45722
24.91318,47820
24.92132,44528
24.92943,44294
24.93755,45491
24.94568,48905
24.95380,44004
24.96193,45516
24.97005,45263
24.97817,42481
24.98630,43427
24.99442,45310
25.00255,42625
25.01067,42937
25.01878,43179
25.02692,44767
25.03503,44998
25.04317,42158
25.05128,46031
25.05940,39811
25.06753,45621
25.07565,48817
25.08377,47790
25.09190,43036
25.10002,43520
25.10815,44807
25.11627,47766
25.12438,52271
25.13252,51471
25.14063,57979
25.14877,54561
25.15688,61263
25.16500,62001
25.17313,56609
25.18125,52485
25.18937,48023
25.19750,47980
25.20562,49198
25.21375,48778
25.22187,49336
25.22998,49546
25.23812,48228
25.24623,47082
25.25437,46727
25.26248,47929
25.27060,46658
25.27873,45472
25.28685,48562
25.29498,51634
25.30310,46272
25.31122,52323
25.31935,46712
25.32747,50450
25.33558,54295
25.34372,51476
25.35183,47561
25.35997,46868
25.36808,47057
25.37620,47969
25.38433,45781
25.39245,43079
25.40058,44792
25.40870,41302
25.41682,42178
25.42495,44507
25.43307,44956
25.44120,43356
25.44932,45864
25.45743,43068
25.46557,42080
25.47368,46051
25.48180,46203
25.48993,49928
25.49805,44452
25.50618,45709
25.51430,45342
25.52242,43332
25.53055,46029
25.53867,41190
25.54680,42081
25.55492,42482
25.56303,43157
25.57117,43432
25.57928,40424
25.58740,43147
25.59553,43121
25.60365,41029
25.61178,39355
25.61990,46283
25.62802,43776
25.63615,41518
25.64427,44366
25.65240,40469
25.66052,41642
25.66863,42674
25.67677,45253
25.68488,39950
25.69302,42457
25.70113,41520
25.70925,44395
25.71738,45744
25.72550,46054
25.73362,41578
25.74175,40745
25.74987,41635
25.75800,40322
25.76612,40532
25.77423,45801
25.78237,42244
25.79048,45020
25.79862,44896
25.80673,43031
25.81485,43448
25.82298,45400
25.83110,45381
25.83923,39213
25.84735,42820
25.85547,41890
25.86360,41852
25.87172,48444
25.87983,42634
25.88797,42426
25.89608,38283
25.90422,39681
25.91233,39719
25.92045,40912
25.92858,42863
25.93670,43306
25.94483,45657
25.95295,42680
25.96107,42865
25.96920,40373
25.97732,41112
25.98543,42539
25.99357,43381
26.00168,44621
26.00982,40528
26.01793,48296
26.02605,45498
26.03418,42522
26.04230,45451
26.05043,42504
26.05855,39647
26.06667,41690
26.07480,41771
26.08292,41213
26.09105,39486
26.09917,42929
26.10728,46075
26.11542,46837
26.12353,46079
26.13165,47712
26.13978,49433
26.14790,47941
26.15603,51386
26.16415,48988
26.17227,47698
26.18040,48765
26.18852,44688
26.19665,49982
26.20477,44219
26.21288,43809
26.22102,44041
26.22913,43641
26.23725,42268
26.24538,40959
26.25350,44510
26.26163,41862
26.26975,44045
26.27787,42995
26.28600,42955
26.29412,43961
26.30225,42146
26.31037,45565
26.31848,42467
26.32662,39986
26.33473,43966
26.34287,41292
26.35098,48983
26.35910,43743
26.36723,46206
26.37535,43156
26.38347,42419
26.39160,43246
26.39972,50331
26.40785,44263
26.41597,49977
26.42408,51008
26.43222,44367
26.44033,40730
26.44847,44952
26.45658,40774
26.46470,42072
26.47283,40103
26.48095,41627
26.48908,42787
26.49720,44314
26.50532,41745
26.51345,39639
26.52157,40722
26.52968,41115
26.53782,44896
26.54593,45055
26.55407,41619
26.56218,42987
26.57030,43568
26.57843,45873
26.58655,40830
26.59468,41855
26.60280,44223
26.61092,41678
26.61905,39764
26.62717,37483
26.63528,42794
26.64342,42179
26.65153,42441
26.65967,46206
26.66778,43859
26.67590,42002
26.68403,41869
26.69215,42704
26.70028,37788
26.70840,40749
26.71652,39513
26.72465,39822
26.73277,45302
26.74090,42435
26.74902,40419
26.75713,38103
26.76527,42115
26.77338,42248
26.78150,41967
26.78963,41362
26.79775,38424
26.80588,40360
26.81400,39556
26.82212,36673
26.83025,43439
26.83837,40487
26.84650,41806
26.85462,40972
26.86273,39607
26.87087,41506
26.87898,43132
26.88712,40221
26.89523,41802
26.90335,39062
26.91148,42357
26.91960,38753
26.92772,39502
26.93585,37778
26.94397,42431
26.95210,41020
26.96022,41262
26.96833,42433
26.97647,42790
26.98458,39235
26.99272,37687
27.00083,41415
27.00895,39079
27.01708,43575
27.02520,44830
27.03332,43480
27.04145,45106
27.04957,46810
27.05770,41549
27.06582,42868
27.07393,46169
27.08207,42897
27.09018,41637
27.09832,41832
27.10643,46413
27.11455,40850
27.12268,43143
27.13080,43291
27.13893,44014
27.14705,41220
27.15517,39180
27.16330,41971
27.17142,40790
27.17953,45216
27.18767,42303
27.19578,36688
27.20392,45479
27.21203,43170
27.22015,45371
27.22828,44042
27.23640,43052
27.24453,41727
27.25265,42082
27.26077,45202
27.26890,40524
27.27702,39312
27.28513,40412
27.29327,41032
27.30138,42912
27.30952,43765
27.31763,41895
27.32575,37820
27.33388,38576
27.34200,41083
27.35013,41429
27.35825,40953
27.36637,37844
27.37450,41522
27.38262,42574
27.39075,43191
27.39887,42762
27.40698,37451
27.41512,35682
27.42323,38557
27.43135,39394
27.43948,38550
27.44760,41112
27.45573,40205
27.46385,38036
27.47197,37863
27.48010,39071
27.48822,38935
27.49635,37761
27.50447,38414
27.51258,40663
27.52072,41118
27.52883,37209
27.53697,45944
27.54508,43779
27.55320,42182
27.56133,40292
27.56945,43873
27.57757,41708
27.58570,39374
27.59382,38660
27.60195,39795
27.61007,40703
27.61818,39196
27.62632,41644
27.63443,43211
27.64257,42582
27.65068,44701
27.65880,44258
27.66693,38883
27.67505,40312
27.68317,39113
27.69130,37954
27.69942,39332
27.70755,39564
27.71567,40833
27.72378,40657
27.73192,38423
27.74003,39274
27.74817,38654
27.75628,41456
27.76440,40205
27.77253,37761
27.78065,41068
27.78878,43833
27.79690,45088
27.80502,45060
27.81315,41791
27.82127,41746
27.82938,42560
27.83752,36535
27.84563,41745
27.85377,40939
27.86188,39774
27.87000,40087
27.87813,39725
27.88625,43826
27.89438,46868
27.90250,40006
27.91062,42665
27.91875,42022
27.92687,41673
27.93500,38631
27.94312,38893
27.95123,37517
27.95937,36198
27.96748,40233
27.97560,39799
27.98373,38743
27.99185,41069
27.99998,37577
28.00810,36054
28.01622,39565
28.02435,40597
28.03247,37903
28.04060,41062
28.04872,42951
28.05683,39609
28.06497,39490
28.07308,40030
28.08120,38306
28.08933,39022
28.09745,39078
28.10558,43164
28.11370,41451
28.12182,40313
28.12995,40158
28.13807,43750
28.14620,42678
28.15432,40091
28.16243,38242
28.17057,44314
28.17868,40695
28.18682,39079
28.19493,39551
28.20305,46185
28.21118,39595
28.21930,48298
28.22742,45925
28.23555,51217
28.24367,46998
28.25180,49458
28.25992,47919
28.26803,44563
28.27617,46227
28.28428,47180
28.29242,47184
28.30053,41839
28.30865,48272
28.31678,45418
28.32490,44793
28.33302,42809
28.34115,41406
28.34927,40973
28.35740,42725
28.36552,44205
28.37363,43819
28.38177,41179
28.38988,41748
28.39802,43773
28.40613,43974
28.41425,44319
28.42238,44994
28.43050,45275
28.43863,45829
28.44675,46598
28.45487,43316
28.46300,45833
28.47112,43435
28.47923,41780
28.48737,41247
28.49548,40178
28.50362,41621
28.51173,45749
28.51985,43773
28.52798,43279
28.53610,43595
28.54423,44307
28.55235,43035
28.56047,47450
28.56860,47400
28.57672,51447
28.58485,46226
28.59297,50536
28.60108,51590
28.60922,53703
28.61733,49801
28.62545,56077
28.63358,52854
28.64170,57125
28.64983,61703
28.65795,57954
28.66607,57541
28.67420,59938
28.68232,57368
28.69045,51022
28.69857,59996
28.70668,46782
28.71482,45780
28.72293,46156
28.73107,47810
28.73918,45724
28.74730,45452
28.75543,47505
28.76355,49038
28.77167,52644
28.77980,57907
28.78792,62713
28.79605,59680
28.80417,61635
28.81228,57283
28.82042,52038
28.82853,46899
28.83667,48546
28.84478,44840
28.85290,47473
28.86103,43800
28.86915,45998
28.87727,46753
28.88540,45300
28.89352,47947
28.90165,47612
28.90977,44631
28.91788,44287
28.92602,46933
28.93413,47765
28.94227,43903
28.95038,46461
28.95850,44792
28.96663,44680
28.97475,47095
28.98288,45519
28.99100,46578
28.99912,41641
29.00725,39835
29.01537,44470
29.02348,44105
29.03162,42568
29.03973,46336
29.04787,41903
29.05598,43193
29.06410,42738
29.07223,45867
29.08035,42798
29.08848,41947
29.09660,45015
29.10472,46487
29.11285,49284
29.12097,47794
29.12908,45515
29.13722,45860
29.14533,46333
29.15347,45726
29.16158,47792
29.16970,46571
29.17783,48613
29.18595,48345
29.19408,50727
29.20220,50060
29.21032,54446
29.21845,51990
29.22657,57891
29.23470,50381
29.24282,58686
29.25093,59443
29.25907,58775
29.26718,60615
29.27530,62445
29.28343,64531
29.29155,56517
29.29968,49938
29.30780,52311
29.31592,48510
29.32405,46308
29.33217,47568
29.34030,51981
29.34842,49170
29.35653,48209
29.36467,51808
29.37278,47061
29.38092,47843
29.38903,50724
29.39715,51196
29.40528,49753
29.41340,54487
29.42152,49463
29.42965,51515
29.43777,48613
29.44590,52623
29.45402,51050
29.46213,53822
29.47027,50586
29.47838,56427
29.48652,54045
29.49463,56874
29.50275,59298
29.51088,59177
29.51900,60616
29.52712,56282
29.53525,53196
29.54337,50809
29.55150,49000
29.55962,50500
29.56773,48118
29.57587,48708
29.58398,49339
29.59212,48059
29.60023,47569
29.60835,47209
29.61648,45331
29.62460,50595
29.63273,48853
29.64085,47473
29.64897,49453
29.65710,51913
29.66522,46423
29.67333,46513
29.68147,42052
29.68958,44102
29.69772,47558
29.70583,46942
29.71395,46227
29.72208,44091
29.73020,44331
29.73833,47244
29.74645,42986
29.75457,45402
29.76270,48546
29.77082,41662
29.77895,40806
29.78707,47494
29.79518,43990
29.80332,45617
29.81143,43315
29.81955,48028
29.82768,42877
29.83580,46785
29.84393,42255
29.85205,44016
29.86017,41893
29.86830,45701
29.87642,48098
29.88455,47007
29.89267,45879
29.90078,47466
29.90892,46296
29.91703,46162
29.92515,45825
29.93328,49299
29.94140,44678
29.94953,46291
29.95765,46172
29.96577,44482
29.97390,46895
29.98202,48248
29.99015,46779
29.99827,49693
30.00638,49538
30.01452,46917
30.02263,50184
30.03077,51860
30.03888,48052
30.04700,45367
30.05513,50533
30.06325,49917
30.07137,44931
30.07950,50440
30.08762,48646
30.09575,45563
30.10387,50061
30.11198,46358
30.12012,49152
30.12823,53374
30.13637,50890
30.14448,50886
30.15260,49015
30.16073,48764
30.16885,48523
30.17697,42791
30.18510,50621
30.19322,53934
30.20135,53286
30.20947,47444
30.21758,48152
30.22572,45309
30.23383,45366
30.24197,49658
30.25008,41863
30.25820,49007
30.26633,45579
30.27445,46179
30.28258,44538
30.29070,47849
30.29882,47410
30.30695,45183
30.31507,44943
30.32318,47910
30.33132,41950
30.33943,46041
30.34757,44400
30.35568,44961
30.36380,42807
30.37193,47189
30.38005,43221
30.38818,44258
30.39630,43222
30.40442,46888
30.41255,47668
30.42067,44779
30.42880,43954
30.43692,44234
30.44503,44712
30.45317,44361
30.46128,44996
30.46940,42943
30.47753,47894
30.48565,42835
30.49378,42215
30.50190,47029
30.51002,44865
30.51815,45730
30.52627,42699
30.53440,45227
30.54252,44215
30.55063,43133
30.55877,44150
30.56688,43782
30.57500,48081
30.58313,46136
30.59125,45279
30.59938,44648
30.60750,47756
30.61562,42110
30.62375,44812
30.63187,42074
30.64000,43116
30.64812,43545
30.65623,47561
30.66437,42147
30.67248,45893
30.68062,44540
30.68873,44633
30.69685,44159
30.70498,46586
30.71310,44904
30.72122,47738
30.72935,44471
30.73747,40852
30.74560,50556
30.75372,45109
30.76183,47061
30.76997,47046
30.77808,50223
30.78622,49886
30.79433,48044
30.80245,51969
30.81058,52841
30.81870,48585
30.82683,45538
30.83495,46432
30.84307,45572
30.85120,46942
30.85932,47769
30.86743,46592
30.87557,46506
30.88368,47307
30.89182,49998
30.89993,47218
30.90805,47184
30.91618,42519
30.92430,41497
30.93243,44768
30.94055,43609
30.94867,46739
30.95680,44623
30.96492,45721
30.97303,43286
30.98117,52867
30.98928,53178
30.99742,50726
31.00553,51855
31.01365,51033
31.02178,50645
31.02990,51466
31.03803,55303
31.04615,53854
31.05427,52863
31.06240,51524
31.07052,49444
31.07865,49930
31.08677,50930
31.09488,53286
31.10302,54738
31.11113,51032
31.11925,57699
31.12738,56562
31.13550,49407
31.14363,52840
31.15175,52897
31.15987,49444
31.16800,49285
31.17612,50035
31.18425,47871
31.19237,51272
31.20048,60221
31.20862,64607
31.21673,68037
31.22485,71125
31.23298,68943
31.24110,66182
31.24923,66555
31.25735,59650
31.26547,56624
31.27360,59081
31.28172,53531
31.28985,50776
31.29797,54508
31.30608,52059
31.31422,53705
31.32233,51101
31.33047,46980
31.33858,47475
31.34670,47312
31.35483,50435
31.36295,51160
31.37107,55090
31.37920,48583
31.38732,52420
31.39545,49798
31.40357,48486
31.41168,56822
31.41982,52240
31.42793,51131
31.43607,51404
31.44418,53692
31.45230,51609
31.46043,58818
31.46855,51386
31.47668,52861
31.48480,52864
31.49292,51455
31.50105,47309
31.50917,50373
31.51728,53045
31.52542,48241
31.53353,52110
31.54167,50501
31.54978,55731
31.55790,54237
31.56603,46579
31.57415,48393
31.58228,53287
31.59040,48377
31.59852,53181
31.60665,51354
31.61477,52377
31.62288,51474
31.63102,56367
31.63913,52196
31.64727,50753
31.65538,52705
31.66350,51779
31.67163,53045
31.67975,56479
31.68788,49342
31.69600,53500
31.70412,47150
31.71225,49313
31.72037,49188
31.72850,52300
31.73662,49201
31.74473,49063
31.75287,55614
31.76098,56381
31.76910,58138
31.77723,56924
31.78535,66775
31.79348,68406
31.80160,65031
31.80972,66250
31.81785,65749
31.82597,69234
31.83410,65416
31.84222,66113
31.85033,65549
31.85847,66243
31.86658,66736
31.87472,65748
31.88283,65919
31.89095,62425
31.89908,59477
31.90720,63902
31.91532,57396
31.92345,52891
31.93157,50925
31.93970,50565
31.94782,54195
31.95593,57909
31.96407,59691
31.97218,59572
31.98032,56248
31.98843,59167
31.99655,55889
32.00468,56893
32.01280,55300
32.02092,57462
32.02905,59917
32.03717,58469
32.04530,55728
32.05342,57221
32.06153,55636
32.06967,60500
32.07778,61682
32.08592,58477
32.09403,60081
32.10215,57089
32.11028,62288
32.11840,56309
32.12653,59403
32.13465,58013
32.14277,51963
32.15090,56811
32.15902,54520
32.16713,55147
32.17527,53186
32.18338,49255
32.19152,52487
32.19963,56572
32.20775,53918
32.21588,53864
32.22400,55110
32.23213,50622
32.24025,54543
32.24837,54080
32.25650,50412
32.26462,52139
32.27275,55998
32.28087,53786
32.28898,58452
32.29712,50992
32.30523,50932
32.31335,53019
32.32148,55825
32.32960,55114
32.33773,57500
32.34585,53773
32.35397,49998
32.36210,55312
32.37022,52080
32.37835,56410
32.38647,54137
32.39458,56118
32.40272,53206
32.41083,56454
32.41895,56026
32.42708,51044
32.43520,54045
32.44333,56094
32.45145,50610
32.45957,51336
32.46770,52335
32.47582,55426
32.48395,54063
32.49207,50523
32.50018,54710
32.50832,50960
32.51643,50892
32.52457,50988
32.53268,54257
32.54080,54311
32.54893,51848
32.55705,53219
32.56517,55611
32.57330,51568
32.58142,54314
32.58955,52694
32.59767,53155
32.60578,47649
32.61392,48167
32.62203,50741
32.63017,50067
32.63828,54672
32.64640,52125
32.65453,58494
32.66265,67054
32.67077,66515
32.67890,79027
32.68702,72604
32.69515,74979
32.70327,71904
32.71138,70047
32.71952,71975
32.72763,66301
32.73577,67917
32.74388,63982
32.75200,55081
32.76013,56965
32.76825,50109
32.77638,56784
32.78450,56397
32.79262,52960
32.80075,52275
32.80887,50316
32.81698,52740
32.82512,56097
32.83323,49821
32.84137,52575
32.84948,52494
32.85760,52245
32.86573,53058
32.87385,47867
32.88198,51556
32.89010,55607
32.89822,48696
32.90635,52359
32.91447,53404
32.92260,55394
32.93072,56155
32.93883,52044
32.94697,49461
32.95508,50580
32.96320,51698
32.97133,58239
32.97945,50887
32.98758,53710
32.99570,50868
33.00382,49369
33.01195,52392
33.02007,47343
33.02820,52190
33.03632,51492
33.04443,48929
33.05257,50344
33.06068,52406
33.06880,50443
33.07693,51309
33.08505,53633
33.09318,53226
33.10130,61496
33.10942,63764
33.11755,67712
33.12567,65345
33.13380,69441
33.14192,67139
33.15003,56139
33.15817,58577
33.16628,56815
33.17442,57587
33.18253,57376
33.19065,56938
33.19878,55076
33.20690,54818
33.21502,57594
33.22315,58114
33.23127,53612
33.23940,59305
33.24752,51760
33.25563,61125
33.26377,55551
33.27188,56818
33.28002,52176
33.28813,56258
33.29625,51369
33.30438,54594
33.31250,55125
33.32063,55914
33.32875,52768
33.33687,51309
33.34500,52598
33.35312,50229
33.36123,49530
33.36937,51636
33.37748,55370
33.38562,57244
33.39373,55654
33.40185,50024
33.40998,54176
33.41810,55704
33.42623,58153
33.43435,55507
33.44247,51981
33.45060,53424
33.45872,54582
33.46683,54665
33.47497,52730
33.48308,50331
33.49122,54619
33.49933,54132
33.50745,57608
33.51558,52578
33.52370,54888
33.53183,49010
33.53995,51521
33.54807,48508
33.55620,52682
33.56432,53300
33.57245,52859
33.58057,50255
33.58868,50245
33.59682,52771
33.60493,51235
33.61305,57105
33.62118,51148
33.62930,52950
33.63743,47619
33.64555,51774
33.65367,52888
33.66180,54899
33.66992,57739
33.67805,50768
33.68617,51415
33.69428,55653
33.70242,54063
33.71053,52080
33.71865,55850
33.72678,51201
33.73490,56795
33.74303,54587
33.75115,53439
33.75927,53668
33.76740,54295
33.77552,55237
33.78365,53333
33.79177,58793
33.79988,54791
33.80802,52936
33.81613,54891
33.82427,54846
33.83238,54024
33.84050,55935
33.84863,53601
33.85675,52936
33.86487,57597
33.87300,59965
33.88112,55223
33.88925,63513
33.89737,63761
33.90548,61353
33.91362,61134
33.92173,63018
33.92987,60465
33.93798,58430
33.94610,62645
33.95423,62209
33.96235,59140
33.97048,62779
33.97860,58632
33.98672,59887
33.99485,61869
34.00297,55683
34.01108,59380
34.01922,58141
34.02733,59121
34.03547,56314
34.04358,56334
34.05170,59388
34.05983,57587
34.06795,58447
34.07608,62611
34.08420,56464
34.09232,55659
34.10045,56571
34.10857,50597
34.11670,54387
34.12482,58483
34.13293,54698
34.14107,58860
34.14918,57730
34.15730,59885
34.16543,55416
34.17355,58208
34.18168,54345
34.18980,59423
34.19792,58088
34.20605,58348
34.21417,59005
34.22230,57323
34.23042,56441
34.23853,55599
34.24667,56177
34.25478,56197
34.26290,55721
34.27103,57949
34.27915,53882
34.28728,50703
34.29540,58665
34.30352,57963
34.31165,57312
34.31977,51054
34.32790,54140
34.33602,60049
34.34413,54735
34.35227,57312
34.36038,56595
34.36852,57394
34.37663,58522
34.38475,60878
34.39288,55241
34.40100,55080
34.40912,59095
34.41725,58769
34.42537,54774
34.43350,59897
34.44162,58417
34.44973,55120
34.45787,59520
34.46598,56867
34.47412,61735
34.48223,59738
34.49035,60364
34.49848,61937
34.50660,55651
34.51472,55185
34.52285,60403
34.53097,57812
34.53910,60446
34.54722,59677
34.55533,59680
34.56347,60853
34.57158,62611
34.57972,68126
34.58783,64743
34.59595,68162
34.60408,66636
34.61220,64750
34.62033,65232
34.62845,63917
34.63657,68105
34.64470,62935
34.65282,62346
34.66093,64786
34.66907,61086
34.67718,62692
34.68532,59178
34.69343,62505
34.70155,61931
34.70968,63751
34.71780,61222
34.72593,60384
34.73405,61911
34.74217,63599
34.75030,64846
34.75842,58791
34.76655,60523
34.77467,63850
34.78278,65368
34.79092,61533
34.79903,61597
34.80715,61330
34.81528,62562
34.82340,58773
34.83153,61984
34.83965,62309
34.84777,62268
34.85590,61073
34.86402,66583
34.87215,64420
34.88027,62341
34.88838,60395
34.89652,64675
34.90463,64191
34.91275,63650
34.92088,63898
34.92900,66400
34.93713,65336
34.94525,67057
34.95337,71185
34.96150,71419
34.96962,70990
34.97775,72239
34.98587,70447
34.99398,69365
35.00212,69392
35.01023,72572
35.01837,73931
35.02648,71005
35.03460,70128
35.04273,67095
35.05085,75014
35.05897,76578
35.06710,70925
35.07522,71476
35.08335,66521
35.09147,71265
35.09958,70202
35.10772,64773
35.11583,65976
35.12397,65740
35.13208,65829
35.14020,59878
35.14833,63518
35.15645,68119
35.16458,73590
35.17270,66135
35.18082,68826
35.18895,66368
35.19707,65868
35.20518,59660
35.21332,64240
35.22143,62018
35.22957,61459
35.23768,63070
35.24580,61180
35.25393,72061
35.26205,66720
35.27018,73030
35.27830,69919
35.28642,71193
35.29455,70807
35.30267,69508
35.31078,65876
35.31892,66938
35.32703,64251
35.33517,59996
35.34328,62349
35.35140,61336
35.35953,64674
35.36765,67346
35.37578,68017
35.38390,62202
35.39202,64348
35.40015,65424
35.40827,63578
35.41640,67495
35.42452,70395
35.43263,68927
35.44077,68469
35.44888,65089
35.45700,70073
35.46513,69176
35.47325,72132
35.48138,64787
35.48950,65329
35.49762,60120
35.50575,63494
35.51387,62110
35.52200,59853
35.53012,68042
35.53823,65129
35.54637,62325
35.55448,62308
35.56260,63061
35.57073,68199
35.57885,65187
35.58698,68236
35.59510,65321
35.60322,64698
35.61135,62182
35.61947,62544
35.62760,57404
35.63572,63149
35.64383,62849
35.65197,61921
35.66008,62276
35.66822,61277
35.67633,67011
35.68445,65078
35.69258,70360
35.70070,70567
35.70882,70307
35.71695,69225
35.72507,69288
35.73320,67074
35.74132,66609
35.74943,65891
35.75757,69749
35.76568,66092
35.77382,67203
35.78193,65856
35.79005,69414
35.79818,65724
35.80630,65537
35.81443,66800
35.82255,67544
35.83067,64788
35.83880,70079
35.84692,74775
35.85503,65200
35.86317,64804
35.87128,69176
35.87942,66172
35.88753,67287
35.89565,66072
35.90378,66354
35.91190,71725
35.92003,70563
35.92815,66046
35.93627,68222
35.94440,64313
35.95252,59818
35.96063,66969
35.96877,72018
35.97688,65255
35.98502,64639
35.99313,65201
36.00125,66212
36.00938,72804
36.01750,69792
36.02563,68084
36.03375,69279
36.04187,71710
36.05000,69167
36.05812,68067
36.06625,68062
36.07437,68338
36.08248,71709
36.09062,66530
36.09873,65300
36.10685,61712
36.11498,62333
36.12310,69448
36.13123,63118
36.13935,65668
36.14747,65671
36.15560,68041
36.16372,70985
36.17185,70587
36.17997,67455
36.18808,70710
36.19622,69142
36.20433,69553
36.21247,67603
36.22058,65715
36.22870,67096
36.23683,66301
36.24495,60943
36.25307,72319
36.26120,65053
36.26932,71676
36.27745,66619
36.28557,66563
36.29368,64053
36.30182,69606
36.30993,64255
36.31807,69384
36.32618,69849
36.33430,72984
36.34243,72833
36.35055,74621
36.35867,66448
36.36680,66852
36.37492,68406
36.38305,68681
36.39117,62192
36.39928,66143
36.40742,75024
36.41553,70205
36.42367,65840
36.43178,67790
36.43990,67838
36.44803,68675
36.45615,68895
36.46428,70122
36.47240,70248
36.48052,71276
36.48865,68704
36.49677,62601
36.50488,67620
36.51302,68165
36.52113,65988
36.52927,68625
36.53738,70525
36.54550,66491
36.55363,71491
36.56175,68910
36.56988,64458
36.57800,68814
36.58612,66551
36.59425,66101
36.60237,64936
36.61048,64437
36.61862,67266
36.62673,64997
36.63487,70640
36.64298,72067
36.65110,73800
36.65923,69321
36.66735,72686
36.67548,71796
36.68360,72652
36.69172,71373
36.69985,69591
36.70797,72661
36.71610,71374
36.72422,68410
36.73233,64404
36.74047,67730
36.74858,69840
36.75670,64906
36.76483,64208
36.77295,65461
36.78108,71887
36.78920,65884
36.79732,67655
36.80545,61788
36.81357,62103
36.82170,59899
36.82982,62181
36.83793,61215
36.84607,58428
36.85418,63010
36.86232,64393
36.87043,63782
36.87855,67028
36.88668,65260
36.89480,66436
36.90292,62766
36.91105,63451
36.91917,69002
36.92730,66449
36.93542,64498
36.94353,63585
36.95167,62760
36.95978,69140
36.96792,69167
36.97603,68114
36.98415,65637
36.99228,66013
37.00040,70358
37.00852,61861
37.01665,59999
37.02477,64387
37.03290,66785
37.04102,70530
37.04913,64490
37.05727,65253
37.06538,67857
37.07352,66050
37.08163,65080
37.08975,67493
37.09788,63502
37.10600,72845
37.11413,67695
37.12225,68371
37.13037,76624
37.13850,77048
37.14662,77397
37.15473,70780
37.16287,72722
37.17098,75146
37.17912,73276
37.18723,69033
37.19535,71954
37.20348,67383
37.21160,68646
37.21973,72531
37.22785,69261
37.23597,64378
37.24410,70176
37.25222,73153
37.26035,73221
37.26847,68219
37.27658,67835
37.28472,66958
37.29283,70625
37.30095,72989
37.30908,71810
37.31720,70572
37.32533,67501
37.33345,71906
37.34157,75173
37.34970,74569
37.35782,76629
37.36595,78743
37.37407,77205
37.38218,75625
37.39032,73924
37.39843,75705
37.40655,78771
37.41468,74658
37.42280,75909
37.43093,74104
37.43905,76077
37.44717,76053
37.45530,75134
37.46342,74059
37.47155,78178
37.47967,75216
37.48778,74390
