C:\MassHunter\GCMS\1\data\JTB-E18\JTB-E18-026-08.D Tue Sep 17 14:54:35 2019
Start of data points
2.09533,205513
2.10345,190084
2.11158,189417
2.11970,184286
2.12783,192196
2.13595,186675
2.14407,216808
2.15220,233451
2.16032,203554
2.16845,172518
2.17657,166150
2.18468,162378
2.19282,162455
2.20093,155600
2.20905,163052
2.21718,160431
2.22530,154788
2.23343,146553
2.24155,146922
2.24967,149626
2.25780,154596
2.26592,148136
2.27405,149224
2.28217,146005
2.29028,162686
2.29842,183002
2.30653,383993
2.31467,748355
2.32278,689466
2.33090,402165
2.33903,276636
2.34715,276855
2.35527,243686
2.36340,209436
2.37152,179331
2.37965,171002
2.38777,167794
2.39588,163652
2.40402,154711
2.41213,150892
2.42027,147107
2.42838,142129
2.43650,145927
2.44463,140270
2.45275,142927
2.46088,145956
2.46900,135186
2.47712,145082
2.48525,143896
2.49337,151010
2.50148,157627
2.50962,171991
2.51773,228737
2.52587,445618
2.53398,693379
2.54210,949794
2.55023,2488038
2.55835,6248981
2.56648,7684202
2.57460,5169340
2.58272,2552401
2.59085,1401810
2.59897,978106
2.60708,759702
2.61522,640671
2.62333,535499
2.63147,457131
2.63958,399750
2.64770,371298
2.65583,335283
2.66395,315059
2.67208,306986
2.68020,288989
2.68832,282439
2.69645,256054
2.70457,251629
2.71270,240182
2.72082,227883
2.72893,228453
2.73707,232960
2.74518,232902
2.75330,221723
2.76143,205675
2.76955,196387
2.77768,198259
2.78580,183849
2.79392,181491
2.80205,189624
2.81017,244645
2.81830,587118
2.82642,1816059
2.83453,4044480
2.84267,5566853
2.85078,5107222
2.85890,3642553
2.86703,2418315
2.87515,1726293
2.88328,1327529
2.89140,1221795
2.89952,1294681
2.90765,1328645
2.91577,1157358
2.92390,1084400
2.93202,1734886
2.94013,3202805
2.94827,3804086
2.95638,2867303
2.96452,1628362
2.97263,1015984
2.98075,779829
2.98888,682053
2.99700,618737
3.00512,558557
3.01325,519608
3.02137,480263
3.02950,446506
3.03762,424874
3.04573,416928
3.05387,389678
3.06198,385511
3.07012,373571
3.07823,356567
3.08635,350554
3.09448,343717
3.10260,342541
3.11072,328264
3.11885,316657
3.12697,317265
3.13510,313583
3.14322,316348
3.15133,342212
3.15947,571626
3.16758,1146541
3.17572,1923666
3.18383,2083504
3.19195,1536076
3.20008,940388
3.20820,624229
3.21633,486977
3.22445,413143
3.23257,389916
3.24070,362042
3.24882,349045
3.25693,323953
3.26507,321422
3.27318,312038
3.28132,313212
3.28943,307754
3.29755,304351
3.30568,300998
3.31380,303434
3.32193,293741
3.33005,275189
3.33817,272715
3.34630,259595
3.35442,257931
3.36255,268191
3.37067,258891
3.37878,256605
3.38692,261348
3.39503,256998
3.40315,252274
3.41128,245369
3.41940,238356
3.42753,230896
3.43565,232551
3.44377,231722
3.45190,225574
3.46002,236794
3.46815,228557
3.47627,219605
3.48438,225499
3.49252,224965
3.50063,224465
3.50877,217629
3.51688,214127
3.52500,213208
3.53313,213969
3.54125,200837
3.54937,203974
3.55750,202885
3.56562,196849
3.57375,199472
3.58187,199053
3.58998,201119
3.59812,198087
3.60623,194349
3.61437,194837
3.62248,201216
3.63060,196830
3.63873,207859
3.64685,210426
3.65497,205064
3.66310,207513
3.67122,199208
3.67935,185388
3.68747,194071
3.69558,196388
3.70372,198342
3.71183,205000
3.71997,209250
3.72808,288347
3.73620,425302
3.74433,550255
3.75245,538450
3.76058,409645
3.76870,306580
3.77682,249613
3.78495,231666
3.79307,220722
3.80118,223901
3.80932,338484
3.81743,701451
3.82557,1286010
3.83368,1607432
3.84180,1387696
3.84993,993828
3.85805,706317
3.86618,548391
3.87430,455993
3.88242,380292
3.89055,340929
3.89867,314204
3.90678,297204
3.91492,277328
3.92303,264998
3.93117,249743
3.93928,237741
3.94740,224671
3.95553,226480
3.96365,225128
3.97178,223626
3.97990,215333
3.98802,211937
3.99615,205901
4.00427,197059
4.01240,197342
4.02052,201760
4.02863,189927
4.03677,191728
4.04488,194198
4.05300,201527
4.06113,211182
4.06925,216203
4.07738,210688
4.08550,207563
4.09362,198085
4.10175,185855
4.10987,185892
4.11800,185671
4.12612,180288
4.13423,186639
4.14237,181314
4.15048,180896
4.15862,176174
4.16673,173871
4.17485,176491
4.18298,177423
4.19110,175379
4.19922,176010
4.20735,168552
4.21547,165677
4.22360,168524
4.23172,167171
4.23983,164290
4.24797,164782
4.25608,169097
4.26422,157990
4.27233,161066
4.28045,160108
4.28858,165261
4.29670,166025
4.30482,159839
4.31295,162310
4.32107,165819
4.32920,161466
4.33732,163435
4.34543,158805
4.35357,154787
4.36168,156635
4.36982,157908
4.37793,156413
4.38605,153643
4.39418,157450
4.40230,151710
4.41043,150681
4.41855,157589
4.42667,157685
4.43480,160496
4.44292,160496
4.45103,164258
4.45917,161139
4.46728,153630
4.47542,153575
4.48353,155014
4.49165,159848
4.49978,154391
4.50790,154941
4.51603,159217
4.52415,157945
4.53227,154210
4.54040,155118
4.54852,155844
4.55665,157531
4.56477,160092
4.57288,160277
4.58102,151547
4.58913,155915
4.59725,155812
4.60538,154670
4.61350,191212
4.62163,303445
4.62975,567322
4.63787,966915
4.64600,1316576
4.65412,1403049
4.66225,1242029
4.67037,964098
4.67848,740094
4.68662,582758
4.69473,491608
4.70285,427498
4.71098,387130
4.71910,364711
4.72723,332928
4.73535,322892
4.74347,325540
4.75160,323723
4.75972,373939
4.76785,409634
4.77597,404779
4.78408,382916
4.79222,337926
4.80033,300998
4.80847,295395
4.81658,283870
4.82470,290307
4.83283,332131
4.84095,371944
4.84907,391254
4.85720,360999
4.86532,321533
4.87345,303894
4.88157,306202
4.88968,329884
4.89782,350260
4.90593,324843
4.91407,294208
4.92218,259619
4.93030,258264
4.93843,249673
4.94655,249468
4.95467,252123
4.96280,246192
4.97092,232327
4.97905,228072
4.98717,227441
4.99528,224672
5.00342,223557
5.01153,236802
5.01967,214448
5.02778,214946
5.03590,213222
5.04403,207065
5.05215,211005
5.06028,200181
5.06840,200573
5.07652,196386
5.08465,198421
5.09277,197189
5.10088,194406
5.10902,192028
5.11713,198710
5.12527,199681
5.13338,195357
5.14150,196319
5.14963,189973
5.15775,192142
5.16588,191541
5.17400,197122
5.18212,204208
5.19025,194441
5.19837,194595
5.20650,196287
5.21462,193969
5.22273,195540
5.23087,184584
5.23898,190051
5.24710,184575
5.25523,192054
5.26335,196192
5.27148,200197
5.27960,193458
5.28772,206192
5.29585,210539
5.30397,216375
5.31210,211262
5.32022,197985
5.32833,200153
5.33647,188161
5.34458,183709
5.35270,183380
5.36083,178086
5.36895,171784
5.37708,183779
5.38520,189329
5.39332,196623
5.40145,198849
5.40957,217371
5.41770,231984
5.42582,238629
5.43393,232087
5.44207,231374
5.45018,223133
5.45832,233964
5.46643,246610
5.47455,245036
5.48268,229979
5.49080,217074
5.49892,233099
5.50705,301082
5.51517,487098
5.52330,778272
5.53142,1064051
5.53953,1213061
5.54767,1084279
5.55578,832355
5.56392,567804
5.57203,402203
5.58015,314651
5.58828,271141
5.59640,247890
5.60453,246545
5.61265,277071
5.62077,347212
5.62890,482236
5.63702,578486
5.64513,632305
5.65327,571164
5.66138,476445
5.66952,368289
5.67763,309143
5.68575,266179
5.69388,236354
5.70200,219772
5.71013,216459
5.71825,207589
5.72637,206208
5.73450,195654
5.74262,196585
5.75073,194774
5.75887,190592
5.76698,193499
5.77512,178157
5.78323,181040
5.79135,170981
5.79948,180425
5.80760,172139
5.81573,171541
5.82385,179592
5.83197,172774
5.84010,171486
5.84822,166203
5.85635,172392
5.86447,174916
5.87258,169507
5.88072,175759
5.88883,172513
5.89695,189032
5.90508,190682
5.91320,201687
5.92133,195541
5.92945,190489
5.93757,180078
5.94570,174698
5.95382,150452
5.96195,159089
5.97007,154577
5.97818,149175
5.98632,159089
5.99443,155969
6.00257,162374
6.01068,167613
6.01880,159790
6.02693,167387
6.03505,176781
6.04317,173120
6.05130,174075
6.05942,177043
6.06755,181842
6.07567,175757
6.08378,188604
6.09192,191856
6.10003,196901
6.10817,202610
6.11628,192618
6.12440,187975
6.13253,185325
6.14065,187998
6.14877,196102
6.15690,189495
6.16502,206203
6.17315,189449
6.18127,202477
6.18938,203322
6.19752,207849
6.20563,220283
6.21377,215490
6.22188,215253
6.23000,215469
6.23813,221171
6.24625,215855
6.25438,216558
6.26250,221941
6.27062,231747
6.27875,226632
6.28687,234150
6.29498,228362
6.30312,228849
6.31123,229066
6.31937,215814
6.32748,173953
6.33560,163528
6.34373,152829
6.35185,147827
6.35998,149454
6.36810,141334
6.37622,136560
6.38435,135505
6.39247,128296
6.40058,128817
6.40872,134144
6.41683,127638
6.42497,128752
6.43308,130649
6.44120,130539
6.44933,141675
6.45745,157601
6.46558,191234
6.47370,220233
6.48182,239001
6.48995,224975
6.49807,194755
6.50620,169095
6.51432,147550
6.52243,134395
6.53057,123490
6.53868,119491
6.54680,117059
6.55493,118678
6.56305,114658
6.57118,116253
6.57930,125621
6.58742,157830
6.59555,210588
6.60367,328596
6.61180,490460
6.61992,658859
6.62803,792325
6.63617,775657
6.64428,635581
6.65242,495124
6.66053,337110
6.66865,241160
6.67678,183879
6.68490,151776
6.69302,135878
6.70115,129940
6.70927,124236
6.71740,114717
6.72552,116247
6.73363,117712
6.74177,118098
6.74988,121434
6.75802,143050
6.76613,183017
6.77425,247269
6.78238,325513
6.79050,367946
6.79862,384303
6.80675,343509
6.81487,269715
6.82300,215964
6.83112,172872
6.83923,147185
6.84737,128441
6.85548,122383
6.86362,118649
6.87173,118730
6.87985,109921
6.88798,109047
6.89610,112031
6.90423,101480
6.91235,102390
6.92047,93668
6.92860,91390
6.93672,90872
6.94483,89775
6.95297,94116
6.96108,95480
6.96922,92409
6.97733,95383
6.98545,95022
6.99358,98344
7.00170,109791
7.00983,111600
7.01795,121905
7.02607,127596
7.03420,144905
7.04232,154857
7.05045,158990
7.05857,153326
7.06668,140513
7.07482,128758
7.08293,119350
7.09105,120476
7.09918,130080
7.10730,126485
7.11543,133234
7.12355,123800
7.13167,114271
7.13980,129672
7.14792,142059
7.15605,188458
7.16417,233690
7.17228,266418
7.18042,281362
7.18853,247570
7.19665,208565
7.20478,162177
7.21290,129478
7.22103,113461
7.22915,100365
7.23727,96593
7.24540,97098
7.25352,108210
7.26165,123354
7.26977,151448
7.27788,185491
7.28602,190887
7.29413,186490
7.30227,168525
7.31038,138970
7.31850,119270
7.32663,105595
7.33475,100437
7.34287,89807
7.35100,98323
7.35912,93542
7.36725,89690
7.37537,87935
7.38348,89735
7.39162,81201
7.39973,88656
7.40787,84708
7.41598,83770
7.42410,86317
7.43223,84260
7.44035,90235
7.44847,84924
7.45660,86040
7.46472,88563
7.47285,83222
7.48097,86679
7.48908,80906
7.49722,80805
7.50533,83930
7.51347,81720
7.52158,80872
7.52970,80980
7.53783,82644
7.54595,79045
7.55408,82234
7.56220,80944
7.57032,84002
7.57845,85645
7.58657,79004
7.59468,80634
7.60282,78392
7.61093,80756
7.61907,76192
7.62718,80800
7.63530,77568
7.64343,79033
7.65155,80550
7.65968,78680
7.66780,79872
7.67592,77650
7.68405,73746
7.69217,77124
7.70030,78209
7.70842,79728
7.71653,79277
7.72467,76570
7.73278,76904
7.74090,80281
7.74903,71901
7.75715,76131
7.76528,78587
7.77340,75240
7.78152,77982
7.78965,72917
7.79777,70572
7.80590,69053
7.81402,71866
7.82213,70425
7.83027,66704
7.83838,71076
7.84650,71474
7.85463,66619
7.86275,71028
7.87088,71601
7.87900,71598
7.88712,67984
7.89525,70684
7.90337,66756
7.91150,73596
7.91962,71195
7.92773,66574
7.93587,70562
7.94398,70502
7.95212,73181
7.96023,77873
7.96835,75616
7.97648,73672
7.98460,69997
7.99272,68836
8.00085,70846
8.00897,66300
8.01710,64464
8.02522,65735
8.03333,68802
8.04147,66445
8.04958,72278
8.05772,69333
8.06583,70471
8.07395,73016
8.08208,68638
8.09020,68493
8.09833,64005
8.10645,67574
8.11457,69850
8.12270,68440
8.13082,80369
8.13893,74058
8.14707,80321
8.15518,75512
8.16332,73539
8.17143,68735
8.17955,64472
8.18768,62454
8.19580,66505
8.20393,71539
8.21205,68239
8.22017,70915
8.22830,69579
8.23642,65278
8.24453,65400
8.25267,67978
8.26078,63496
8.26892,61466
8.27703,66397
8.28515,64644
8.29328,63597
8.30140,63798
8.30953,68104
8.31765,63973
8.32577,70942
8.33390,67563
8.34202,73640
8.35015,74082
8.35827,77223
8.36638,80715
8.37452,68420
8.38263,75337
8.39075,69901
8.39888,68897
8.40700,64069
8.41513,65096
8.42325,67016
8.43137,65505
8.43950,64729
8.44762,68171
8.45575,65398
8.46387,63856
8.47198,65951
8.48012,60985
8.48823,63805
8.49635,64688
8.50448,65860
8.51260,64128
8.52073,66796
8.52885,62980
8.53697,63895
8.54510,64758
8.55322,64904
8.56135,63452
8.56947,69634
8.57758,67493
8.58572,63811
8.59383,59675
8.60197,59612
8.61008,62986
8.61820,63728
8.62633,62317
8.63445,75944
8.64257,118024
8.65070,188608
8.65882,303176
8.66695,421438
8.67507,467424
8.68318,409604
8.69132,328083
8.69943,258126
8.70757,200029
8.71568,183920
8.72380,163062
8.73193,150917
8.74005,142754
8.74818,141919
8.75630,129599
8.76442,131693
8.77255,125312
8.78067,120874
8.78878,114873
8.79692,116241
8.80503,115103
8.81317,109088
8.82128,108490
8.82940,105309
8.83753,104432
8.84565,103846
8.85378,102006
8.86190,101320
8.87002,102371
8.87815,98409
8.88627,104952
8.89440,98212
8.90252,96160
8.91063,96270
8.91877,93405
8.92688,94387
8.93500,97646
8.94313,102863
8.95125,96637
8.95938,93216
8.96750,96696
8.97562,88717
8.98375,87348
8.99187,91655
9.00000,88111
9.00812,92473
9.01623,92704
9.02437,88276
9.03248,91023
9.04060,88924
9.04873,86681
9.05685,83739
9.06498,87924
9.07310,88348
9.08122,87180
9.08935,82032
9.09747,79128
9.10560,82601
9.11372,81313
9.12183,85502
9.12997,84500
9.13808,78844
9.14622,81826
9.15433,84554
9.16245,81959
9.17058,91348
9.17870,85300
9.18682,88248
9.19495,80063
9.20307,88031
9.21120,83691
9.21932,80386
9.22743,77167
9.23557,81639
9.24368,77557
9.25182,77259
9.25993,79565
9.26805,74472
9.27618,71225
9.28430,76401
9.29242,82659
9.30055,76697
9.30867,74543
9.31680,77326
9.32492,75656
9.33303,78557
9.34117,76877
9.34928,75764
9.35742,76054
9.36553,75775
9.37365,81524
9.38178,80827
9.38990,81299
9.39803,79561
9.40615,83720
9.41427,79451
9.42240,80954
9.43052,72130
9.43863,81613
9.44677,78083
9.45488,80512
9.46302,77702
9.47113,78638
9.47925,75497
9.48738,71761
9.49550,72702
9.50363,69752
9.51175,73849
9.51987,73687
9.52800,71928
9.53612,66291
9.54425,63740
9.55237,57233
9.56048,57815
9.56862,56765
9.57673,58211
9.58485,55530
9.59298,57071
9.60110,58028
9.60923,55912
9.61735,62420
9.62547,58888
9.63360,56514
9.64172,61859
9.64985,58617
9.65797,57433
9.66608,59602
9.67422,53792
9.68233,52219
9.69045,52938
9.69858,52520
9.70670,51459
9.71483,55139
9.72295,56720
9.73107,60524
9.73920,56608
9.74732,58360
9.75545,58743
9.76357,59026
9.77168,59884
9.77982,58826
9.78793,58700
9.79607,53612
9.80418,58530
9.81230,58248
9.82043,55650
9.82855,56218
9.83667,64451
9.84480,64775
9.85292,65193
9.86105,60775
9.86917,60353
9.87728,55507
9.88542,60622
9.89353,62282
9.90167,57683
9.90978,58309
9.91790,61978
9.92603,61912
9.93415,57849
9.94228,61058
9.95040,57279
9.95852,56339
9.96665,53009
9.97477,52313
9.98288,58004
9.99102,57826
9.99913,56287
10.00727,52923
10.01538,58027
10.02350,52421
10.03163,51892
10.03975,57271
10.04788,52954
10.05600,52839
10.06412,51075
10.07225,55838
10.08037,56089
10.08848,52807
10.09662,56393
10.10473,54601
10.11287,54210
10.12098,56042
10.12910,56507
10.13723,59188
10.14535,60504
10.15348,58351
10.16160,60625
10.16972,62143
10.17785,61228
10.18597,59174
10.19410,58900
10.20222,58729
10.21033,55326
10.21847,55172
10.22658,53558
10.23470,55889
10.24283,54475
10.25095,59280
10.25908,63040
10.26720,63901
10.27532,59867
10.28345,56804
10.29157,58566
10.29970,53183
10.30782,51610
10.31593,49978
10.32407,52247
10.33218,54433
10.34030,51481
10.34843,51028
10.35655,48120
10.36468,51966
10.37280,57524
10.38092,52392
10.38905,52543
10.39717,50947
10.40530,55636
10.41342,57743
10.42153,58409
10.42967,59478
10.43778,56885
10.44592,60014
10.45403,56399
10.46215,51595
10.47028,56063
10.47840,52143
10.48652,51119
10.49465,50669
10.50277,55241
10.51090,52029
10.51902,48497
10.52713,51842
10.53527,50913
10.54338,52295
10.55152,56098
10.55963,51954
10.56775,61316
10.57588,52261
10.58400,54174
10.59213,55078
10.60025,58681
10.60837,59760
10.61650,57907
10.62462,64040
10.63273,59939
10.64087,56979
10.64898,59167
10.65712,59570
10.66523,52889
10.67335,52742
10.68148,55542
10.68960,51215
10.69773,48896
10.70585,46937
10.71397,48941
10.72210,47291
10.73022,46663
10.73833,45720
10.74647,46685
10.75458,49642
10.76272,46724
10.77083,46666
10.77895,45970
10.78708,48472
10.79520,47133
10.80333,49762
10.81145,48019
10.81957,50591
10.82770,48404
10.83582,44482
10.84395,47333
10.85207,48278
10.86018,46584
10.86832,50088
10.87643,48853
10.88455,53687
10.89268,51443
10.90080,47088
10.90893,47271
10.91705,46837
10.92517,45252
10.93330,48522
10.94142,50411
10.94955,45757
10.95767,49698
10.96578,49504
10.97392,50696
10.98203,55533
10.99017,61453
10.99828,57564
11.00640,60498
11.01453,63703
11.02265,76735
11.03077,74403
11.03890,79683
11.04702,81162
11.05515,83249
11.06327,82771
11.07138,80022
11.07952,80591
11.08763,78263
11.09577,84032
11.10388,87725
11.11200,85299
11.12013,87295
11.12825,82593
11.13637,85206
11.14450,83132
11.15262,84497
11.16075,86916
11.16887,78543
11.17698,82234
11.18512,82242
11.19323,101166
11.20137,123231
11.20948,143831
11.21760,167122
11.22573,174084
11.23385,180131
11.24198,166370
11.25010,156943
11.25822,140919
11.26635,131780
11.27447,128730
11.28258,118790
11.29072,116086
11.29883,103363
11.30697,102120
11.31508,94253
11.32320,90625
11.33133,91883
11.33945,83881
11.34758,85499
11.35570,80780
11.36382,80019
11.37195,80740
11.38007,77682
11.38820,74453
11.39632,72914
11.40443,77072
11.41257,80418
11.42068,80330
11.42880,76583
11.43693,76473
11.44505,82330
11.45318,83967
11.46130,90169
11.46942,93043
11.47755,100737
11.48567,96036
11.49380,88496
11.50192,87179
11.51003,88417
11.51817,84647
11.52628,82249
11.53440,81758
11.54253,82563
11.55065,74151
11.55878,71985
11.56690,71418
11.57502,74532
11.58315,71233
11.59127,75892
11.59940,77645
11.60752,76083
11.61563,83453
11.62377,80585
11.63188,87053
11.64002,84722
11.64813,91403
11.65625,89823
11.66438,93695
11.67250,95607
11.68062,98209
11.68875,100984
11.69687,95637
11.70500,93878
11.71312,91495
11.72123,85501
11.72937,84928
11.73748,83695
11.74562,81961
11.75373,75212
11.76185,79084
11.76998,78139
11.77810,77791
11.78622,78916
11.79435,76905
11.80247,74320
11.81060,71310
11.81872,68653
11.82683,70361
11.83497,63615
11.84308,66276
11.85122,67410
11.85933,76730
11.86745,76013
11.87558,81458
11.88370,79970
11.89183,82594
11.89995,83333
11.90807,76322
11.91620,71281
11.92432,71418
11.93243,65304
11.94057,64331
11.94868,60714
11.95682,61089
11.96493,58833
11.97305,52794
11.98118,55175
11.98930,52053
11.99743,54005
12.00555,54381
12.01367,59389
12.02180,56324
12.02992,50842
12.03805,52921
12.04617,52455
12.05428,52366
12.06242,52252
12.07053,52202
12.07865,50322
12.08678,48711
12.09490,50401
12.10303,49189
12.11115,48812
12.11927,49031
12.12740,53805
12.13552,48104
12.14365,53081
12.15177,48333
12.15988,49835
12.16802,47909
12.17613,51156
12.18425,50843
12.19238,52755
12.20050,53212
12.20863,57058
12.21675,54116
12.22487,54728
12.23300,52468
12.24112,52955
12.24925,56972
12.25737,55115
12.26548,56949
12.27362,58589
12.28173,60615
12.28987,64600
12.29798,66624
12.30610,60147
12.31423,60973
12.32235,61317
12.33047,62193
12.33860,62742
12.34672,64926
12.35485,66710
12.36297,70056
12.37108,67478
12.37922,64612
12.38733,54903
12.39547,55796
12.40358,54909
12.41170,54363
12.41983,53387
12.42795,51769
12.43608,46426
12.44420,48860
12.45232,48865
12.46045,49182
12.46857,48097
12.47668,50955
12.48482,51423
12.49293,51217
12.50107,51292
12.50918,48382
12.51730,46034
12.52543,50177
12.53355,47294
12.54168,51168
12.54980,50381
12.55792,43418
12.56605,46549
12.57417,43546
12.58228,47864
12.59042,48686
12.59853,45682
12.60667,46827
12.61478,45576
12.62290,47234
12.63103,46010
12.63915,48838
12.64728,48238
12.65540,52709
12.66352,51674
12.67165,52400
12.67977,50952
12.68790,49089
12.69602,47956
12.70413,46326
12.71227,47575
12.72038,49964
12.72850,50679
12.73663,53668
12.74475,55721
12.75288,59097
12.76100,59736
12.76912,55666
12.77725,53091
12.78537,50236
12.79350,52364
12.80162,50053
12.80973,53333
12.81787,49769
12.82598,49118
12.83410,47592
12.84223,48806
12.85035,44477
12.85848,44796
12.86660,43886
12.87472,47831
12.88285,50421
12.89097,60744
12.89910,71761
12.90722,87381
12.91533,100510
12.92347,120203
12.93158,118540
12.93972,115182
12.94783,117836
12.95595,105270
12.96408,99216
12.97220,86825
12.98032,79022
12.98845,69523
12.99657,65787
13.00470,60518
13.01282,59583
13.02093,57536
13.02907,52456
13.03718,48885
13.04532,48903
13.05343,51623
13.06155,50127
13.06968,47967
13.07780,47928
13.08593,48281
13.09405,43798
13.10217,46541
13.11030,43895
13.11842,42506
13.12653,47827
13.13467,47831
13.14278,45398
13.15092,44957
13.15903,51870
13.16715,46229
13.17528,50004
13.18340,51175
13.19153,51842
13.19965,51657
13.20777,55162
13.21590,60179
13.22402,64040
13.23215,62276
13.24027,66380
13.24838,61694
13.25652,64250
13.26463,62669
13.27275,59152
13.28088,65677
13.28900,62619
13.29713,64733
13.30525,60684
13.31337,63343
13.32150,59033
13.32962,54174
13.33775,47832
13.34587,46071
13.35398,51290
13.36212,49714
13.37023,47825
13.37835,45364
13.38648,43783
13.39460,46844
13.40273,43769
13.41085,42934
13.41897,44723
13.42710,41737
13.43522,43463
13.44335,44628
13.45147,43628
13.45958,44768
13.46772,43368
13.47583,44870
13.48397,45561
13.49208,45784
13.50020,49408
13.50833,53414
13.51645,56870
13.52457,55824
13.53270,60536
13.54082,60360
13.54895,62076
13.55707,69035
13.56518,66204
13.57332,69290
13.58143,71744
13.58957,74954
13.59768,78418
13.60580,81055
13.61393,69893
13.62205,67810
13.63017,62680
13.63830,61105
13.64642,55661
13.65455,54703
13.66267,54762
13.67078,55549
13.67892,52026
13.68703,54624
13.69517,54549
13.70328,49469
13.71140,51442
13.71953,51170
13.72765,48548
13.73578,49972
13.74390,48137
13.75202,46859
13.76015,46111
13.76827,44442
13.77638,44257
13.78452,45091
13.79263,43928
13.80077,43979
13.80888,42544
13.81700,42952
13.82513,43245
13.83325,46221
13.84138,48138
13.84950,49243
13.85762,56540
13.86575,58523
13.87387,58213
13.88200,57059
13.89012,59959
13.89823,59852
13.90637,58721
13.91448,54185
13.92260,56335
13.93073,53169
13.93885,52358
13.94698,50444
13.95510,48622
13.96322,55277
13.97135,54599
13.97947,58204
13.98760,53346
13.99572,53800
14.00383,55079
14.01197,53426
14.02008,54224
14.02820,50853
14.03633,50986
14.04445,53903
14.05258,52211
14.06070,56004
14.06882,52244
14.07695,50906
14.08507,53797
14.09320,55449
14.10132,58283
14.10943,62071
14.11757,67153
14.12568,76413
14.13382,94831
14.14193,119714
14.15005,156650
14.15818,176323
14.16630,185637
14.17442,167968
14.18255,148518
14.19067,131179
14.19880,115260
14.20692,109226
14.21503,101684
14.22317,92403
14.23128,90030
14.23942,80625
14.24753,79427
14.25565,79585
14.26378,78980
14.27190,79346
14.28003,74718
14.28815,72027
14.29627,72427
14.30440,64372
14.31252,69503
14.32063,59924
14.32877,58536
14.33688,49552
14.34502,49178
14.35313,44501
14.36125,44830
14.36938,44138
14.37750,44214
14.38563,47958
14.39375,49258
14.40187,41189
14.41000,40754
14.41812,42550
14.42623,42533
14.43437,40452
14.44248,44694
14.45062,41104
14.45873,45147
14.46685,41524
14.47498,41338
14.48310,42747
14.49123,44152
14.49935,45710
14.50747,38853
14.51560,44382
14.52372,42106
14.53185,39710
14.53997,42479
14.54808,43097
14.55622,42201
14.56433,42458
14.57245,37604
14.58058,38683
14.58870,41089
14.59683,40517
14.60495,42215
14.61307,40781
14.62120,37770
14.62932,35959
14.63745,36832
14.64557,39883
14.65368,39072
14.66182,36625
14.66993,39769
14.67805,38104
14.68618,38623
14.69430,36809
14.70243,35916
14.71055,38078
14.71867,37902
14.72680,33461
14.73492,36546
14.74305,36311
14.75117,38103
14.75928,37975
14.76742,40496
14.77553,38512
14.78367,38014
14.79178,38898
14.79990,42148
14.80803,42816
14.81615,43507
14.82427,40979
14.83240,36938
14.84052,38203
14.84865,41185
14.85677,40180
14.86488,38874
14.87302,38255
14.88113,38124
14.88927,39833
14.89738,38311
14.90550,34846
14.91363,36103
14.92175,37699
14.92988,36886
14.93800,37126
14.94612,39367
14.95425,37273
14.96237,36062
14.97048,35163
14.97862,36423
14.98673,34897
14.99487,39775
15.00298,35551
15.01110,36834
15.01923,38238
15.02735,35939
15.03548,37350
15.04360,36581
15.05172,35221
15.05985,37582
15.06797,37954
15.07608,32106
15.08422,32594
15.09233,38143
15.10047,35095
15.10858,35917
15.11670,34583
15.12483,36227
15.13295,34400
15.14108,36736
15.14920,34943
15.15732,34778
15.16545,34160
15.17357,33381
15.18170,36759
15.18982,34915
15.19793,34514
15.20607,33876
15.21418,30682
15.22230,32321
15.23043,34457
15.23855,32120
15.24668,31897
15.25480,33572
15.26292,32074
15.27105,30536
15.27917,34348
15.28730,31894
15.29542,33828
15.30353,37219
15.31167,31474
15.31978,34843
15.32792,33823
15.33603,33287
15.34415,31593
15.35228,34304
15.36040,30814
15.36852,32016
15.37665,31225
15.38477,33247
15.39290,32319
15.40102,34595
15.40913,34478
15.41727,31388
15.42538,32687
15.43352,32322
15.44163,36786
15.44975,34893
15.45788,33420
15.46600,34099
15.47412,35011
15.48225,33851
15.49037,33251
15.49850,34396
15.50662,32132
15.51473,34474
15.52287,36823
15.53098,31161
15.53912,32090
15.54723,37012
15.55535,31118
15.56348,32358
15.57160,31433
15.57973,32600
15.58785,35443
15.59597,30169
15.60410,30264
15.61222,31405
15.62033,32662
15.62847,29877
15.63658,30813
15.64472,31772
15.65283,30978
15.66095,32531
15.66908,30705
15.67720,28591
15.68533,31088
15.69345,33815
15.70157,30550
15.70970,33636
15.71782,32417
15.72593,31224
15.73407,33704
15.74218,31424
15.75032,31573
15.75843,32558
15.76655,35453
15.77468,34280
15.78280,31846
15.79093,32448
15.79905,33480
15.80717,36811
15.81530,33634
15.82342,33496
15.83155,29557
15.83967,32138
15.84778,34947
15.85592,35336
15.86403,34615
15.87215,36151
15.88028,32906
15.88840,31946
15.89653,33296
15.90465,32467
15.91277,33700
15.92090,32684
15.92902,33843
15.93715,30935
15.94527,32706
15.95338,34843
15.96152,39608
15.96963,39918
15.97777,43680
15.98588,46504
15.99400,48724
16.00213,46992
16.01025,50042
16.01837,43005
16.02650,40700
16.03462,39917
16.04275,41718
16.05087,37612
16.05898,37402
16.06712,37098
16.07523,36409
16.08337,36463
16.09148,36754
16.09960,35535
16.10773,39400
16.11585,35838
16.12397,37396
16.13210,37821
16.14022,37094
16.14835,35491
16.15647,37084
16.16458,33188
16.17272,36176
16.18083,34433
16.18897,35039
16.19708,38560
16.20520,36287
16.21333,36123
16.22145,37285
16.22958,37019
16.23770,37145
16.24582,37576
16.25395,36756
16.26207,38509
16.27018,40057
16.27832,38773
16.28643,38904
16.29457,38157
16.30268,43988
16.31080,40513
16.31893,37780
16.32705,38985
16.33518,38953
16.34330,34053
16.35142,38156
16.35955,35585
16.36767,31357
16.37580,35162
16.38392,38394
16.39203,36160
16.40017,37269
16.40828,35266
16.41640,35324
16.42453,34903
16.43265,33560
16.44078,34808
16.44890,36629
16.45702,35226
16.46515,37602
16.47327,38505
16.48140,35479
16.48952,35023
16.49763,34871
16.50577,34911
16.51388,33484
16.52200,34487
16.53013,34165
16.53825,35403
16.54638,32760
16.55450,33240
16.56262,35164
16.57075,37376
16.57887,34779
16.58700,39659
16.59512,35583
16.60323,36458
16.61137,33029
16.61948,35755
16.62762,36295
16.63573,34064
16.64385,33042
16.65198,36481
16.66010,32291
16.66822,37384
16.67635,35684
16.68447,33288
16.69260,32027
16.70072,35103
16.70883,33983
16.71697,33864
16.72508,37892
16.73322,38730
16.74133,37013
16.74945,37574
16.75758,35977
16.76570,36483
16.77383,34718
16.78195,34517
16.79007,36922
16.79820,35915
16.80632,38740
16.81443,33852
16.82257,36534
16.83068,39767
16.83882,33985
16.84693,38967
16.85505,33625
16.86318,35083
16.87130,35742
16.87943,35532
16.88755,36851
16.89567,34888
16.90380,38227
16.91192,33567
16.92003,34224
16.92817,33385
16.93628,36215
16.94442,35241
16.95253,39110
16.96065,36062
16.96878,37414
16.97690,34646
16.98503,34762
16.99315,34481
17.00127,35197
17.00940,37757
17.01752,33624
17.02565,34035
17.03377,34619
17.04188,35063
17.05002,36587
17.05813,38138
17.06625,35218
17.07438,33879
17.08250,36165
17.09063,34365
17.09875,35869
17.10687,35089
17.11500,35470
17.12312,35116
17.13125,36458
17.13937,36872
17.14748,35885
17.15562,38104
17.16373,34255
17.17185,35438
17.17998,33985
17.18810,36350
17.19623,35435
17.20435,37184
17.21247,38521
17.22060,36680
17.22872,36821
17.23685,35159
17.24497,36030
17.25308,32242
17.26122,33931
17.26933,34471
17.27747,34663
17.28558,34413
17.29370,37201
17.30183,34123
17.30995,38377
17.31807,35992
17.32620,36564
17.33432,39094
17.34245,39180
17.35057,41748
17.35868,40969
17.36682,41562
17.37493,42206
17.38307,40553
17.39118,41006
17.39930,46685
17.40743,38975
17.41555,39980
17.42368,39208
17.43180,39352
17.43992,36829
17.44805,39135
17.45617,38991
17.46428,38435
17.47242,40857
17.48053,39881
17.48867,43514
17.49678,39983
17.50490,48194
17.51303,43575
17.52115,47504
17.52928,48134
17.53740,53130
17.54552,51333
17.55365,52172
17.56177,48575
17.56988,43886
17.57802,44917
17.58613,39219
17.59427,40878
17.60238,38439
17.61050,42216
17.61863,38624
17.62675,35007
17.63488,38311
17.64300,40481
17.65112,43133
17.65925,40747
17.66737,40762
17.67550,42922
17.68362,40323
17.69173,37866
17.69987,36422
17.70798,37435
17.71610,36995
17.72423,37400
17.73235,38471
17.74048,41365
17.74860,35277
17.75672,36124
17.76485,36470
17.77297,37616
17.78110,40108
17.78922,37991
17.79733,35760
17.80547,39493
17.81358,40893
17.82172,38582
17.82983,37021
17.83795,39080
17.84608,42899
17.85420,40691
17.86232,34135
17.87045,38789
17.87857,36696
17.88670,37451
17.89482,34423
17.90293,35115
17.91107,39071
17.91918,33751
17.92732,36997
17.93543,35285
17.94355,34750
17.95168,37279
17.95980,33043
17.96792,34669
17.97605,33176
17.98417,33318
17.99230,35267
18.00042,32334
18.00853,34360
18.01667,40227
18.02478,38464
18.03292,37123
18.04103,39622
18.04915,40512
18.05728,39177
18.06540,38436
18.07353,37897
18.08165,40300
18.08977,42825
18.09790,37267
18.10602,41435
18.11413,38931
18.12227,40891
18.13038,36035
18.13852,40322
18.14663,42536
18.15475,41830
18.16288,42835
18.17100,40452
18.17913,39259
18.18725,39440
18.19537,40428
18.20350,40670
18.21162,42221
18.21973,40546
18.22787,40720
18.23598,42190
18.24412,41736
18.25223,39116
18.26035,40370
18.26848,40130
18.27660,38167
18.28473,37684
18.29285,35570
18.30097,40335
18.30910,35450
18.31722,35242
18.32535,35104
18.33347,38045
18.34158,32076
18.34972,36392
18.35783,37456
18.36595,33372
18.37408,37507
18.38220,37795
18.39033,35807
18.39845,36342
18.40657,33595
18.41470,37902
18.42282,34965
18.43095,34152
18.43907,36484
18.44718,37279
18.45532,41505
18.46343,41059
18.47157,40354
18.47968,42191
18.48780,41710
18.49593,39523
18.50405,38890
18.51217,44350
18.52030,40691
18.52842,42289
18.53655,41995
18.54467,38520
18.55278,42135
18.56092,42396
18.56903,43321
18.57717,43298
18.58528,44297
18.59340,42266
18.60153,45011
18.60965,46027
18.61778,46534
18.62590,46700
18.63402,44630
18.64215,44758
18.65027,48575
18.65838,44726
18.66652,45731
18.67463,44093
18.68277,43248
18.69088,48268
18.69900,39936
18.70713,38867
18.71525,39934
18.72338,43048
18.73150,43164
18.73962,43876
18.74775,40584
18.75587,40248
18.76398,41997
18.77212,39610
18.78023,39512
18.78837,38810
18.79648,37601
18.80460,38428
18.81273,37966
18.82085,38960
18.82898,40447
18.83710,38718
18.84522,39891
18.85335,39452
18.86147,39953
18.86960,40424
18.87772,41267
18.88583,42553
18.89397,41137
18.90208,39167
18.91020,39725
18.91833,40693
18.92645,39103
18.93458,41230
18.94270,35957
18.95082,37050
18.95895,36462
18.96707,33984
18.97520,40187
18.98332,39053
18.99143,37745
18.99957,38020
19.00768,38333
19.01580,39156
19.02393,39689
19.03205,39207
19.04018,38917
19.04830,37110
19.05642,38352
19.06455,44591
19.07267,45213
19.08080,45399
19.08892,49138
19.09703,47987
19.10517,50047
19.11328,48222
19.12142,47788
19.12953,50814
19.13765,51057
19.14578,55180
19.15390,55260
19.16202,50619
19.17015,53663
19.17827,49989
19.18640,49802
19.19452,45111
19.20263,42273
19.21077,44390
19.21888,43851
19.22702,42241
19.23513,43993
19.24325,42407
19.25138,41321
19.25950,43254
19.26763,43425
19.27575,42289
19.28387,47237
19.29200,41051
19.30012,41544
19.30823,45173
19.31637,41051
19.32448,40861
19.33262,38149
19.34073,38765
19.34885,39405
19.35698,38176
19.36510,39794
19.37323,41977
19.38135,37134
19.38947,42406
19.39760,37473
19.40572,40705
19.41383,42149
19.42197,41397
19.43008,46506
19.43822,52859
19.44633,67856
19.45445,89533
19.46258,112223
19.47070,132464
19.47883,138003
19.48695,116757
19.49507,94058
19.50320,74894
19.51132,58490
19.51945,49237
19.52757,44425
19.53568,43864
19.54382,40765
19.55193,44101
19.56005,40619
19.56818,43510
19.57630,41940
19.58443,39882
19.59255,41595
19.60067,42629
19.60880,41897
19.61692,47057
19.62505,62218
19.63317,69784
19.64128,89170
19.64942,105835
19.65753,116102
19.66567,114822
19.67378,97371
19.68190,82496
19.69003,75060
19.69815,70191
19.70627,60286
19.71440,54300
19.72252,54107
19.73065,51499
19.73877,49944
19.74688,50190
19.75502,42460
19.76313,45316
19.77127,50081
19.77938,40598
19.78750,39191
19.79563,39598
19.80375,39209
19.81187,42464
19.82000,38750
19.82812,38776
19.83625,39913
19.84437,42634
19.85248,50835
19.86062,56943
19.86873,61827
19.87687,81264
19.88498,93807
19.89310,109042
19.90123,108262
19.90935,110115
19.91748,117600
19.92560,111289
19.93372,105682
19.94185,106955
19.94997,101527
19.95808,99155
19.96622,100280
19.97433,94694
19.98247,91264
19.99058,95049
19.99870,85564
20.00683,86275
20.01495,82055
20.02308,81502
20.03120,80573
20.03932,72172
20.04745,64780
20.05557,60354
20.06368,52674
20.07182,55508
20.07993,50907
20.08807,47798
20.09618,48562
20.10430,47062
20.11243,44462
20.12055,44310
20.12868,45729
20.13680,46979
20.14492,42905
20.15305,46442
20.16117,44824
20.16930,47639
20.17742,45227
20.18553,45816
20.19367,45178
20.20178,43865
20.20990,51397
20.21803,48302
20.22615,54934
20.23428,67312
20.24240,80302
20.25052,87314
20.25865,97301
20.26677,99904
20.27490,95450
20.28302,88975
20.29113,80241
20.29927,74145
20.30738,63344
20.31552,62763
20.32363,51803
20.33175,50140
20.33988,49895
20.34800,48990
20.35612,47347
20.36425,46955
20.37237,45899
20.38050,47580
20.38862,49561
20.39673,51416
20.40487,48048
20.41298,55545
20.42112,54034
20.42923,57795
20.43735,53479
20.44548,50648
20.45360,52400
20.46172,51946
20.46985,49781
20.47797,46961
20.48610,41149
20.49422,46243
20.50233,42621
20.51047,45947
20.51858,43545
20.52672,44153
20.53483,43997
20.54295,43711
20.55108,44709
20.55920,40765
20.56733,40260
20.57545,40362
20.58357,41809
20.59170,36105
20.59982,39978
20.60793,45136
20.61607,41913
20.62418,41811
20.63232,39611
20.64043,38708
20.64855,41512
20.65668,44203
20.66480,39664
20.67293,40357
20.68105,37240
20.68917,40866
20.69730,41942
20.70542,38040
20.71355,41127
20.72167,40727
20.72978,36564
20.73792,37532
20.74603,39657
20.75415,41524
20.76228,37086
20.77040,42115
20.77853,41023
20.78665,39293
20.79477,39651
20.80290,42846
20.81102,38846
20.81915,38349
20.82727,35525
20.83538,40434
20.84352,39633
20.85163,37497
20.85975,39862
20.86788,39327
20.87600,37445
20.88413,36477
20.89225,40872
20.90037,36857
20.90850,37010
20.91662,37078
20.92475,36448
20.93287,38078
20.94098,35453
20.94912,34703
20.95723,32537
20.96537,34120
20.97348,35587
20.98160,36806
20.98973,37492
20.99785,37969
21.00597,39836
21.01410,37673
21.02222,37252
21.03035,39916
21.03847,37598
21.04658,37736
21.05472,37765
21.06283,36871
21.07097,37697
21.07908,37384
21.08720,36565
21.09533,35628
21.10345,39248
21.11157,33894
21.11970,36113
21.12782,36602
21.13595,37593
21.14407,39140
21.15218,40001
21.16032,40759
21.16843,38750
21.17657,40769
21.18468,40820
21.19280,38068
21.20093,37338
21.20905,38595
21.21718,39006
21.22530,37227
21.23342,43445
21.24155,41086
21.24967,41809
21.25778,36931
21.26592,41861
21.27403,42468
21.28217,42187
21.29028,37301
21.29840,38782
21.30653,40494
21.31465,41051
21.32278,37421
21.33090,42328
21.33902,40655
21.34715,40668
21.35527,37261
21.36340,37433
21.37152,35571
21.37963,43225
21.38777,39057
21.39588,39272
21.40400,37138
21.41213,36853
21.42025,41216
21.42838,40526
21.43650,36520
21.44462,33875
21.45275,40836
21.46087,41506
21.46900,37564
21.47712,38105
21.48523,39934
21.49337,39952
21.50148,40820
21.50960,37796
21.51773,39603
21.52585,36998
21.53398,40274
21.54210,40161
21.55022,37301
21.55835,38476
21.56647,37703
21.57460,42972
21.58272,43354
21.59083,54625
21.59897,55443
21.60708,53908
21.61522,60101
21.62333,66754
21.63145,62162
21.63958,54293
21.64770,52132
21.65582,46163
21.66395,43582
21.67207,41931
21.68020,42571
21.68832,38688
21.69643,44978
21.70457,40596
21.71268,41893
21.72082,40494
21.72893,45227
21.73705,38780
21.74518,39527
21.75330,40983
21.76143,41258
21.76955,39651
21.77767,46528
21.78580,47027
21.79392,55301
21.80203,47723
21.81017,55077
21.81828,55720
21.82642,51776
21.83453,48065
21.84265,47288
21.85078,40268
21.85890,42992
21.86703,40763
21.87515,41502
21.88327,43418
21.89140,40517
21.89952,36987
21.90763,37516
21.91577,37423
21.92388,41854
21.93202,38307
21.94013,41344
21.94825,38081
21.95638,34409
21.96450,34516
21.97263,35369
21.98075,37765
21.98887,36055
21.99700,35034
22.00512,38310
22.01325,37764
22.02137,39191
22.02948,40837
22.03762,37246
22.04573,40023
22.05385,41660
22.06198,37008
22.07010,38410
22.07823,40253
22.08635,38902
22.09447,38269
22.10260,43451
22.11072,41790
22.11885,41587
22.12697,36671
22.13508,36981
22.14322,35886
22.15133,39217
22.15947,39807
22.16758,39159
22.17570,37019
22.18383,40418
22.19195,39509
22.20007,41454
22.20820,40245
22.21632,40442
22.22445,39024
22.23257,38828
22.24068,34305
22.24882,36764
22.25693,35605
22.26507,33334
22.27318,36603
22.28130,38366
22.28943,36958
22.29755,36837
22.30567,38484
22.31380,36582
22.32192,41706
22.33005,35976
22.33817,37885
22.34628,40637
22.35442,37982
22.36253,38368
22.37067,33888
22.37878,36283
22.38690,37036
22.39503,40635
22.40315,35047
22.41128,36713
22.41940,36867
22.42752,36424
22.43565,35541
22.44377,37923
22.45188,36380
22.46002,38086
22.46813,34005
22.47627,37036
22.48438,35520
22.49250,32056
22.50063,39650
22.50875,35560
22.51688,39140
22.52500,34700
22.53312,35465
22.54125,34978
22.54937,34247
22.55748,34805
22.56562,35165
22.57373,34629
22.58187,33578
22.58998,31514
22.59810,31680
22.60623,30828
22.61435,36680
22.62248,32156
22.63060,29367
22.63872,32308
22.64685,34782
22.65497,33717
22.66310,33957
22.67122,35635
22.67933,33238
22.68747,34287
22.69558,36231
22.70370,34299
22.71183,40161
22.71995,33809
22.72808,34563
22.73620,35099
22.74432,32263
22.75245,33923
22.76057,33730
22.76870,34402
22.77682,35645
22.78493,32528
22.79307,34326
22.80118,34779
22.80932,30319
22.81743,33598
22.82555,36164
22.83368,36461
22.84180,36475
22.84992,34855
22.85805,34587
22.86617,37988
22.87430,37904
22.88242,39839
22.89053,43929
22.89867,47136
22.90678,52204
22.91492,56276
22.92303,62032
22.93115,70078
22.93928,60196
22.94740,61774
22.95552,61545
22.96365,57557
22.97177,54229
22.97990,57289
22.98802,56353
22.99613,50295
23.00427,48143
23.01238,50361
23.02052,46052
23.02863,42904
23.03675,45907
23.04488,38307
23.05300,41115
23.06113,39835
23.06925,45028
23.07737,42997
23.08550,38844
23.09362,39836
23.10173,36899
23.10987,39212
23.11798,39346
23.12612,38627
23.13423,39029
23.14235,37584
23.15048,39056
23.15860,38530
23.16673,38591
23.17485,36830
23.18297,34623
23.19110,36976
23.19922,36821
23.20735,37537
23.21547,36608
23.22358,37290
23.23172,37146
23.23983,35552
23.24795,34194
23.25608,36541
23.26420,37775
23.27233,39223
23.28045,37926
23.28857,38799
23.29670,38129
23.30482,40209
23.31295,36433
23.32107,38572
23.32918,37574
23.33732,33854
23.34543,37895
23.35355,36263
23.36168,37783
23.36980,39299
23.37793,38122
23.38605,34358
23.39417,37313
23.40230,42082
23.41042,38459
23.41855,37399
23.42667,37674
23.43478,38577
23.44292,35014
23.45103,37634
23.45917,34324
23.46728,37460
23.47540,37721
23.48353,39049
23.49165,36125
23.49977,37101
23.50790,37374
23.51602,38630
23.52415,40250
23.53227,42499
23.54038,38717
23.54852,38344
23.55663,36868
23.56477,38681
23.57288,39280
23.58100,41455
23.58913,38908
23.59725,41061
23.60537,38503
23.61350,40100
23.62162,43466
23.62975,43331
23.63787,43354
23.64598,44534
23.65412,46835
23.66223,50207
23.67037,48936
23.67848,48983
23.68660,51297
23.69473,49830
23.70285,46952
23.71098,48874
23.71910,55654
23.72722,65080
23.73535,111314
23.74347,220651
23.75158,489302
23.75972,1006967
23.76783,1794172
23.77597,2470989
23.78408,2838263
23.79220,2721202
23.80033,2270162
23.80845,1749065
23.81658,1306597
23.82470,967962
23.83282,732247
23.84095,566450
23.84907,451608
23.85720,380274
23.86532,320959
23.87343,283165
23.88157,261535
23.88968,231675
23.89780,208208
23.90593,196339
23.91405,178881
23.92218,158911
23.93030,160427
23.93842,142652
23.94655,144963
23.95467,140246
23.96280,123079
23.97092,122736
23.97903,118716
23.98717,107473
23.99528,110589
24.00340,106448
24.01153,103680
24.01965,101383
24.02778,103720
24.03590,93167
24.04402,93413
24.05215,87087
24.06027,85832
24.06840,87573
24.07652,85717
24.08463,84582
24.09277,90420
24.10088,86302
24.10902,81132
24.11713,80219
24.12525,78984
24.13338,72917
24.14150,72592
24.14962,73948
24.15775,82517
24.16587,83614
24.17400,86096
24.18212,86632
24.19023,101622
24.19837,94875
24.20648,97378
24.21462,85774
24.22273,84033
24.23085,82062
24.23898,76269
24.24710,72115
24.25523,73164
24.26335,67479
24.27147,66989
24.27960,62690
24.28772,60600
24.29583,59515
24.30397,58289
24.31208,61078
24.32022,63827
24.32833,68895
24.33645,82109
24.34458,100123
24.35270,117602
24.36083,118032
24.36895,123950
24.37707,102067
24.38520,83575
24.39332,71996
24.40143,65593
24.40957,57436
24.41768,55160
24.42582,56151
24.43393,60063
24.44205,58087
24.45018,58954
24.45830,60725
24.46643,67759
24.47455,66228
24.48267,65225
24.49080,60291
24.49892,56585
24.50705,54063
24.51517,52813
24.52328,51073
24.53142,52265
24.53953,48697
24.54765,48822
24.55578,52520
24.56390,49433
24.57203,46783
24.58015,47452
24.58827,50446
24.59640,49664
24.60452,46544
24.61265,46855
24.62077,48246
24.62888,50868
24.63702,47958
24.64513,49524
24.65325,52410
24.66138,46759
24.66950,45626
24.67763,52157
24.68575,47703
24.69387,42588
24.70200,43059
24.71012,45999
24.71825,43279
24.72637,40643
24.73448,42531
24.74262,46080
24.75073,43736
24.75887,46820
24.76698,41388
24.77510,43274
24.78323,41990
24.79135,46549
24.79947,41988
24.80760,42279
24.81572,42652
24.82385,41278
24.83197,43877
24.84008,41516
24.84822,41944
24.85633,43311
24.86447,42073
24.87258,39920
24.88070,40732
24.88883,39688
24.89695,44247
24.90508,39588
24.91320,43197
24.92132,42869
24.92945,39964
24.93757,43712
24.94568,43213
24.95382,41160
24.96193,40363
24.97007,39826
24.97818,39614
24.98630,38940
24.99443,37391
25.00255,41637
25.01068,39936
25.01880,39409
25.02692,37071
25.03505,41987
25.04317,42504
25.05130,40754
25.05942,41586
25.06753,42056
25.07567,41814
25.08378,41995
25.09190,37381
25.10003,39357
25.10815,39298
25.11628,41430
25.12440,44610
25.13252,38724
25.14065,42287
25.14877,42153
25.15690,45011
25.16502,42943
25.17313,39378
25.18127,41784
25.18938,41309
25.19750,40411
25.20563,41642
25.21375,36524
25.22188,37942
25.23000,36967
25.23812,35052
25.24625,35006
25.25437,36539
25.26250,38642
25.27062,37599
25.27873,40944
25.28687,42644
25.29498,48090
25.30312,46962
25.31123,48465
25.31935,49107
25.32748,51202
25.33560,47166
25.34372,45594
25.35185,40487
25.35997,38829
25.36810,37604
25.37622,43867
25.38433,34892
25.39247,37662
25.40058,38393
25.40872,39477
25.41683,39960
25.42495,40300
25.43308,37486
25.44120,39273
25.44932,38949
25.45745,39876
25.46557,36932
25.47370,37734
25.48182,42792
25.48993,37472
25.49807,42818
25.50618,36262
25.51432,37021
25.52243,38884
25.53055,36460
25.53868,39922
25.54680,34029
25.55493,36366
25.56305,34593
25.57117,36902
25.57930,35438
25.58742,35395
25.59553,36439
25.60367,36726
25.61178,34512
25.61992,36550
25.62803,30731
25.63615,33608
25.64428,35115
25.65240,35236
25.66053,33535
25.66865,32830
25.67677,31604
25.68490,32061
25.69302,33645
25.70115,33517
25.70927,35995
25.71738,32237
25.72552,33864
25.73363,34085
25.74175,35413
25.74988,30030
25.75800,36207
25.76613,35310
25.77425,35948
25.78237,33658
25.79050,32764
25.79862,36395
25.80675,37069
25.81487,33916
25.82298,35381
25.83112,37031
25.83923,39565
25.84735,36562
25.85548,33635
25.86360,32491
25.87173,36386
25.87985,28985
25.88797,35170
25.89610,33186
25.90422,33689
25.91235,30757
25.92047,34579
25.92858,35136
25.93672,35999
25.94483,35478
25.95297,36888
25.96108,32318
25.96920,39552
25.97733,38410
25.98545,34562
25.99357,31313
26.00170,32506
26.00982,33298
26.01795,32512
26.02607,30134
26.03418,36394
26.04232,32176
26.05043,34128
26.05857,34840
26.06668,34539
26.07480,34829
26.08293,35339
26.09105,32688
26.09918,36779
26.10730,36185
26.11542,37666
26.12355,42285
26.13167,40973
26.13978,43380
26.14792,46330
26.15603,44949
26.16417,44763
26.17228,45680
26.18040,42152
26.18853,43114
26.19665,40230
26.20478,37616
26.21290,37126
26.22102,33933
26.22915,35314
26.23727,29733
26.24538,35935
26.25352,36409
26.26163,34276
26.26977,31322
26.27788,33758
26.28600,33868
26.29413,29092
26.30225,31529
26.31038,33791
26.31850,37243
26.32662,31872
26.33475,33336
26.34287,31590
26.35100,37527
26.35912,34945
26.36723,31454
26.37537,30118
26.38348,37369
26.39160,30663
26.39973,32204
26.40785,37091
26.41598,36161
26.42410,35776
26.43222,34522
26.44035,36264
26.44847,34416
26.45660,33226
26.46472,33497
26.47283,35112
26.48097,30579
26.48908,33138
26.49720,32517
26.50533,33026
26.51345,31213
26.52158,37093
26.52970,32658
26.53782,32143
26.54595,34194
26.55407,35135
26.56220,33612
26.57032,38265
26.57843,33177
26.58657,32662
26.59468,33799
26.60282,31060
26.61093,31983
26.61905,31488
26.62718,33239
26.63530,33046
26.64342,37763
26.65155,31844
26.65967,33893
26.66780,36735
26.67592,34469
26.68403,31602
26.69217,31057
26.70028,33783
26.70842,34631
26.71653,34022
26.72465,36236
26.73278,33718
26.74090,31883
26.74903,33526
26.75715,35272
26.76527,36785
26.77340,33223
26.78152,33483
26.78963,32596
26.79777,33949
26.80588,35955
26.81402,40706
26.82213,37391
26.83025,37435
26.83838,34315
26.84650,35220
26.85463,34258
26.86275,31642
26.87087,32585
26.87900,33524
26.88712,33782
26.89523,34655
26.90337,33717
26.91148,38687
26.91962,36629
26.92773,38389
26.93585,43355
26.94398,47716
26.95210,65239
26.96023,104399
26.96835,171382
26.97647,284047
26.98460,418330
26.99272,539466
27.00085,642340
27.00897,679290
27.01708,668503
27.02522,552788
27.03333,461777
27.04145,359581
27.04958,284245
27.05770,219363
27.06583,195331
27.07395,154791
27.08207,136170
27.09020,119906
27.09832,110448
27.10645,99395
27.11457,91478
27.12268,85668
27.13082,76935
27.13893,78203
27.14707,76051
27.15518,74354
27.16330,69755
27.17143,67343
27.17955,70423
27.18767,64496
27.19580,67244
27.20392,61156
27.21205,63511
27.22017,56691
27.22828,60455
27.23642,53130
27.24453,55771
27.25267,50794
27.26078,54267
27.26890,52861
27.27703,51743
27.28515,48812
27.29327,48282
27.30140,44686
27.30952,48007
27.31765,46869
27.32577,45768
27.33388,47280
27.34202,45700
27.35013,45031
27.35827,42848
27.36638,45140
27.37450,47494
27.38263,44608
27.39075,41704
27.39888,43886
27.40700,45465
27.41512,43633
27.42325,41612
27.43137,42115
27.43948,40501
27.44762,38696
27.45573,39923
27.46387,41611
27.47198,43060
27.48010,42667
27.48823,44921
27.49635,42998
27.50448,41312
27.51260,38688
27.52072,38388
27.52885,42353
27.53697,38481
27.54510,40353
27.55322,41670
27.56133,40258
27.56947,40024
27.57758,40520
27.58570,37490
27.59383,37228
27.60195,40252
27.61008,36340
27.61820,38576
27.62632,37621
27.63445,39191
27.64257,39724
27.65070,35273
27.65882,38972
27.66693,37026
27.67507,35837
27.68318,38456
27.69130,36651
27.69943,38419
27.70755,36898
27.71568,38171
27.72380,36168
27.73192,41848
27.74005,45942
27.74817,48524
27.75630,48789
27.76442,45205
27.77253,42875
27.78067,37946
27.78878,38908
27.79692,38375
27.80503,37985
27.81315,39785
27.82128,35780
27.82940,35491
27.83752,37379
27.84565,38465
27.85377,40247
27.86190,37634
27.87002,37787
27.87813,37558
27.88627,34029
27.89438,37664
27.90252,36855
27.91063,34477
27.91875,38197
27.92688,34066
27.93500,34812
27.94312,34108
27.95125,36362
27.95937,34942
27.96750,37418
27.97562,39476
27.98373,35353
27.99187,37344
27.99998,38708
28.00812,36304
28.01623,37110
28.02435,38261
28.03248,37244
28.04060,38509
28.04873,36268
28.05685,38466
28.06497,43236
28.07310,43224
28.08122,49751
28.08933,56530
28.09747,70440
28.10558,76692
28.11372,79486
28.12183,77591
28.12995,68798
28.13808,57379
28.14620,55345
28.15433,50833
28.16245,48172
28.17057,42758
28.17870,42608
28.18682,38441
28.19495,38566
28.20307,36706
28.21118,35225
28.21932,35927
28.22743,35884
28.23555,36168
28.24368,38354
28.25180,47935
28.25993,57693
28.26805,70107
28.27617,101811
28.28430,127756
28.29242,172105
28.30055,204585
28.30867,243485
28.31678,253442
28.32492,262932
28.33303,274390
28.34115,254480
28.34928,244743
28.35740,219511
28.36553,208144
28.37365,176601
28.38177,157169
28.38990,142635
28.39802,129959
28.40615,117975
28.41427,102865
28.42238,100178
28.43052,87594
28.43863,83035
28.44677,79430
28.45488,73162
28.46300,72278
28.47113,70819
28.47925,62126
28.48737,62569
28.49550,58496
28.50362,59665
28.51175,56393
28.51987,56896
28.52798,57422
28.53612,57810
28.54423,55665
28.55237,51081
28.56048,51487
28.56860,51272
28.57673,51909
28.58485,50192
28.59298,50230
28.60110,52015
28.60922,48339
28.61735,49071
28.62547,49868
28.63358,49836
28.64172,56039
28.64983,52693
28.65797,52783
28.66608,58454
28.67420,55839
28.68233,54761
28.69045,55674
28.69858,52733
28.70670,64262
28.71482,67927
28.72295,72829
28.73107,80054
28.73918,72629
28.74732,69192
28.75543,54409
28.76357,51289
28.77168,46728
28.77980,46647
28.78793,43499
28.79605,45311
28.80418,44027
28.81230,43030
28.82042,38649
28.82855,43489
28.83667,41606
28.84480,42453
28.85292,40678
28.86103,39626
28.86917,46157
28.87728,40672
28.88540,40783
28.89353,42463
28.90165,39225
28.90978,46724
28.91790,38890
28.92602,42431
28.93415,40295
28.94227,42581
28.95040,40815
28.95852,43358
28.96663,44434
28.97477,38607
28.98288,39094
28.99100,41652
28.99913,42680
29.00725,41014
29.01538,40046
29.02350,37270
29.03162,40301
29.03975,41064
29.04787,40350
29.05600,37939
29.06412,38018
29.07223,38348
29.08037,33863
29.08848,38726
29.09662,37940
29.10473,38332
29.11285,39694
29.12098,37838
29.12910,40176
29.13722,39871
29.14535,40559
29.15347,38766
29.16160,39018
29.16972,40349
29.17783,39160
29.18597,41674
29.19408,39115
29.20222,37256
29.21033,37345
29.21845,39096
29.22658,41071
29.23470,38882
29.24283,38337
29.25095,37085
29.25907,34794
29.26720,39890
29.27532,36356
29.28343,35895
29.29157,38649
29.29968,39759
29.30782,39974
29.31593,39756
29.32405,40433
29.33218,36798
29.34030,37289
29.34843,38570
29.35655,36945
29.36467,38261
29.37280,38584
29.38092,35745
29.38905,39009
29.39717,35569
29.40528,38677
29.41342,37584
29.42153,36527
29.42965,34956
29.43778,38599
29.44590,35575
29.45403,39685
29.46215,37655
29.47027,36777
29.47840,39764
29.48652,39972
29.49465,38202
29.50277,42222
29.51088,43638
29.51902,39787
29.52713,39647
29.53525,37264
29.54338,37018
29.55150,40328
29.55963,40750
29.56775,38418
29.57587,42095
29.58400,46067
29.59212,42776
29.60025,45312
29.60837,45650
29.61648,45529
29.62462,44054
29.63273,42451
29.64087,37571
29.64898,37518
29.65710,38718
29.66523,35522
29.67335,36751
29.68147,35858
29.68960,36569
29.69772,37877
29.70585,34604
29.71397,35136
29.72208,39022
29.73022,40830
29.73833,37113
29.74647,37456
29.75458,35651
29.76270,33535
29.77083,35776
29.77895,35911
29.78707,33947
29.79520,35228
29.80332,38978
29.81145,33707
29.81957,37804
29.82768,38787
29.83582,38373
29.84393,37063
29.85207,37748
29.86018,39030
29.86830,39121
29.87643,42107
29.88455,50454
29.89268,54785
29.90080,65143
29.90892,81708
29.91705,92813
29.92517,100735
29.93328,113049
29.94142,119627
29.94953,130522
29.95767,143128
29.96578,144101
29.97390,139905
29.98203,138570
29.99015,128770
29.99828,125290
30.00640,118622
30.01452,102800
30.02265,99376
30.03077,96196
30.03890,90043
30.04702,83431
30.05513,83819
30.06327,73424
30.07138,67550
30.07950,68096
30.08763,65733
30.09575,63275
30.10388,64126
30.11200,63111
30.12012,54960
30.12825,57570
30.13637,52835
30.14450,52480
30.15262,52841
30.16073,54609
30.16887,50718
30.17698,47845
30.18510,51740
30.19323,47252
30.20135,45980
30.20948,48217
30.21760,47927
30.22572,49119
30.23385,45581
30.24197,45421
30.25010,42806
30.25822,41353
30.26633,42086
30.27447,47188
30.28258,43685
30.29072,39741
30.29883,45106
30.30695,44219
30.31508,43623
30.32320,46928
30.33132,40526
30.33945,42830
30.34757,42355
30.35570,39910
30.36382,46716
30.37193,41998
30.38007,37832
30.38818,37938
30.39632,40961
30.40443,42626
30.41255,40103
30.42068,38594
30.42880,41252
30.43693,41402
30.44505,40688
30.45317,40077
30.46130,42216
30.46942,46093
30.47753,45088
30.48567,42489
30.49378,42218
30.50192,40758
30.51003,41250
30.51815,39604
30.52628,38593
30.53440,37319
30.54253,43396
30.55065,37132
30.55877,35578
30.56690,38712
30.57502,37633
30.58313,41407
30.59127,36997
30.59938,39191
30.60752,38341
30.61563,39761
30.62375,36746
30.63188,35650
30.64000,39268
30.64813,39469
30.65625,41360
30.66437,40295
30.67250,35227
30.68062,36269
30.68875,39978
30.69687,39760
30.70498,36008
30.71312,38102
30.72123,38197
30.72935,46773
30.73748,39677
30.74560,41295
30.75373,38553
30.76185,36937
30.76997,39261
30.77810,44479
30.78622,40812
30.79435,39898
30.80247,39073
30.81058,40652
30.81872,37835
30.82683,42141
30.83495,40441
30.84308,39016
30.85120,39684
30.85933,39135
30.86745,38764
30.87557,35329
30.88370,37184
30.89182,45899
30.89995,39695
30.90807,38002
30.91618,40375
30.92432,37271
30.93243,35766
30.94057,41799
30.94868,37938
30.95680,36661
30.96493,38788
30.97305,35411
30.98117,37554
30.98930,41023
30.99742,34778
31.00555,38000
31.01367,38641
31.02178,42224
31.02992,41581
31.03803,44028
31.04617,37736
31.05428,38826
31.06240,38230
31.07053,39761
31.07865,41572
31.08678,42673
31.09490,44275
31.10302,47084
31.11115,41120
31.11927,44342
31.12738,44972
31.13552,44958
31.14363,38755
31.15177,39496
31.15988,45089
31.16800,53626
31.17613,59178
31.18425,77030
31.19238,92644
31.20050,112542
31.20862,126075
31.21675,127342
31.22487,122749
31.23298,107144
31.24112,77638
31.24923,64360
31.25737,54301
31.26548,50431
31.27360,42890
31.28173,40277
31.28985,43400
31.29798,43366
31.30610,38086
31.31422,40853
31.32235,42158
31.33047,39045
31.33860,39923
31.34672,38076
31.35483,39611
31.36297,41020
31.37108,44294
31.37920,42816
31.38733,42137
31.39545,38014
31.40358,44416
31.41170,37677
31.41982,38591
31.42795,39158
31.43607,39160
31.44420,38890
31.45232,38450
31.46043,38463
31.46857,37492
31.47668,35226
31.48482,37734
31.49293,37280
31.50105,38751
31.50918,37906
31.51730,40361
31.52542,36644
31.53355,39122
31.54167,39478
31.54980,39471
31.55792,34589
31.56603,38167
31.57417,36295
31.58228,39161
31.59042,36262
31.59853,39687
31.60665,36112
31.61478,38380
31.62290,39638
31.63102,36589
31.63915,34847
31.64727,38002
31.65540,40830
31.66352,41575
31.67163,41541
31.67977,40515
31.68788,41101
31.69602,43882
31.70413,39939
31.71225,39990
31.72038,39932
31.72850,39575
31.73663,35072
31.74475,37750
31.75287,37551
31.76100,35337
31.76912,37110
31.77723,40027
31.78537,36944
31.79348,42631
31.80162,41268
31.80973,39249
31.81785,40187
31.82598,44900
31.83410,49079
31.84223,54364
31.85035,60839
31.85847,71052
31.86660,78363
31.87472,86193
31.88283,86048
31.89097,95750
31.89908,99307
31.90722,94400
31.91533,99249
31.92345,92184
31.93158,87420
31.93970,84760
31.94783,81050
31.95595,75770
31.96407,77756
31.97220,70112
31.98032,63404
31.98845,62849
31.99657,67855
32.00468,62704
32.01282,59882
32.02093,61865
32.02905,61826
32.03718,57739
32.04530,58550
32.05343,54191
32.06155,51226
32.06967,48853
32.07780,46575
32.08592,47324
32.09405,47179
32.10217,43529
32.11028,46450
32.11842,45794
32.12653,44845
32.13467,40357
32.14278,42113
32.15090,42449
32.15903,44447
32.16715,45252
32.17527,43620
32.18340,43651
32.19152,42720
32.19965,45107
32.20777,43523
32.21588,40866
32.22402,43559
32.23213,42516
32.24027,42161
32.24838,40873
32.25650,41958
32.26463,40254
32.27275,46352
32.28087,47584
32.28900,44012
32.29712,41950
32.30525,44894
32.31337,42493
32.32148,36286
32.32962,46099
32.33773,47963
32.34587,42617
32.35398,40158
32.36210,43383
32.37023,43164
32.37835,44027
32.38648,41822
32.39460,39732
32.40272,41409
32.41085,42241
32.41897,40663
32.42708,42732
32.43522,42949
32.44333,41345
32.45147,39187
32.45958,42273
32.46770,40500
32.47583,41484
32.48395,41635
32.49208,38830
32.50020,39699
32.50832,43292
32.51645,36818
32.52457,43683
32.53270,39483
32.54082,39292
32.54893,40715
32.55707,44481
32.56518,41244
32.57330,41736
32.58143,42448
32.58955,48344
32.59768,53346
32.60580,60852
32.61392,64253
32.62205,65775
32.63017,56900
32.63830,61025
32.64642,53175
32.65453,44689
32.66267,42528
32.67078,44838
32.67890,44549
32.68703,43302
32.69515,43868
32.70328,42897
32.71140,52296
32.71952,47354
32.72765,47180
32.73577,45849
32.74390,42598
32.75202,40913
32.76013,42250
32.76827,41051
32.77638,42824
32.78452,42427
32.79263,44123
32.80075,38813
32.80888,38782
32.81700,40856
32.82512,40369
32.83325,39910
32.84137,38549
32.84950,38164
32.85762,39256
32.86573,38553
32.87387,39121
32.88198,39234
32.89012,38765
32.89823,41932
32.90635,41465
32.91448,40992
32.92260,41229
32.93073,43602
32.93885,43295
32.94697,42772
32.95510,41900
32.96322,40380
32.97133,39967
32.97947,40709
32.98758,41311
32.99572,41150
33.00383,43529
33.01195,43585
33.02008,38483
33.02820,40725
33.03633,40499
33.04445,40199
33.05257,38104
33.06070,39671
33.06882,41028
33.07693,39904
33.08507,49094
33.09318,48717
33.10132,54232
33.10943,57056
33.11755,60941
33.12568,60628
33.13380,59832
33.14193,56241
33.15005,51034
33.15817,50904
33.16630,44821
33.17442,46594
33.18255,40806
33.19067,44184
33.19878,42168
33.20692,43901
33.21503,39758
33.22315,39227
33.23128,40487
33.23940,39825
33.24753,43694
33.25565,41264
33.26377,42331
33.27190,46256
33.28002,42004
33.28815,40554
33.29627,42263
33.30438,41794
33.31252,44637
33.32063,41846
33.32875,42379
33.33688,41288
33.34500,42113
33.35313,38476
33.36125,41357
33.36937,38624
33.37750,39386
33.38562,41087
33.39375,46241
33.40187,41706
33.40998,40172
33.41812,40439
33.42623,39647
33.43437,42502
33.44248,42045
33.45060,43419
33.45873,42933
33.46685,38897
33.47497,41703
33.48310,42402
33.49122,41166
33.49935,43338
33.50747,43361
33.51558,40953
33.52372,47076
33.53183,40605
33.53997,43478
33.54808,45354
33.55620,41649
33.56433,41794
33.57245,40304
33.58058,46386
33.58870,39899
33.59682,39573
33.60495,41879
33.61307,39112
33.62118,41241
33.62932,43241
33.63743,44426
33.64557,42411
33.65368,44557
33.66180,44778
33.66993,39689
33.67805,42855
33.68618,42570
33.69430,42287
33.70242,40577
33.71055,39657
33.71867,43866
33.72678,42798
33.73492,39594
33.74303,42556
33.75117,41236
33.75928,43695
33.76740,46241
33.77553,49207
33.78365,45071
33.79178,48953
33.79990,49066
33.80802,48167
33.81615,52187
33.82427,47030
33.83240,48057
33.84052,51648
33.84863,55234
33.85677,53327
33.86488,54132
33.87300,59849
33.88113,53556
33.88925,48298
33.89738,50389
33.90550,55047
33.91362,51750
33.92175,54561
33.92987,53459
33.93800,54844
33.94612,57711
33.95423,54475
33.96237,52074
33.97048,53025
33.97862,49240
33.98673,52533
33.99485,52649
34.00298,51629
34.01110,51375
34.01922,54578
34.02735,49210
34.03547,53329
34.04360,50691
34.05172,47975
34.05983,48360
34.06797,46917
34.07608,48994
34.08422,49104
34.09233,49704
34.10045,47957
34.10858,47882
34.11670,54248
34.12482,55178
34.13295,50644
34.14107,49807
34.14920,46330
34.15732,46097
34.16543,48402
34.17357,46482
34.18168,46448
34.18982,45787
34.19793,44571
34.20605,49721
34.21418,47808
34.22230,48313
34.23043,44774
34.23855,47848
34.24667,44841
34.25480,46780
34.26292,45517
34.27103,47072
34.27917,44158
34.28728,46793
34.29542,47278
34.30353,47361
34.31165,48224
34.31978,53623
34.32790,53540
34.33603,51550
34.34415,50894
34.35227,47875
34.36040,50182
34.36852,48602
34.37663,45702
34.38477,45280
34.39288,46770
34.40102,48740
34.40913,48512
34.41725,48414
34.42538,44521
34.43350,46917
34.44163,49254
34.44975,53219
34.45787,60282
34.46600,67234
34.47412,73102
34.48225,87055
34.49037,92952
34.49848,97433
34.50662,98911
34.51473,99346
34.52285,92612
34.53098,86832
34.53910,79120
34.54723,72010
34.55535,77032
34.56347,72722
34.57160,67553
34.57972,60189
34.58785,67350
34.59597,59085
34.60408,64410
34.61222,59589
34.62033,57163
34.62847,58582
34.63658,56571
34.64470,60493
34.65283,64205
34.66095,60396
34.66907,65081
34.67720,59828
34.68532,60033
34.69345,58472
34.70157,59899
34.70968,63305
34.71782,58071
34.72593,62574
34.73407,58929
34.74218,58141
34.75030,59325
34.75843,58541
34.76655,60613
34.77468,57376
34.78280,57203
34.79092,59052
34.79905,53937
34.80717,54692
34.81528,60714
34.82342,55858
34.83153,58843
34.83967,52993
34.84778,55274
34.85590,54306
34.86403,51313
34.87215,54361
34.88028,53481
34.88840,55031
34.89652,54861
34.90465,49368
34.91277,52291
34.92088,54730
34.92902,51088
34.93713,54027
34.94527,52460
34.95338,57080
34.96150,56064
34.96963,56631
34.97775,53183
34.98588,49910
34.99400,52320
35.00212,54557
35.01025,50739
35.01837,56842
35.02650,50211
35.03462,50472
35.04273,50900
35.05087,51906
35.05898,48587
35.06710,49136
35.07523,52869
35.08335,48992
35.09148,51060
35.09960,54861
35.10772,50781
35.11585,55561
35.12397,53772
35.13210,53061
35.14022,54916
35.14833,52387
35.15647,51609
35.16458,48619
35.17270,48682
35.18083,53984
35.18895,52017
35.19708,50364
35.20520,52681
35.21332,51964
35.22145,55334
35.22957,55176
35.23770,55588
35.24582,55207
35.25393,60484
35.26207,58723
35.27018,58319
35.27832,56704
35.28643,59600
35.29455,50227
35.30268,56708
35.31080,52776
35.31892,51435
35.32705,54344
35.33517,52928
35.34330,54260
35.35142,52354
35.35953,53415
35.36767,53212
35.37578,52783
35.38392,58713
35.39203,52932
35.40015,57347
35.40828,52467
35.41640,50059
35.42453,54576
35.43265,53872
35.44077,58520
35.44890,56603
35.45702,58244
35.46513,61300
35.47327,58503
35.48138,56725
35.48952,58838
35.49763,59636
35.50575,53282
35.51388,55268
35.52200,55965
35.53013,54458
35.53825,52105
35.54637,56039
35.55450,59312
35.56262,60537
35.57073,62353
35.57887,57080
35.58698,54930
35.59512,61067
35.60323,62738
35.61135,60908
35.61948,61337
35.62760,62136
35.63573,58908
35.64385,59965
35.65197,55883
35.66010,50372
35.66822,56444
35.67635,58054
35.68447,58510
35.69258,59421
35.70072,55774
35.70883,58590
35.71695,60202
35.72508,52514
35.73320,54681
35.74133,54672
35.74945,55049
35.75757,50439
35.76570,53763
35.77382,54527
35.78195,55073
35.79007,58736
35.79818,53200
35.80632,49201
35.81443,55016
35.82257,57234
35.83068,59514
35.83880,59374
35.84693,56657
35.85505,58915
35.86317,53931
35.87130,51752
35.87942,54246
35.88755,55440
35.89567,55647
35.90378,55273
35.91192,57246
35.92003,53916
35.92817,54370
35.93628,58292
35.94440,53931
35.95253,58450
35.96065,59218
35.96877,55945
35.97690,57710
35.98502,61705
35.99315,58752
36.00127,60442
36.00938,62212
36.01752,65550
36.02563,63441
36.03377,63842
36.04188,61172
36.05000,64311
36.05813,61709
36.06625,57356
36.07438,60400
36.08250,60714
36.09062,56772
36.09875,60110
36.10687,56718
36.11498,59346
36.12312,58415
36.13123,59913
36.13937,63239
36.14748,61333
36.15560,56610
36.16373,57606
36.17185,58719
36.17998,58428
36.18810,58212
36.19622,58465
36.20435,58580
36.21247,57288
36.22058,58283
36.22872,63706
36.23683,67875
36.24497,71857
36.25308,86646
36.26120,85300
36.26933,88310
36.27745,85930
36.28558,76287
36.29370,71927
36.30182,65586
36.30995,65330
36.31807,60777
36.32620,64273
36.33432,65426
36.34243,58248
36.35057,63358
36.35868,57649
36.36680,59895
36.37493,62998
36.38305,62369
36.39118,68816
36.39930,62113
36.40742,67025
36.41555,65770
36.42367,63583
36.43180,61771
36.43992,62232
36.44803,60824
36.45617,61375
36.46428,56324
36.47242,59546
36.48053,60276
36.48865,58848
36.49678,61699
36.50490,58758
36.51302,57721
36.52115,62945
36.52927,60547
36.53740,61342
36.54552,63359
36.55363,59309
36.56177,64118
36.56988,62009
36.57802,65678
36.58613,60821
36.59425,59240
36.60238,66151
36.61050,65652
36.61862,60837
36.62675,62952
36.63487,63492
36.64300,56688
36.65112,64373
36.65923,61493
36.66737,61696
36.67548,62217
36.68362,58108
36.69173,65522
36.69985,66966
36.70798,64331
36.71610,63494
36.72423,60668
36.73235,64391
36.74047,62061
36.74860,59541
36.75672,61858
36.76483,61926
36.77297,61804
36.78108,64575
36.78922,64842
36.79733,65171
36.80545,63162
36.81358,61792
36.82170,61059
36.82983,64398
36.83795,63859
36.84607,57730
36.85420,63794
36.86232,64454
36.87045,64166
36.87857,67243
36.88668,66566
36.89482,65183
36.90293,61162
36.91105,61022
36.91918,60193
36.92730,60956
36.93543,69068
36.94355,64455
36.95167,64510
36.95980,68058
36.96792,65050
36.97605,65425
36.98417,67961
36.99228,70345
37.00042,74420
37.00853,80226
37.01665,84370
37.02478,95472
37.03290,87947
37.04103,89715
37.04915,85638
37.05727,77985
37.06540,73383
37.07352,72552
37.08165,64917
37.08977,72902
37.09788,67153
37.10602,72052
37.11413,71270
37.12227,71402
37.13038,70496
37.13850,78868
37.14663,68814
37.15475,72593
37.16287,75982
37.17100,72341
37.17912,75210
37.18725,71679
37.19537,72191
37.20348,72101
37.21162,70609
37.21973,73072
37.22787,77952
37.23598,74162
37.24410,74777
37.25223,78815
37.26035,80782
37.26848,88270
37.27660,93034
37.28472,102357
37.29285,115704
37.30097,115894
37.30908,114060
37.31722,114750
37.32533,110771
37.33347,109615
37.34158,101108
37.34970,101423
37.35783,97156
37.36595,89129
37.37408,93040
37.38220,93063
37.39032,89860
37.39845,89255
37.40657,88531
37.41468,88169
37.42282,88102
37.43093,88037
37.43907,90391
37.44718,90048
37.45530,91525
37.46343,91141
37.47155,90794
37.47968,91396
37.48780,89447
