C:\MassHunter\GCMS\1\data\JTB-E02\BACandBLUE\JTB-E18-013-11.D Thu Jun 20 11:29:06 2019
Start of data points
2.09532,75928
2.10345,75400
2.11157,70015
2.11968,75500
2.12782,76245
2.13593,77295
2.14407,73857
2.15218,73786
2.16030,73854
2.16843,77580
2.17655,76670
2.18468,72935
2.19280,68692
2.20092,73408
2.20905,67718
2.21717,65821
2.22528,74338
2.23342,70104
2.24153,69754
2.24967,64413
2.25778,65596
2.26590,81464
2.27403,343104
2.28215,1008337
2.29028,871145
2.29840,413588
2.30652,276815
2.31465,220582
2.32277,199973
2.33090,180077
2.33902,165354
2.34713,162046
2.35527,147281
2.36338,144822
2.37150,132281
2.37963,128793
2.38775,128260
2.39588,130851
2.40400,124420
2.41212,120177
2.42025,121399
2.42837,117778
2.43650,121661
2.44462,114653
2.45273,116045
2.46087,115646
2.46898,115449
2.47710,106231
2.48523,115053
2.49335,135362
2.50148,158106
2.50960,133606
2.51772,121224
2.52585,113294
2.53397,115508
2.54210,116409
2.55022,118761
2.55833,151140
2.56647,225431
2.57458,201668
2.58272,159533
2.59083,146491
2.59895,140564
2.60708,331545
2.61520,1076978
2.62332,1233185
2.63145,695330
2.63957,425574
2.64770,319118
2.65582,263099
2.66393,216337
2.67207,191727
2.68018,172798
2.68832,163306
2.69643,159256
2.70455,148069
2.71268,141664
2.72080,139713
2.72893,136258
2.73705,139468
2.74517,129747
2.75330,127580
2.76142,119835
2.76953,119257
2.77767,130291
2.78578,212990
2.79392,315241
2.80203,261616
2.81015,194743
2.81828,172295
2.82640,179974
2.83453,165974
2.84265,153799
2.85077,153058
2.85890,138124
2.86702,130554
2.87513,132196
2.88327,127869
2.89138,116507
2.89952,122660
2.90763,125502
2.91575,116085
2.92388,118535
2.93200,107822
2.94013,112571
2.94825,108894
2.95637,111426
2.96450,120061
2.97262,129226
2.98075,120064
2.98887,114199
2.99698,115312
3.00512,119413
3.01323,115718
3.02135,113676
3.02948,114467
3.03760,112939
3.04573,105045
3.05385,112250
3.06197,108692
3.07010,112694
3.07822,146879
3.08635,656603
3.09447,2532580
3.10258,4605467
3.11072,5827846
3.11883,6120649
3.12695,4287550
3.13508,2675365
3.14320,1941517
3.15133,1538213
3.15945,1230411
3.16757,1039246
3.17570,886626
3.18382,837284
3.19195,952373
3.20007,1264441
3.20818,1201071
3.21632,897084
3.22443,724469
3.23257,628653
3.24068,555800
3.24880,492495
3.25693,454967
3.26505,415178
3.27317,390444
3.28130,380955
3.28942,498281
3.29755,1376076
3.30567,3933443
3.31378,6988444
3.32192,7455464
3.33003,5566998
3.33817,3543570
3.34628,2478820
3.35440,1912878
3.36253,1556798
3.37065,1332568
3.37878,1171431
3.38690,1026167
3.39502,916294
3.40315,826163
3.41127,757857
3.41938,708167
3.42752,655823
3.43563,624983
3.44377,591588
3.45188,569453
3.46000,544362
3.46813,533499
3.47625,555442
3.48438,553502
3.49250,510767
3.50062,490638
3.50875,454860
3.51687,439862
3.52498,429677
3.53312,421280
3.54123,430898
3.54937,417162
3.55748,409953
3.56560,397789
3.57373,415825
3.58185,455848
3.58998,452257
3.59810,414475
3.60622,390820
3.61435,383543
3.62247,384872
3.63060,386455
3.63872,387001
3.64683,393029
3.65497,378158
3.66308,473319
3.67120,1374861
3.67933,4364539
3.68745,7294519
3.69558,6415442
3.70370,3928305
3.71182,2415689
3.71995,1864791
3.72807,1544900
3.73620,1345478
3.74432,1219713
3.75243,1095557
3.76057,1004490
3.76868,925812
3.77682,893695
3.78493,830204
3.79305,780450
3.80118,785407
3.80930,1044049
3.81742,1696332
3.82555,2180305
3.83367,1855797
3.84180,1335740
3.84992,1034496
3.85803,912966
3.86617,824850
3.87428,774537
3.88242,709627
3.89053,670579
3.89865,648961
3.90678,618341
3.91490,605309
3.92302,623228
3.93115,690729
3.93927,728867
3.94740,853460
3.95552,1806532
3.96363,4799570
3.97177,8400027
3.97988,8818379
3.98802,6148118
3.99613,4220294
4.00425,6979146
4.01238,1.738571E+07
4.02050,2.899111E+07
4.02863,3.062535E+07
4.03675,2.14509E+07
4.04487,1.159425E+07
4.05300,6664962
4.06112,4610225
4.06923,3489692
4.07737,2822492
4.08548,2344222
4.09362,2014672
4.10173,1762053
4.10985,1548948
4.11798,1393223
4.12610,1262928
4.13423,1192758
4.14235,1143873
4.15047,1144855
4.15860,1116479
4.16672,1068801
4.17485,989400
4.18297,942501
4.19108,892235
4.19922,824201
4.20733,839089
4.21545,1373984
4.22358,3838805
4.23170,8781171
4.23983,1.321731E+07
4.24795,1.350893E+07
4.25607,9922668
4.26420,6203785
4.27232,4283786
4.28045,3226629
4.28857,2566122
4.29668,2113331
4.30482,1793279
4.31293,1539441
4.32105,1380401
4.32918,1249456
4.33730,1132377
4.34543,1063307
4.35355,1001143
4.36167,956197
4.36980,934208
4.37792,901267
4.38605,869849
4.39417,803875
4.40228,766219
4.41042,730881
4.41853,708813
4.42667,672043
4.43478,666100
4.44290,636629
4.45103,621437
4.45915,618006
4.46727,596595
4.47540,586348
4.48352,556999
4.49165,549732
4.49977,542134
4.50788,528712
4.51602,512043
4.52413,507284
4.53227,496520
4.54038,483996
4.54850,484938
4.55663,455310
4.56475,467542
4.57287,466909
4.58100,442186
4.58912,420097
4.59725,417915
4.60537,418080
4.61348,407834
4.62162,420591
4.62973,443676
4.63787,505564
4.64598,595718
4.65410,614178
4.66223,572486
4.67035,499483
4.67848,459222
4.68660,426957
4.69472,416504
4.70285,415541
4.71097,384769
4.71908,378519
4.72722,385712
4.73533,371059
4.74347,358814
4.75158,353157
4.75970,344657
4.76783,346037
4.77595,340498
4.78408,337454
4.79220,391815
4.80032,605568
4.80845,991309
4.81657,1247914
4.82470,1116388
4.83282,864885
4.84093,690000
4.84907,643310
4.85718,597360
4.86530,554395
4.87343,503701
4.88155,466690
4.88968,440337
4.89780,414202
4.90592,396726
4.91405,381337
4.92217,383452
4.93030,391169
4.93842,531347
4.94653,1057127
4.95467,2361872
4.96278,4291056
4.97090,5735852
4.97903,5711521
4.98715,4467875
4.99528,3039514
5.00340,2100339
5.01152,1534882
5.01965,1241848
5.02777,1058308
5.03590,967253
5.04402,959275
5.05213,931732
5.06027,850204
5.06838,754716
5.07652,693479
5.08463,641186
5.09275,592293
5.10088,563250
5.10900,535608
5.11712,510075
5.12525,503036
5.13337,487846
5.14150,468286
5.14962,469778
5.15773,473117
5.16587,494353
5.17398,505344
5.18212,514976
5.19023,489506
5.19835,461772
5.20648,461915
5.21460,455356
5.22273,459367
5.23085,452384
5.23897,445928
5.24710,441074
5.25522,422327
5.26333,409230
5.27147,377765
5.27958,362384
5.28772,353055
5.29583,351948
5.30395,340228
5.31208,340053
5.32020,349202
5.32833,352463
5.33645,350992
5.34457,374902
5.35270,375784
5.36082,370373
5.36893,346747
5.37707,328998
5.38518,328836
5.39332,331209
5.40143,342179
5.40955,331940
5.41768,326423
5.42580,318524
5.43393,308390
5.44205,302509
5.45017,308820
5.45830,312175
5.46642,304313
5.47455,299967
5.48267,297033
5.49078,290780
5.49892,284822
5.50703,288231
5.51515,295585
5.52328,302637
5.53140,304121
5.53953,303016
5.54765,285400
5.55577,284037
5.56390,291229
5.57202,316185
5.58015,330352
5.58827,338458
5.59638,317748
5.60452,296918
5.61263,270841
5.62075,276574
5.62888,273757
5.63700,292997
5.64513,301284
5.65325,307581
5.66137,297218
5.66950,295026
5.67762,285379
5.68575,298174
5.69387,328119
5.70198,333155
5.71012,334501
5.71823,311079
5.72637,284571
5.73448,277881
5.74260,261830
5.75073,256952
5.75885,253905
5.76697,240864
5.77510,253574
5.78322,246945
5.79135,238625
5.79947,236385
5.80758,234758
5.81572,232690
5.82383,237214
5.83197,234944
5.84008,239274
5.84820,238464
5.85633,233264
5.86445,228381
5.87258,221528
5.88070,224798
5.88882,219563
5.89695,222704
5.90507,219079
5.91318,191770
5.92132,175636
5.92943,175515
5.93757,164314
5.94568,164471
5.95380,171188
5.96193,202234
5.97005,218963
5.97818,246645
5.98630,277801
5.99442,297933
6.00255,307316
6.01067,294224
6.01878,258724
6.02692,231480
6.03503,212511
6.04317,195869
6.05128,189143
6.05940,174245
6.06753,171280
6.07565,165099
6.08378,165823
6.09190,159613
6.10002,158737
6.10815,158967
6.11627,163520
6.12440,177938
6.13252,199436
6.14063,264914
6.14877,365029
6.15688,408558
6.16500,381909
6.17313,310879
6.18125,260710
6.18938,236726
6.19750,208866
6.20562,204495
6.21375,199588
6.22187,203831
6.23000,194033
6.23812,196839
6.24623,190280
6.25437,192040
6.26248,199459
6.27062,192371
6.27873,197586
6.28685,195674
6.29498,196023
6.30310,193410
6.31122,195152
6.31935,199282
6.32747,213865
6.33560,250614
6.34372,302860
6.35183,329682
6.35997,309644
6.36808,269528
6.37622,232723
6.38433,225540
6.39245,213380
6.40058,205955
6.40870,206484
6.41682,208581
6.42495,204423
6.43307,207454
6.44120,200928
6.44932,198132
6.45743,199310
6.46557,197121
6.47368,193374
6.48182,206603
6.48993,194493
6.49805,208024
6.50618,201874
6.51430,200381
6.52243,210325
6.53055,207465
6.53867,216242
6.54680,210130
6.55492,211652
6.56303,215297
6.57117,212741
6.57928,232296
6.58742,249108
6.59553,248199
6.60365,246979
6.61178,231897
6.61990,227141
6.62803,224755
6.63615,223806
6.64427,215640
6.65240,230570
6.66052,271742
6.66863,353178
6.67677,436506
6.68488,474335
6.69302,425562
6.70113,350237
6.70925,300990
6.71738,263247
6.72550,259897
6.73363,257937
6.74175,248461
6.74987,240519
6.75800,230234
6.76612,198222
6.77425,189286
6.78237,176893
6.79048,164945
6.79862,169127
6.80673,159633
6.81485,154795
6.82298,150909
6.83110,146053
6.83923,155266
6.84735,161942
6.85547,170757
6.86360,178969
6.87172,190973
6.87985,190393
6.88797,164494
6.89608,135774
6.90422,115277
6.91233,111657
6.92047,100848
6.92858,94725
6.93670,100093
6.94483,100433
6.95295,90526
6.96107,94598
6.96920,100510
6.97732,113198
6.98545,120915
6.99357,123943
7.00168,119575
7.00982,109806
7.01793,101620
7.02607,92110
7.03418,94324
7.04230,98753
7.05043,91911
7.05855,92539
7.06668,89384
7.07480,93660
7.08292,89923
7.09105,84366
7.09917,88312
7.10728,84943
7.11542,80829
7.12353,81000
7.13167,84393
7.13978,96437
7.14790,125366
7.15603,175386
7.16415,260305
7.17228,335558
7.18040,331707
7.18852,272434
7.19665,194350
7.20477,165811
7.21288,161348
7.22102,262450
7.22913,592116
7.23727,1195337
7.24538,1727684
7.25350,1811120
7.26163,1450587
7.26975,911442
7.27788,563927
7.28600,395782
7.29412,307849
7.30225,217277
7.31037,154553
7.31850,137728
7.32662,124003
7.33473,123992
7.34287,121823
7.35098,118647
7.35910,106833
7.36723,105877
7.37535,102588
7.38348,111113
7.39160,113033
7.39972,113559
7.40785,111770
7.41597,116801
7.42410,107591
7.43222,94057
7.44033,96100
7.44847,96762
7.45658,98492
7.46470,99718
7.47283,88680
7.48095,96104
7.48908,89045
7.49720,90684
7.50532,87256
7.51345,89435
7.52157,99253
7.52970,111234
7.53782,152208
7.54593,212141
7.55407,268341
7.56218,306360
7.57032,330638
7.57843,293451
7.58655,230769
7.59468,183539
7.60280,137595
7.61092,121440
7.61905,109326
7.62717,98809
7.63530,91326
7.64342,95328
7.65153,89448
7.65967,85661
7.66778,82148
7.67592,83126
7.68403,82453
7.69215,73533
7.70028,79334
7.70840,76731
7.71653,77149
7.72465,81384
7.73277,79365
7.74090,75281
7.74902,79258
7.75713,75818
7.76527,79262
7.77338,85289
7.78152,84381
7.78963,88630
7.79775,90661
7.80588,92595
7.81400,94093
7.82213,100625
7.83025,87686
7.83837,85589
7.84650,77758
7.85462,80560
7.86273,73672
7.87087,75113
7.87898,82370
7.88712,74967
7.89523,85623
7.90335,84269
7.91148,76522
7.91960,78036
7.92773,81138
7.93585,92542
7.94397,105609
7.95210,119377
7.96022,123456
7.96835,116479
7.97647,108265
7.98458,96206
7.99272,87260
8.00083,81137
8.00895,77646
8.01708,72843
8.02520,76147
8.03333,73806
8.04145,74436
8.04957,72060
8.05770,73606
8.06582,69583
8.07395,71203
8.08207,71972
8.09018,71804
8.09832,64221
8.10643,61899
8.11457,70364
8.12268,72920
8.13080,70457
8.13893,76006
8.14705,88388
8.15517,97831
8.16330,104868
8.17142,96473
8.17955,92651
8.18767,79208
8.19578,73912
8.20392,73146
8.21203,68606
8.22017,68936
8.22828,71188
8.23640,67449
8.24453,66603
8.25265,69792
8.26077,64946
8.26890,66787
8.27702,67793
8.28515,68676
8.29327,66907
8.30138,71519
8.30952,70158
8.31763,72527
8.32577,74948
8.33388,74661
8.34200,77168
8.35013,73737
8.35825,75296
8.36638,72292
8.37450,72356
8.38262,73036
8.39075,72401
8.39887,72343
8.40698,69238
8.41512,66456
8.42323,64367
8.43137,61964
8.43948,68081
8.44760,62008
8.45573,64906
8.46385,62588
8.47198,60905
8.48010,64556
8.48822,65274
8.49635,65064
8.50447,59089
8.51258,61569
8.52072,67607
8.52883,81334
8.53697,141162
8.54508,232499
8.55320,362901
8.56133,434901
8.56945,413568
8.57758,319966
8.58570,221832
8.59382,158076
8.60195,136332
8.61007,140594
8.61820,148067
8.62632,138987
8.63443,121865
8.64257,102906
8.65068,92040
8.65880,85728
8.66693,75343
8.67505,79078
8.68318,77386
8.69130,77889
8.69942,73084
8.70755,75789
8.71567,75566
8.72380,75340
8.73192,72200
8.74003,76050
8.74817,80071
8.75628,127049
8.76442,273121
8.77253,592638
8.78065,1114977
8.78878,1664620
8.79690,1928324
8.80502,1718651
8.81315,1234879
8.82127,807997
8.82940,489106
8.83752,335990
8.84563,281946
8.85377,247902
8.86188,245821
8.87002,243996
8.87813,230638
8.88625,209010
8.89438,200617
8.90250,179253
8.91062,170692
8.91875,164680
8.92687,166797
8.93500,161119
8.94312,167554
8.95123,179665
8.95937,182486
8.96748,186774
8.97562,169544
8.98373,163960
8.99185,150384
8.99998,150859
9.00810,140286
9.01623,137388
9.02435,129388
9.03247,125785
9.04060,115445
9.04872,116991
9.05683,103994
9.06497,106383
9.07308,107702
9.08122,110788
9.08933,112835
9.09745,116866
9.10558,116086
9.11370,128666
9.12183,132787
9.12995,133337
9.13807,124082
9.14620,119682
9.15432,113189
9.16245,110613
9.17057,106263
9.17868,105449
9.18682,100810
9.19493,95145
9.20305,100075
9.21118,90983
9.21930,97297
9.22743,93295
9.23555,98845
9.24367,94038
9.25180,98801
9.25992,98431
9.26805,91927
9.27617,94082
9.28428,89768
9.29242,87901
9.30053,89473
9.30865,89235
9.31678,86280
9.32490,82310
9.33303,82298
9.34115,84448
9.34927,77717
9.35740,78616
9.36552,79964
9.37365,78881
9.38177,80100
9.38988,79403
9.39802,81747
9.40613,85176
9.41427,84411
9.42238,88368
9.43050,101324
9.43863,102087
9.44675,109911
9.45487,114944
9.46300,102385
9.47112,96049
9.47925,86723
9.48737,82861
9.49548,84099
9.50362,79725
9.51173,99001
9.51987,121896
9.52798,130907
9.53610,141379
9.54423,129287
9.55235,116397
9.56048,99504
9.56860,90326
9.57672,87230
9.58485,82838
9.59297,80488
9.60108,69820
9.60922,71703
9.61733,61947
9.62547,60140
9.63358,55694
9.64170,52339
9.64983,56273
9.65795,53185
9.66608,54147
9.67420,53263
9.68232,62305
9.69045,55140
9.69857,49112
9.70668,51428
9.71482,51454
9.72293,49677
9.73107,51244
9.73918,52360
9.74730,51779
9.75543,47765
9.76355,47099
9.77168,48060
9.77980,48214
9.78792,48114
9.79605,47755
9.80417,46627
9.81230,50846
9.82042,45826
9.82853,48049
9.83667,45238
9.84478,39645
9.85290,44384
9.86103,46858
9.86915,51438
9.87728,55864
9.88540,56588
9.89352,54408
9.90165,50723
9.90977,49743
9.91790,51295
9.92602,58175
9.93413,76774
9.94227,108879
9.95038,170181
9.95850,255165
9.96663,287507
9.97475,286384
9.98288,237300
9.99100,172010
9.99912,132835
10.00725,117077
10.01537,98345
10.02350,94637
10.03162,84829
10.03973,79554
10.04787,70326
10.05598,71171
10.06412,64672
10.07223,65322
10.08035,64836
10.08848,68938
10.09660,69868
10.10472,68299
10.11285,63198
10.12097,64399
10.12910,62050
10.13722,60457
10.14533,60118
10.15347,56961
10.16158,55477
10.16972,56171
10.17783,58685
10.18595,57599
10.19408,55510
10.20220,51732
10.21033,55374
10.21845,55320
10.22657,57172
10.23470,56862
10.24282,62290
10.25093,64924
10.25907,73955
10.26718,108653
10.27532,219831
10.28343,521663
10.29155,1049948
10.29968,1828378
10.30780,2709084
10.31593,3848201
10.32405,5730394
10.33217,8548084
10.34030,1.152582E+07
10.34842,1.27536E+07
10.35653,1.142523E+07
10.36467,8160732
10.37278,5272028
10.38092,3408342
10.38903,2330316
10.39715,1659442
10.40528,1195966
10.41340,856081
10.42153,663165
10.42965,558307
10.43777,489608
10.44590,444743
10.45402,404109
10.46215,377460
10.47027,354350
10.47838,327465
10.48652,318654
10.49463,281421
10.50275,261985
10.51088,250903
10.51900,246680
10.52713,231729
10.53525,236369
10.54337,236094
10.55150,225048
10.55962,210945
10.56775,212382
10.57587,201331
10.58398,194949
10.59212,187851
10.60023,174941
10.60837,172779
10.61648,165496
10.62460,153267
10.63273,157064
10.64085,153073
10.64897,141185
10.65710,138973
10.66522,136457
10.67335,129603
10.68147,134476
10.68958,131265
10.69772,130275
10.70583,131318
10.71397,124380
10.72208,118333
10.73020,116448
10.73833,118972
10.74645,117690
10.75457,114800
10.76270,117309
10.77082,113112
10.77895,105167
10.78707,104111
10.79518,107517
10.80332,102400
10.81143,103523
10.81957,101960
10.82768,97516
10.83580,103366
10.84393,94370
10.85205,91461
10.86018,87863
10.86830,86103
10.87642,88362
10.88455,83474
10.89267,83762
10.90078,86450
10.90892,79028
10.91703,77976
10.92517,74716
10.93328,81535
10.94140,75565
10.94953,82329
10.95765,77831
10.96578,82472
10.97390,74616
10.98202,76683
10.99015,79676
10.99827,78997
11.00638,77386
11.01452,72642
11.02263,71889
11.03077,66124
11.03888,67766
11.04700,67233
11.05513,64722
11.06325,70511
11.07138,70512
11.07950,69980
11.08762,69372
11.09575,76696
11.10387,72010
11.11200,69267
11.12012,66237
11.12823,64332
11.13637,60581
11.14448,62549
11.15260,60079
11.16073,61205
11.16885,61469
11.17698,60130
11.18510,64603
11.19322,63242
11.20135,63003
11.20947,65309
11.21760,64911
11.22572,59674
11.23383,55061
11.24197,53315
11.25008,52023
11.25822,50350
11.26633,52978
11.27445,45718
11.28258,46665
11.29070,47761
11.29882,49349
11.30695,55325
11.31507,71135
11.32320,98572
11.33132,141276
11.33943,196958
11.34757,235017
11.35568,252509
11.36382,218858
11.37193,179330
11.38005,134936
11.38818,97236
11.39630,89860
11.40443,72700
11.41255,72059
11.42067,76840
11.42880,68599
11.43692,70918
11.44503,64237
11.45317,59129
11.46128,57981
11.46942,58521
11.47753,63999
11.48565,74555
11.49378,85991
11.50190,102941
11.51003,115319
11.51815,112109
11.52627,101995
11.53440,88734
11.54252,80762
11.55063,80860
11.55877,74917
11.56688,70490
11.57502,67204
11.58313,60149
11.59125,60942
11.59938,72468
11.60750,89992
11.61563,119138
11.62375,139090
11.63187,153846
11.64000,143587
11.64812,129888
11.65625,99224
11.66437,79796
11.67248,75675
11.68062,67371
11.68873,65827
11.69685,67262
11.70498,72171
11.71310,69221
11.72123,66417
11.72935,65577
11.73747,57773
11.74560,58732
11.75372,66577
11.76185,55171
11.76997,52323
11.77808,56140
11.78622,55008
11.79433,52324
11.80245,51510
11.81058,51661
11.81870,52137
11.82683,52729
11.83495,50333
11.84307,50351
11.85120,53887
11.85932,51726
11.86745,47461
11.87557,45535
11.88368,46434
11.89182,41949
11.89993,44694
11.90807,46126
11.91618,48157
11.92430,52232
11.93243,59453
11.94055,57786
11.94867,63109
11.95680,57594
11.96492,51680
11.97305,54630
11.98117,83100
11.98928,150430
11.99742,311497
12.00553,560052
12.01367,810835
12.02178,974455
12.02990,903831
12.03803,705189
12.04615,500274
12.05427,316856
12.06240,209920
12.07052,161023
12.07865,152096
12.08677,133976
12.09488,126902
12.10302,119353
12.11113,110184
12.11927,109400
12.12738,107521
12.13550,103251
12.14363,111068
12.15175,102370
12.15988,97947
12.16800,99056
12.17612,84885
12.18425,83836
12.19237,81812
12.20048,83425
12.20862,73315
12.21673,80515
12.22487,77198
12.23298,74667
12.24110,75835
12.24923,73149
12.25735,69623
12.26548,76308
12.27360,72969
12.28172,68629
12.28985,75456
12.29797,66314
12.30610,66795
12.31422,65062
12.32233,63726
12.33047,64235
12.33858,62509
12.34670,59972
12.35483,65034
12.36295,62206
12.37108,64876
12.37920,58285
12.38732,59377
12.39545,64110
12.40357,69242
12.41170,71663
12.41982,83669
12.42793,92351
12.43607,97863
12.44418,95897
12.45232,87215
12.46043,82554
12.46855,79106
12.47668,73336
12.48480,68948
12.49292,63924
12.50105,66067
12.50917,60760
12.51730,62064
12.52542,71533
12.53353,98406
12.54167,198686
12.54978,452039
12.55792,956961
12.56603,1601306
12.57415,2027804
12.58228,2033997
12.59040,1614379
12.59852,1062399
12.60665,619902
12.61477,362693
12.62290,239641
12.63102,183741
12.63913,156471
12.64727,142652
12.65538,127465
12.66352,116639
12.67163,110396
12.67975,107329
12.68788,94621
12.69600,89343
12.70413,86620
12.71225,81413
12.72037,80324
12.72850,87478
12.73662,84955
12.74473,84705
12.75287,82368
12.76098,80645
12.76912,77635
12.77723,70101
12.78535,66403
12.79348,63096
12.80160,61976
12.80973,56618
12.81785,55620
12.82597,53674
12.83410,54007
12.84222,58753
12.85033,55177
12.85847,51536
12.86658,51263
12.87472,51556
12.88283,49536
12.89095,51112
12.89908,46998
12.90720,48772
12.91533,46065
12.92345,46614
12.93157,46356
12.93970,50215
12.94782,48973
12.95595,63361
12.96407,106534
12.97218,180258
12.98032,288235
12.98843,401639
12.99655,443067
13.00468,402771
13.01280,281378
13.02093,194586
13.02905,130054
13.03717,101117
13.04530,85122
13.05342,73710
13.06155,70581
13.06967,67702
13.07778,59846
13.08592,63326
13.09403,57479
13.10217,58783
13.11028,56396
13.11840,54026
13.12653,52742
13.13465,51917
13.14277,54388
13.15090,51269
13.15902,48273
13.16715,52141
13.17527,48794
13.18338,50923
13.19152,53610
13.19963,54490
13.20777,56643
13.21588,58820
13.22400,60086
13.23213,53717
13.24025,54186
13.24837,53398
13.25650,53104
13.26462,49472
13.27275,49004
13.28087,48731
13.28898,45586
13.29712,42504
13.30523,40891
13.31337,44709
13.32148,43061
13.32960,39921
13.33773,38769
13.34585,39918
13.35398,41893
13.36210,42121
13.37022,41345
13.37835,41528
13.38647,37947
13.39458,41563
13.40272,39868
13.41083,47202
13.41897,36238
13.42708,38384
13.43520,37683
13.44333,38313
13.45145,36937
13.45958,35741
13.46770,36945
13.47582,38618
13.48395,40788
13.49207,39423
13.50020,41778
13.50832,39369
13.51643,36861
13.52457,41550
13.53268,40618
13.54080,41940
13.54893,41103
13.55705,43899
13.56518,38407
13.57330,38669
13.58142,42071
13.58955,41138
13.59767,38623
13.60580,39376
13.61392,44494
13.62203,50645
13.63017,48298
13.63828,54238
13.64640,51381
13.65453,47004
13.66265,45906
13.67078,39904
13.67890,39340
13.68702,37130
13.69515,36074
13.70327,37801
13.71140,36296
13.71952,36078
13.72763,42578
13.73577,57766
13.74388,118348
13.75202,292714
13.76013,693014
13.76825,1413505
13.77638,2292390
13.78450,3033486
13.79262,3167090
13.80075,2780402
13.80887,2002200
13.81700,1355086
13.82512,883558
13.83323,613441
13.84137,515444
13.84948,469360
13.85762,396996
13.86573,362844
13.87385,317182
13.88198,283221
13.89010,257357
13.89822,236012
13.90635,220685
13.91447,204751
13.92260,198390
13.93072,186789
13.93883,182735
13.94697,184757
13.95508,183425
13.96322,204133
13.97133,239817
13.97945,276608
13.98758,330779
13.99570,319139
14.00383,305226
14.01195,262031
14.02007,216574
14.02820,183668
14.03632,163168
14.04443,150362
14.05257,147086
14.06068,137712
14.06882,137107
14.07693,139559
14.08505,136264
14.09318,132329
14.10130,128982
14.10943,119228
14.11755,130726
14.12567,130973
14.13380,135652
14.14192,152973
14.15005,187819
14.15817,213813
14.16628,220991
14.17442,219981
14.18253,221751
14.19065,267186
14.19878,347123
14.20690,442637
14.21503,511413
14.22315,498661
14.23127,432841
14.23940,345509
14.24752,272486
14.25565,239663
14.26377,214940
14.27188,198063
14.28002,165811
14.28813,144301
14.29625,134267
14.30438,123315
14.31250,115971
14.32063,118030
14.32875,108429
14.33687,109924
14.34500,109633
14.35312,102854
14.36125,98668
14.36937,90216
14.37748,83760
14.38562,76350
14.39373,70742
14.40187,71705
14.40998,69287
14.41810,70397
14.42623,80176
14.43435,84621
14.44247,79709
14.45060,75627
14.45872,69005
14.46685,63803
14.47497,65286
14.48308,63099
14.49122,60424
14.49933,61161
14.50747,66189
14.51558,70139
14.52370,75086
14.53183,82142
14.53995,84086
14.54808,77401
14.55620,70283
14.56432,62298
14.57245,58046
14.58057,59222
14.58868,54987
14.59682,54561
14.60493,50373
14.61307,50307
14.62118,46519
14.62930,48251
14.63743,47474
14.64555,48024
14.65368,48602
14.66180,47830
14.66992,41997
14.67805,45433
14.68617,45815
14.69428,42546
14.70242,50812
14.71053,45771
14.71867,45338
14.72678,46489
14.73490,47603
14.74303,48436
14.75115,59140
14.75928,55284
14.76740,51745
14.77552,55287
14.78365,58432
14.79177,82802
14.79990,154340
14.80802,395248
14.81613,949934
14.82427,1955366
14.83238,3176002
14.84050,3940873
14.84863,3988941
14.85675,3299634
14.86488,2332036
14.87300,1455438
14.88112,899604
14.88925,588490
14.89737,437984
14.90550,340529
14.91362,292046
14.92173,256558
14.92987,237045
14.93798,210075
14.94610,198490
14.95423,194802
14.96235,193966
14.97048,205164
14.97860,214908
14.98672,212765
14.99485,200098
15.00297,183961
15.01110,165123
15.01922,142435
15.02733,130921
15.03547,122416
15.04358,117960
15.05172,114689
15.05983,105370
15.06795,104765
15.07608,102490
15.08420,98404
15.09232,93813
15.10045,87460
15.10857,87938
15.11670,89746
15.12482,92805
15.13293,88332
15.14107,104365
15.14918,103924
15.15732,105257
15.16543,100147
15.17355,85038
15.18168,80535
15.18980,65745
15.19793,63061
15.20605,59277
15.21417,54307
15.22230,56596
15.23042,54026
15.23853,50107
15.24667,50922
15.25478,47926
15.26292,49219
15.27103,47478
15.27915,46257
15.28728,44537
15.29540,44521
15.30353,46499
15.31165,43269
15.31977,46386
15.32790,45267
15.33602,43289
15.34413,44821
15.35227,39892
15.36038,51969
15.36852,43776
15.37663,46498
15.38475,41933
15.39288,48918
15.40100,51701
15.40913,55389
15.41725,65295
15.42537,70739
15.43350,70005
15.44162,66598
15.44975,58213
15.45787,50113
15.46598,49577
15.47412,48547
15.48223,51183
15.49035,62182
15.49848,71290
15.50660,73711
15.51473,83410
15.52285,84206
15.53097,86640
15.53910,94778
15.54722,103965
15.55535,112334
15.56347,116496
15.57158,98392
15.57972,85212
15.58783,65851
15.59597,55970
15.60408,54037
15.61220,46238
15.62033,48463
15.62845,46883
15.63657,43913
15.64470,40332
15.65282,43444
15.66095,43271
15.66907,44023
15.67718,42147
15.68532,44337
15.69343,37963
15.70157,35759
15.70968,42797
15.71780,40803
15.72593,37124
15.73405,40931
15.74217,39318
15.75030,44939
15.75842,57555
15.76655,81873
15.77467,129668
15.78278,202981
15.79092,280559
15.79903,321888
15.80717,302442
15.81528,263466
15.82340,193985
15.83153,134030
15.83965,100179
15.84778,82041
15.85590,72118
15.86402,67062
15.87215,65802
15.88027,58888
15.88838,59303
15.89652,60592
15.90463,57731
15.91277,55537
15.92088,55932
15.92900,53649
15.93713,53540
15.94525,60481
15.95338,70739
15.96150,87452
15.96962,122470
15.97775,150280
15.98587,180654
15.99400,172614
16.00212,157025
16.01023,134415
16.01837,115750
16.02648,97102
16.03460,92095
16.04273,84524
16.05085,82284
16.05898,76240
16.06710,68542
16.07522,58439
16.08335,56423
16.09147,53757
16.09960,54299
16.10772,54299
16.11583,54117
16.12397,53199
16.13208,50760
16.14020,52796
16.14833,56109
16.15645,56652
16.16458,57150
16.17270,53598
16.18082,52667
16.18895,47112
16.19707,43561
16.20520,45691
16.21332,47794
16.22143,49766
16.22957,49615
16.23768,49966
16.24582,47183
16.25393,45840
16.26205,49222
16.27018,47825
16.27830,43316
16.28642,47073
16.29455,50165
16.30267,47480
16.31080,49990
16.31892,49111
16.32703,49030
16.33517,50146
16.34328,48884
16.35142,64812
16.35953,96026
16.36765,146217
16.37578,194086
16.38390,240084
16.39202,243454
16.40015,222271
16.40827,176149
16.41640,130708
16.42452,99399
16.43263,90769
16.44077,83505
16.44888,85120
16.45702,137557
16.46513,246559
16.47325,448278
16.48138,715683
16.48950,939949
16.49763,960889
16.50575,813682
16.51387,578115
16.52200,378000
16.53012,250934
16.53823,172619
16.54637,134670
16.55448,115317
16.56262,102717
16.57073,96345
16.57885,92443
16.58698,90475
16.59510,92836
16.60323,95815
16.61135,103474
16.61947,108486
16.62760,105656
16.63572,104567
16.64385,96557
16.65197,83939
16.66008,77017
16.66822,74161
16.67633,64586
16.68445,58468
16.69258,64138
16.70070,60045
16.70883,62056
16.71695,60275
16.72507,58371
16.73320,58697
16.74132,52582
16.74945,55129
16.75757,56195
16.76568,62459
16.77382,66546
16.78193,63719
16.79005,59849
16.79818,55193
16.80630,52578
16.81443,49677
16.82255,50283
16.83067,45936
16.83880,48258
16.84692,46754
16.85505,41470
16.86317,43770
16.87128,44640
16.87942,43208
16.88753,44070
16.89567,41809
16.90378,40779
16.91190,42222
16.92003,42585
16.92815,41808
16.93627,45072
16.94440,42100
16.95252,41573
16.96065,41110
16.96877,43378
16.97688,40311
16.98502,43545
16.99313,41735
17.00127,39227
17.00938,40036
17.01750,39333
17.02563,39887
17.03375,41472
17.04188,42527
17.05000,45253
17.05812,50789
17.06625,51549
17.07437,54095
17.08248,50559
17.09062,51929
17.09873,56262
17.10687,58383
17.11498,64828
17.12310,61378
17.13123,65243
17.13935,68261
17.14748,66033
17.15560,62669
17.16372,53841
17.17185,50064
17.17997,53766
17.18808,46478
17.19622,46676
17.20433,44786
17.21247,41075
17.22058,42592
17.22870,44461
17.23683,39908
17.24495,43239
17.25308,42015
17.26120,45703
17.26932,45663
17.27745,40597
17.28557,44822
17.29370,42889
17.30182,39160
17.30993,44569
17.31807,46897
17.32618,50186
17.33430,58797
17.34243,73768
17.35055,82000
17.35868,87991
17.36680,90854
17.37492,86813
17.38305,86023
17.39117,79255
17.39930,70731
17.40742,63474
17.41553,60788
17.42367,58118
17.43178,54131
17.43990,56337
17.44803,55184
17.45615,53650
17.46428,49125
17.47240,50402
17.48052,48336
17.48865,48384
17.49677,42241
17.50490,52682
17.51302,44374
17.52113,47203
17.52927,48418
17.53738,44072
17.54552,49952
17.55363,48908
17.56175,55960
17.56988,67150
17.57800,96951
17.58612,152832
17.59425,241411
17.60237,357093
17.61050,458302
17.61862,514937
17.62673,509668
17.63487,421369
17.64298,356068
17.65112,296925
17.65923,276079
17.66735,269736
17.67548,276999
17.68360,259616
17.69173,232043
17.69985,196431
17.70797,152065
17.71610,128263
17.72422,112575
17.73233,97707
17.74047,84948
17.74858,85866
17.75672,82859
17.76483,80144
17.77295,71957
17.78108,77257
17.78920,77120
17.79733,113349
17.80545,181805
17.81357,321632
17.82170,517877
17.82982,758157
17.83795,859913
17.84607,843759
17.85418,710088
17.86232,527405
17.87043,377507
17.87855,277287
17.88668,217893
17.89480,183408
17.90293,150357
17.91105,138459
17.91917,123108
17.92730,114477
17.93542,100976
17.94355,100010
17.95167,95575
17.95978,95633
17.96792,96509
17.97603,87165
17.98415,82654
17.99228,80212
18.00040,79315
18.00853,78961
18.01665,82494
18.02477,86242
18.03290,92868
18.04102,106361
18.04915,113267
18.05727,142813
18.06538,209247
18.07352,388429
18.08163,725593
18.08977,1151329
18.09788,1568322
18.10600,1713592
18.11413,1622040
18.12225,1296730
18.13037,953842
18.13850,685537
18.14662,522553
18.15475,436055
18.16287,372812
18.17098,330151
18.17912,301121
18.18723,270601
18.19537,259464
18.20348,229728
18.21160,212254
18.21973,204565
18.22785,187942
18.23597,176499
18.24410,164585
18.25222,158950
18.26035,165194
18.26847,176867
18.27658,235036
18.28472,291071
18.29283,340404
18.30097,372728
18.30908,378216
18.31720,381685
18.32533,386440
18.33345,397527
18.34158,399530
18.34970,403735
18.35782,398695
18.36595,392097
18.37407,391466
18.38218,400637
18.39032,419268
18.39843,481225
18.40657,575276
18.41468,710719
18.42280,838756
18.43093,935301
18.43905,913830
18.44718,854622
18.45530,744001
18.46342,638969
18.47155,592828
18.47967,600928
18.48778,596698
18.49592,595807
18.50403,548886
18.51217,494274
18.52028,447325
18.52840,417203
18.53653,385021
18.54465,361897
18.55278,352685
18.56090,349244
18.56902,341955
18.57715,327468
18.58527,324128
18.59340,315754
18.60152,307878
18.60963,306310
18.61777,303256
18.62588,297781
18.63400,293790
18.64213,295264
18.65025,289021
18.65838,278969
18.66650,274989
18.67462,268554
18.68275,267348
18.69087,261887
18.69900,269324
18.70712,263314
18.71523,267940
18.72337,264735
18.73148,261050
18.73962,248883
18.74773,250992
18.75585,240643
18.76398,232184
18.77210,227144
18.78022,226142
18.78835,224432
18.79647,226705
18.80460,224303
18.81272,218691
18.82083,212671
18.82897,220911
18.83708,213279
18.84522,214979
18.85333,206733
18.86145,207074
18.86958,203264
18.87770,200387
18.88583,199192
18.89395,197515
18.90207,198844
18.91020,191761
18.91832,197630
18.92643,193049
18.93457,199482
18.94268,202026
18.95082,206379
18.95893,203720
18.96705,205549
18.97518,201388
18.98330,195293
18.99143,191771
18.99955,190005
19.00767,177994
19.01580,171012
19.02392,169219
19.03203,176295
19.04017,167610
19.04828,164659
19.05642,169523
19.06453,164312
19.07265,177700
19.08078,195544
19.08890,236491
19.09703,281795
19.10515,336121
19.11327,374681
19.12140,372708
19.12952,331021
19.13765,294059
19.14577,250003
19.15388,215999
19.16202,201968
19.17013,188727
19.17825,181859
19.18638,168780
19.19450,160769
19.20263,160488
19.21075,154094
19.21887,151954
19.22700,149333
19.23512,155297
19.24325,147137
19.25137,135244
19.25948,142465
19.26762,143073
19.27573,141491
19.28385,143470
19.29198,145342
19.30010,149208
19.30823,146696
19.31635,143497
19.32447,148106
19.33260,143553
19.34072,137155
19.34885,148686
19.35697,159701
19.36508,166421
19.37322,196372
19.38133,222962
19.38947,217091
19.39758,207271
19.40570,176862
19.41383,158914
19.42195,145339
19.43007,135259
19.43820,129088
19.44632,130154
19.45445,129910
19.46257,124019
19.47068,125721
19.47882,133156
19.48693,151128
19.49507,187030
19.50318,232345
19.51130,294872
19.51943,312822
19.52755,309502
19.53568,258853
19.54380,207387
19.55192,172146
19.56005,141347
19.56817,122481
19.57628,116502
19.58442,116530
19.59253,115973
19.60067,106909
19.60878,102957
19.61690,105843
19.62503,110177
19.63315,103847
19.64128,120453
19.64940,134359
19.65752,171264
19.66565,207950
19.67377,251577
19.68188,286256
19.69002,299857
19.69813,290907
19.70627,262109
19.71438,246354
19.72250,212247
19.73063,190110
19.73875,171584
19.74688,162586
19.75500,147637
19.76312,132633
19.77125,127186
19.77937,118473
19.78750,121872
19.79562,120736
19.80373,122214
19.81187,118887
19.81998,121311
19.82810,123246
19.83623,109854
19.84435,111293
19.85248,124441
19.86060,184967
19.86872,358459
19.87685,767714
19.88497,1568081
19.89310,2582068
19.90122,3653643
19.90933,4295461
19.91747,4186961
19.92558,3560129
19.93372,2719353
19.94183,1880638
19.94995,1327842
19.95808,1016142
19.96620,830813
19.97432,709675
19.98245,646780
19.99057,598095
19.99870,559455
20.00682,526650
20.01493,492146
20.02307,470516
20.03118,433272
20.03932,409211
20.04743,371940
20.05555,320993
20.06368,272126
20.07180,233293
20.07992,203749
20.08805,184772
20.09617,156749
20.10430,161316
20.11242,148387
20.12053,138996
20.12867,134213
20.13678,129844
20.14492,120502
20.15303,127273
20.16115,127115
20.16928,138152
20.17740,145003
20.18553,160026
20.19365,160113
20.20177,168071
20.20990,170599
20.21802,156838
20.22613,150399
20.23427,141454
20.24238,139878
20.25052,148051
20.25863,169857
20.26675,210837
20.27488,253446
20.28300,297900
20.29113,323827
20.29925,322514
20.30737,302219
20.31550,253477
20.32362,214274
20.33173,187457
20.33987,157346
20.34798,137001
20.35612,119076
20.36423,107120
20.37235,95639
20.38048,88656
20.38860,88661
20.39673,89731
20.40485,86074
20.41297,85665
20.42110,86404
20.42922,92189
20.43735,93077
20.44547,101307
20.45358,112203
20.46172,119067
20.46983,128234
20.47795,126500
20.48608,125590
20.49420,116352
20.50233,107794
20.51045,98684
20.51857,88927
20.52670,82425
20.53482,81252
20.54295,77607
20.55107,78588
20.55918,79314
20.56732,82062
20.57543,77214
20.58357,77726
20.59168,71924
20.59980,72683
20.60793,71642
20.61605,68543
20.62417,68856
20.63230,63444
20.64042,68688
20.64855,68804
20.65667,65423
20.66478,68503
20.67292,65318
20.68103,71366
20.68917,64417
20.69728,62701
20.70540,64886
20.71353,63732
20.72165,63586
20.72977,60487
20.73790,61692
20.74602,62910
20.75415,63843
20.76227,64859
20.77038,62947
20.77852,68064
20.78663,75588
20.79477,88357
20.80288,113731
20.81100,140908
20.81913,183185
20.82725,197933
20.83538,193736
20.84350,166323
20.85162,131644
20.85975,101655
20.86787,88268
20.87598,81651
20.88412,71704
20.89223,66625
20.90037,68211
20.90848,65367
20.91660,66046
20.92473,66606
20.93285,65511
20.94098,69451
20.94910,67760
20.95722,65235
20.96535,64314
20.97347,60673
20.98160,65666
20.98972,60397
20.99783,59563
21.00597,58856
21.01408,57421
21.02220,63030
21.03033,58648
21.03845,57044
21.04658,56680
21.05470,59649
21.06282,57866
21.07095,63591
21.07907,70338
21.08720,65951
21.09532,68787
21.10343,65894
21.11157,61411
21.11968,59358
21.12780,67353
21.13593,61470
21.14405,72941
21.15218,79390
21.16030,85598
21.16842,92657
21.17655,95747
21.18467,92706
21.19280,86610
21.20092,79584
21.20903,73954
21.21717,68764
21.22528,65316
21.23342,63191
21.24153,62958
21.24965,60676
21.25778,59473
21.26590,61350
21.27402,63352
21.28215,60061
21.29027,56678
21.29840,52110
21.30652,59974
21.31463,57719
21.32277,53317
21.33088,55495
21.33902,57990
21.34713,55531
21.35525,51785
21.36338,59918
21.37150,58534
21.37963,58078
21.38775,63916
21.39587,69243
21.40400,78080
21.41212,85952
21.42023,90396
21.42837,90713
21.43648,81881
21.44462,83463
21.45273,71418
21.46085,69162
21.46898,62585
21.47710,63049
21.48523,62573
21.49335,61079
21.50147,55520
21.50960,55445
21.51772,52838
21.52583,56678
21.53397,55868
21.54208,57562
21.55022,53221
21.55833,57016
21.56645,53191
21.57458,56638
21.58270,55718
21.59083,63257
21.59895,73049
21.60707,70262
21.61520,65685
21.62332,72727
21.63145,75909
21.63957,81385
21.64768,84180
21.65582,84601
21.66393,90986
21.67205,85417
21.68018,87144
21.68830,83980
21.69643,78611
21.70455,73217
21.71267,74005
21.72080,64408
21.72892,62924
21.73705,60191
21.74517,57014
21.75328,56977
21.76142,54045
21.76953,54266
21.77765,61399
21.78578,59935
21.79390,62257
21.80203,63869
21.81015,62938
21.81827,66493
21.82640,68808
21.83452,73044
21.84265,77846
21.85077,79120
21.85888,79145
21.86702,74898
21.87513,72027
21.88327,65620
21.89138,61466
21.89950,58452
21.90763,59342
21.91575,59136
21.92387,57250
21.93200,59113
21.94012,56956
21.94825,55344
21.95637,47095
21.96448,50294
21.97262,49236
21.98073,47589
21.98887,45239
21.99698,44650
22.00510,47425
22.01323,47799
22.02135,49727
22.02948,55680
22.03760,52419
22.04572,44705
22.05385,50037
22.06197,53188
22.07008,46868
22.07822,48888
22.08633,46750
22.09447,45794
22.10258,44843
22.11070,45857
22.11883,50541
22.12695,47132
22.13508,49395
22.14320,48211
22.15132,48265
22.15945,47946
22.16757,51385
22.17568,46584
22.18382,42860
22.19193,44318
22.20007,51452
22.20818,49139
22.21630,46505
22.22443,50128
22.23255,52737
22.24068,54565
22.24880,52557
22.25692,48543
22.26505,48771
22.27317,45827
22.28130,49834
22.28942,47161
22.29753,48728
22.30567,51386
22.31378,59407
22.32190,54929
22.33003,53677
22.33815,61182
22.34628,61891
22.35440,64379
22.36252,61355
22.37065,64175
22.37877,60593
22.38690,65937
22.39502,67135
22.40313,72043
22.41127,88506
22.41938,105424
22.42752,113952
22.43563,121887
22.44375,104363
22.45188,96584
22.46000,82477
22.46812,76417
22.47625,75123
22.48437,75034
22.49250,76744
22.50062,82494
22.50873,86382
22.51687,89691
22.52498,81338
22.53312,78083
22.54123,71495
22.54935,71694
22.55748,65694
22.56560,63764
22.57372,59949
22.58185,58241
22.58997,55589
22.59810,58739
22.60622,47683
22.61433,53515
22.62247,51657
22.63058,48928
22.63872,47251
22.64683,47663
22.65495,49592
22.66308,48624
22.67120,53538
22.67933,46535
22.68745,52009
22.69557,52171
22.70370,58227
22.71182,60470
22.71993,59501
22.72807,58992
22.73618,62292
22.74432,61304
22.75243,57323
22.76055,52055
22.76868,52506
22.77680,55084
22.78493,55573
22.79305,65091
22.80117,69389
22.80930,82780
22.81742,84584
22.82553,88414
22.83367,87553
22.84178,80929
22.84992,79464
22.85803,86422
22.86615,81066
22.87428,91327
22.88240,94111
22.89053,107600
22.89865,104039
22.90677,117997
22.91490,130930
22.92302,141850
22.93115,155891
22.93927,166422
22.94738,151474
22.95552,153390
22.96363,132063
22.97175,119302
22.97988,116963
22.98800,106052
22.99613,99120
23.00425,99518
23.01237,100024
23.02050,94407
23.02862,95585
23.03675,93268
23.04487,92487
23.05298,85514
23.06112,86717
23.06923,87185
23.07737,87430
23.08548,82020
23.09360,86252
23.10173,82579
23.10985,82327
23.11797,81178
23.12610,81475
23.13422,82392
23.14235,78572
23.15047,80962
23.15858,75548
23.16672,85392
23.17483,77114
23.18297,80640
23.19108,81375
23.19920,78914
23.20733,77321
23.21545,75462
23.22358,82794
23.23170,72128
23.23982,72360
23.24795,73967
23.25607,77843
23.26418,79543
23.27232,79061
23.28043,76057
23.28857,80925
23.29668,76865
23.30480,78302
23.31293,74425
23.32105,77944
23.32918,75086
23.33730,80649
23.34542,99448
23.35355,122028
23.36167,180574
23.36978,259261
23.37792,378212
23.38603,515051
23.39417,665811
23.40228,793626
23.41040,901740
23.41853,953776
23.42665,1011339
23.43478,1030632
23.44290,996706
23.45102,960288
23.45915,913296
23.46727,848836
23.47540,794093
23.48352,732002
23.49163,662398
23.49977,597561
23.50788,568353
23.51600,502028
23.52413,465350
23.53225,434979
23.54038,404931
23.54850,368856
23.55662,345383
23.56475,327590
23.57287,313230
23.58100,315911
23.58912,315108
23.59723,336868
23.60537,347275
23.61348,342884
23.62160,322939
23.62973,300916
23.63785,267747
23.64598,254772
23.65410,250838
23.66222,252240
23.67035,253913
23.67847,256081
23.68660,240807
23.69472,216586
23.70283,201409
23.71097,181549
23.71908,164565
23.72722,151176
23.73533,152654
23.74345,150355
23.75158,156539
23.75970,226996
23.76782,351795
23.77595,609944
23.78407,981667
23.79220,1420074
23.80032,1770234
23.80843,1837832
23.81657,1736160
23.82468,1483186
23.83282,1176876
23.84093,904605
23.84905,736170
23.85718,608082
23.86530,503099
23.87343,424323
23.88155,371356
23.88967,344087
23.89780,307915
23.90592,286730
23.91403,270751
23.92217,253665
23.93028,239582
23.93842,233154
23.94653,223149
23.95465,204463
23.96278,194008
23.97090,181791
23.97903,171488
23.98715,172846
23.99527,177238
24.00340,203003
24.01152,283445
24.01963,447912
24.02777,713789
24.03588,982501
24.04402,1094675
24.05213,1005821
24.06025,826757
24.06838,570043
24.07650,364602
24.08463,251201
24.09275,193959
24.10087,153638
24.10900,145149
24.11712,135223
24.12525,124627
24.13337,129367
24.14148,122288
24.14962,126269
24.15773,127047
24.16585,123394
24.17398,120198
24.18210,121276
24.19023,115585
24.19835,111960
24.20647,110574
24.21460,115578
24.22272,111836
24.23085,113236
24.23897,107080
24.24708,102954
24.25522,100055
24.26333,93481
24.27147,90528
24.27958,88337
24.28770,88847
24.29583,92795
24.30395,88330
24.31207,82698
24.32020,87943
24.32832,93611
24.33645,93311
24.34457,110634
24.35268,126593
24.36082,144846
24.36893,165430
24.37707,176680
24.38518,195373
24.39330,226543
24.40143,255969
24.40955,275940
24.41767,262988
24.42580,247571
24.43392,222918
24.44205,209741
24.45017,213733
24.45828,232903
24.46642,234247
24.47453,259856
24.48267,279076
24.49078,284608
24.49890,299853
24.50703,304809
24.51515,307883
24.52328,301232
24.53140,300403
24.53952,294953
24.54765,300646
24.55577,285774
24.56388,285751
24.57202,283575
24.58013,284472
24.58827,275599
24.59638,268123
24.60450,260001
24.61263,249957
24.62075,251898
24.62888,252732
24.63700,249105
24.64512,246044
24.65325,240641
24.66137,238021
24.66948,229711
24.67762,231329
24.68573,230171
24.69387,220517
24.70198,229758
24.71010,213808
24.71823,213126
24.72635,215265
24.73448,206269
24.74260,212381
24.75072,207688
24.75885,207035
24.76697,210166
24.77510,211050
24.78322,199666
24.79133,199312
24.79947,197016
24.80758,183427
24.81570,155124
24.82383,138979
24.83195,122631
24.84008,125723
24.84820,137035
24.85632,166442
24.86445,206284
24.87257,272459
24.88070,348381
24.88882,417475
24.89693,485128
24.90507,474717
24.91318,446993
24.92132,357319
24.92943,274082
24.93755,196197
24.94568,152350
24.95380,121268
24.96192,106883
24.97005,91420
24.97817,90278
24.98630,83787
24.99442,76777
25.00253,78289
25.01067,76161
25.01878,84438
25.02692,74294
25.03503,72715
25.04315,76750
25.05128,72151
25.05940,69061
25.06752,69155
25.07565,73406
25.08377,73224
25.09190,78774
25.10002,98766
25.10813,155625
25.11627,276822
25.12438,535250
25.13252,963088
25.14063,1479796
25.14875,1897731
25.15688,2013280
25.16500,1897424
25.17313,1456736
25.18125,985398
25.18937,621426
25.19750,368971
25.20562,230076
25.21373,172209
25.22187,137823
25.22998,130119
25.23812,140223
25.24623,178811
25.25435,258719
25.26248,356676
25.27060,416972
25.27873,465772
25.28685,488037
25.29497,483400
25.30310,469380
25.31122,446028
25.31935,428689
25.32747,443952
25.33558,420600
25.34372,427165
25.35183,422468
25.35995,424872
25.36808,414073
25.37620,411099
25.38433,397301
25.39245,398812
25.40057,407410
25.40870,384320
25.41682,386288
25.42495,390370
25.43307,374165
25.44118,376036
25.44932,368814
25.45743,372706
25.46555,365171
25.47368,354514
25.48180,356838
25.48993,353709
25.49805,354587
25.50617,345227
25.51430,334758
25.52242,321875
25.53055,335565
25.53867,333044
25.54678,323200
25.55492,316865
25.56303,314996
25.57117,317477
25.57928,305728
25.58740,304700
25.59553,311091
25.60365,302149
25.61177,305905
25.61990,325378
25.62802,333821
25.63615,372237
25.64427,410257
25.65238,423244
25.66052,409982
25.66863,376618
25.67677,344395
25.68488,312264
25.69300,280295
25.70113,267656
25.70925,268641
25.71738,254590
25.72550,248912
25.73362,249330
25.74175,242787
25.74987,239091
25.75798,235386
25.76612,232461
25.77423,228648
25.78237,238625
25.79048,229194
25.79860,217541
25.80673,217960
25.81485,230975
25.82298,220016
25.83110,221181
25.83922,226895
25.84735,235603
25.85547,247929
25.86358,237691
25.87172,222019
25.87983,218679
25.88797,205459
25.89608,202531
25.90420,188325
25.91233,180219
25.92045,186308
25.92858,179370
25.93670,170397
25.94482,169156
25.95295,169015
25.96107,167037
25.96920,163978
25.97732,156975
25.98543,153770
25.99357,163832
26.00168,151252
26.00980,148281
26.01793,147814
26.02605,144077
26.03418,140873
26.04230,137454
26.05042,147942
26.05855,140478
26.06667,133471
26.07480,139643
26.08292,132570
26.09103,137138
26.09917,133648
26.10728,132154
26.11540,131686
26.12353,128451
26.13165,136003
26.13978,134348
26.14790,135009
26.15602,128680
26.16415,144295
26.17227,132183
26.18040,127574
26.18852,123797
26.19663,122649
26.20477,115083
26.21288,115009
26.22102,121900
26.22913,110829
26.23725,108743
26.24538,107781
26.25350,112064
26.26162,109284
26.26975,111373
26.27787,106812
26.28600,100858
26.29412,104302
26.30223,102742
26.31037,102682
26.31848,97859
26.32662,96790
26.33473,98924
26.34285,92210
26.35098,93314
26.35910,93276
26.36723,92189
26.37535,94666
26.38347,97331
26.39160,108320
26.39972,107848
26.40783,121845
26.41597,106297
26.42408,107381
26.43222,105534
26.44033,98299
26.44845,91495
26.45658,96397
26.46470,84934
26.47283,96878
26.48095,96398
26.48907,95248
26.49720,93875
26.50532,90241
26.51343,88531
26.52157,80864
26.52968,80170
26.53782,75424
26.54593,82259
26.55405,76380
26.56218,73673
26.57030,76334
26.57843,78273
26.58655,75913
26.59467,74972
26.60280,73566
26.61092,71523
26.61905,70561
26.62717,69993
26.63528,67395
26.64342,70258
26.65153,70932
26.65965,74579
26.66778,76565
26.67590,81261
26.68403,78917
26.69215,73437
26.70027,77962
26.70840,73504
26.71652,71596
26.72465,68718
26.73277,68374
26.74088,68232
26.74902,66169
26.75713,69227
26.76527,64627
26.77338,65430
26.78150,65968
26.78963,63913
26.79775,65112
26.80587,63751
26.81400,65506
26.82212,64235
26.83025,63551
26.83837,65956
26.84648,66927
26.85462,63762
26.86273,68117
26.87087,64390
26.87898,58941
26.88710,62271
26.89523,64593
26.90335,61319
26.91147,62571
26.91960,55588
26.92772,56335
26.93585,56899
26.94397,59110
26.95208,61445
26.96022,60124
26.96833,65656
26.97647,68968
26.98458,85295
26.99270,107614
27.00083,148448
27.00895,213446
27.01708,273462
27.02520,331333
27.03332,366485
27.04145,374243
27.04957,359042
27.05768,316933
27.06582,280038
27.07393,248759
27.08207,202381
27.09018,183864
27.09830,155672
27.10643,149471
27.11455,140170
27.12268,135469
27.13080,128886
27.13892,122620
27.14705,115614
27.15517,115394
27.16328,106082
27.17142,110797
27.17953,112192
27.18767,107901
27.19578,110170
27.20390,102456
27.21203,101591
27.22015,93868
27.22828,91472
27.23640,90271
27.24452,85832
27.25265,87065
27.26077,87905
27.26890,83192
27.27702,80361
27.28513,78281
27.29327,72060
27.30138,70536
27.30950,69958
27.31763,68003
27.32575,71144
27.33388,71862
27.34200,68065
27.35012,70493
27.35825,69734
27.36637,66801
27.37450,67200
27.38262,72126
27.39073,62953
27.39887,64393
27.40698,64325
27.41512,62038
27.42323,60021
27.43135,60598
27.43948,59456
27.44760,61111
27.45572,62244
27.46385,56586
27.47197,55831
27.48010,58573
27.48822,61146
27.49633,56004
27.50447,55127
27.51258,57954
27.52072,58329
27.52883,62724
27.53695,59125
27.54508,52997
27.55320,55263
27.56133,60437
27.56945,59036
27.57757,59485
27.58570,64691
27.59382,67946
27.60193,73636
27.61007,76910
27.61818,81985
27.62632,71659
27.63443,66426
27.64255,64144
27.65068,55700
27.65880,53366
27.66693,56544
27.67505,50340
27.68317,51559
27.69130,56175
27.69942,53007
27.70753,56266
27.71567,53189
27.72378,53524
27.73192,48941
27.74003,52319
27.74815,51987
27.75628,52304
27.76440,48189
27.77253,53267
27.78065,52141
27.78877,53594
27.79690,52904
27.80502,53028
27.81315,53340
27.82127,57917
27.82938,55818
27.83752,55344
27.84563,53672
27.85375,51684
27.86188,53072
27.87000,52978
27.87813,47203
27.88625,49787
27.89437,49969
27.90250,48234
27.91062,49030
27.91875,47037
27.92687,51385
27.93498,44808
27.94312,46054
27.95123,52124
27.95935,48174
27.96748,45225
27.97560,44369
27.98373,45177
27.99185,49988
27.99997,46625
28.00810,47794
28.01622,47500
28.02435,49888
28.03247,50077
28.04058,56297
28.04872,53207
28.05683,53683
28.06497,55431
28.07308,56745
28.08120,57452
28.08933,54358
28.09745,58919
28.10557,53389
28.11370,55884
28.12182,54835
28.12995,49615
28.13807,48663
28.14618,47090
28.15432,47126
28.16243,47482
28.17057,46296
28.17868,46017
28.18680,49546
28.19493,59343
28.20305,61959
28.21118,71322
28.21930,78287
28.22742,76679
28.23555,77174
28.24367,76236
28.25178,73105
28.25992,63675
28.26803,56881
28.27617,55718
28.28428,51554
28.29240,51958
28.30053,53682
28.30865,52847
28.31678,56200
28.32490,65936
28.33302,72210
28.34115,80900
28.34927,90384
28.35738,97998
28.36552,105584
28.37363,118241
28.38177,126596
28.38988,132191
28.39800,136323
28.40613,137704
28.41425,138839
28.42238,127479
28.43050,129950
28.43862,124110
28.44675,112476
28.45487,102610
28.46300,100644
28.47112,88591
28.47923,93818
28.48737,87419
28.49548,83129
28.50360,87161
28.51173,77821
28.51985,76393
28.52798,82544
28.53610,73000
28.54422,70835
28.55235,71072
28.56047,68083
28.56860,61570
28.57672,61785
28.58483,62731
28.59297,59735
28.60108,61894
28.60922,62772
28.61733,63176
28.62545,65762
28.63358,60276
28.64170,63921
28.64982,64938
28.65795,68498
28.66607,70657
28.67420,68111
28.68232,66589
28.69043,63191
28.69857,63889
28.70668,58199
28.71482,58011
28.72293,60367
28.73105,56372
28.73918,57045
28.74730,58309
28.75542,65228
28.76355,74866
28.77167,82284
28.77980,87205
28.78792,88076
28.79603,78831
28.80417,77362
28.81228,65258
28.82042,70683
28.82853,61839
28.83665,69551
28.84478,58521
28.85290,56004
28.86103,57424
28.86915,54814
28.87727,55167
28.88540,59326
28.89352,63320
28.90163,64871
28.90977,64131
28.91788,63712
28.92602,58990
28.93413,60751
28.94225,58720
28.95038,58138
28.95850,58415
28.96663,56902
28.97475,57232
28.98287,55266
28.99100,55269
28.99912,53285
29.00723,49297
29.01537,47085
29.02348,48795
29.03162,51076
29.03973,48247
29.04785,52002
29.05598,50949
29.06410,47680
29.07223,50130
29.08035,48826
29.08847,49956
29.09660,51442
29.10472,53410
29.11285,52379
29.12097,51240
29.12908,52698
29.13722,47086
29.14533,47564
29.15345,45349
29.16158,47337
29.16970,51003
29.17783,50246
29.18595,57801
29.19407,59395
29.20220,69455
29.21032,84481
29.21845,90749
29.22657,89101
29.23468,89288
29.24282,91223
29.25093,91576
29.25907,101132
29.26718,110750
29.27530,121396
29.28343,119404
29.29155,105622
29.29967,95038
29.30780,73030
29.31592,62545
29.32405,52396
29.33217,52133
29.34028,48702
29.34842,48149
29.35653,44280
29.36467,44171
29.37278,45576
29.38090,44299
29.38903,55206
29.39715,70294
29.40527,80811
29.41340,120555
29.42152,165774
29.42965,203676
29.43777,213324
29.44588,197482
29.45402,169514
29.46213,136841
29.47027,101035
29.47838,85108
29.48650,67456
29.49463,66378
29.50275,64378
29.51088,60881
29.51900,61623
29.52712,62406
29.53525,55860
29.54337,56735
29.55148,56084
29.55962,53128
29.56773,51747
29.57587,49757
29.58398,49518
29.59210,50383
29.60023,49138
29.60835,51434
29.61648,48778
29.62460,49937
29.63272,49698
29.64085,47054
29.64897,50143
29.65710,52281
29.66522,50559
29.67333,45985
29.68147,49269
29.68958,53037
29.69770,52477
29.70583,49990
29.71395,55454
29.72208,50318
29.73020,50240
29.73832,50806
29.74645,48629
29.75457,46032
29.76270,45109
29.77082,47309
29.77893,46849
29.78707,43073
29.79518,42490
29.80330,41753
29.81143,43516
29.81955,44948
29.82768,44176
29.83580,43376
29.84392,46220
29.85205,44265
29.86017,46204
29.86830,50353
29.87642,53731
29.88453,65937
29.89267,77804
29.90078,85893
29.90892,89948
29.91703,90944
29.92515,79489
29.93328,66607
29.94140,61122
29.94952,55246
29.95765,55435
29.96577,50021
29.97390,55186
29.98202,61964
29.99013,63665
29.99827,72983
30.00638,75866
30.01452,77939
30.02263,81955
30.03075,82397
30.03888,89670
30.04700,92040
30.05512,90870
30.06325,89035
30.07137,94002
30.07950,84428
30.08762,83822
30.09573,87494
30.10387,85865
30.11198,87727
30.12012,83194
30.12823,80978
30.13635,78623
30.14448,79815
30.15260,72888
30.16073,77455
30.16885,71897
30.17697,66863
30.18510,70306
30.19322,66845
30.20133,63827
30.20947,64060
30.21758,69623
30.22572,63126
30.23383,61340
30.24195,59405
30.25008,55876
30.25820,56065
30.26633,58288
30.27445,54327
30.28257,56432
30.29070,52677
30.29882,51210
30.30695,54326
30.31507,52707
30.32318,50851
30.33132,50577
30.33943,50444
30.34755,52870
30.35568,49683
30.36380,53328
30.37193,51828
30.38005,50118
30.38817,49792
30.39630,44740
30.40442,45345
30.41255,43174
30.42067,48847
30.42878,47334
30.43692,51421
30.44503,46894
30.45315,44701
30.46128,43395
30.46940,43781
30.47753,49061
30.48565,49544
30.49377,43468
30.50190,46787
30.51002,46921
30.51815,47009
30.52627,51089
30.53438,46735
30.54252,47688
30.55063,44077
30.55877,47944
30.56688,47600
30.57500,45174
30.58313,46328
30.59125,48283
30.59937,56292
30.60750,63809
30.61562,72364
30.62375,74129
30.63187,82143
30.63998,88148
30.64812,82747
30.65623,89527
30.66437,93461
30.67248,92099
30.68060,91850
30.68873,88553
30.69685,91447
30.70498,96186
30.71310,94027
30.72122,100897
30.72935,100044
30.73747,94951
30.74558,107918
30.75372,105157
30.76183,108255
30.76997,104754
30.77808,125527
30.78620,158457
30.79433,212921
30.80245,251618
30.81058,303225
30.81870,318805
30.82682,295051
30.83495,244444
30.84307,198143
30.85118,161996
30.85932,133804
30.86743,127409
30.87557,117857
30.88368,110924
30.89180,108188
30.89993,106115
30.90805,102303
30.91618,103361
30.92430,99781
30.93242,98726
30.94055,99705
30.94867,101946
30.95680,100180
30.96492,93584
30.97303,95119
30.98117,95637
30.98928,96915
30.99740,93082
31.00553,95666
31.01365,96827
31.02178,98205
31.02990,91431
31.03802,94620
31.04615,92252
31.05427,96268
31.06240,95616
31.07052,94702
31.07863,93156
31.08677,99127
31.09488,101055
31.10302,112644
31.11113,113426
31.11925,109101
31.12738,106924
31.13550,102635
31.14362,95263
31.15175,93453
31.15987,86982
31.16800,96453
31.17612,94947
31.18423,104776
31.19237,113293
31.20048,133425
31.20862,150499
31.21673,181460
31.22485,205950
31.23298,207877
31.24110,207684
31.24922,175313
31.25735,147998
31.26547,124298
31.27360,104617
31.28172,86360
31.28983,82586
31.29797,74829
31.30608,77254
31.31422,76048
31.32233,72607
31.33045,76520
31.33858,75815
31.34670,79081
31.35483,77414
31.36295,76013
31.37107,78617
31.37920,74463
31.38732,77738
31.39543,77170
31.40357,75795
31.41168,71547
31.41982,69782
31.42793,64077
31.43605,69372
31.44418,67177
31.45230,67431
31.46043,65730
31.46855,66053
31.47667,63387
31.48480,65055
31.49292,65162
31.50103,61275
31.50917,61108
31.51728,59132
31.52542,62174
31.53353,57644
31.54165,62432
31.54978,61166
31.55790,63220
31.56603,67411
31.57415,62998
31.58227,60399
31.59040,55885
31.59852,58758
31.60665,61589
31.61477,59074
31.62288,60068
31.63102,61581
31.63913,60914
31.64725,58363
31.65538,61910
31.66350,62325
31.67163,58235
31.67975,65188
31.68787,64009
31.69600,60491
31.70412,59818
31.71225,59981
31.72037,63832
31.72848,59176
31.73662,62720
31.74473,53149
31.75287,56055
31.76098,54833
31.76910,51477
31.77723,54823
31.78535,54726
31.79347,56974
31.80160,59449
31.80972,54048
31.81785,57160
31.82597,59665
31.83408,54810
31.84222,53914
31.85033,54470
31.85847,57601
31.86658,54540
31.87470,57588
31.88283,58280
31.89095,59147
31.89907,64053
31.90720,67053
31.91532,73697
31.92345,75844
31.93157,76746
31.93968,76790
31.94782,80445
31.95593,82637
31.96407,82660
31.97218,92772
31.98030,92002
31.98843,96730
31.99655,90541
32.00468,95040
32.01280,94232
32.02092,90672
32.02905,88998
32.03717,84324
32.04528,81969
32.05342,78890
32.06153,77520
32.06967,79509
32.07778,78665
32.08590,75980
32.09403,73481
32.10215,72293
32.11028,69749
32.11840,65249
32.12652,61916
32.13465,61226
32.14277,62265
32.15090,58301
32.15902,61682
32.16713,59999
32.17527,62340
32.18338,56813
32.19150,60562
32.19963,62880
32.20775,54559
32.21588,56567
32.22400,56588
32.23212,56708
32.24025,54352
32.24837,58545
32.25650,57447
32.26462,60823
32.27273,57890
32.28087,62126
32.28898,57130
32.29710,58530
32.30523,57060
32.31335,55531
32.32148,49890
32.32960,50252
32.33772,50615
32.34585,52233
32.35397,52291
32.36210,53063
32.37022,55142
32.37833,51776
32.38647,53031
32.39458,49590
32.40272,53676
32.41083,51224
32.41895,49211
32.42708,50319
32.43520,48709
32.44332,50039
32.45145,48084
32.45957,50746
32.46770,48791
32.47582,47984
32.48393,51346
32.49207,51144
32.50018,53420
32.50832,46207
32.51643,46963
32.52455,51445
32.53268,50130
32.54080,48814
32.54892,51705
32.55705,46442
32.56517,48799
32.57330,51595
32.58142,48815
32.58953,47668
32.59767,51625
32.60578,47773
32.61392,52476
32.62203,50777
32.63015,48527
32.63828,50065
32.64640,54579
32.65453,61618
32.66265,65954
32.67077,73206
32.67890,70593
32.68702,64097
32.69513,63483
32.70327,53312
32.71138,57494
32.71952,52352
32.72763,53180
32.73575,53535
32.74388,55440
32.75200,49679
32.76013,51225
32.76825,48828
32.77637,50036
32.78450,48812
32.79262,47801
32.80075,46328
32.80887,47082
32.81698,45529
32.82512,50340
32.83323,47242
32.84135,47909
32.84948,50977
32.85760,48286
32.86573,45008
32.87385,47529
32.88197,49363
32.89010,48598
32.89822,47375
32.90635,49220
32.91447,47406
32.92258,45523
32.93072,46928
32.93883,50277
32.94697,47091
32.95508,48035
32.96320,50294
32.97133,51800
32.97945,50580
32.98757,52738
32.99570,66146
33.00382,67360
33.01195,70953
33.02007,66561
33.02818,64446
33.03632,61160
33.04443,57407
33.05257,54854
33.06068,54100
33.06880,54627
33.07693,55843
33.08505,57383
33.09317,61104
33.10130,61632
33.10942,65432
33.11755,76035
33.12567,71249
33.13378,69634
33.14192,68980
33.15003,61721
33.15817,59622
33.16628,51955
33.17440,59445
33.18253,55269
33.19065,54496
33.19878,52475
33.20690,50406
33.21502,51895
33.22315,48533
33.23127,50585
33.23938,51699
33.24752,50757
33.25563,46691
33.26377,48053
33.27188,48388
33.28000,50242
33.28813,47843
33.29625,44734
33.30438,47164
33.31250,51029
33.32062,47840
33.32875,49890
33.33687,47439
33.34498,49812
33.35312,50419
33.36123,46149
33.36937,50450
33.37748,52372
33.38560,50136
33.39373,49302
33.40185,47008
33.40998,46439
33.41810,49187
33.42622,48612
33.43435,44582
33.44247,43981
33.45060,48813
33.45872,47475
33.46683,47861
33.47497,43274
33.48308,47228
33.49120,48813
33.49933,44810
33.50745,50045
33.51558,46485
33.52370,52137
33.53182,51169
33.53995,55073
33.54807,55552
33.55620,57425
33.56432,55816
33.57243,57053
33.58057,52330
33.58868,51590
33.59682,51268
33.60493,53224
33.61305,50318
33.62118,47014
33.62930,47898
33.63742,50004
33.64555,50547
33.65367,48512
33.66180,50464
33.66992,51156
33.67803,51397
33.68617,49671
33.69428,48675
33.70242,49334
33.71053,49269
33.71865,46045
33.72678,46301
33.73490,47622
33.74302,48565
33.75115,44543
33.75927,42925
33.76740,46988
33.77552,44976
33.78363,45354
33.79177,48134
33.79988,47757
33.80802,46698
33.81613,43518
33.82425,46955
33.83238,45360
33.84050,42807
33.84863,46386
33.85675,45223
33.86487,47656
33.87300,48492
33.88112,45771
33.88923,47844
33.89737,48486
33.90548,45036
33.91362,50533
33.92173,48338
33.92985,49320
33.93798,46453
33.94610,48974
33.95423,46304
33.96235,47897
33.97047,47750
33.97860,47634
33.98672,48690
33.99485,48334
34.00297,43008
34.01108,44726
34.01922,47437
34.02733,56833
34.03545,52194
34.04358,49453
34.05170,47554
34.05983,48316
34.06795,47799
34.07607,45066
34.08420,45830
34.09232,48114
34.10045,48128
34.10857,50522
34.11668,45293
34.12482,50906
34.13293,47412
34.14105,45179
34.14918,48919
34.15730,51100
34.16543,46406
34.17355,49632
34.18167,49111
34.18980,48935
34.19792,51536
34.20605,47458
34.21417,48877
34.22228,48815
34.23042,48752
34.23853,50017
34.24667,50121
34.25478,48687
34.26290,49307
34.27103,48759
34.27915,48465
34.28727,46552
34.29540,51182
34.30352,49011
34.31165,49121
34.31977,47577
34.32788,45748
34.33602,47619
34.34413,50311
34.35227,47716
34.36038,45117
34.36850,46783
34.37663,54548
34.38475,52367
34.39287,46898
34.40100,46860
34.40912,49064
34.41725,47210
34.42537,46765
34.43348,47836
34.44162,46806
34.44973,47906
34.45787,48549
34.46598,47505
34.47410,44395
34.48223,46926
34.49035,48381
34.49848,44519
34.50660,50112
34.51472,55778
34.52285,56921
34.53097,60882
34.53908,71699
34.54722,75032
34.55533,78783
34.56347,84458
34.57158,81418
34.57970,83082
34.58783,76045
34.59595,73149
34.60408,73662
34.61220,68985
34.62032,67241
34.62845,65218
34.63657,62233
34.64470,61506
34.65282,60140
34.66093,60128
34.66907,57434
34.67718,56961
34.68530,56950
34.69343,55655
34.70155,55512
34.70968,52728
34.71780,54559
34.72592,54514
34.73405,57168
34.74217,53595
34.75030,54671
34.75842,53721
34.76653,56521
34.77467,55521
34.78278,53741
34.79090,53195
34.79903,50161
34.80715,52873
34.81528,53191
34.82340,56281
34.83152,52682
34.83965,52935
34.84777,54858
34.85590,52739
34.86402,53419
34.87213,51128
34.88027,52053
34.88838,57236
34.89652,51002
34.90463,50246
34.91275,50276
34.92088,55053
34.92900,51993
34.93712,60228
34.94525,57568
34.95337,59531
34.96150,58328
34.96962,59154
34.97773,56734
34.98587,61228
34.99398,61406
35.00212,59649
35.01023,56746
35.01835,57925
35.02648,56535
35.03460,54827
35.04273,53409
35.05085,53879
35.05897,53385
35.06710,52812
35.07522,54400
35.08333,54501
35.09147,49609
35.09958,49500
35.10772,53249
35.11583,48948
35.12395,51631
35.13208,50896
35.14020,53960
35.14833,55049
35.15645,51427
35.16457,53044
35.17270,54568
35.18082,53861
35.18893,55401
35.19707,52458
35.20518,52209
35.21332,50038
35.22143,52860
35.22955,49435
35.23768,49403
35.24580,50392
35.25393,48692
35.26205,51609
35.27017,49650
35.27830,49108
35.28642,49438
35.29455,54332
35.30267,45478
35.31078,52044
35.31892,46880
35.32703,48163
35.33515,45288
35.34328,49573
35.35140,47991
35.35953,50941
35.36765,47129
35.37577,54191
35.38390,52880
35.39202,51292
35.40015,46761
35.40827,52779
35.41638,50887
35.42452,51425
35.43263,52346
35.44075,48514
35.44888,55330
35.45700,53424
35.46513,51643
35.47325,56114
35.48137,51025
35.48950,53717
35.49762,54022
35.50575,51291
35.51387,51650
35.52198,54446
35.53012,52016
35.53823,51300
35.54637,50664
35.55448,47508
35.56260,50363
35.57073,52547
35.57885,52130
35.58697,51035
35.59510,53020
35.60322,53768
35.61135,54767
35.61947,50333
35.62758,51173
35.63572,54201
35.64383,48479
35.65197,53739
35.66008,51416
35.66820,51594
35.67633,57719
35.68445,52056
35.69258,56391
35.70070,56925
35.70882,52891
35.71695,52926
35.72507,53747
35.73318,51275
35.74132,61156
35.74943,60902
35.75757,57319
35.76568,62461
35.77380,59393
35.78193,59929
35.79005,60759
35.79818,59290
35.80630,54515
35.81442,56328
35.82255,55238
35.83067,57616
35.83878,55862
35.84692,52364
35.85503,53140
35.86317,51486
35.87128,51508
35.87940,53113
35.88753,50861
35.89565,53514
35.90378,52699
35.91190,51702
35.92002,51165
35.92815,54310
35.93627,50891
35.94440,50650
35.95252,51067
35.96063,51892
35.96877,46056
35.97688,55386
35.98500,50023
35.99313,53841
36.00125,53614
36.00938,55412
36.01750,53562
36.02562,57468
36.03375,55473
36.04187,51206
36.05000,59428
36.05812,51994
36.06623,56244
36.07437,53231
36.08248,54165
36.09062,54828
36.09873,56155
36.10685,55013
36.11498,56707
36.12310,53629
36.13122,54319
36.13935,55958
36.14747,58140
36.15560,59046
36.16372,54998
36.17183,59227
36.17997,52663
36.18808,60060
36.19622,60464
36.20433,66822
36.21245,67753
36.22058,71050
36.22870,69801
36.23682,71967
36.24495,74653
36.25307,72311
36.26120,71847
36.26932,78355
36.27743,73281
36.28557,79550
36.29368,82457
36.30182,84927
36.30993,93611
36.31805,96967
36.32618,96322
36.33430,87697
36.34243,91716
36.35055,81142
36.35867,79124
36.36680,80058
36.37492,85233
36.38303,80544
36.39117,75863
36.39928,79354
36.40742,80412
36.41553,79499
36.42365,81220
36.43178,76345
36.43990,79606
36.44803,75489
36.45615,80546
36.46427,75667
36.47240,77686
36.48052,68275
36.48865,77353
36.49677,77196
36.50488,77101
36.51302,76034
36.52113,75167
36.52925,78489
36.53738,73870
36.54550,73096
36.55363,74774
36.56175,74680
36.56987,73949
36.57800,73330
36.58612,70630
36.59425,71351
36.60237,71974
36.61048,74673
36.61862,72672
36.62673,74142
36.63485,72882
36.64298,75228
36.65110,70201
36.65923,72699
36.66735,72009
36.67547,72461
36.68360,73003
36.69172,65173
36.69985,69255
36.70797,71446
36.71608,72274
36.72422,69101
36.73233,67804
36.74047,68556
36.74858,68408
36.75670,66271
36.76483,67383
36.77295,64183
36.78107,64568
36.78920,63741
36.79732,67320
36.80545,66686
36.81357,71494
36.82168,63151
36.82982,63467
36.83793,65573
36.84607,66227
36.85418,71152
36.86230,66837
36.87043,63239
36.87855,63183
36.88667,66000
36.89480,67159
36.90292,65873
36.91105,65200
36.91917,62026
36.92728,63322
36.93542,69088
36.94353,72617
36.95167,72531
36.95978,80017
36.96790,82393
36.97603,84469
36.98415,74716
36.99228,74304
37.00040,74288
37.00852,71493
37.01665,70479
37.02477,64939
37.03288,65860
37.04102,62183
37.04913,69007
37.05727,65482
37.06538,65194
37.07350,63639
37.08163,64711
37.08975,64420
37.09788,64603
37.10600,67700
37.11412,65645
37.12225,67461
37.13037,62733
37.13850,66904
37.14662,65754
37.15473,65833
37.16287,66753
37.17098,70689
37.17910,61498
37.18723,66630
37.19535,64385
37.20348,62057
37.21160,69335
37.21972,62197
37.22785,61572
37.23597,60649
37.24410,59380
37.25222,69603
37.26033,63326
37.26847,67707
37.27658,62880
37.28470,64722
37.29283,63623
37.30095,64196
37.30908,70114
37.31720,71780
37.32532,70504
37.33345,79446
37.34157,83835
37.34970,88611
37.35782,92360
37.36593,91979
37.37407,94797
37.38218,94860
37.39032,84618
37.39843,85870
37.40655,85132
37.41468,81392
37.42280,83981
37.43092,79725
37.43905,74441
37.44717,74106
37.45530,74358
37.46342,76130
37.47153,75985
37.47967,75402
37.48778,73001
