Z:\data\JTB-E02\BACandBLUE\JTB-E18-001-11.D Fri Mar 15 09:56:30 2019
Start of data points
2.09543,56588
2.10357,56942
2.11168,53430
2.11980,56340
2.12793,57502
2.13605,54061
2.14418,54560
2.15230,55204
2.16042,49961
2.16855,50183
2.17667,48753
2.18480,49020
2.19292,43393
2.20103,49271
2.20917,47951
2.21728,50977
2.22540,48503
2.23353,48026
2.24165,42918
2.24978,46622
2.25790,43217
2.26602,54816
2.27415,330882
2.28227,1253942
2.29040,1065991
2.29852,459480
2.30663,305278
2.31477,253776
2.32288,225142
2.33102,196440
2.33913,178475
2.34725,168976
2.35538,150037
2.36350,143930
2.37162,127589
2.37975,126433
2.38787,124529
2.39600,123483
2.40412,117535
2.41223,106035
2.42037,107219
2.42848,108551
2.43662,104602
2.44473,103008
2.45285,100492
2.46098,102321
2.46910,91555
2.47722,97404
2.48535,88681
2.49347,87173
2.50160,95928
2.50972,93983
2.51783,88720
2.52597,87865
2.53408,89292
2.54222,85288
2.55033,99444
2.55845,111258
2.56658,132200
2.57470,126144
2.58283,110337
2.59095,100041
2.59907,94449
2.60720,156440
2.61532,450444
2.62343,566102
2.63157,340680
2.63968,216652
2.64782,163485
2.65593,141472
2.66405,116963
2.67218,114692
2.68030,103940
2.68843,99920
2.69655,97214
2.70467,91909
2.71280,91869
2.72092,89618
2.72905,86757
2.73717,85873
2.74528,85321
2.75342,79577
2.76153,78727
2.76965,78219
2.77778,77211
2.78590,79774
2.79403,79135
2.80215,80194
2.81027,82773
2.81840,89310
2.82652,83223
2.83465,84170
2.84277,85441
2.85088,77249
2.85902,77114
2.86713,83642
2.87525,81655
2.88338,79400
2.89150,80971
2.89963,80738
2.90775,77402
2.91587,73321
2.92400,70925
2.93212,68735
2.94025,71115
2.94837,69357
2.95648,68816
2.96462,80801
2.97273,95250
2.98087,80443
2.98898,76892
2.99710,77312
3.00523,81796
3.01335,82445
3.02147,77486
3.02960,72558
3.03772,69004
3.04585,67740
3.05397,71191
3.06208,67208
3.07022,71234
3.07833,79647
3.08647,268673
3.09458,1070594
3.10270,2262091
3.11083,3768705
3.11895,4754577
3.12707,3487471
3.13520,2188609
3.14332,1631620
3.15145,1295478
3.15957,1054218
3.16768,867896
3.17582,725773
3.18393,594640
3.19207,527097
3.20018,451587
3.20830,405708
3.21643,356458
3.22455,319148
3.23268,291303
3.24080,261695
3.24892,232069
3.25705,220545
3.26517,206155
3.27328,198059
3.28142,181165
3.28953,244756
3.29767,620941
3.30578,1839692
3.31390,3455833
3.32203,3893335
3.33015,2928798
3.33828,1831792
3.34640,1246849
3.35452,956715
3.36265,740889
3.37077,622303
3.37890,534478
3.38702,468533
3.39513,418762
3.40327,375394
3.41138,355494
3.41950,326339
3.42763,301656
3.43575,297522
3.44388,264735
3.45200,263983
3.46012,249637
3.46825,250604
3.47637,265264
3.48450,274349
3.49262,259550
3.50073,229699
3.50887,223949
3.51698,207396
3.52510,194931
3.53323,195245
3.54135,193555
3.54948,184970
3.55760,181082
3.56572,199160
3.57385,275791
3.58197,395667
3.59010,389609
3.59822,304351
3.60633,261754
3.61447,239046
3.62258,218898
3.63072,214574
3.63883,194454
3.64695,187974
3.65508,175571
3.66320,177633
3.67132,194519
3.67945,249410
3.68757,307453
3.69570,284506
3.70382,230884
3.71193,196299
3.72007,180852
3.72818,178815
3.73632,171074
3.74443,159075
3.75255,159105
3.76068,151664
3.76880,155358
3.77693,154704
3.78505,151985
3.79317,160425
3.80130,250653
3.80942,777681
3.81753,2080778
3.82567,2939640
3.83378,2364953
3.84192,1507096
3.85003,1045799
3.85815,844885
3.86628,729803
3.87440,631157
3.88253,563546
3.89065,516286
3.89877,470166
3.90690,416303
3.91502,400682
3.92313,388602
3.93127,347847
3.93938,338879
3.94752,373935
3.95563,748648
3.96375,1846669
3.97188,3048793
3.98000,3050731
3.98813,2089324
3.99625,1647505
4.00437,3501589
4.01250,9080368
4.02062,1.492273E+07
4.02875,1.434617E+07
4.03687,9093659
4.04498,4918717
4.05312,2953201
4.06123,2072902
4.06935,1579665
4.07748,1269871
4.08560,1039647
4.09373,871635
4.10185,761337
4.10997,652465
4.11810,595281
4.12622,535916
4.13435,495621
4.14247,476077
4.15058,456278
4.15872,445970
4.16683,429258
4.17495,413270
4.18308,419286
4.19120,384188
4.19933,341584
4.20745,312213
4.21557,291731
4.22370,331396
4.23182,397439
4.23995,460895
4.24807,418623
4.25618,346498
4.26432,314444
4.27243,266878
4.28057,251934
4.28868,234769
4.29680,233932
4.30493,221140
4.31305,215181
4.32117,212019
4.32930,209106
4.33742,202734
4.34555,208332
4.35367,193180
4.36178,182312
4.36992,191619
4.37803,176876
4.38617,181293
4.39428,175842
4.40240,164765
4.41053,168969
4.41865,163978
4.42678,160168
4.43490,159188
4.44302,161127
4.45115,162733
4.45927,160490
4.46738,158426
4.47552,157598
4.48363,151807
4.49177,149863
4.49988,150855
4.50800,147179
4.51613,149961
4.52425,141484
4.53238,140055
4.54050,146984
4.54862,143218
4.55675,145797
4.56487,144065
4.57298,135474
4.58112,138379
4.58923,135607
4.59737,133172
4.60548,126952
4.61360,135528
4.62173,130105
4.62985,124664
4.63798,131427
4.64610,128412
4.65422,122181
4.66235,123647
4.67047,126550
4.67860,129791
4.68672,136500
4.69483,132477
4.70297,132253
4.71108,129657
4.71920,120389
4.72733,117237
4.73545,121729
4.74358,117997
4.75170,118041
4.75982,120043
4.76795,117001
4.77607,121262
4.78420,113192
4.79232,125388
4.80043,131450
4.80857,157628
4.81668,164703
4.82482,158094
4.83293,147531
4.84105,151726
4.84918,159580
4.85730,149597
4.86542,143442
4.87355,139577
4.88167,137902
4.88980,127791
4.89792,122260
4.90603,120246
4.91417,117710
4.92228,109224
4.93042,120178
4.93853,157127
4.94665,274599
4.95478,597086
4.96290,1087529
4.97102,1515414
4.97915,1520317
4.98727,1259177
4.99540,922214
5.00352,657962
5.01163,497250
5.01977,418220
5.02788,358899
5.03602,313733
5.04413,281030
5.05225,266658
5.06038,237789
5.06850,235458
5.07663,227977
5.08475,218716
5.09287,203507
5.10100,202082
5.10912,189104
5.11723,187445
5.12537,188364
5.13348,183269
5.14162,183394
5.14973,173867
5.15785,173803
5.16598,180206
5.17410,169208
5.18223,172952
5.19035,167426
5.19847,165933
5.20660,163951
5.21472,160987
5.22285,159615
5.23097,164814
5.23908,171318
5.24722,178391
5.25533,173179
5.26345,163981
5.27158,151823
5.27970,142729
5.28783,142497
5.29595,127668
5.30407,133848
5.31220,132817
5.32032,132087
5.32845,139348
5.33657,157973
5.34468,172709
5.35282,188561
5.36093,170369
5.36905,161191
5.37718,145587
5.38530,148531
5.39343,155583
5.40155,164253
5.40967,155211
5.41780,146671
5.42592,137718
5.43405,128694
5.44217,134661
5.45028,142808
5.45842,156433
5.46653,165009
5.47467,151091
5.48278,139558
5.49090,134135
5.49903,127460
5.50715,121756
5.51527,132052
5.52340,140435
5.53152,132938
5.53965,128668
5.54777,123017
5.55588,119797
5.56402,114204
5.57213,121985
5.58027,141437
5.58838,174843
5.59650,195170
5.60463,193100
5.61275,170669
5.62087,164919
5.62900,141334
5.63712,143207
5.64525,141802
5.65337,146680
5.66148,132857
5.66962,127023
5.67773,134006
5.68587,146375
5.69398,188941
5.70210,216859
5.71023,192711
5.71835,168703
5.72648,150268
5.73460,130478
5.74272,127665
5.75085,124923
5.75897,115822
5.76708,112893
5.77522,108325
5.78333,110825
5.79147,107134
5.79958,110663
5.80770,109418
5.81583,109335
5.82395,110651
5.83208,102978
5.84020,103619
5.84832,105605
5.85645,105397
5.86457,104681
5.87270,100813
5.88082,94072
5.88893,101074
5.89707,99664
5.90518,117264
5.91330,134687
5.92143,174737
5.92955,189469
5.93768,177165
5.94580,144542
5.95392,117344
5.96205,100678
5.97017,104577
5.97830,112047
5.98642,127108
5.99453,134999
6.00267,136050
6.01078,127558
6.01890,130318
6.02703,124554
6.03515,115648
6.04328,99482
6.05140,90305
6.05952,85449
6.06765,82801
6.07577,82639
6.08390,82230
6.09202,75880
6.10013,74235
6.10827,74194
6.11638,73831
6.12452,78681
6.13263,81418
6.14075,78861
6.14888,84862
6.15700,83575
6.16512,89664
6.17325,90110
6.18137,88514
6.18950,89886
6.19762,93069
6.20573,96651
6.21387,97192
6.22198,98553
6.23012,103041
6.23823,107408
6.24635,104678
6.25448,119838
6.26260,128119
6.27073,138227
6.27885,131769
6.28697,129883
6.29510,123157
6.30322,112828
6.31133,116999
6.31947,125111
6.32758,118447
6.33572,128709
6.34383,133557
6.35195,133688
6.36008,133095
6.36820,132255
6.37633,131517
6.38445,129460
6.39257,132732
6.40070,136118
6.40882,139666
6.41693,143629
6.42507,143034
6.43318,143648
6.44132,143840
6.44943,140982
6.45755,146700
6.46568,145426
6.47380,153174
6.48193,151997
6.49005,152595
6.49817,149775
6.50630,152929
6.51442,151262
6.52255,156481
6.53067,159059
6.53878,163761
6.54692,157981
6.55503,162435
6.56315,168473
6.57128,165816
6.57940,184409
6.58753,189668
6.59565,190699
6.60377,177849
6.61190,176733
6.62002,177012
6.62815,178274
6.63627,177618
6.64438,180696
6.65252,220352
6.66063,317381
6.66875,479446
6.67688,649738
6.68500,650127
6.69313,522350
6.70125,388715
6.70937,304367
6.71750,269773
6.72562,248083
6.73375,244359
6.74187,225849
6.74998,227664
6.75812,226951
6.76623,222389
6.77437,159718
6.78248,149277
6.79060,135187
6.79873,128643
6.80685,127291
6.81497,116780
6.82310,115940
6.83122,112647
6.83935,111926
6.84747,123031
6.85558,136880
6.86372,146325
6.87183,151299
6.87997,141553
6.88808,117762
6.89620,96297
6.90433,90055
6.91245,82908
6.92058,79143
6.92870,75921
6.93682,76548
6.94495,69657
6.95307,75884
6.96118,81644
6.96932,95158
6.97743,119127
6.98557,135791
6.99368,143872
7.00180,126317
7.00993,103956
7.01805,90316
7.02618,76985
7.03430,74558
7.04242,68957
7.05055,69750
7.05867,67186
7.06680,69672
7.07492,66200
7.08303,69139
7.09117,66278
7.09928,66323
7.10740,66942
7.11553,68299
7.12365,66250
7.13178,67615
7.13990,69331
7.14802,86819
7.15615,112413
7.16427,145278
7.17240,169513
7.18052,147966
7.18863,126720
7.19677,106648
7.20488,90370
7.21300,80555
7.22113,78414
7.22925,82508
7.23738,86976
7.24550,95656
7.25362,97368
7.26175,85850
7.26987,80717
7.27800,75698
7.28612,73837
7.29423,63875
7.30237,66105
7.31048,62951
7.31862,61657
7.32673,64889
7.33485,64831
7.34298,60681
7.35110,66515
7.35922,64530
7.36735,71725
7.37547,65849
7.38360,69539
7.39172,66760
7.39983,65398
7.40797,65957
7.41608,65698
7.42422,60441
7.43233,61445
7.44045,57397
7.44858,59090
7.45670,57090
7.46482,57811
7.47295,57829
7.48107,62513
7.48920,53729
7.49732,53630
7.50543,58089
7.51357,54096
7.52168,54654
7.52982,54278
7.53793,53931
7.54605,54750
7.55418,60951
7.56230,54957
7.57043,53555
7.57855,58752
7.58667,53756
7.59480,54604
7.60292,53182
7.61103,50640
7.61917,50275
7.62728,53235
7.63542,53375
7.64353,54939
7.65165,53246
7.65978,54788
7.66790,56020
7.67603,49805
7.68415,54529
7.69227,50386
7.70040,51594
7.70852,52663
7.71665,48471
7.72477,52140
7.73288,51851
7.74102,48294
7.74913,55298
7.75725,53224
7.76538,51827
7.77350,50318
7.78163,47571
7.78975,46874
7.79787,48900
7.80600,49033
7.81412,51705
7.82225,51801
7.83037,50990
7.83848,50034
7.84662,57031
7.85473,54771
7.86285,58248
7.87098,58025
7.87910,64895
7.88723,62613
7.89535,63400
7.90347,59587
7.91160,59066
7.91972,59820
7.92785,90043
7.93597,145839
7.94408,231293
7.95222,301202
7.96033,297448
7.96847,237890
7.97658,168274
7.98470,122338
7.99283,87269
8.00095,68378
8.00907,61509
8.01720,58195
8.02532,58401
8.03345,58832
8.04157,51412
8.04968,54548
8.05782,53941
8.06593,49990
8.07407,48592
8.08218,50591
8.09030,47621
8.09843,48443
8.10655,46949
8.11468,45867
8.12280,50192
8.13092,54008
8.13905,52894
8.14717,56425
8.15528,52638
8.16342,52330
8.17153,48978
8.17967,45781
8.18778,46410
8.19590,42391
8.20403,46585
8.21215,45762
8.22028,42054
8.22840,44467
8.23652,45318
8.24465,45016
8.25277,45295
8.26088,46626
8.26902,47111
8.27713,41568
8.28527,41012
8.29338,42508
8.30150,50471
8.30963,55891
8.31775,61385
8.32588,68515
8.33400,61627
8.34212,60255
8.35025,52094
8.35837,45255
8.36650,48462
8.37462,49428
8.38273,52496
8.39087,50237
8.39898,47172
8.40710,45581
8.41523,46174
8.42335,43032
8.43148,39282
8.43960,38899
8.44772,41925
8.45585,42374
8.46397,41017
8.47210,43404
8.48022,40618
8.48833,40355
8.49647,40203
8.50458,42278
8.51270,43545
8.52083,46210
8.52895,60235
8.53708,103273
8.54520,190231
8.55332,309759
8.56145,391008
8.56957,387645
8.57770,308147
8.58582,200043
8.59393,127575
8.60207,94688
8.61018,75763
8.61832,72554
8.62643,70989
8.63455,65980
8.64268,63157
8.65080,60917
8.65892,60357
8.66705,55760
8.67517,53768
8.68330,51269
8.69142,53319
8.69953,52953
8.70767,48717
8.71578,50810
8.72392,51677
8.73203,47437
8.74015,51411
8.74828,51315
8.75640,59228
8.76453,92546
8.77265,164487
8.78077,305646
8.78890,474436
8.79702,566123
8.80513,548253
8.81327,426876
8.82138,287072
8.82952,195200
8.83763,137074
8.84575,123732
8.85388,105973
8.86200,110035
8.87013,106525
8.87825,111869
8.88637,109680
8.89450,109379
8.90262,98097
8.91073,103217
8.91887,92799
8.92698,85324
8.93512,77546
8.94323,74285
8.95135,79589
8.95948,73996
8.96760,72803
8.97573,77725
8.98385,75808
8.99197,75932
9.00010,84167
9.00822,73489
9.01635,72713
9.02447,74008
9.03258,67597
9.04072,67395
9.04883,67930
9.05695,63064
9.06508,60288
9.07320,61873
9.08133,63560
9.08945,63660
9.09757,62598
9.10570,61271
9.11382,63689
9.12195,62519
9.13007,66024
9.13818,59979
9.14632,60463
9.15443,61475
9.16257,60531
9.17068,55310
9.17880,56135
9.18693,56843
9.19505,52950
9.20317,53985
9.21130,53509
9.21942,58934
9.22755,58634
9.23567,54856
9.24378,56692
9.25192,57780
9.26003,53838
9.26817,48615
9.27628,54912
9.28440,51980
9.29253,51243
9.30065,54772
9.30877,53454
9.31690,52250
9.32502,48420
9.33315,47542
9.34127,48236
9.34938,46802
9.35752,57531
9.36563,49345
9.37377,51536
9.38188,49972
9.39000,47808
9.39813,46675
9.40625,52312
9.41438,46460
9.42250,47076
9.43062,51557
9.43875,53134
9.44687,47708
9.45498,52069
9.46312,43905
9.47123,41792
9.47937,45138
9.48748,43339
9.49560,50601
9.50373,50823
9.51185,55105
9.51998,54778
9.52810,66547
9.53622,67666
9.54435,72499
9.55247,76598
9.56058,71628
9.56872,76687
9.57683,81004
9.58497,70561
9.59308,67460
9.60120,65129
9.60933,59821
9.61745,53213
9.62558,46676
9.63370,40830
9.64182,45144
9.64995,53019
9.65807,56887
9.66620,66829
9.67432,76504
9.68243,83304
9.69057,66893
9.69868,56287
9.70680,43490
9.71493,41488
9.72305,38853
9.73118,35454
9.73930,37923
9.74742,35666
9.75555,36711
9.76367,35599
9.77180,39026
9.77992,38122
9.78803,37161
9.79617,38850
9.80428,39010
9.81242,38913
9.82053,39094
9.82865,38411
9.83678,40355
9.84490,34639
9.85302,33967
9.86115,35434
9.86927,40157
9.87740,40096
9.88552,39624
9.89363,40421
9.90177,35267
9.90988,34147
9.91802,35870
9.92613,38619
9.93425,40742
9.94238,44325
9.95050,51245
9.95862,56553
9.96675,63017
9.97487,54991
9.98300,53045
9.99112,49751
9.99923,43151
10.00737,45587
10.01548,43242
10.02362,42414
10.03173,45998
10.03985,39630
10.04798,41565
10.05610,39279
10.06423,37490
10.07235,36798
10.08047,39589
10.08860,42344
10.09672,44982
10.10483,47525
10.11297,43782
10.12108,45276
10.12922,38284
10.13733,35797
10.14545,42606
10.15358,31507
10.16170,34885
10.16983,30917
10.17795,34465
10.18607,31463
10.19420,34539
10.20232,41021
10.21045,34259
10.21857,33093
10.22668,35898
10.23482,37314
10.24293,41440
10.25105,43696
10.25918,40699
10.26730,42213
10.27543,39735
10.28355,39917
10.29167,38228
10.29980,40128
10.30792,42457
10.31605,42561
10.32417,47857
10.33228,52396
10.34042,55579
10.34853,57900
10.35665,58302
10.36478,55139
10.37290,50788
10.38103,48481
10.38915,51015
10.39727,46772
10.40540,49061
10.41352,45341
10.42165,42469
10.42977,40665
10.43788,40857
10.44602,45089
10.45413,44419
10.46227,40585
10.47038,37908
10.47850,37853
10.48663,34677
10.49475,36578
10.50287,34924
10.51100,37753
10.51912,40130
10.52725,33635
10.53537,37993
10.54348,36217
10.55162,34621
10.55973,39960
10.56787,35754
10.57598,38825
10.58410,38261
10.59223,39193
10.60035,40462
10.60848,42013
10.61660,43419
10.62472,40854
10.63285,38141
10.64097,35473
10.64908,36625
10.65722,32324
10.66533,36091
10.67347,40833
10.68158,37446
10.68970,37484
10.69783,38732
10.70595,34520
10.71408,34983
10.72220,34911
10.73032,32853
10.73845,41242
10.74657,45337
10.75468,42042
10.76282,40092
10.77093,46515
10.77907,40175
10.78718,38970
10.79530,36243
10.80343,35014
10.81155,33256
10.81968,35272
10.82780,35475
10.83592,33453
10.84405,33935
10.85217,31888
10.86030,33508
10.86842,31367
10.87653,35246
10.88467,34275
10.89278,30299
10.90090,28492
10.90903,31566
10.91715,33661
10.92528,31168
10.93340,30998
10.94152,38913
10.94965,32404
10.95777,34048
10.96590,30674
10.97402,32033
10.98213,34326
10.99027,31065
10.99838,29887
11.00650,30919
11.01463,31756
11.02275,31667
11.03088,32893
11.03900,33908
11.04712,40248
11.05525,43909
11.06337,56030
11.07150,63781
11.07962,67493
11.08773,72529
11.09587,58346
11.10398,47518
11.11212,47930
11.12023,35754
11.12835,37289
11.13648,31278
11.14460,37166
11.15272,36412
11.16085,35525
11.16897,39895
11.17710,37278
11.18522,35498
11.19333,34858
11.20147,35069
11.20958,34538
11.21772,29690
11.22583,33467
11.23395,32325
11.24208,34891
11.25020,34262
11.25833,29344
11.26645,29533
11.27457,32858
11.28270,26883
11.29082,32729
11.29893,32398
11.30707,35491
11.31518,32356
11.32332,32862
11.33143,33892
11.33955,33559
11.34768,29226
11.35580,30266
11.36393,29151
11.37205,28682
11.38017,30138
11.38830,32464
11.39642,30888
11.40453,30578
11.41267,26356
11.42078,26606
11.42892,26457
11.43703,30342
11.44515,30338
11.45328,31925
11.46140,26279
11.46953,31253
11.47765,36536
11.48577,51772
11.49390,75354
11.50202,90876
11.51015,97093
11.51827,87514
11.52638,78184
11.53452,64360
11.54263,55582
11.55075,49488
11.55888,41608
11.56700,41621
11.57513,40405
11.58325,34213
11.59137,37684
11.59950,36572
11.60762,33920
11.61575,34350
11.62387,34450
11.63198,33599
11.64012,37701
11.64823,34140
11.65637,36190
11.66448,32622
11.67260,34919
11.68073,38511
11.68885,49435
11.69697,54355
11.70510,60790
11.71322,58182
11.72135,56221
11.72947,45045
11.73758,41972
11.74572,35374
11.75383,36157
11.76197,34416
11.77008,34547
11.77820,38279
11.78633,32965
11.79445,36948
11.80257,33862
11.81070,33579
11.81882,33944
11.82695,34372
11.83507,35450
11.84318,38218
11.85132,44606
11.85943,46560
11.86757,53450
11.87568,53723
11.88380,49552
11.89193,43319
11.90005,38631
11.90818,37350
11.91630,37458
11.92442,36764
11.93255,37768
11.94067,38702
11.94878,41524
11.95692,36126
11.96503,35766
11.97317,36749
11.98128,31013
11.98940,34543
11.99753,43837
12.00565,52761
12.01378,61891
12.02190,70217
12.03002,64749
12.03815,58212
12.04627,50390
12.05438,45501
12.06252,41312
12.07063,40690
12.07877,38463
12.08688,45945
12.09500,33583
12.10313,40243
12.11125,34746
12.11938,36569
12.12750,31821
12.13562,35572
12.14375,33032
12.15187,33935
12.16000,32303
12.16812,32116
12.17623,32015
12.18437,32777
12.19248,32575
12.20060,29848
12.20873,35354
12.21685,32469
12.22498,30662
12.23310,31616
12.24122,33533
12.24935,37709
12.25747,35679
12.26560,40067
12.27372,39895
12.28183,38764
12.28997,38148
12.29808,32945
12.30622,28813
12.31433,28179
12.32245,30413
12.33058,34661
12.33870,27848
12.34682,27541
12.35495,26827
12.36307,28388
12.37120,31011
12.37932,32569
12.38743,30437
12.39557,27772
12.40368,26716
12.41182,28119
12.41993,32459
12.42805,33387
12.43618,31621
12.44430,35769
12.45243,37902
12.46055,40803
12.46867,35315
12.47680,31784
12.48492,33768
12.49303,28536
12.50117,27963
12.50928,31241
12.51742,30467
12.52553,28570
12.53365,28511
12.54178,27327
12.54990,27417
12.55803,32100
12.56615,30612
12.57427,34963
12.58240,32670
12.59052,33779
12.59863,27458
12.60677,27560
12.61488,31329
12.62302,29651
12.63113,30264
12.63925,26109
12.64738,28456
12.65550,26726
12.66363,26868
12.67175,23613
12.67987,28579
12.68800,27218
12.69612,28410
12.70425,28383
12.71237,30307
12.72048,33388
12.72862,39957
12.73673,45533
12.74485,45489
12.75298,42326
12.76110,36890
12.76923,35114
12.77735,38314
12.78547,27401
12.79360,28727
12.80172,26300
12.80985,25662
12.81797,24375
12.82608,28826
12.83422,26208
12.84233,31790
12.85045,26929
12.85858,26127
12.86670,25840
12.87483,25179
12.88295,27789
12.89107,29532
12.89920,26757
12.90732,31461
12.91545,25976
12.92357,28149
12.93168,27509
12.93982,27057
12.94793,25328
12.95607,22559
12.96418,28431
12.97230,26840
12.98043,26689
12.98855,30402
12.99667,30579
13.00480,27764
13.01292,27962
13.02105,25951
13.02917,27472
13.03728,28104
13.04542,23171
13.05353,26992
13.06167,24230
13.06978,26050
13.07790,29056
13.08603,27817
13.09415,25514
13.10228,25531
13.11040,26753
13.11852,27000
13.12665,28534
13.13477,26039
13.14288,24510
13.15102,26540
13.15913,27140
13.16727,27427
13.17538,28070
13.18350,26127
13.19163,26138
13.19975,28510
13.20788,29080
13.21600,32697
13.22412,30832
13.23225,31149
13.24037,30380
13.24848,29437
13.25662,24697
13.26473,32450
13.27287,24703
13.28098,24270
13.28910,27648
13.29723,23759
13.30535,26586
13.31348,22695
13.32160,27951
13.32972,26311
13.33785,26957
13.34597,23296
13.35410,26627
13.36222,28238
13.37033,25784
13.37847,22821
13.38658,25811
13.39470,24892
13.40283,30783
13.41095,25213
13.41908,25988
13.42720,22538
13.43532,22796
13.44345,28426
13.45157,24176
13.45970,22706
13.46782,25228
13.47593,25377
13.48407,26168
13.49218,24288
13.50032,22946
13.50843,27439
13.51655,23710
13.52468,22267
13.53280,25504
13.54092,26287
13.54905,22869
13.55717,25813
13.56530,24387
13.57342,25546
13.58153,28620
13.58967,27918
13.59778,27161
13.60592,25623
13.61403,24931
13.62215,26761
13.63028,22113
13.63840,26023
13.64652,25363
13.65465,23126
13.66277,27775
13.67090,24365
13.67902,25289
13.68713,26680
13.69527,23431
13.70338,23081
13.71152,23773
13.71963,29165
13.72775,24265
13.73588,26748
13.74400,30558
13.75213,37410
13.76025,43135
13.76837,63143
13.77650,83474
13.78462,104751
13.79273,108022
13.80087,99248
13.80898,80950
13.81712,61247
13.82523,49519
13.83335,42787
13.84148,43672
13.84960,37749
13.85773,38512
13.86585,36695
13.87397,32491
13.88210,33748
13.89022,32530
13.89833,34303
13.90647,29645
13.91458,30483
13.92272,29248
13.93083,28276
13.93895,29768
13.94708,37416
13.95520,40972
13.96333,49835
13.97145,68301
13.97957,99102
13.98770,123189
13.99582,134237
14.00395,128034
14.01207,107285
14.02018,81717
14.02832,66351
14.03643,56156
14.04455,51023
14.05268,47151
14.06080,45828
14.06893,44719
14.07705,45057
14.08517,41100
14.09330,43998
14.10142,42411
14.10955,47133
14.11767,39436
14.12578,41941
14.13392,38032
14.14203,42063
14.15017,40147
14.15828,38057
14.16640,42976
14.17453,38543
14.18265,38009
14.19077,40381
14.19890,52151
14.20702,64258
14.21515,75511
14.22327,93610
14.23138,103205
14.23952,99978
14.24763,89263
14.25577,93565
14.26388,80529
14.27200,77140
14.28013,70741
14.28825,67928
14.29637,60197
14.30450,56893
14.31262,56325
14.32075,54229
14.32887,53515
14.33698,48736
14.34512,47794
14.35323,46305
14.36137,42243
14.36948,45271
14.37760,39324
14.38573,35003
14.39385,31969
14.40198,35521
14.41010,34710
14.41822,30964
14.42635,31016
14.43447,34323
14.44258,27705
14.45072,29278
14.45883,31464
14.46697,32220
14.47508,29458
14.48320,31808
14.49133,30311
14.49945,36163
14.50758,27636
14.51570,29712
14.52382,28990
14.53195,31955
14.54007,35632
14.54820,33838
14.55632,33340
14.56443,30629
14.57257,29019
14.58068,27107
14.58880,26617
14.59693,25719
14.60505,29548
14.61318,26933
14.62130,26175
14.62942,25368
14.63755,28229
14.64567,28372
14.65380,24811
14.66192,28928
14.67003,26151
14.67817,25489
14.68628,28897
14.69440,24657
14.70253,26382
14.71065,23967
14.71878,26596
14.72690,28521
14.73502,30072
14.74315,28674
14.75127,29214
14.75940,26496
14.76752,28687
14.77563,26485
14.78377,25860
14.79188,24929
14.80002,27593
14.80813,25787
14.81625,29786
14.82438,29857
14.83250,32535
14.84062,25848
14.84875,30700
14.85687,27651
14.86500,29364
14.87312,27167
14.88123,33414
14.88937,31892
14.89748,31292
14.90562,31806
14.91373,27464
14.92185,28580
14.92998,28302
14.93810,28752
14.94622,28377
14.95435,27437
14.96247,30878
14.97060,27446
14.97872,27390
14.98683,23916
14.99497,24218
15.00308,26788
15.01122,28737
15.01933,26858
15.02745,26760
15.03558,30336
15.04370,29618
15.05183,29271
15.05995,24781
15.06807,22324
15.07620,29067
15.08432,25143
15.09243,27670
15.10057,27160
15.10868,28275
15.11682,25985
15.12493,24012
15.13305,28702
15.14118,30304
15.14930,27453
15.15743,25891
15.16555,25733
15.17367,26600
15.18180,26432
15.18992,27275
15.19805,30236
15.20617,28440
15.21428,26451
15.22242,27423
15.23053,27274
15.23865,26409
15.24678,24310
15.25490,29465
15.26303,25265
15.27115,22958
15.27927,23913
15.28740,22127
15.29552,25520
15.30365,22215
15.31177,25701
15.31988,22422
15.32802,23359
15.33613,24966
15.34425,24831
15.35238,26547
15.36050,30125
15.36863,23201
15.37675,23128
15.38487,23249
15.39300,21241
15.40112,24900
15.40925,22405
15.41737,23033
15.42548,23835
15.43362,24495
15.44173,26512
15.44987,26218
15.45798,24811
15.46610,24342
15.47423,21506
15.48235,26205
15.49047,22090
15.49860,24273
15.50672,22898
15.51485,21227
15.52297,24172
15.53108,27186
15.53922,31912
15.54733,31536
15.55547,30803
15.56358,30103
15.57170,29854
15.57983,26768
15.58795,26678
15.59608,25315
15.60420,23701
15.61232,23550
15.62045,23101
15.62857,23477
15.63668,24479
15.64482,22733
15.65293,22414
15.66107,22743
15.66918,22884
15.67730,24719
15.68543,29652
15.69355,26058
15.70168,23966
15.70980,24631
15.71792,25848
15.72605,26733
15.73417,24993
15.74228,25147
15.75042,23420
15.75853,25540
15.76667,26477
15.77478,27704
15.78290,28000
15.79103,34967
15.79915,42132
15.80728,35976
15.81540,35539
15.82352,29875
15.83165,28247
15.83977,28592
15.84790,29053
15.85602,27459
15.86413,25561
15.87227,25873
15.88038,27901
15.88850,26309
15.89663,23302
15.90475,26780
15.91288,24606
15.92100,26822
15.92912,27670
15.93725,30116
15.94537,27437
15.95350,32228
15.96162,31199
15.96973,37204
15.97787,42238
15.98598,44073
15.99412,48453
16.00223,50937
16.01035,58166
16.01848,61615
16.02660,71536
16.03472,75207
16.04285,69836
16.05097,61955
16.05910,54806
16.06722,48960
16.07533,46326
16.08347,37503
16.09158,35315
16.09972,35357
16.10783,34910
16.11595,30056
16.12408,28752
16.13220,33633
16.14032,30030
16.14845,32535
16.15657,33306
16.16470,28461
16.17282,27269
16.18093,30666
16.18907,26185
16.19718,28627
16.20532,27789
16.21343,30861
16.22155,30242
16.22968,26445
16.23780,30802
16.24593,28285
16.25405,29089
16.26217,27225
16.27030,25788
16.27842,30029
16.28653,28613
16.29467,29230
16.30278,27914
16.31092,28015
16.31903,31608
16.32715,25716
16.33528,24022
16.34340,23763
16.35153,29552
16.35965,38986
16.36777,49346
16.37590,57738
16.38402,64165
16.39213,69664
16.40027,63759
16.40838,57121
16.41652,45515
16.42463,45329
16.43275,31674
16.44088,34750
16.44900,33290
16.45713,33923
16.46525,31932
16.47337,30870
16.48150,29472
16.48962,28269
16.49775,32168
16.50587,30029
16.51398,26942
16.52212,28765
16.53023,27746
16.53835,28510
16.54648,27328
16.55460,30857
16.56273,32154
16.57085,27028
16.57897,26429
16.58710,30995
16.59522,30456
16.60335,33048
16.61147,34445
16.61958,36185
16.62772,37444
16.63583,37837
16.64397,32627
16.65208,34564
16.66020,28957
16.66833,30624
16.67645,30352
16.68457,28169
16.69270,27067
16.70082,27768
16.70895,31229
16.71707,27035
16.72518,25566
16.73332,28407
16.74143,26560
16.74957,25813
16.75768,25950
16.76580,29619
16.77393,28229
16.78205,22850
16.79017,24954
16.79830,26830
16.80642,23684
16.81455,23449
16.82267,23644
16.83078,22422
16.83892,22719
16.84703,28145
16.85517,23935
16.86328,21582
16.87140,23164
16.87953,23087
16.88765,24759
16.89578,21343
16.90390,26203
16.91202,24653
16.92015,22457
16.92827,24610
16.93638,26909
16.94452,22043
16.95263,23844
16.96077,25093
16.96888,22828
16.97700,21151
16.98513,24305
16.99325,21584
17.00138,22389
17.00950,25430
17.01762,26733
17.02575,22684
17.03387,25767
17.04200,23086
17.05012,24714
17.05823,25358
17.06637,22985
17.07448,24426
17.08260,23300
17.09073,24587
17.09885,24573
17.10698,22629
17.11510,29293
17.12322,21383
17.13135,23328
17.13947,24598
17.14760,23193
17.15572,23816
17.16383,25740
17.17197,23142
17.18008,22076
17.18820,27306
17.19633,23796
17.20445,22602
17.21258,23735
17.22070,25579
17.22882,24481
17.23695,24908
17.24507,25998
17.25320,25250
17.26132,24097
17.26943,23888
17.27757,22926
17.28568,22576
17.29382,23532
17.30193,24761
17.31005,22513
17.31818,24890
17.32630,24739
17.33442,24565
17.34255,27108
17.35067,28194
17.35880,29658
17.36692,28811
17.37503,26592
17.38317,26826
17.39128,29175
17.39942,28317
17.40753,27815
17.41565,25788
17.42378,25210
17.43190,25261
17.44002,26535
17.44815,32512
17.45627,25476
17.46440,27111
17.47252,28854
17.48063,26039
17.48877,24100
17.49688,27124
17.50502,26102
17.51313,25138
17.52125,27002
17.52938,27126
17.53750,25716
17.54563,26620
17.55375,26462
17.56187,25782
17.57000,24917
17.57812,23744
17.58623,25371
17.59437,25365
17.60248,27412
17.61062,22740
17.61873,26037
17.62685,29838
17.63498,32114
17.64310,41784
17.65123,61821
17.65935,91619
17.66747,117980
17.67560,141432
17.68372,144713
17.69185,127145
17.69997,107042
17.70808,82704
17.71622,67198
17.72433,54688
17.73245,51510
17.74058,52623
17.74870,46821
17.75683,40944
17.76495,35047
17.77307,34053
17.78120,38190
17.78932,38673
17.79745,32958
17.80557,41184
17.81368,40244
17.82182,37225
17.82993,48854
17.83807,48270
17.84618,42532
17.85430,43200
17.86243,40441
17.87055,39020
17.87867,36550
17.88680,36712
17.89492,32414
17.90305,28670
17.91117,28928
17.91928,25139
17.92742,28276
17.93553,29641
17.94367,23795
17.95178,27434
17.95990,26538
17.96803,24266
17.97615,30943
17.98427,27558
17.99240,26711
18.00052,31802
18.00865,25621
18.01677,26763
18.02488,27265
18.03302,24282
18.04113,25483
18.04927,27087
18.05738,27906
18.06550,30543
18.07363,34920
18.08175,35202
18.08988,44027
18.09800,54271
18.10612,49266
18.11425,52583
18.12237,43578
18.13048,41308
18.13862,37716
18.14673,36518
18.15487,36754
18.16298,33658
18.17110,35942
18.17923,40199
18.18735,39787
18.19548,43454
18.20360,40345
18.21172,34526
18.21985,33702
18.22797,31608
18.23608,32964
18.24422,30553
18.25233,29055
18.26047,31526
18.26858,32858
18.27670,29150
18.28483,28363
18.29295,29891
18.30108,29499
18.30920,29429
18.31732,30389
18.32545,28518
18.33357,33702
18.34170,28099
18.34982,30105
18.35793,31090
18.36607,27552
18.37418,32693
18.38230,27479
18.39043,33509
18.39855,30944
18.40668,32199
18.41480,31188
18.42292,32512
18.43105,31656
18.43917,30843
18.44730,29930
18.45542,30988
18.46353,31172
18.47167,28696
18.47978,30800
18.48792,30514
18.49603,32576
18.50415,32427
18.51228,28847
18.52040,28250
18.52852,31299
18.53665,29877
18.54477,33042
18.55290,32201
18.56102,30919
18.56913,30189
18.57727,32341
18.58538,29380
18.59352,31328
18.60163,31358
18.60975,31551
18.61788,32046
18.62600,31901
18.63412,34051
18.64225,35213
18.65037,35150
18.65850,31225
18.66662,32850
18.67473,30349
18.68287,30543
18.69098,31758
18.69912,28869
18.70723,27832
18.71535,30457
18.72348,28301
18.73160,27416
18.73973,29540
18.74785,31894
18.75597,31359
18.76410,30718
18.77222,31333
18.78033,32352
18.78847,30377
18.79658,31050
18.80472,28673
18.81283,29878
18.82095,29536
18.82908,31256
18.83720,29238
18.84533,30131
18.85345,30819
18.86157,30603
18.86970,28424
18.87782,31020
18.88595,28332
18.89407,32734
18.90218,30609
18.91032,29878
18.91843,29531
18.92655,31152
18.93468,31476
18.94280,31491
18.95093,29639
18.95905,34763
18.96717,31608
18.97530,31709
18.98342,33988
18.99155,32911
18.99967,30961
19.00778,30983
19.01592,29263
19.02403,32592
19.03215,30452
19.04028,31767
19.04840,35565
19.05653,34583
19.06465,36453
19.07277,34099
19.08090,34498
19.08902,38560
19.09715,40303
19.10527,43694
19.11338,48277
19.12152,50929
19.12963,52067
19.13777,52906
19.14588,49378
19.15400,49738
19.16213,49172
19.17025,50734
19.17837,50914
19.18650,56695
19.19462,51213
19.20275,52522
19.21087,48566
19.21898,46102
19.22712,40144
19.23523,38799
19.24337,37090
19.25148,35631
19.25960,36283
19.26773,36146
19.27585,38860
19.28397,42533
19.29210,44341
19.30022,48884
19.30835,51426
19.31647,56995
19.32458,52212
19.33272,54013
19.34083,52842
19.34897,49233
19.35708,46827
19.36520,47165
19.37333,44285
19.38145,39428
19.38958,38948
19.39770,39115
19.40582,40786
19.41395,38213
19.42207,35052
19.43018,34074
19.43832,30850
19.44643,34057
19.45457,31992
19.46268,33466
19.47080,31072
19.47893,34713
19.48705,32921
19.49518,36827
19.50330,38601
19.51142,46799
19.51955,56646
19.52767,63367
19.53580,70959
19.54392,59308
19.55203,57385
19.56017,43519
19.56828,38759
19.57640,30903
19.58453,32293
19.59265,29634
19.60078,30073
19.60890,29680
19.61702,32149
19.62515,30596
19.63327,29793
19.64140,37417
19.64952,39317
19.65763,52010
19.66577,72557
19.67388,86121
19.68200,88834
19.69013,89394
19.69825,84513
19.70638,77191
19.71450,67496
19.72262,55559
19.73075,50337
19.73887,49603
19.74700,42722
19.75512,41531
19.76323,40568
19.77137,37100
19.77948,43408
19.78762,32339
19.79573,38794
19.80385,35368
19.81198,36269
19.82010,37183
19.82822,36486
19.83635,37748
19.84447,59483
19.85260,145145
19.86072,473231
19.86883,1468452
19.87697,3996792
19.88508,8678060
19.89322,1.494791E+07
19.90133,2.141545E+07
19.90945,2.566189E+07
19.91758,2.577763E+07
19.92570,2.208177E+07
19.93383,1.623973E+07
19.94195,1.091844E+07
19.95007,7200677
19.95820,5166720
19.96632,4070178
19.97443,3446268
19.98257,3017571
19.99068,2762293
19.99882,2523981
20.00693,2271061
20.01505,2112431
20.02318,1949563
20.03130,1833331
20.03943,1655717
20.04755,1472106
20.05567,1247347
20.06380,958536
20.07192,712784
20.08003,531812
20.08817,418576
20.09628,353311
20.10442,312577
20.11253,287078
20.12065,277266
20.12878,263347
20.13690,243865
20.14503,237046
20.15315,229063
20.16127,220904
20.16940,228806
20.17752,220636
20.18565,209806
20.19377,207265
20.20188,196470
20.21002,190044
20.21813,179800
20.22625,173155
20.23438,161369
20.24250,157440
20.25063,163877
20.25875,164591
20.26687,171011
20.27500,180542
20.28312,188681
20.29125,200799
20.29937,210758
20.30748,203978
20.31562,185748
20.32373,177225
20.33187,152670
20.33998,141236
20.34810,117454
20.35623,103861
20.36435,87198
20.37247,68281
20.38060,60905
20.38872,59808
20.39685,50675
20.40497,47459
20.41308,49714
20.42122,49286
20.42933,50413
20.43747,50456
20.44558,54178
20.45370,55395
20.46183,61162
20.46995,61271
20.47807,59539
20.48620,57619
20.49432,58489
20.50245,51306
20.51057,46417
20.51868,45219
20.52682,44935
20.53493,41697
20.54307,40617
20.55118,40961
20.55930,38551
20.56743,37907
20.57555,37668
20.58368,36639
20.59180,35278
20.59992,38481
20.60805,40972
20.61617,40871
20.62428,35571
20.63242,36882
20.64053,35682
20.64867,38057
20.65678,34565
20.66490,38537
20.67303,37715
20.68115,34248
20.68928,33846
20.69740,38328
20.70552,34702
20.71365,34731
20.72177,36756
20.72988,33536
20.73802,31243
20.74613,34309
20.75427,32023
20.76238,32789
20.77050,34248
20.77863,34415
20.78675,38662
20.79488,38543
20.80300,35560
20.81112,35071
20.81925,34542
20.82737,35003
20.83550,32599
20.84362,35423
20.85173,37678
20.85987,36752
20.86798,38444
20.87610,33610
20.88423,36341
20.89235,33645
20.90048,38930
20.90860,36813
20.91672,35539
20.92485,33870
20.93297,35057
20.94110,33207
20.94922,33983
20.95733,32170
20.96547,34123
20.97358,31359
20.98172,34820
20.98983,31795
20.99795,34306
21.00608,30934
21.01420,32811
21.02232,38142
21.03045,34134
21.03857,35394
21.04670,36387
21.05482,35252
21.06293,36911
21.07107,40722
21.07918,37566
21.08732,34535
21.09543,35909
21.10355,31945
21.11168,39130
21.11980,34284
21.12792,33475
21.13605,32135
21.14417,38479
21.15230,36354
21.16042,38620
21.16853,35087
21.17667,35675
21.18478,35045
21.19292,32509
21.20103,34893
21.20915,37775
21.21728,35674
21.22540,38286
21.23353,33860
21.24165,35283
21.24977,33002
21.25790,35178
21.26602,35809
21.27413,37254
21.28227,34645
21.29038,34831
21.29852,35570
21.30663,34669
21.31475,33151
21.32288,31744
21.33100,33826
21.33913,35670
21.34725,32863
21.35537,33269
21.36350,36258
21.37162,33620
21.37975,32695
21.38787,33390
21.39598,31249
21.40412,33313
21.41223,33590
21.42035,33223
21.42848,30638
21.43660,29098
21.44473,32191
21.45285,34660
21.46097,33136
21.46910,32249
21.47722,30894
21.48535,37017
21.49347,32093
21.50158,32700
21.50972,32914
21.51783,33161
21.52595,31261
21.53408,32354
21.54220,31687
21.55033,30291
21.55845,30723
21.56657,29781
21.57470,30231
21.58282,31827
21.59095,31248
21.59907,29824
21.60718,31433
21.61532,31538
21.62343,30992
21.63157,35356
21.63968,36242
21.64780,34846
21.65593,39642
21.66405,48841
21.67217,40686
21.68030,41732
21.68842,40632
21.69655,33364
21.70467,33375
21.71278,30060
21.72092,29718
21.72903,30794
21.73717,32736
21.74528,31040
21.75340,31447
21.76153,28789
21.76965,38817
21.77777,33209
21.78590,33438
21.79402,32041
21.80215,31795
21.81027,34007
21.81838,33499
21.82652,33903
21.83463,40820
21.84277,42805
21.85088,51452
21.85900,52095
21.86713,51116
21.87525,46298
21.88338,39975
21.89150,45634
21.89962,38481
21.90775,35280
21.91587,33114
21.92398,34518
21.93212,34371
21.94023,31502
21.94837,32636
21.95648,32199
21.96460,31240
21.97273,33072
21.98085,30936
21.98898,28121
21.99710,26517
22.00522,28133
22.01335,29476
22.02147,28462
22.02960,29099
22.03772,31988
22.04583,28337
22.05397,26774
22.06208,27233
22.07020,26589
22.07833,30507
22.08645,28760
22.09458,32515
22.10270,34650
22.11082,29673
22.11895,29330
22.12707,29652
22.13520,28587
22.14332,30330
22.15143,28368
22.15957,28625
22.16768,34122
22.17580,28911
22.18393,32108
22.19205,29676
22.20018,28868
22.20830,25234
22.21642,28575
22.22455,29989
22.23267,31491
22.24080,28831
22.24892,31089
22.25703,32946
22.26517,30361
22.27328,31523
22.28142,35726
22.28953,29249
22.29765,32674
22.30578,36490
22.31390,45855
22.32202,61556
22.33015,78146
22.33827,88814
22.34640,100415
22.35452,93483
22.36263,85715
22.37077,75401
22.37888,61268
22.38702,54884
22.39513,44770
22.40325,43102
22.41138,41402
22.41950,38888
22.42763,38513
22.43575,38822
22.44387,36076
22.45200,38738
22.46012,34394
22.46823,29026
22.47637,31083
22.48448,30098
22.49262,35995
22.50073,33646
22.50885,31844
22.51698,30840
22.52510,28303
22.53323,33654
22.54135,28359
22.54947,29974
22.55760,28602
22.56572,31295
22.57383,31224
22.58197,32388
22.59008,27220
22.59822,30299
22.60633,30009
22.61445,26141
22.62258,35664
22.63070,27599
22.63883,28480
22.64695,31290
22.65507,27070
22.66320,28103
22.67132,31847
22.67945,33574
22.68757,34993
22.69568,35693
22.70382,35343
22.71193,34695
22.72005,35589
22.72818,37248
22.73630,33309
22.74443,30105
22.75255,32852
22.76067,32635
22.76880,32237
22.77692,28352
22.78505,28745
22.79317,25999
22.80128,29063
22.80942,29478
22.81753,26670
22.82565,25452
22.83378,27766
22.84190,27154
22.85003,32009
22.85815,28421
22.86627,28110
22.87440,32527
22.88252,30572
22.89065,30302
22.89877,32375
22.90688,37422
22.91502,35128
22.92313,46251
22.93127,52097
22.93938,61752
22.94750,69158
22.95563,69834
22.96375,70893
22.97187,74551
22.98000,65547
22.98812,67711
22.99625,62866
23.00437,56564
23.01248,51086
23.02062,45955
23.02873,41693
23.03687,38658
23.04498,37335
23.05310,32004
23.06123,32477
23.06935,34214
23.07748,34606
23.08560,35420
23.09372,34992
23.10185,31992
23.10997,31380
23.11808,30844
23.12622,32046
23.13433,32265
23.14247,29921
23.15058,30421
23.15870,33849
23.16683,29519
23.17495,25624
23.18308,25275
23.19120,30025
23.19932,31087
23.20745,30021
23.21557,27781
23.22370,31847
23.23182,31137
23.23993,32602
23.24807,36377
23.25618,41699
23.26430,41604
23.27243,47049
23.28055,41110
23.28868,40618
23.29680,38098
23.30492,35951
23.31305,35338
23.32117,30850
23.32930,31373
23.33742,33919
23.34553,30536
23.35367,31260
23.36178,31055
23.36990,31161
23.37803,32611
23.38615,33591
23.39428,35371
23.40240,37757
23.41052,40069
23.41865,36715
23.42677,42960
23.43490,39701
23.44302,38534
23.45113,41128
23.45927,37164
23.46738,39087
23.47552,36615
23.48363,38155
23.49175,36237
23.49988,39441
23.50800,37130
23.51612,38344
23.52425,37183
23.53237,36464
23.54050,37669
23.54862,32884
23.55673,40397
23.56487,40174
23.57298,40341
23.58112,50795
23.58923,53636
23.59735,63080
23.60548,67597
23.61360,74484
23.62172,78528
23.62985,76184
23.63797,99014
23.64610,136293
23.65422,204824
23.66233,298844
23.67047,381393
23.67858,425221
23.68672,411471
23.69483,336511
23.70295,263486
23.71108,191500
23.71920,152742
23.72733,117212
23.73545,103258
23.74357,85486
23.75170,77140
23.75982,103609
23.76793,161349
23.77607,315161
23.78418,620205
23.79232,1032763
23.80043,1514315
23.80855,1768372
23.81668,1643116
23.82480,1392754
23.83293,1106771
23.84105,814533
23.84917,612745
23.85730,469201
23.86542,363725
23.87355,316055
23.88167,259975
23.88978,229055
23.89792,200112
23.90603,184486
23.91415,167319
23.92228,149838
23.93040,138431
23.93853,131731
23.94665,123962
23.95477,120223
23.96290,109845
23.97102,107824
23.97915,95986
23.98727,91026
23.99538,91872
24.00352,92868
24.01163,86469
24.01975,93012
24.02788,92065
24.03600,94252
24.04413,95090
24.05225,101563
24.06037,94346
24.06850,88498
24.07662,81975
24.08475,80709
24.09287,72485
24.10098,71897
24.10912,70650
24.11723,65823
24.12537,67199
24.13348,68572
24.14160,63900
24.14973,63818
24.15785,63294
24.16597,62247
24.17410,59604
24.18222,60088
24.19035,64991
24.19847,54856
24.20658,56916
24.21472,53466
24.22283,55888
24.23097,59857
24.23908,59582
24.24720,60512
24.25533,54880
24.26345,54026
24.27158,52531
24.27970,46325
24.28782,47785
24.29595,44316
24.30407,47672
24.31218,46042
24.32032,44294
24.32843,38904
24.33657,47275
24.34468,48653
24.35280,45052
24.36093,44891
24.36905,44369
24.37718,45037
24.38530,48758
24.39342,49488
24.40155,55185
24.40967,58981
24.41778,63384
24.42592,66386
24.43403,60282
24.44217,55279
24.45028,55121
24.45840,53998
24.46653,49585
24.47465,52341
24.48278,54261
24.49090,55800
24.49902,58824
24.50715,59818
24.51527,57273
24.52340,54776
24.53152,56210
24.53963,73485
24.54777,70831
24.55588,72732
24.56400,79200
24.57213,79286
24.58025,84656
24.58838,78006
24.59650,71346
24.60462,66053
24.61275,60123
24.62087,58086
24.62900,55499
24.63712,53384
24.64523,48144
24.65337,46971
24.66148,45642
24.66960,45794
24.67773,41429
24.68585,42343
24.69398,39684
24.70210,41064
24.71022,41208
24.71835,37230
24.72647,39363
24.73460,40891
24.74272,38941
24.75083,39854
24.75897,38984
24.76708,38441
24.77522,38662
24.78333,34987
24.79145,33696
24.79958,35737
24.80770,38161
24.81582,33588
24.82395,36766
24.83207,34596
24.84020,35575
24.84832,34269
24.85643,37644
24.86457,39684
24.87268,42818
24.88082,45359
24.88893,48247
24.89705,46079
24.90518,42948
24.91330,40410
24.92143,39305
24.92955,37037
24.93767,37425
24.94580,34422
24.95392,31806
24.96203,36601
24.97017,33507
24.97828,32787
24.98642,34377
24.99453,32425
25.00265,30199
25.01078,30966
25.01890,31318
25.02703,32237
25.03515,31736
25.04327,31623
25.05140,30471
25.05952,32957
25.06763,32882
25.07577,32805
25.08388,32946
25.09202,33645
25.10013,29048
25.10825,27575
25.11638,30346
25.12450,34923
25.13263,33140
25.14075,34014
25.14887,37114
25.15700,36964
25.16512,36596
25.17325,36670
25.18137,35695
25.18948,35932
25.19762,33942
25.20573,31989
25.21385,33258
25.22198,32824
25.23010,28625
25.23823,31483
25.24635,30095
25.25447,34482
25.26260,32246
25.27072,34409
25.27885,35162
25.28697,39034
25.29508,36643
25.30322,34223
25.31133,32180
25.31947,34486
25.32758,42655
25.33570,35011
25.34383,41204
25.35195,35155
25.36007,34339
25.36820,35703
25.37632,37345
25.38445,34418
25.39257,38158
25.40068,33493
25.40882,30755
25.41693,33375
25.42507,32175
25.43318,29070
25.44130,29909
25.44943,25852
25.45755,35119
25.46567,29563
25.47380,31324
25.48192,32738
25.49005,29393
25.49817,29932
25.50628,29502
25.51442,36953
25.52253,29735
25.53067,36583
25.53878,33693
25.54690,35454
25.55503,27314
25.56315,27926
25.57128,26687
25.57940,29320
25.58752,27712
25.59565,27348
25.60377,26408
25.61188,25890
25.62002,27469
25.62813,31297
25.63627,29587
25.64438,34773
25.65250,33055
25.66063,33283
25.66875,34820
25.67688,37323
25.68500,35559
25.69312,35067
25.70125,32268
25.70937,30857
25.71748,27302
25.72562,30276
25.73373,27892
25.74187,30455
25.74998,34858
25.75810,31380
25.76623,30749
25.77435,31758
25.78248,35378
25.79060,26316
25.79872,26068
25.80685,32846
25.81497,29107
25.82310,33128
25.83122,38247
25.83933,37802
25.84747,36894
25.85558,37321
25.86370,36607
25.87183,33678
25.87995,34944
25.88808,32870
25.89620,28558
25.90432,32597
25.91245,32687
25.92057,30757
25.92870,29290
25.93682,26860
25.94493,26434
25.95307,28012
25.96118,29741
25.96932,28028
25.97743,25816
25.98555,27384
25.99368,26986
26.00180,28546
26.00992,28989
26.01805,25726
26.02617,26843
26.03430,32997
26.04242,27347
26.05053,30481
26.05867,27584
26.06678,28814
26.07492,27247
26.08303,25411
26.09115,26537
26.09928,28226
26.10740,31950
26.11552,29937
26.12365,29237
26.13177,31760
26.13990,32471
26.14802,35266
26.15613,36421
26.16427,35466
26.17238,37426
26.18052,39718
26.18863,40408
26.19675,33258
26.20488,35589
26.21300,31387
26.22113,30270
26.22925,30474
26.23737,27995
26.24550,28244
26.25362,27884
26.26173,30900
26.26987,28845
26.27798,27219
26.28612,29684
26.29423,24878
26.30235,30728
26.31048,27919
26.31860,29604
26.32673,24526
26.33485,26887
26.34297,29288
26.35110,25545
26.35922,26873
26.36735,27401
26.37547,25797
26.38358,26158
26.39172,27177
26.39983,27082
26.40795,25915
26.41608,28115
26.42420,28008
26.43233,26669
26.44045,25502
26.44857,25005
26.45670,25006
26.46482,22541
26.47295,23013
26.48107,24551
26.48918,27539
26.49732,26295
26.50543,24502
26.51355,26185
26.52168,25243
26.52980,24660
26.53793,29823
26.54605,24578
26.55417,24318
26.56230,26396
26.57042,24756
26.57855,24216
26.58667,27820
26.59478,22808
26.60292,25253
26.61103,24007
26.61917,26726
26.62728,24066
26.63540,23731
26.64353,27699
26.65165,26922
26.65977,26907
26.66790,27807
26.67602,32028
26.68415,30760
26.69227,32801
26.70038,33676
26.70852,30376
26.71663,29568
26.72477,29601
26.73288,26833
26.74100,27648
26.74913,28410
26.75725,28551
26.76538,26438
26.77350,27479
26.78162,26565
26.78975,27651
26.79787,27860
26.80598,28391
26.81412,26167
26.82223,29377
26.83037,34757
26.83848,33103
26.84660,31096
26.85473,28757
26.86285,27066
26.87098,32597
26.87910,27983
26.88722,29844
26.89535,27698
26.90347,28992
26.91158,28091
26.91972,28408
26.92783,27057
26.93597,29136
26.94408,29451
26.95220,27348
26.96033,25031
26.96845,29506
26.97658,29429
26.98470,33382
26.99282,44707
27.00095,56119
27.00907,82284
27.01720,114486
27.02532,144513
27.03343,173482
27.04157,168044
27.04968,160078
27.05780,147672
27.06593,127601
27.07405,101546
27.08218,90674
27.09030,81187
27.09842,68518
27.10655,64882
27.11467,59766
27.12280,54490
27.13092,51160
27.13903,50478
27.14717,49407
27.15528,48407
27.16340,49718
27.17153,50202
27.17965,44297
27.18778,44895
27.19590,43848
27.20402,43900
27.21215,44982
27.22027,45632
27.22840,39902
27.23652,42102
27.24463,39043
27.25277,36798
27.26088,35560
27.26902,38956
27.27713,39461
27.28525,33020
27.29338,37645
27.30150,35778
27.30962,32514
27.31775,37891
27.32587,38928
27.33400,33636
27.34212,31247
27.35023,33682
27.35837,32470
27.36648,31206
27.37462,35102
27.38273,34009
27.39085,35554
27.39898,36666
27.40710,34914
27.41523,30886
27.42335,31442
27.43147,29922
27.43960,30585
27.44772,32611
27.45583,31726
27.46397,31378
27.47208,29439
27.48022,32079
27.48833,28886
27.49645,31926
27.50458,32608
27.51270,33712
27.52083,32513
27.52895,36324
27.53707,31817
27.54520,32497
27.55332,28977
27.56143,29771
27.56957,30335
27.57768,33043
27.58582,34705
27.59393,28404
27.60205,29525
27.61018,30742
27.61830,31202
27.62643,28652
27.63455,33008
27.64267,33199
27.65080,28537
27.65892,30445
27.66705,29725
27.67517,26861
27.68328,28774
27.69142,27795
27.69953,27986
27.70765,26625
27.71578,31246
27.72390,28596
27.73203,30883
27.74015,25695
27.74827,25992
27.75640,27967
27.76452,27283
27.77265,26738
27.78077,28181
27.78888,27581
27.79702,30353
27.80513,27586
27.81327,28490
27.82138,29821
27.82950,32881
27.83763,29487
27.84575,30332
27.85387,30307
27.86200,31479
27.87012,30413
27.87825,32098
27.88637,28249
27.89448,30876
27.90262,26788
27.91073,29269
27.91887,27294
27.92698,23117
27.93510,30554
27.94323,29621
27.95135,23723
27.95947,27667
27.96760,27128
27.97572,29487
27.98385,28589
27.99197,25089
28.00008,27475
28.00822,27335
28.01633,27367
28.02447,26434
28.03258,29706
28.04070,25338
28.04883,26693
28.05695,28442
28.06508,31634
28.07320,28886
28.08132,32321
28.08945,33152
28.09757,33036
28.10568,31992
28.11382,34785
28.12193,34624
28.13007,32173
28.13818,27092
28.14630,29947
28.15443,24143
28.16255,24294
28.17068,26195
28.17880,28325
28.18692,25687
28.19505,27782
28.20317,30634
28.21128,29953
28.21942,33160
28.22753,34039
28.23567,34061
28.24378,31124
28.25190,28041
28.26003,28449
28.26815,29679
28.27628,27832
28.28440,28641
28.29252,25270
28.30065,25834
28.30877,26514
28.31690,28757
28.32502,32520
28.33313,30260
28.34127,35118
28.34938,32541
28.35750,36750
28.36563,41281
28.37375,45536
28.38188,47981
28.39000,47917
28.39812,48200
28.40625,55711
28.41437,55411
28.42250,54625
28.43062,49284
28.43873,45793
28.44687,45751
28.45498,44278
28.46312,42514
28.47123,42717
28.47935,39767
28.48748,39872
28.49560,35316
28.50372,36929
28.51185,36730
28.51997,33773
28.52810,35858
28.53622,38104
28.54433,34901
28.55247,35488
28.56058,35255
28.56872,29608
28.57683,32723
28.58495,36242
28.59308,30047
28.60120,30591
28.60933,34125
28.61745,31591
28.62557,30127
28.63370,37775
28.64182,33446
28.64993,40897
28.65807,35390
28.66618,37096
28.67432,44064
28.68243,41525
28.69055,38598
28.69868,36333
28.70680,36636
28.71493,36554
28.72305,33976
28.73117,31166
28.73930,27725
28.74742,28888
28.75553,34178
28.76367,33374
28.77178,37126
28.77992,34408
28.78803,36671
28.79615,35508
28.80428,41990
28.81240,34537
28.82053,32310
28.82865,32094
28.83677,31042
28.84490,29465
28.85302,32292
28.86115,30719
28.86927,29213
28.87738,27268
28.88552,26604
28.89363,26837
28.90175,29677
28.90988,31380
28.91800,28071
28.92613,30013
28.93425,31950
28.94237,28260
28.95050,34380
28.95862,38530
28.96675,36547
28.97487,41451
28.98298,37873
28.99112,39406
28.99923,36251
29.00735,36693
29.01548,29958
29.02360,27471
29.03173,25404
29.03985,29361
29.04797,31228
29.05610,32057
29.06422,29778
29.07235,26675
29.08047,30687
29.08858,33703
29.09672,28579
29.10483,27310
29.11297,27442
29.12108,27211
29.12920,31224
29.13733,30664
29.14545,27979
29.15357,29405
29.16170,33902
29.16982,32180
29.17795,31315
29.18607,33273
29.19418,34134
29.20232,31845
29.21043,29781
29.21857,33143
29.22668,30269
29.23480,31659
29.24293,28829
29.25105,27547
29.25918,27736
29.26730,29330
29.27542,30849
29.28355,28579
29.29167,31222
29.29978,29274
29.30792,35967
29.31603,30507
29.32417,27035
29.33228,26428
29.34040,27135
29.34853,29380
29.35665,26692
29.36478,27350
29.37290,26673
29.38102,29591
29.38915,28434
29.39727,29974
29.40538,28480
29.41352,29664
29.42163,30865
29.42977,34299
29.43788,30051
29.44600,33502
29.45413,30318
29.46225,28475
29.47038,26707
29.47850,28757
29.48662,31620
29.49475,33416
29.50287,33928
29.51100,34479
29.51912,34004
29.52723,35051
29.53537,34598
29.54348,31744
29.55160,28860
29.55973,25233
29.56785,30794
29.57598,30587
29.58410,29997
29.59222,28683
29.60035,28407
29.60847,26010
29.61660,29884
29.62472,29437
29.63283,28495
29.64097,27284
29.64908,28737
29.65722,30259
29.66533,27732
29.67345,36537
29.68158,30115
29.68970,26268
29.69782,28514
29.70595,33118
29.71407,27603
29.72220,29730
29.73032,28776
29.73843,25428
29.74657,32138
29.75468,30072
29.76282,28773
29.77093,26901
29.77905,27727
29.78718,27879
29.79530,25293
29.80342,24136
29.81155,25622
29.81967,27019
29.82780,24000
29.83592,27611
29.84403,24505
29.85217,26368
29.86028,30112
29.86842,32563
29.87653,37027
29.88465,51282
29.89278,66541
29.90090,82099
29.90903,103653
29.91715,99399
29.92527,92802
29.93340,70491
29.94152,57209
29.94963,50561
29.95777,40957
29.96588,41233
29.97402,34645
29.98213,36337
29.99025,38095
29.99838,35157
30.00650,37691
30.01463,36486
30.02275,41090
30.03087,45620
30.03900,41702
30.04712,48741
30.05523,46026
30.06337,49370
30.07148,46947
30.07962,47749
30.08773,43193
30.09585,46618
30.10398,52072
30.11210,45490
30.12023,45794
30.12835,42466
30.13647,42604
30.14460,36508
30.15272,41431
30.16085,39154
30.16897,38495
30.17708,34878
30.18522,42823
30.19333,37023
30.20145,36406
30.20958,37919
30.21770,33747
30.22583,32619
30.23395,35566
30.24207,34897
30.25020,32352
30.25832,31901
30.26645,28760
30.27457,27088
30.28268,30512
30.29082,34171
30.29893,31952
30.30707,31706
30.31518,34060
30.32330,31921
30.33143,33367
30.33955,31429
30.34767,29738
30.35580,30345
30.36392,30260
30.37205,30126
30.38017,31072
30.38828,32044
30.39642,30096
30.40453,30402
30.41267,30446
30.42078,29643
30.42890,31776
30.43703,30123
30.44515,28866
30.45327,28618
30.46140,28214
30.46952,28189
30.47765,30512
30.48577,27525
30.49388,29520
30.50202,31109
30.51013,29538
30.51827,29439
30.52638,28670
30.53450,29469
30.54263,28555
30.55075,27274
30.55888,32764
30.56700,29106
30.57512,29818
30.58325,29305
30.59137,28335
30.59948,27424
30.60762,29753
30.61573,29888
30.62387,29792
30.63198,25575
30.64010,29199
30.64823,28454
30.65635,26167
30.66448,31993
30.67260,29169
30.68072,29159
30.68885,29303
30.69697,30870
30.70510,27842
30.71322,28835
30.72133,31336
30.72947,25132
30.73758,29764
30.74570,29781
30.75383,27622
30.76195,28586
30.77008,28072
30.77820,32656
30.78632,34790
30.79445,36151
30.80257,39477
30.81070,42506
30.81882,45776
30.82693,47249
30.83507,44518
30.84318,43393
30.85130,40180
30.85943,33679
30.86755,36068
30.87568,29554
30.88380,28794
30.89192,28847
30.90005,29913
30.90817,28389
30.91630,27704
30.92442,26498
30.93253,25529
30.94067,28983
30.94878,29391
30.95692,29006
30.96503,31404
30.97315,27992
30.98128,27192
30.98940,27291
30.99752,29552
31.00565,29446
31.01377,36161
31.02190,30545
31.03002,32271
31.03813,34035
31.04627,35059
31.05438,37379
31.06252,38107
31.07063,39054
31.07875,39128
31.08688,49357
31.09500,69434
31.10312,93792
31.11125,117137
31.11937,127070
31.12750,121310
31.13562,106468
31.14373,83287
31.15187,56228
31.15998,47380
31.16812,43259
31.17623,39507
31.18435,38926
31.19248,38282
31.20060,42813
31.20873,52097
31.21685,62036
31.22497,63109
31.23310,67320
31.24122,62532
31.24933,57975
31.25747,55094
31.26558,44819
31.27372,41373
31.28183,34023
31.28995,33679
31.29808,31469
31.30620,32215
31.31433,32431
31.32245,28143
31.33057,30346
31.33870,31306
31.34682,31410
31.35495,33253
31.36307,30640
31.37118,40194
31.37932,43346
31.38743,45027
31.39555,45677
31.40368,46769
31.41180,46923
31.41993,42745
31.42805,36912
31.43617,38430
31.44430,36719
31.45242,35441
31.46055,34848
31.46867,34215
31.47678,30594
31.48492,31862
31.49303,31428
31.50115,30295
31.50928,33056
31.51740,29942
31.52553,32280
31.53365,29713
31.54177,30887
31.54990,34840
31.55802,29871
31.56615,30405
31.57427,28453
31.58238,31636
31.59052,26507
31.59863,27518
31.60677,28599
31.61488,33792
31.62300,30362
31.63113,29551
31.63925,30526
31.64737,33083
31.65550,31224
31.66362,33477
31.67175,31914
31.67987,29297
31.68798,28918
31.69612,29575
31.70423,30113
31.71237,30898
31.72048,29841
31.72860,29527
31.73673,28455
31.74485,29919
31.75298,30832
31.76110,27799
31.76922,29674
31.77735,30748
31.78547,32918
31.79358,31250
31.80172,31124
31.80983,33407
31.81797,34344
31.82608,32513
31.83420,33104
31.84233,29756
31.85045,33871
31.85858,34365
31.86670,33256
31.87482,39495
31.88295,39775
31.89107,41762
31.89918,39290
31.90732,38901
31.91543,44775
31.92357,44273
31.93168,42500
31.93980,39651
31.94793,44000
31.95605,44851
31.96418,42106
31.97230,45075
31.98042,44960
31.98855,48307
31.99667,47211
32.00480,45511
32.01292,44914
32.02103,41905
32.02917,38271
32.03728,42939
32.04540,46130
32.05353,43996
32.06165,40871
32.06978,39177
32.07790,39557
32.08602,36417
32.09415,39479
32.10227,36075
32.11040,38372
32.11852,40297
32.12663,33938
32.13477,33678
32.14288,34712
32.15102,33353
32.15913,32552
32.16725,33819
32.17538,33430
32.18350,35956
32.19162,33427
32.19975,32963
32.20787,31880
32.21600,33875
32.22412,31336
32.23223,31781
32.24037,32291
32.24848,32935
32.25662,36072
32.26473,34043
32.27285,34596
32.28098,33851
32.28910,37923
32.29722,35182
32.30535,32974
32.31347,34111
32.32160,30551
32.32972,30098
32.33783,38866
32.34597,37217
32.35408,35576
32.36222,37382
32.37033,39145
32.37845,35752
32.38658,35855
32.39470,34324
32.40283,42942
32.41095,31952
32.41907,32337
32.42720,34896
32.43532,35412
32.44343,31649
32.45157,29020
32.45968,31790
32.46782,31959
32.47593,31759
32.48405,30424
32.49218,37090
32.50030,30279
32.50843,30378
32.51655,31424
32.52467,30096
32.53280,27625
32.54092,33681
32.54903,33810
32.55717,31818
32.56528,31910
32.57342,32219
32.58153,32436
32.58965,31484
32.59778,33226
32.60590,31055
32.61403,36923
32.62215,32588
32.63027,34165
32.63840,34305
32.64652,29784
32.65465,30267
32.66277,29736
32.67088,34065
32.67902,37573
32.68713,40768
32.69525,43875
32.70338,42908
32.71150,40476
32.71963,37936
32.72775,37493
32.73587,34604
32.74400,36974
32.75212,33699
32.76025,29731
32.76837,34663
32.77648,28754
32.78462,32006
32.79273,32511
32.80087,30346
32.80898,32592
32.81710,29861
32.82523,32748
32.83335,31023
32.84147,30931
32.84960,31692
32.85772,28106
32.86585,29243
32.87397,29124
32.88208,34030
32.89022,30606
32.89833,31790
32.90647,30501
32.91458,32119
32.92270,28837
32.93083,31509
32.93895,31762
32.94707,31691
32.95520,30616
32.96332,31865
32.97145,33259
32.97957,31509
32.98768,29428
32.99582,33276
33.00393,32335
33.01207,32868
33.02018,29087
33.02830,28162
33.03643,32405
33.04455,31700
33.05268,29722
33.06080,29575
33.06892,29893
33.07705,29339
33.08517,32865
33.09328,36822
33.10142,42754
33.10953,58336
33.11767,55928
33.12578,58135
33.13390,63279
33.14203,62691
33.15015,51135
33.15828,46696
33.16640,41828
33.17452,36351
33.18265,33146
33.19077,30975
33.19890,35619
33.20702,33099
33.21513,36811
33.22327,32571
33.23138,36044
33.23950,31966
33.24763,35361
33.25575,34253
33.26388,29467
33.27200,32936
33.28012,31755
33.28825,30641
33.29637,30503
33.30450,33237
33.31262,35693
33.32073,33391
33.32887,32447
33.33698,35366
33.34510,32038
33.35323,30494
33.36135,31330
33.36948,28742
33.37760,33026
33.38572,33266
33.39385,31585
33.40197,29110
33.41010,28609
33.41822,31798
33.42633,27833
33.43447,30052
33.44258,30834
33.45072,30220
33.45883,34156
33.46695,33196
33.47508,31655
33.48320,32357
33.49132,30828
33.49945,29138
33.50757,33086
33.51570,32907
33.52382,31814
33.53193,28995
33.54007,28084
33.54818,31641
33.55632,32010
33.56443,34411
33.57255,32335
33.58068,32766
33.58880,32385
33.59692,30103
33.60505,34407
33.61317,32879
33.62130,32589
33.62942,33460
33.63753,33018
33.64567,31925
33.65378,35097
33.66192,33055
33.67003,32080
33.67815,34549
33.68628,35164
33.69440,33531
33.70253,33053
33.71065,30964
33.71877,31467
33.72690,33786
33.73502,32147
33.74313,29580
33.75127,28693
33.75938,29295
33.76752,31154
33.77563,29135
33.78375,33772
33.79188,32538
33.80000,34876
33.80813,36890
33.81625,30223
33.82437,32033
33.83250,32141
33.84062,34422
33.84875,33670
33.85687,39064
33.86498,35878
33.87312,37599
33.88123,33165
33.88935,38312
33.89748,33455
33.90560,32030
33.91373,31575
33.92185,33229
33.92997,35395
33.93810,30177
33.94622,35934
33.95435,31981
33.96247,33177
33.97058,34075
33.97872,34547
33.98683,35981
33.99497,32153
34.00308,33014
34.01120,33389
34.01933,34996
34.02745,33787
34.03557,31294
34.04370,32640
34.05182,31384
34.05995,32560
34.06807,37935
34.07618,33033
34.08432,33113
34.09243,35632
34.10057,30238
34.10868,35428
34.11680,31484
34.12493,35099
34.13305,33875
34.14117,33935
34.14930,36687
34.15742,33018
34.16555,33349
34.17367,32492
34.18178,32255
34.18992,34337
34.19803,32609
34.20617,32176
34.21428,36445
34.22240,32005
34.23053,31435
34.23865,33876
34.24678,35945
34.25490,34680
34.26302,34830
34.27115,33952
34.27927,31124
34.28738,29552
34.29552,31657
34.30363,31827
34.31177,33870
34.31988,32442
34.32800,32494
34.33613,35012
34.34425,33000
34.35238,31862
34.36050,33003
34.36862,32517
34.37675,32508
34.38487,32166
34.39298,30357
34.40112,35914
34.40923,33415
34.41737,34169
34.42548,35672
34.43360,34798
34.44173,33451
34.44985,36738
34.45798,31508
34.46610,35611
34.47422,32937
34.48235,34831
34.49047,34491
34.49860,32677
34.50672,31546
34.51483,34874
34.52297,37521
34.53108,36288
34.53920,38077
34.54733,42056
34.55545,40516
34.56358,44656
34.57170,44557
34.57982,47276
34.58795,46100
34.59607,43289
34.60420,47788
34.61232,46667
34.62043,42212
34.62857,43131
34.63668,42476
34.64482,42754
34.65293,37869
34.66105,38660
34.66918,37295
34.67730,36207
34.68542,37766
34.69355,36036
34.70167,35717
34.70980,35702
34.71792,35016
34.72603,35649
34.73417,33855
34.74228,35551
34.75042,35682
34.75853,38844
34.76665,37510
34.77478,41723
34.78290,36278
34.79102,38562
34.79915,38504
34.80727,37395
34.81540,33894
34.82352,34561
34.83163,34224
34.83977,38708
34.84788,36545
34.85602,34212
34.86413,32569
34.87225,36572
34.88038,37231
34.88850,34817
34.89663,36156
34.90475,35815
34.91287,34802
34.92100,37267
34.92912,36422
34.93723,40113
34.94537,47990
34.95348,66826
34.96162,103667
34.96973,149202
34.97785,214081
34.98598,264551
34.99410,271496
35.00223,228644
35.01035,168809
35.01847,118425
35.02660,75924
35.03472,63260
35.04285,50432
35.05097,51339
35.05908,49713
35.06722,48577
35.07533,48439
35.08345,47879
35.09158,49167
35.09970,47278
35.10783,47514
35.11595,45884
35.12407,41843
35.13220,43249
35.14032,45157
35.14845,42560
35.15657,44554
35.16468,45126
35.17282,44994
35.18093,43722
35.18905,45154
35.19718,42963
35.20530,41588
35.21343,39160
35.22155,40101
35.22967,40858
35.23780,41367
35.24592,40730
35.25405,40350
35.26217,42943
35.27028,42035
35.27842,44861
35.28653,42665
35.29467,42556
35.30278,41795
35.31090,43938
35.31903,46351
35.32715,40057
35.33527,36566
35.34340,35664
35.35152,33227
35.35965,34432
35.36777,35276
35.37588,36167
35.38402,38354
35.39213,37862
35.40027,38840
35.40838,37764
35.41650,40221
35.42463,38397
35.43275,40567
35.44087,42319
35.44900,40448
35.45712,41961
35.46525,46960
35.47337,44172
35.48148,39300
35.48962,41797
35.49773,41255
35.50587,41227
35.51398,44532
35.52210,42704
35.53023,38056
35.53835,39775
35.54648,38323
35.55460,45294
35.56272,42856
35.57085,40843
35.57897,43429
35.58708,41989
35.59522,50647
35.60333,43281
35.61147,47837
35.61958,41524
35.62770,42500
35.63583,38392
35.64395,42739
35.65208,36660
35.66020,42535
35.66832,42075
35.67645,45975
35.68457,45497
35.69270,43075
35.70082,40457
35.70893,40843
35.71707,44015
35.72518,43318
35.73330,42864
35.74143,41552
35.74955,38466
35.75768,39410
35.76580,42296
35.77392,45546
35.78205,41876
35.79017,37946
35.79830,39869
35.80642,49244
35.81453,46223
35.82267,38892
35.83078,40192
35.83890,36244
35.84703,42842
35.85515,43564
35.86328,41927
35.87140,38705
35.87952,39417
35.88765,43195
35.89577,37855
35.90390,37473
35.91202,41291
35.92013,40795
35.92827,42415
35.93638,38486
35.94452,41656
35.95263,36260
35.96075,41507
35.96888,39411
35.97700,38187
35.98512,42639
35.99325,43800
36.00137,44225
36.00950,39453
36.01762,40093
36.02573,42897
36.03387,45105
36.04198,40592
36.05012,40947
36.05823,40500
36.06635,44948
36.07448,43306
36.08260,43358
36.09073,41067
36.09885,46126
36.10697,37251
36.11510,39063
36.12322,37278
36.13133,38574
36.13947,41499
36.14758,42350
36.15572,39866
36.16383,45136
36.17195,40522
36.18008,39972
36.18820,41559
36.19633,38875
36.20445,47256
36.21257,38270
36.22070,39670
36.22882,41583
36.23693,41566
36.24507,36775
36.25318,40111
36.26132,41343
36.26943,44706
36.27755,40629
36.28568,40469
36.29380,40758
36.30193,41083
36.31005,42092
36.31817,40192
36.32630,46585
36.33442,47250
36.34255,46417
36.35067,47288
36.35878,39588
36.36692,38499
36.37503,42135
36.38315,40602
36.39128,45209
36.39940,45054
36.40753,45508
36.41565,46739
36.42377,44365
36.43190,44305
36.44002,41500
36.44815,43424
36.45627,40722
36.46438,39957
36.47252,38375
36.48063,43706
36.48877,42561
36.49688,43921
36.50500,38325
36.51313,41065
36.52125,38087
36.52937,37745
36.53750,37893
36.54562,42318
36.55375,41078
36.56187,38508
36.56998,40475
36.57812,41706
36.58623,39445
36.59437,41448
36.60248,42443
36.61060,44216
36.61873,41598
36.62685,38727
36.63497,40766
36.64310,41415
36.65122,40071
36.65935,42132
36.66747,40296
36.67558,40040
36.68372,42317
36.69183,44880
36.69997,44111
36.70808,42577
36.71620,43291
36.72433,39781
36.73245,41604
36.74058,43742
36.74870,41378
36.75682,42966
36.76495,40261
36.77307,47851
36.78118,44779
36.78932,47458
36.79743,43214
36.80557,41109
36.81368,43272
36.82180,45052
36.82993,48446
36.83805,46971
36.84618,46691
36.85430,51072
36.86242,49983
36.87055,50299
36.87867,53445
36.88678,54280
36.89492,54258
36.90303,60250
36.91117,60749
36.91928,58512
36.92740,58673
36.93553,58475
36.94365,63580
36.95178,60092
36.95990,53912
36.96802,59233
36.97615,55551
36.98427,58026
36.99240,53739
37.00052,50081
37.00863,48751
37.01677,52422
37.02488,50721
37.03300,50290
37.04113,51430
37.04925,48060
37.05738,45513
37.06550,44986
37.07362,47146
37.08175,49677
37.08987,47681
37.09800,45026
37.10612,48245
37.11423,45551
37.12237,48349
37.13048,43524
37.13862,43978
37.14673,46777
37.15485,43252
37.16298,45971
37.17110,50548
37.17922,49721
37.18735,49628
37.19547,44980
37.20360,47416
37.21172,41578
37.21983,50010
37.22797,44266
37.23608,49751
37.24422,50797
37.25233,47527
37.26045,45960
37.26858,46626
37.27670,45251
37.28482,46950
37.29295,44160
37.30107,47661
37.30920,47708
37.31732,47077
37.32543,42458
37.33357,49757
37.34168,53449
37.34982,51639
37.35793,52341
37.36605,54288
37.37418,50904
37.38230,52757
37.39043,51631
37.39855,48911
37.40667,54340
37.41480,48567
37.42292,49529
37.43103,46750
37.43917,46355
37.44728,50770
37.45542,46905
37.46353,50798
37.47165,50629
37.47978,49818
37.48790,51731
