C:\MassHunter\GCMS\1\data\JTB-E02\BACandBLUE\JTB-E18-017-08.D Wed Jul 03 12:28:38 2019
Start of data points
2.09520	62161
2.10332	61031
2.11145	60037
2.11957	57854
2.12770	57797
2.13582	59407
2.14393	67394
2.15207	56670
2.16018	60026
2.16832	57415
2.17643	57794
2.18455	53434
2.19268	57859
2.20080	55213
2.20892	54266
2.21705	50250
2.22517	49802
2.23330	47391
2.24142	49768
2.24953	51135
2.25767	49504
2.26578	53978
2.27392	258243
2.28203	1363882
2.29015	1411155
2.29828	564050
2.30640	327580
2.31453	256895
2.32265	221325
2.33077	202157
2.33890	306868
2.34702	305647
2.35513	197178
2.36327	168809
2.37138	152472
2.37952	139947
2.38763	136302
2.39575	130113
2.40388	119414
2.41200	124062
2.42013	113330
2.42825	117413
2.43637	115792
2.44450	109415
2.45262	106246
2.46073	109952
2.46887	101898
2.47698	99422
2.48512	100314
2.49323	111478
2.50135	139145
2.50948	117817
2.51760	110769
2.52573	99266
2.53385	99764
2.54197	90719
2.55010	95715
2.55822	120940
2.56635	180872
2.57447	170476
2.58258	123568
2.59072	121326
2.59883	111471
2.60695	175038
2.61508	595972
2.62320	804088
2.63133	475655
2.63945	287290
2.64757	213894
2.65570	178276
2.66382	152754
2.67195	133011
2.68007	125596
2.68818	116866
2.69632	109673
2.70443	111301
2.71257	104729
2.72068	102357
2.72880	104972
2.73693	98633
2.74505	96379
2.75317	92312
2.76130	93452
2.76942	94724
2.77755	90107
2.78567	130281
2.79378	188589
2.80192	168868
2.81003	132357
2.81817	134908
2.82628	153963
2.83440	142959
2.84253	120855
2.85065	103369
2.85877	104904
2.86690	96018
2.87502	94342
2.88315	93283
2.89127	92131
2.89938	88062
2.90752	90900
2.91563	84122
2.92377	84678
2.93188	84861
2.94000	84345
2.94813	71505
2.95625	80464
2.96438	90567
2.97250	100170
2.98062	90880
2.98875	90814
2.99687	86797
3.00498	88993
3.01312	85328
3.02123	83638
3.02937	87640
3.03748	79557
3.04560	78953
3.05373	77459
3.06185	75533
3.06998	75761
3.07810	93037
3.08622	401218
3.09435	1688528
3.10247	3152776
3.11058	4158548
3.11872	4692791
3.12683	3243540
3.13497	2023956
3.14308	1471098
3.15120	1149965
3.15933	913767
3.16745	767604
3.17558	730385
3.18370	745671
3.19182	1075523
3.19995	1820709
3.20807	1755894
3.21620	1229652
3.22432	943907
3.23243	793436
3.24057	675212
3.24868	580928
3.25680	512542
3.26493	451937
3.27305	404931
3.28118	381350
3.28930	451627
3.29742	1117984
3.30555	3211263
3.31367	5923097
3.32180	6669076
3.32992	5311594
3.33803	3662832
3.34617	2625493
3.35428	2015257
3.36242	1652639
3.37053	1359442
3.37865	1151522
3.38678	1000581
3.39490	898893
3.40302	792603
3.41115	737569
3.41927	669706
3.42740	621791
3.43552	581252
3.44363	562099
3.45177	542238
3.45988	513526
3.46802	490219
3.47613	526713
3.48425	516596
3.49238	481557
3.50050	438363
3.50863	414716
3.51675	407668
3.52487	384057
3.53300	382974
3.54112	396437
3.54923	406017
3.55737	376543
3.56548	376928
3.57362	403518
3.58173	441589
3.58985	439176
3.59798	392815
3.60610	363357
3.61423	358588
3.62235	347855
3.63047	343227
3.63860	337163
3.64672	339898
3.65483	341593
3.66297	425595
3.67108	1468469
3.67922	4691545
3.68733	7736323
3.69545	6615912
3.70358	3949453
3.71170	2619772
3.71983	2037329
3.72795	1744964
3.73607	1483837
3.74420	1306864
3.75232	1189694
3.76045	1068067
3.76857	1008778
3.77668	937519
3.78482	881447
3.79293	823226
3.80105	826713
3.80918	1099045
3.81730	1746614
3.82543	2180428
3.83355	1815954
3.84167	1305996
3.84980	1072059
3.85792	934671
3.86605	843244
3.87417	780072
3.88228	727396
3.89042	681348
3.89853	632294
3.90665	616516
3.91478	615676
3.92290	718726
3.93103	898586
3.93915	971307
3.94727	1008246
3.95540	1918341
3.96352	4831223
3.97165	8092048
3.97977	8044272
3.98788	5150322
3.99602	3533784
4.00413	6427522
4.01227	1.629093E+07
4.02038	2.713692E+07
4.02850	2.64112E+07
4.03663	1.647777E+07
4.04475	7980835
4.05287	4355805
4.06100	2910880
4.06912	2224095
4.07725	1773129
4.08537	1495261
4.09348	1328233
4.10162	1158656
4.10973	1046902
4.11787	954852
4.12598	880851
4.13410	843271
4.14223	932107
4.15035	1226061
4.15848	1561831
4.16660	1493953
4.17472	1217800
4.18285	1018686
4.19097	889128
4.19908	790169
4.20722	808155
4.21533	1666410
4.22347	5062358
4.23158	1.127502E+07
4.23970	1.63443E+07
4.24783	1.591047E+07
4.25595	1.080522E+07
4.26408	6340269
4.27220	4229673
4.28032	3101325
4.28845	2412568
4.29657	1984984
4.30468	1639344
4.31282	1410362
4.32093	1252946
4.32907	1140075
4.33718	1067012
4.34530	1007246
4.35343	977336
4.36155	1009634
4.36968	1007173
4.37780	958534
4.38592	857546
4.39405	793839
4.40217	721522
4.41030	678358
4.41842	637294
4.42653	632448
4.43467	604489
4.44278	571904
4.45090	564866
4.45903	540541
4.46715	528872
4.47528	507723
4.48340	496183
4.49152	488065
4.49965	471631
4.50777	463804
4.51590	464927
4.52402	460335
4.53213	443335
4.54027	437377
4.54838	431948
4.55652	425236
4.56463	415559
4.57275	411802
4.58088	386646
4.58900	388827
4.59712	388866
4.60525	380482
4.61337	376936
4.62150	408616
4.62962	532221
4.63773	848838
4.64587	1169215
4.65398	1247773
4.66212	1011000
4.67023	714167
4.67835	561817
4.68648	501138
4.69460	458799
4.70272	413752
4.71085	398397
4.71897	361591
4.72710	361723
4.73522	349030
4.74333	336450
4.75147	333067
4.75958	325801
4.76772	315249
4.77583	309155
4.78395	309847
4.79208	340922
4.80020	447138
4.80833	609853
4.81645	670921
4.82457	613074
4.83270	495150
4.84082	447280
4.84893	448934
4.85707	432507
4.86518	419920
4.87332	403834
4.88143	373611
4.88955	348569
4.89768	335948
4.90580	326624
4.91393	321341
4.92205	312876
4.93017	346797
4.93830	488423
4.94642	947309
4.95453	1851571
4.96267	2910459
4.97078	3507875
4.97892	3246481
4.98703	2568621
4.99515	1944191
5.00328	1460296
5.01140	1166115
5.01953	977247
5.02765	956624
5.03577	1135132
5.04390	1443586
5.05202	1517691
5.06015	1351064
5.06827	1091357
5.07638	904052
5.08452	806994
5.09263	742057
5.10075	698419
5.10888	645046
5.11700	613175
5.12513	587609
5.13325	550568
5.14137	517844
5.14950	535739
5.15762	558895
5.16575	619437
5.17387	657525
5.18198	660808
5.19012	602661
5.19823	581847
5.20637	612863
5.21448	666985
5.22260	672861
5.23073	611324
5.23885	535647
5.24697	492345
5.25510	455038
5.26322	430381
5.27135	403442
5.27947	374641
5.28758	355556
5.29572	356605
5.30383	348924
5.31197	356932
5.32008	345959
5.32820	360637
5.33633	386971
5.34445	423580
5.35257	436589
5.36070	402224
5.36882	365160
5.37695	345254
5.38507	347570
5.39318	364475
5.40132	381623
5.40943	382064
5.41757	364598
5.42568	353396
5.43380	321675
5.44193	309723
5.45005	321486
5.45818	337252
5.46630	342758
5.47442	330921
5.48255	315437
5.49067	302037
5.49878	283801
5.50692	285254
5.51503	286891
5.52317	291197
5.53128	284185
5.53940	273527
5.54753	274935
5.55565	285461
5.56378	331332
5.57190	403286
5.58002	464384
5.58815	459140
5.59627	398758
5.60440	344095
5.61252	301797
5.62063	287366
5.62877	279312
5.63688	287127
5.64500	301215
5.65313	295866
5.66125	290998
5.66938	284166
5.67750	283615
5.68562	301730
5.69375	326099
5.70187	339892
5.71000	333082
5.71812	297863
5.72623	274013
5.73437	272084
5.74248	254493
5.75060	247538
5.75873	239461
5.76685	242741
5.77498	236059
5.78310	240604
5.79122	230295
5.79935	234869
5.80747	226319
5.81560	230454
5.82372	224683
5.83183	233370
5.83997	233505
5.84808	236587
5.85622	219928
5.86433	225498
5.87245	220871
5.88058	218725
5.88870	214650
5.89682	219291
5.90495	202586
5.91307	189940
5.92120	176138
5.92932	175402
5.93743	164603
5.94557	171049
5.95368	183990
5.96182	203078
5.96993	227997
5.97805	260225
5.98618	303196
5.99430	316222
6.00243	303959
6.01055	275110
6.01867	236978
6.02680	214383
6.03492	199368
6.04303	197112
6.05117	172836
6.05928	167386
6.06742	159222
6.07553	157859
6.08365	160989
6.09178	156637
6.09990	163121
6.10803	156398
6.11615	160735
6.12427	186307
6.13240	257937
6.14052	408431
6.14863	579460
6.15677	633106
6.16488	558854
6.17302	426695
6.18113	330271
6.18925	287118
6.19738	248118
6.20550	237443
6.21363	220483
6.22175	226490
6.22987	220455
6.23800	219100
6.24612	224617
6.25425	237684
6.26237	251035
6.27048	260814
6.27862	262929
6.28673	240079
6.29485	227469
6.30298	225987
6.31110	217332
6.31923	220711
6.32735	236324
6.33547	238109
6.34360	257605
6.35172	242628
6.35985	244012
6.36797	240703
6.37608	220067
6.38422	240005
6.39233	229594
6.40045	229951
6.40858	222426
6.41670	220687
6.42483	228582
6.43295	220125
6.44107	216311
6.44920	221670
6.45732	224583
6.46545	236877
6.47357	223858
6.48168	228583
6.48982	225695
6.49793	234973
6.50607	224478
6.51418	235801
6.52230	238473
6.53043	248579
6.53855	248524
6.54667	236235
6.55480	243313
6.56292	257013
6.57105	302815
6.57917	386749
6.58728	461162
6.59542	464994
6.60353	383605
6.61167	317841
6.61978	279886
6.62790	273513
6.63603	275139
6.64415	283214
6.65228	374331
6.66040	668869
6.66852	1185145
6.67665	1690479
6.68477	1683795
6.69288	1267788
6.70102	845792
6.70913	602805
6.71727	470819
6.72538	413987
6.73350	337929
6.74163	292874
6.74975	274902
6.75788	254748
6.76600	248289
6.77412	224165
6.78225	216570
6.79037	208553
6.79848	194900
6.80662	194323
6.81473	178836
6.82287	175555
6.83098	169331
6.83910	178638
6.84723	189961
6.85535	218070
6.86348	250159
6.87160	274653
6.87972	254586
6.88785	213590
6.89597	172170
6.90410	145921
6.91222	130440
6.92033	121158
6.92847	115643
6.93658	109330
6.94470	104967
6.95283	106749
6.96095	112061
6.96908	123050
6.97720	142892
6.98532	168411
6.99345	161939
7.00157	147432
7.00970	131741
7.01782	125351
7.02593	120070
7.03407	112516
7.04218	113628
7.05032	120164
7.05843	119492
7.06655	131583
7.07468	128689
7.08280	132203
7.09092	120203
7.09905	112729
7.10717	105056
7.11530	98459
7.12342	97612
7.13153	100550
7.13967	121601
7.14778	172524
7.15592	235128
7.16403	338746
7.17215	375268
7.18028	335462
7.18840	270578
7.19652	208984
7.20465	218839
7.21277	376548
7.22090	745118
7.22902	1230149
7.23713	1431900
7.24527	1248064
7.25338	831489
7.26152	502726
7.26963	325509
7.27775	238122
7.28588	194427
7.29400	142478
7.30213	126080
7.31025	124660
7.31837	116853
7.32650	123080
7.33462	128931
7.34273	134418
7.35087	130431
7.35898	121194
7.36712	113822
7.37523	117735
7.38335	113069
7.39148	113630
7.39960	114426
7.40773	109709
7.41585	109699
7.42397	108086
7.43210	102554
7.44022	103276
7.44833	99605
7.45647	100718
7.46458	98843
7.47272	101162
7.48083	100696
7.48895	96278
7.49708	91302
7.50520	91597
7.51333	108551
7.52145	141133
7.52957	244456
7.53770	427310
7.54582	760276
7.55395	1164607
7.56207	1496297
7.57018	1638124
7.57832	1486781
7.58643	1168016
7.59455	796558
7.60268	497106
7.61080	313437
7.61893	218978
7.62705	167285
7.63517	145227
7.64330	124508
7.65142	111932
7.65955	111677
7.66767	97934
7.67578	97463
7.68392	89471
7.69203	91117
7.70017	92333
7.70828	95822
7.71640	89804
7.72453	95247
7.73265	94438
7.74077	91163
7.74890	99392
7.75702	100319
7.76515	98883
7.77327	107986
7.78138	113924
7.78952	113592
7.79763	114116
7.80577	129233
7.81388	132289
7.82200	133860
7.83013	122698
7.83825	107377
7.84637	102655
7.85450	100861
7.86262	104547
7.87075	114333
7.87887	133344
7.88698	151801
7.89512	157312
7.90323	155084
7.91137	143790
7.91948	126680
7.92760	120842
7.93573	131224
7.94385	146178
7.95198	163630
7.96010	166655
7.96822	143961
7.97635	116352
7.98447	107348
7.99258	93607
8.00072	84241
8.00883	80494
8.01697	77365
8.02508	75243
8.03320	78005
8.04133	80204
8.04945	82076
8.05758	81289
8.06570	83351
8.07382	81096
8.08195	80059
8.09007	79694
8.09820	74491
8.10632	78397
8.11443	72342
8.12257	80057
8.13068	82294
8.13880	92608
8.14693	110428
8.15505	128065
8.16318	120579
8.17130	115765
8.17942	98443
8.18755	90251
8.19567	81900
8.20380	80206
8.21192	79555
8.22003	77914
8.22817	75595
8.23628	75824
8.24440	72122
8.25253	70186
8.26065	73920
8.26878	69185
8.27690	64064
8.28502	68676
8.29315	67149
8.30127	70030
8.30940	71781
8.31752	79668
8.32563	79806
8.33377	77454
8.34188	71309
8.35002	74757
8.35813	76428
8.36625	72285
8.37438	77175
8.38250	81967
8.39062	84706
8.39875	82853
8.40687	79721
8.41500	72182
8.42312	68772
8.43123	67348
8.43937	75755
8.44748	66843
8.45562	65044
8.46373	62879
8.47185	64197
8.47998	64842
8.48810	65357
8.49622	71216
8.50435	72079
8.51247	77289
8.52060	87276
8.52872	144188
8.53683	239811
8.54497	351326
8.55308	415883
8.56122	373575
8.56933	284084
8.57745	179991
8.58558	128508
8.59370	104317
8.60183	106701
8.60995	118432
8.61807	115487
8.62620	111885
8.63432	103192
8.64243	99763
8.65057	90529
8.65868	87859
8.66682	84036
8.67493	78059
8.68305	81962
8.69118	84089
8.69930	86203
8.70743	86320
8.71555	91278
8.72367	95467
8.73180	91095
8.73992	89939
8.74805	133624
8.75617	268873
8.76428	570532
8.77242	1103098
8.78053	1634152
8.78865	1894279
8.79678	1742694
8.80490	1227883
8.81303	797180
8.82115	484948
8.82927	334145
8.83740	274334
8.84552	261411
8.85365	252345
8.86177	237920
8.86988	229428
8.87802	200258
8.88613	196192
8.89427	185893
8.90238	179921
8.91050	166335
8.91863	158477
8.92675	163183
8.93487	164421
8.94300	175730
8.95112	178802
8.95925	169023
8.96737	169569
8.97548	163926
8.98362	167682
8.99173	175842
8.99987	176633
9.00798	174488
9.01610	164163
9.02423	152218
9.03235	142362
9.04047	134018
9.04860	125256
9.05672	121428
9.06485	116789
9.07297	118789
9.08108	121711
9.08922	123772
9.09733	132882
9.10547	157526
9.11358	184235
9.12170	205106
9.12983	207841
9.13795	192959
9.14608	162191
9.15420	149433
9.16232	128550
9.17045	128239
9.17857	126535
9.18668	112100
9.19482	107882
9.20293	106696
9.21107	111404
9.21918	103499
9.22730	102215
9.23543	102304
9.24355	106271
9.25168	107396
9.25980	106449
9.26792	104287
9.27605	100435
9.28417	95485
9.29228	98695
9.30042	93154
9.30853	97122
9.31667	94014
9.32478	90791
9.33290	101156
9.34103	100058
9.34915	93863
9.35728	96391
9.36540	91743
9.37352	85969
9.38165	89985
9.38977	91235
9.39790	97938
9.40602	112960
9.41413	131461
9.42227	172628
9.43038	224331
9.43850	285852
9.44663	295908
9.45475	293045
9.46288	253595
9.47100	208359
9.47912	157605
9.48725	128426
9.49537	108313
9.50350	109443
9.51162	120307
9.51973	137434
9.52787	155675
9.53598	160978
9.54412	146106
9.55223	124663
9.56035	110004
9.56848	94465
9.57660	89051
9.58472	96099
9.59285	94016
9.60097	91409
9.60910	87458
9.61722	82406
9.62533	71425
9.63347	67650
9.64158	60344
9.64972	63740
9.65783	64994
9.66595	63635
9.67408	65058
9.68220	67156
9.69032	68608
9.69845	67153
9.70657	64387
9.71470	56167
9.72282	58747
9.73093	60991
9.73907	58856
9.74718	54374
9.75532	57662
9.76343	57275
9.77155	64801
9.77968	59000
9.78780	61574
9.79593	61888
9.80405	63140
9.81217	62370
9.82030	63138
9.82842	64779
9.83653	63591
9.84467	62579
9.85278	61842
9.86092	67691
9.86903	67610
9.87715	66209
9.88528	69529
9.89340	64735
9.90153	63619
9.90965	64267
9.91777	72704
9.92590	76772
9.93402	95120
9.94215	124867
9.95027	171129
9.95838	203871
9.96652	242398
9.97463	259307
9.98275	260119
9.99088	237998
9.99900	206370
10.00713	162530
10.01525	130557
10.02337	102935
10.03150	96277
10.03962	87105
10.04775	81446
10.05587	78182
10.06398	79706
10.07212	80462
10.08023	80573
10.08835	81118
10.09648	87209
10.10460	85991
10.11273	87469
10.12085	92806
10.12897	88976
10.13710	88383
10.14522	93994
10.15335	89673
10.16147	86683
10.16958	80132
10.17772	78743
10.18583	70115
10.19397	68549
10.20208	67614
10.21020	68641
10.21833	73320
10.22645	73760
10.23457	73121
10.24270	80514
10.25082	95020
10.25895	114970
10.26707	190344
10.27518	403903
10.28332	831906
10.29143	1456394
10.29957	2151923
10.30768	3082880
10.31580	4285016
10.32393	6136620
10.33205	7946392
10.34017	8677899
10.34830	7917195
10.35642	6554936
10.36455	5497202
10.37267	4931433
10.38078	4366643
10.38892	3518886
10.39703	2516624
10.40517	1665782
10.41328	1042136
10.42140	741856
10.42953	582680
10.43765	530585
10.44578	514183
10.45390	486808
10.46202	471634
10.47015	443749
10.47827	386221
10.48638	355375
10.49452	313404
10.50263	286907
10.51077	256855
10.51888	254828
10.52700	233876
10.53513	226816
10.54325	215754
10.55138	207297
10.55950	215606
10.56762	205852
10.57575	200569
10.58387	198754
10.59200	196675
10.60012	193936
10.60823	176290
10.61637	170089
10.62448	163926
10.63260	155702
10.64073	152496
10.64885	157809
10.65698	146340
10.66510	148347
10.67322	151023
10.68135	153209
10.68947	159303
10.69760	162482
10.70572	159881
10.71383	158653
10.72197	142685
10.73008	147407
10.73820	142204
10.74633	146570
10.75445	144988
10.76258	151711
10.77070	148717
10.77882	138461
10.78695	131786
10.79507	127772
10.80320	130708
10.81132	136713
10.81943	134502
10.82757	137437
10.83568	134112
10.84382	113909
10.85193	109484
10.86005	105108
10.86818	105542
10.87630	100562
10.88442	99570
10.89255	104126
10.90067	101781
10.90880	104029
10.91692	102129
10.92503	104113
10.93317	97749
10.94128	92457
10.94942	92028
10.95753	92712
10.96565	88576
10.97378	99409
10.98190	102919
10.99003	107952
10.99815	114170
11.00627	119213
11.01440	115993
11.02252	113308
11.03063	104470
11.03877	102620
11.04688	94948
11.05502	86128
11.06313	87786
11.07125	95212
11.07938	95016
11.08750	107419
11.09563	108735
11.10375	112810
11.11187	114291
11.12000	108477
11.12812	98371
11.13623	91927
11.14437	84136
11.15248	84776
11.16062	84631
11.16873	85319
11.17685	89008
11.18498	92939
11.19310	92594
11.20123	91488
11.20935	94481
11.21747	89644
11.22560	89459
11.23372	93756
11.24185	91937
11.24997	93462
11.25808	83306
11.26622	78481
11.27433	83013
11.28245	74395
11.29058	85878
11.29870	109618
11.30683	202635
11.31495	401891
11.32307	831752
11.33120	1501274
11.33932	2278573
11.34745	2833380
11.35557	2906732
11.36368	2500162
11.37182	1851349
11.37993	1238131
11.38807	841685
11.39618	589593
11.40430	460257
11.41243	397083
11.42055	343317
11.42867	306261
11.43680	284837
11.44492	257282
11.45305	236015
11.46117	203875
11.46928	176561
11.47742	171304
11.48553	157052
11.49367	174377
11.50178	180551
11.50990	189072
11.51803	194521
11.52615	191709
11.53427	179568
11.54240	165334
11.55052	157871
11.55865	146290
11.56677	145851
11.57488	142409
11.58302	142123
11.59113	142192
11.59927	148584
11.60738	177701
11.61550	195516
11.62363	209597
11.63175	204289
11.63988	186822
11.64800	161362
11.65612	143926
11.66425	129807
11.67237	124529
11.68048	134626
11.68862	133423
11.69673	144908
11.70487	165610
11.71298	178891
11.72110	185946
11.72923	181245
11.73735	163192
11.74548	137720
11.75360	120863
11.76172	115408
11.76985	100712
11.77797	97208
11.78608	100837
11.79422	100171
11.80233	105452
11.81047	108474
11.81858	103750
11.82670	102236
11.83483	103541
11.84295	103498
11.85108	99873
11.85920	108586
11.86732	102404
11.87545	93071
11.88357	88621
11.89170	88723
11.89982	87443
11.90793	89521
11.91607	87953
11.92418	93759
11.93230	97998
11.94043	100539
11.94855	93297
11.95668	98568
11.96480	99606
11.97292	114712
11.98105	162433
11.98917	284366
11.99730	493602
12.00542	759590
12.01353	932668
12.02167	970773
12.02978	776651
12.03792	601982
12.04603	401189
12.05415	293320
12.06228	237577
12.07040	201485
12.07852	196447
12.08665	191568
12.09477	193799
12.10290	191061
12.11102	181695
12.11913	186880
12.12727	200968
12.13538	205570
12.14352	209685
12.15163	203798
12.15975	179474
12.16788	148369
12.17600	130517
12.18412	125508
12.19225	120801
12.20037	128579
12.20850	128115
12.21662	125099
12.22473	119424
12.23287	118665
12.24098	119560
12.24912	119795
12.25723	121225
12.26535	120095
12.27348	113412
12.28160	116621
12.28973	104469
12.29785	103287
12.30597	100134
12.31410	100945
12.32222	96835
12.33033	100890
12.33847	92661
12.34658	91854
12.35472	95333
12.36283	92257
12.37095	93405
12.37908	95623
12.38720	94366
12.39533	100569
12.40345	109416
12.41157	126499
12.41970	145108
12.42782	156476
12.43595	162465
12.44407	161652
12.45218	154833
12.46032	148051
12.46843	139799
12.47655	135941
12.48468	113269
12.49280	113844
12.50093	101148
12.50905	102455
12.51717	91609
12.52530	95044
12.53342	98376
12.54155	116846
12.54967	130639
12.55778	161259
12.56592	179379
12.57403	186689
12.58215	172810
12.59028	156995
12.59840	134590
12.60653	123353
12.61465	117194
12.62277	118898
12.63090	113985
12.63902	113261
12.64715	112373
12.65527	110520
12.66338	106113
12.67152	103410
12.67963	91481
12.68777	88801
12.69588	89881
12.70400	88280
12.71213	85929
12.72025	97740
12.72837	97486
12.73650	103386
12.74462	109319
12.75275	106723
12.76087	100174
12.76898	98461
12.77712	99476
12.78523	93342
12.79337	89074
12.80148	84888
12.80960	83616
12.81773	80432
12.82585	82444
12.83397	76099
12.84210	75953
12.85022	75522
12.85835	74080
12.86647	78831
12.87458	80919
12.88272	81323
12.89083	80246
12.89897	88035
12.90708	89259
12.91520	88158
12.92333	82368
12.93145	80394
12.93958	85819
12.94770	92651
12.95582	111077
12.96395	156531
12.97207	236737
12.98018	310039
12.98832	355678
12.99643	326986
13.00457	274905
13.01268	210900
13.02080	165984
13.02893	139820
13.03705	133880
13.04518	147673
13.05330	171426
13.06142	214977
13.06955	251407
13.07767	285048
13.08580	274884
13.09392	251882
13.10203	203618
13.11017	157287
13.11828	136913
13.12640	135229
13.13453	126631
13.14265	123716
13.15078	123017
13.15890	119758
13.16702	113017
13.17515	109688
13.18327	107684
13.19140	102226
13.19952	105143
13.20763	99957
13.21577	100434
13.22388	100371
13.23200	106477
13.24013	104202
13.24825	103270
13.25638	101648
13.26450	95094
13.27262	92646
13.28075	90747
13.28887	82688
13.29700	81526
13.30512	83636
13.31323	78839
13.32137	82094
13.32948	79360
13.33762	77402
13.34573	72489
13.35385	72569
13.36198	73617
13.37010	79524
13.37822	76922
13.38635	76327
13.39447	80972
13.40260	77556
13.41072	74426
13.41883	73190
13.42697	64391
13.43508	66798
13.44322	71286
13.45133	74571
13.45945	75396
13.46758	77977
13.47570	82258
13.48383	80628
13.49195	84459
13.50007	79959
13.50820	86294
13.51632	85305
13.52443	86227
13.53257	82271
13.54068	86747
13.54882	88372
13.55693	85026
13.56505	83388
13.57318	89716
13.58130	91892
13.58943	92759
13.59755	100433
13.60567	125396
13.61380	152691
13.62192	171727
13.63003	182931
13.63817	172366
13.64628	145083
13.65442	112047
13.66253	94307
13.67065	84513
13.67878	83635
13.68690	82226
13.69503	83146
13.70315	83902
13.71127	79965
13.71940	80406
13.72752	94324
13.73565	143021
13.74377	327575
13.75188	745354
13.76002	1608053
13.76813	2811782
13.77625	3914932
13.78438	4339083
13.79250	3973301
13.80063	3185042
13.80875	2054120
13.81687	1446848
13.82500	1185945
13.83312	1137720
13.84125	1118596
13.84937	1020177
13.85748	889678
13.86562	752971
13.87373	595318
13.88185	502411
13.88998	406615
13.89810	351648
13.90623	320739
13.91435	293998
13.92247	285887
13.93060	275185
13.93872	248836
13.94685	246073
13.95497	258641
13.96308	274340
13.97122	313497
13.97933	348925
13.98747	376114
13.99558	359722
14.00370	317805
14.01183	272825
14.01995	242248
14.02807	217999
14.03620	212656
14.04432	198125
14.05245	192168
14.06057	188201
14.06868	184609
14.07682	186780
14.08493	188198
14.09307	180481
14.10118	173317
14.10930	173517
14.11743	173477
14.12555	176156
14.13368	190899
14.14180	204209
14.14992	232099
14.15805	266371
14.16617	282739
14.17428	310012
14.18242	379654
14.19053	486499
14.19867	592905
14.20678	654605
14.21490	606915
14.22303	488281
14.23115	376245
14.23928	332888
14.24740	294234
14.25552	265399
14.26365	252683
14.27177	228942
14.27990	204774
14.28802	190036
14.29613	184103
14.30427	167649
14.31238	160667
14.32050	160823
14.32863	157627
14.33675	158086
14.34488	148559
14.35300	140865
14.36112	129912
14.36925	124779
14.37737	119027
14.38550	121585
14.39362	140644
14.40173	188118
14.40987	274797
14.41798	391323
14.42610	465285
14.43423	467158
14.44235	386712
14.45048	301723
14.45860	223367
14.46672	176981
14.47485	165242
14.48297	158068
14.49110	150525
14.49922	147110
14.50733	143122
14.51547	144404
14.52358	155831
14.53172	154888
14.53983	143247
14.54795	138163
14.55608	138011
14.56420	122422
14.57232	114949
14.58045	107420
14.58857	101300
14.59670	98263
14.60482	94893
14.61293	99720
14.62107	92755
14.62918	94491
14.63732	94206
14.64543	98699
14.65355	98783
14.66168	87959
14.66980	86862
14.67792	88690
14.68605	89392
14.69417	86887
14.70230	84558
14.71042	85054
14.71853	88999
14.72667	92105
14.73478	100351
14.74292	110092
14.75103	110537
14.75915	117501
14.76728	110447
14.77540	104926
14.78353	110872
14.79165	156165
14.79977	256690
14.80790	560264
14.81602	1142899
14.82413	1909057
14.83227	2641394
14.84038	2862080
14.84852	2466075
14.85663	1864758
14.86475	1241570
14.87288	796799
14.88100	523912
14.88913	396191
14.89725	322532
14.90537	277180
14.91350	246101
14.92162	228726
14.92975	220101
14.93787	194732
14.94598	183522
14.95412	175680
14.96223	169807
14.97035	155957
14.97848	150659
14.98660	143177
14.99473	136653
15.00285	135264
15.01097	133969
15.01910	131327
15.02722	133495
15.03535	125641
15.04347	134224
15.05158	125806
15.05972	128174
15.06783	120631
15.07595	115751
15.08408	109399
15.09220	109294
15.10033	105771
15.10845	106176
15.11657	96039
15.12470	102172
15.13282	105836
15.14095	112961
15.14907	113330
15.15718	113217
15.16532	114809
15.17343	106955
15.18157	104900
15.18968	96460
15.19780	100274
15.20593	105089
15.21405	94477
15.22217	91173
15.23030	92441
15.23842	91430
15.24655	89925
15.25467	87789
15.26278	88709
15.27092	84463
15.27903	81297
15.28717	77590
15.29528	71090
15.30340	73973
15.31153	75211
15.31965	72370
15.32778	67095
15.33590	70739
15.34402	68212
15.35215	68702
15.36027	67225
15.36838	68668
15.37652	68093
15.38463	69158
15.39277	70958
15.40088	74292
15.40900	75460
15.41713	76325
15.42525	71739
15.43338	71999
15.44150	73865
15.44962	79738
15.45775	87958
15.46587	105298
15.47398	150427
15.48212	222720
15.49023	340414
15.49837	447941
15.50648	556071
15.51460	580997
15.52273	537237
15.53085	448739
15.53898	357752
15.54710	284321
15.55522	226489
15.56335	185631
15.57147	145954
15.57960	118970
15.58772	112751
15.59583	98578
15.60397	89286
15.61208	80975
15.62020	79421
15.62833	75533
15.63645	73396
15.64458	74952
15.65270	73287
15.66082	73937
15.66895	67004
15.67707	69589
15.68520	69402
15.69332	71321
15.70143	68189
15.70957	70430
15.71768	68456
15.72580	67755
15.73393	68489
15.74205	71722
15.75018	80492
15.75830	98873
15.76642	135234
15.77455	182142
15.78267	247391
15.79080	299784
15.79892	309639
15.80703	269252
15.81517	213860
15.82328	163629
15.83142	128126
15.83953	116517
15.84765	105870
15.85578	94378
15.86390	88544
15.87202	96037
15.88015	87906
15.88827	88485
15.89640	96075
15.90452	89857
15.91263	94636
15.92077	88436
15.92888	85761
15.93702	86453
15.94513	100641
15.95325	134343
15.96138	169759
15.96950	229364
15.97763	277291
15.98575	299874
15.99387	282828
16.00200	227302
16.01012	201282
16.01823	165380
16.02637	147506
16.03448	144295
16.04262	131029
16.05073	127085
16.05885	117064
16.06698	96947
16.07510	96997
16.08323	95500
16.09135	88539
16.09947	87249
16.10760	89526
16.11572	91548
16.12383	88806
16.13197	98399
16.14008	105621
16.14822	101400
16.15633	105710
16.16445	106079
16.17258	102908
16.18070	93266
16.18883	96254
16.19695	87906
16.20507	88113
16.21320	97843
16.22132	106525
16.22945	110421
16.23757	113412
16.24568	118667
16.25382	113744
16.26193	108860
16.27005	110161
16.27818	107512
16.28630	110162
16.29443	108215
16.30255	117765
16.31067	116679
16.31880	108042
16.32692	99176
16.33505	94318
16.34317	102569
16.35128	116803
16.35942	153710
16.36753	192520
16.37567	246321
16.38378	266349
16.39190	255028
16.40003	206936
16.40815	171390
16.41627	138934
16.42440	107078
16.43252	95660
16.44065	95056
16.44877	114211
16.45688	142613
16.46502	204057
16.47313	291129
16.48127	384817
16.48938	413513
16.49750	397354
16.50563	306366
16.51375	229942
16.52187	163446
16.53000	128796
16.53812	114485
16.54625	108628
16.55437	99657
16.56248	98520
16.57062	94138
16.57873	96067
16.58687	107502
16.59498	122429
16.60310	141884
16.61123	170044
16.61935	181066
16.62748	182575
16.63560	174431
16.64372	148293
16.65185	127253
16.65997	107376
16.66808	96437
16.67622	86929
16.68433	86526
16.69247	80440
16.70058	81109
16.70870	80765
16.71683	76415
16.72495	72218
16.73308	72203
16.74120	76727
16.74932	70877
16.75745	73825
16.76557	69918
16.77368	73526
16.78182	67137
16.78993	61500
16.79807	64382
16.80618	65297
16.81430	61538
16.82243	65459
16.83055	65931
16.83868	63948
16.84680	67947
16.85492	62250
16.86305	60440
16.87117	61448
16.87930	60313
16.88742	61795
16.89553	59260
16.90367	59796
16.91178	60341
16.91990	58148
16.92803	57727
16.93615	55088
16.94428	61105
16.95240	58605
16.96052	56502
16.96865	64357
16.97677	61605
16.98490	65172
16.99302	64447
17.00113	65215
17.00927	67371
17.01738	66018
17.02552	64583
17.03363	69605
17.04175	72603
17.04988	75433
17.05800	76061
17.06612	79196
17.07425	76718
17.08237	76139
17.09050	72435
17.09862	70536
17.10673	71929
17.11487	73685
17.12298	75287
17.13112	76366
17.13923	76427
17.14735	78964
17.15548	77101
17.16360	71846
17.17172	75787
17.17985	73162
17.18797	71636
17.19610	65648
17.20422	63138
17.21233	57854
17.22047	59642
17.22858	63511
17.23672	57410
17.24483	58719
17.25295	61599
17.26108	62399
17.26920	53990
17.27733	58497
17.28545	58822
17.29357	59444
17.30170	59224
17.30982	59508
17.31793	68585
17.32607	82022
17.33418	86661
17.34232	91844
17.35043	98325
17.35855	99641
17.36668	100348
17.37480	89525
17.38293	86788
17.39105	84418
17.39917	86959
17.40730	86931
17.41542	86229
17.42355	92690
17.43167	92863
17.43978	97251
17.44792	91467
17.45603	83724
17.46415	82477
17.47228	76685
17.48040	70190
17.48853	69628
17.49665	64498
17.50477	64635
17.51290	69455
17.52102	68307
17.52915	67733
17.53727	70852
17.54538	68691
17.55352	76191
17.56163	94179
17.56975	136614
17.57788	216909
17.58600	369871
17.59413	569147
17.60225	825613
17.61037	978463
17.61850	971887
17.62662	823708
17.63475	614455
17.64287	447590
17.65098	358763
17.65912	331208
17.66723	328014
17.67537	315765
17.68348	285930
17.69160	240126
17.69973	205399
17.70785	168123
17.71597	146859
17.72410	138554
17.73222	129594
17.74035	119911
17.74847	113089
17.75658	109679
17.76472	107475
17.77283	106576
17.78097	101049
17.78908	101258
17.79720	107924
17.80533	132287
17.81345	178181
17.82158	232754
17.82970	278042
17.83782	290587
17.84595	274031
17.85407	240645
17.86218	205156
17.87032	176303
17.87843	157943
17.88657	140898
17.89468	119678
17.90280	104269
17.91093	97076
17.91905	92422
17.92718	85075
17.93530	83006
17.94342	80887
17.95155	76827
17.95967	74581
17.96778	72854
17.97592	70101
17.98403	72014
17.99217	71582
18.00028	70874
18.00840	71304
18.01653	80890
18.02465	97467
18.03278	104390
18.04090	119911
18.04902	134153
18.05715	184426
18.06527	311317
18.07340	593402
18.08152	1013842
18.08963	1496373
18.09777	1780916
18.10588	1804585
18.11400	1545218
18.12213	1176565
18.13025	837743
18.13838	623029
18.14650	491570
18.15462	423796
18.16275	360110
18.17087	337294
18.17900	291395
18.18712	274812
18.19523	249534
18.20337	238696
18.21148	219361
18.21960	204080
18.22773	189130
18.23585	182348
18.24398	171900
18.25210	161027
18.26022	151123
18.26835	149798
18.27647	131774
18.28460	112707
18.29272	120652
18.30083	132557
18.30897	179480
18.31708	246021
18.32522	281841
18.33333	312195
18.34145	326124
18.34958	334758
18.35770	339968
18.36582	347801
18.37395	354691
18.38207	350222
18.39020	352662
18.39832	363515
18.40643	355901
18.41457	354025
18.42268	374672
18.43082	393081
18.43893	417108
18.44705	450792
18.45518	484059
18.46330	540981
18.47143	591305
18.47955	651367
18.48767	663576
18.49580	632535
18.50392	557455
18.51203	484681
18.52017	429768
18.52828	387302
18.53642	356654
18.54453	330856
18.55265	317759
18.56078	321572
18.56890	320120
18.57703	309096
18.58515	299936
18.59327	314381
18.60140	305648
18.60952	317762
18.61763	324522
18.62577	327359
18.63388	322930
18.64202	331088
18.65013	312545
18.65825	294321
18.66638	290111
18.67450	285692
18.68263	267611
18.69075	261773
18.69887	255576
18.70700	253996
18.71512	245576
18.72325	244746
18.73137	248881
18.73948	242593
18.74762	238593
18.75573	233618
18.76385	226865
18.77198	234508
18.78010	229989
18.78823	231489
18.79635	228516
18.80447	222416
18.81260	227122
18.82072	216072
18.82885	219887
18.83697	219199
18.84508	217262
18.85322	208879
18.86133	210964
18.86947	207265
18.87758	207812
18.88570	208924
18.89383	202675
18.90195	212752
18.91007	203859
18.91820	201759
18.92632	199276
18.93445	200861
18.94257	207778
18.95068	210199
18.95882	207405
18.96693	210965
18.97507	211567
18.98318	203025
18.99130	196237
18.99943	189051
19.00755	186549
19.01567	177271
19.02380	180031
19.03192	176857
19.04005	173425
19.04817	167261
19.05628	174458
19.06442	183363
19.07253	203802
19.08067	236990
19.08878	303426
19.09690	384654
19.10503	442798
19.11315	456667
19.12128	436701
19.12940	376509
19.13752	315785
19.14565	263509
19.15377	228185
19.16188	210854
19.17002	198297
19.17813	191361
19.18627	180693
19.19438	183365
19.20250	169641
19.21063	165436
19.21875	164356
19.22688	156143
19.23500	149992
19.24312	151588
19.25125	146071
19.25937	149954
19.26748	151586
19.27562	149606
19.28373	158803
19.29187	152349
19.29998	160857
19.30810	159561
19.31623	165885
19.32435	158841
19.33248	160197
19.34060	160748
19.34872	167629
19.35685	178897
19.36497	217198
19.37310	235493
19.38122	260203
19.38933	238776
19.39747	220828
19.40558	196080
19.41370	175990
19.42183	165394
19.42995	143872
19.43808	138546
19.44620	140138
19.45432	140103
19.46245	144791
19.47057	154770
19.47870	194725
19.48682	259695
19.49493	328351
19.50307	408520
19.51118	422582
19.51932	391097
19.52743	321891
19.53555	258184
19.54368	214198
19.55180	178513
19.55992	163984
19.56805	153658
19.57617	142933
19.58430	143731
19.59242	130446
19.60053	123481
19.60867	115494
19.61678	118278
19.62492	124051
19.63303	125854
19.64115	141056
19.64928	181085
19.65740	233724
19.66553	294582
19.67365	331687
19.68177	356620
19.68990	369893
19.69802	340227
19.70613	300576
19.71427	272465
19.72238	242495
19.73052	209999
19.73863	193438
19.74675	175605
19.75488	168110
19.76300	160016
19.77113	173987
19.77925	183871
19.78737	212768
19.79550	247034
19.80362	267772
19.81173	269925
19.81987	249381
19.82798	233696
19.83612	198527
19.84423	172817
19.85235	216598
19.86048	391623
19.86860	870510
19.87673	1888778
19.88485	3408491
19.89297	5357163
19.90110	6915367
19.90922	7344237
19.91735	6496690
19.92547	5123451
19.93358	3517097
19.94172	2379633
19.94983	1581440
19.95795	1188695
19.96608	995307
19.97420	883792
19.98233	780225
19.99045	713518
19.99857	672768
20.00670	636451
20.01482	603380
20.02295	577848
20.03107	543305
20.03918	494687
20.04732	436745
20.05543	398793
20.06355	376677
20.07168	372972
20.07980	390366
20.08793	395182
20.09605	390459
20.10417	365974
20.11230	328383
20.12042	280835
20.12855	229270
20.13667	211063
20.14478	219248
20.15292	241289
20.16103	314466
20.16917	450136
20.17728	632571
20.18540	822438
20.19353	954617
20.20165	1062030
20.20977	1025541
20.21790	884078
20.22602	740678
20.23415	596969
20.24227	489533
20.25038	474844
20.25852	541562
20.26663	632935
20.27477	728677
20.28288	787282
20.29100	786904
20.29913	661937
20.30725	536389
20.31537	422134
20.32350	320573
20.33162	235591
20.33975	193578
20.34787	159964
20.35598	138057
20.36412	121740
20.37223	111147
20.38037	102624
20.38848	102353
20.39660	100826
20.40473	104114
20.41285	100846
20.42098	109355
20.42910	115507
20.43722	128265
20.44535	128395
20.45347	135883
20.46158	149521
20.46972	148717
20.47783	144071
20.48597	141432
20.49408	131547
20.50220	113216
20.51033	109780
20.51845	104883
20.52658	99085
20.53470	93008
20.54282	97878
20.55095	95541
20.55907	87718
20.56720	87880
20.57532	85544
20.58343	84296
20.59157	85638
20.59968	84076
20.60780	84310
20.61593	83633
20.62405	82907
20.63218	89201
20.64030	90667
20.64842	92763
20.65655	99897
20.66467	100814
20.67280	99390
20.68092	92131
20.68903	88524
20.69717	79891
20.70528	76399
20.71342	79198
20.72153	72273
20.72965	81384
20.73778	75091
20.74590	79713
20.75402	87743
20.76215	83882
20.77027	92379
20.77840	112022
20.78652	154967
20.79463	243866
20.80277	395075
20.81088	564409
20.81902	721736
20.82713	756992
20.83525	675439
20.84338	494623
20.85150	342254
20.85962	219159
20.86775	146127
20.87587	116654
20.88400	101123
20.89212	102616
20.90023	105614
20.90837	109294
20.91648	110936
20.92462	124560
20.93273	122422
20.94085	124445
20.94898	124874
20.95710	117005
20.96523	113684
20.97335	104001
20.98147	94167
20.98960	88211
20.99772	81145
21.00583	86999
21.01397	81225
21.02208	85060
21.03022	83987
21.03833	87516
21.04645	94343
21.05458	88758
21.06270	87245
21.07083	81778
21.07895	80773
21.08707	75406
21.09520	77628
21.10332	69230
21.11143	72399
21.11957	74405
21.12768	78515
21.13582	90654
21.14393	115692
21.15205	150234
21.16018	168420
21.16830	181964
21.17643	179027
21.18455	155277
21.19267	131597
21.20080	104159
21.20892	97903
21.21705	90819
21.22517	87390
21.23328	79917
21.24142	79178
21.24953	83349
21.25765	80108
21.26578	82373
21.27390	85424
21.28203	82408
21.29015	76523
21.29827	76000
21.30640	72657
21.31452	69115
21.32265	71497
21.33077	67583
21.33888	66912
21.34702	70205
21.35513	69934
21.36327	67786
21.37138	66645
21.37950	72912
21.38763	79099
21.39575	87144
21.40387	98593
21.41200	108882
21.42012	113957
21.42825	108854
21.43637	98600
21.44448	88470
21.45262	85794
21.46073	79132
21.46887	76900
21.47698	73301
21.48510	78225
21.49323	72911
21.50135	66774
21.50947	66226
21.51760	68814
21.52572	70498
21.53385	70670
21.54197	67815
21.55008	63828
21.55822	68737
21.56633	66812
21.57447	67362
21.58258	74972
21.59070	81863
21.59883	89198
21.60695	96940
21.61508	96784
21.62320	98770
21.63132	100819
21.63945	111401
21.64757	112229
21.65568	115460
21.66382	117979
21.67193	123263
21.68007	128160
21.68818	117413
21.69630	110181
21.70443	100845
21.71255	88191
21.72068	85246
21.72880	84344
21.73692	72000
21.74505	75310
21.75317	70263
21.76130	75018
21.76942	77801
21.77753	79535
21.78567	85932
21.79378	94522
21.80190	93316
21.81003	101370
21.81815	96393
21.82628	101420
21.83440	98332
21.84252	103345
21.85065	98904
21.85877	90297
21.86690	82251
21.87502	81101
21.88313	80485
21.89127	74033
21.89938	75068
21.90750	70134
21.91563	71566
21.92375	66282
21.93188	67059
21.94000	68851
21.94812	64738
21.95625	66020
21.96437	59529
21.97250	57011
21.98062	60091
21.98873	63260
21.99687	58739
22.00498	59796
22.01312	62817
22.02123	63992
22.02935	62635
22.03748	66370
22.04560	62504
22.05372	63295
22.06185	62127
22.06997	60847
22.07810	56226
22.08622	59688
22.09433	61892
22.10247	59298
22.11058	58120
22.11872	57532
22.12683	63712
22.13495	61663
22.14308	57860
22.15120	57699
22.15932	55484
22.16745	56464
22.17557	54334
22.18370	55445
22.19182	54804
22.19993	54541
22.20807	53910
22.21618	60225
22.22432	58479
22.23243	60016
22.24055	60969
22.24868	57424
22.25680	60194
22.26493	58816
22.27305	67833
22.28117	68656
22.28930	78490
22.29742	76121
22.30553	79442
22.31367	83749
22.32178	82031
22.32992	80678
22.33803	77811
22.34615	74782
22.35428	71482
22.36240	68418
22.37053	65899
22.37865	66599
22.38677	75461
22.39490	95466
22.40302	122802
22.41115	160795
22.41927	192748
22.42738	200370
22.43552	204373
22.44363	171454
22.45175	143603
22.45988	107144
22.46800	112050
22.47613	102356
22.48425	112712
22.49237	120868
22.50050	149082
22.50862	161930
22.51675	159119
22.52487	151548
22.53298	143122
22.54112	128252
22.54923	115244
22.55735	101150
22.56548	91834
22.57360	84328
22.58173	82973
22.58985	78023
22.59797	74951
22.60610	76116
22.61422	63413
22.62235	66384
22.63047	64532
22.63858	69152
22.64672	67883
22.65483	70208
22.66297	69841
22.67108	73473
22.67920	76466
22.68733	76732
22.69545	84968
22.70357	91241
22.71170	105018
22.71982	108680
22.72795	111105
22.73607	103050
22.74418	93763
22.75232	86300
22.76043	76598
22.76857	71365
22.77668	76873
22.78480	78396
22.79293	90342
22.80105	107697
22.80918	123326
22.81730	123675
22.82542	118092
22.83355	104013
22.84167	96818
22.84978	86281
22.85792	91902
22.86603	95319
22.87417	110645
22.88228	135746
22.89040	144760
22.89853	174967
22.90665	186511
22.91478	209769
22.92290	215507
22.93102	215350
22.93915	206321
22.94727	176957
22.95538	154481
22.96352	124753
22.97163	108273
22.97977	92741
22.98788	91794
22.99600	94481
23.00413	86764
23.01225	87353
23.02038	89645
23.02850	90113
23.03662	87770
23.04475	89630
23.05287	97144
23.06100	94485
23.06912	93747
23.07723	95805
23.08537	101919
23.09348	101474
23.10160	97417
23.10973	89102
23.11785	86295
23.12598	83989
23.13410	81318
23.14222	82300
23.15035	81897
23.15847	80594
23.16660	86628
23.17472	81544
23.18283	80711
23.19097	78077
23.19908	84627
23.20722	79200
23.21533	79042
23.22345	76989
23.23158	81081
23.23970	77462
23.24782	82466
23.25595	94135
23.26407	89102
23.27220	92717
23.28032	98368
23.28843	90350
23.29657	84600
23.30468	78450
23.31282	81357
23.32093	84555
23.32905	93960
23.33718	105817
23.34530	126549
23.35342	161236
23.36155	185579
23.36967	213806
23.37780	229371
23.38592	234002
23.39403	234346
23.40217	226617
23.41028	220640
23.41842	218038
23.42653	211385
23.43465	215741
23.44278	195749
23.45090	190357
23.45903	185969
23.46715	183869
23.47527	168452
23.48340	161362
23.49152	156695
23.49963	159752
23.50777	149604
23.51588	142578
23.52402	139593
23.53213	130493
23.54025	134431
23.54838	140984
23.55650	139591
23.56463	166739
23.57275	180082
23.58087	215894
23.58900	254291
23.59712	308511
23.60523	333675
23.61337	332546
23.62148	294582
23.62962	247358
23.63773	221495
23.64585	203444
23.65398	205954
23.66210	211844
23.67023	217426
23.67835	214683
23.68647	192334
23.69460	162933
23.70272	142166
23.71085	118810
23.71897	103763
23.72708	95357
23.73522	103372
23.74333	136172
23.75145	233451
23.75958	473153
23.76770	958236
23.77583	1769401
23.78395	2642803
23.79207	3318762
23.80020	3475539
23.80832	3115475
23.81645	2656722
23.82457	2129859
23.83268	1585300
23.84082	1170339
23.84893	878947
23.85707	709691
23.86518	604811
23.87330	525901
23.88143	449620
23.88955	397781
23.89767	364337
23.90580	343455
23.91392	321092
23.92205	314552
23.93017	287095
23.93828	269705
23.94642	244802
23.95453	231525
23.96267	215149
23.97078	204983
23.97890	189161
23.98703	192547
23.99515	193606
24.00327	237325
24.01140	353194
24.01952	540622
24.02765	778786
24.03577	941947
24.04388	997289
24.05202	851775
24.06013	644146
24.06827	463015
24.07638	318617
24.08450	240916
24.09263	207797
24.10075	171723
24.10888	151020
24.11700	150770
24.12512	150062
24.13325	150122
24.14137	145908
24.14948	160735
24.15762	154490
24.16573	156856
24.17387	157360
24.18198	159794
24.19010	150600
24.19823	153637
24.20635	153651
24.21448	147405
24.22260	141167
24.23072	126938
24.23885	116502
24.24697	112339
24.25510	108019
24.26322	101286
24.27133	100761
24.27947	94530
24.28758	95854
24.29570	92496
24.30383	95467
24.31195	100666
24.32008	89567
24.32820	89147
24.33632	90890
24.34445	88776
24.35257	90572
24.36070	95562
24.36882	106316
24.37693	150536
24.38507	175567
24.39318	213533
24.40130	215553
24.40943	188580
24.41755	145340
24.42568	122734
24.43380	113700
24.44192	116295
24.45005	128581
24.45817	147942
24.46630	161135
24.47442	179458
24.48253	192414
24.49067	209890
24.49878	214867
24.50692	223627
24.51503	232197
24.52315	238819
24.53128	258266
24.53940	292191
24.54752	341522
24.55565	381620
24.56377	399809
24.57190	383489
24.58002	334350
24.58813	298059
24.59627	254220
24.60438	216818
24.61252	199397
24.62063	188229
24.62875	183805
24.63688	181206
24.64500	177613
24.65312	179581
24.66125	177204
24.66937	175169
24.67750	173578
24.68562	176736
24.69373	169899
24.70187	173359
24.70998	170283
24.71812	169567
24.72623	168258
24.73435	167838
24.74248	158419
24.75060	158346
24.75873	163834
24.76685	167799
24.77497	168303
24.78310	172582
24.79122	174257
24.79933	173397
24.80747	177554
24.81558	173417
24.82372	181490
24.83183	201264
24.83995	229621
24.84808	271049
24.85620	331214
24.86433	415858
24.87245	528107
24.88057	652781
24.88870	753592
24.89682	767294
24.90495	727007
24.91307	601699
24.92118	478011
24.92932	360306
24.93743	272308
24.94555	223274
24.95368	196561
24.96180	182386
24.96993	174917
24.97805	165541
24.98617	165081
24.99430	157791
25.00242	154956
25.01055	146505
25.01867	153973
25.02678	141688
25.03492	143834
25.04303	141275
25.05117	141850
25.05928	140199
25.06740	139699
25.07553	142505
25.08365	145785
25.09177	160179
25.09990	222767
25.10802	380429
25.11615	728207
25.12427	1392856
25.13238	2388905
25.14052	3284706
25.14863	3794383
25.15677	3740188
25.16488	3024155
25.17300	2128355
25.18113	1333027
25.18925	740491
25.19737	426063
25.20550	269527
25.21362	197113
25.22175	167417
25.22987	159291
25.23798	166455
25.24612	204874
25.25423	238326
25.26237	301128
25.27048	342128
25.27860	361186
25.28673	343034
25.29485	293641
25.30298	228904
25.31110	193703
25.31922	150254
25.32735	131048
25.33547	111931
25.34358	108078
25.35172	103365
25.35983	95863
25.36797	89698
25.37608	86066
25.38420	86505
25.39233	84247
25.40045	83616
25.40858	80865
25.41670	77787
25.42482	76312
25.43295	77024
25.44107	75318
25.44918	79332
25.45732	81710
25.46543	79744
25.47357	82220
25.48168	86163
25.48980	79211
25.49793	80225
25.50605	74911
25.51418	76507
25.52230	75570
25.53042	71917
25.53855	70426
25.54667	74809
25.55480	69582
25.56292	79216
25.57103	92445
25.57917	108459
25.58728	129814
25.59540	158380
25.60353	169974
25.61165	186762
25.61978	183606
25.62790	194815
25.63602	196040
25.64415	194701
25.65227	198577
25.66040	197787
25.66852	202465
25.67663	207875
25.68477	216172
25.69288	205701
25.70102	208583
25.70913	219366
25.71725	214390
25.72538	208850
25.73350	202738
25.74162	201201
25.74975	199746
25.75787	194940
25.76600	194789
25.77412	199596
25.78223	202371
25.79037	196134
25.79848	202627
25.80662	198061
25.81473	198621
25.82285	211717
25.83098	221275
25.83910	233564
25.84722	243515
25.85535	244715
25.86347	232404
25.87160	215919
25.87972	205913
25.88783	195705
25.89597	191010
25.90408	168259
25.91222	169731
25.92033	164206
25.92845	165921
25.93658	163166
25.94470	160569
25.95283	164168
25.96095	159264
25.96907	158944
25.97720	157495
25.98532	154165
25.99343	152399
26.00157	143202
26.00968	145984
26.01782	138896
26.02593	138393
26.03405	138955
26.04218	142116
26.05030	140190
26.05843	140312
26.06655	146190
26.07467	143988
26.08280	138866
26.09092	145815
26.09905	139971
26.10717	133853
26.11528	136184
26.12342	141534
26.13153	141537
26.13965	142517
26.14778	139305
26.15590	139635
26.16403	143347
26.17215	140992
26.18027	139952
26.18840	134156
26.19652	132974
26.20465	127650
26.21277	117025
26.22088	118332
26.22902	112234
26.23713	113517
26.24525	111121
26.25338	112228
26.26150	111347
26.26963	108311
26.27775	108126
26.28587	108000
26.29400	105666
26.30212	104577
26.31025	100148
26.31837	100699
26.32648	102748
26.33462	95853
26.34273	100344
26.35087	108935
26.35898	121684
26.36710	151542
26.37523	194743
26.38335	267228
26.39147	311276
26.39960	352694
26.40772	373735
26.41585	355595
26.42397	313378
26.43208	244075
26.44022	185023
26.44833	145580
26.45647	125209
26.46458	111941
26.47270	104830
26.48083	100300
26.48895	100632
26.49707	95411
26.50520	94859
26.51332	87510
26.52145	86776
26.52957	84748
26.53768	82300
26.54582	82980
26.55393	78968
26.56207	76182
26.57018	78209
26.57830	80450
26.58643	79500
26.59455	77837
26.60268	73432
26.61080	74861
26.61892	78661
26.62705	76878
26.63517	71821
26.64328	78564
26.65142	76892
26.65953	76641
26.66767	79249
26.67578	78947
26.68390	75985
26.69203	75759
26.70015	81673
26.70828	73972
26.71640	73246
26.72452	73094
26.73265	76317
26.74077	73084
26.74890	72342
26.75702	77237
26.76513	71168
26.77327	75352
26.78138	75430
26.78950	77156
26.79763	83531
26.80575	82683
26.81388	80407
26.82200	80431
26.83012	70699
26.83825	73550
26.84637	76042
26.85450	75229
26.86262	70524
26.87073	69701
26.87887	62722
26.88698	69576
26.89510	67311
26.90323	65975
26.91135	68444
26.91948	63839
26.92760	66690
26.93572	66185
26.94385	60844
26.95197	65861
26.96010	76003
26.96822	94711
26.97633	125209
26.98447	192217
26.99258	313339
27.00072	462875
27.00883	648441
27.01695	839680
27.02508	992455
27.03320	1070261
27.04132	1031627
27.04945	938580
27.05757	787178
27.06570	661332
27.07382	519662
27.08193	420802
27.09007	347843
27.09818	295699
27.10632	270942
27.11443	242925
27.12255	223470
27.13068	207565
27.13880	191838
27.14693	179739
27.15505	179602
27.16317	171087
27.17130	186961
27.17942	188540
27.18753	177883
27.19567	175846
27.20378	170929
27.21192	160762
27.22003	148220
27.22815	140246
27.23628	132091
27.24440	139008
27.25253	124847
27.26065	121846
27.26877	116610
27.27690	114021
27.28502	103425
27.29313	105431
27.30127	101103
27.30938	99945
27.31752	107148
27.32563	100230
27.33375	105724
27.34188	102125
27.35000	104660
27.35813	97904
27.36625	101304
27.37437	95815
27.38250	88484
27.39062	92526
27.39875	86998
27.40687	87277
27.41498	88069
27.42312	93600
27.43123	86407
27.43935	90124
27.44748	83996
27.45560	79927
27.46373	79320
27.47185	79963
27.47997	79476
27.48810	75125
27.49622	79630
27.50435	82889
27.51247	81308
27.52058	81187
27.52872	83748
27.53683	81745
27.54495	78826
27.55308	81358
27.56120	86847
27.56933	76677
27.57745	89486
27.58557	98420
27.59370	105967
27.60182	115406
27.60995	120397
27.61807	107648
27.62618	100246
27.63432	92920
27.64243	90667
27.65057	87754
27.65868	87185
27.66680	92082
27.67493	98455
27.68305	113560
27.69117	121216
27.69930	117995
27.70742	116387
27.71555	103700
27.72367	91713
27.73178	83377
27.73992	74637
27.74803	70542
27.75617	69784
27.76428	69138
27.77240	66513
27.78053	68816
27.78865	68275
27.79678	69962
27.80490	67623
27.81302	68778
27.82115	72024
27.82927	69321
27.83738	68459
27.84552	67555
27.85363	65003
27.86177	67841
27.86988	62978
27.87800	60730
27.88613	59431
27.89425	64897
27.90238	62153
27.91050	64204
27.91862	65458
27.92675	59539
27.93487	62214
27.94298	58180
27.95112	58821
27.95923	62644
27.96737	61579
27.97548	62979
27.98360	62187
27.99173	65810
27.99985	72529
28.00798	75678
28.01610	92587
28.02422	120881
28.03235	161440
28.04047	203459
28.04860	241869
28.05672	253626
28.06483	228263
28.07297	191367
28.08108	157976
28.08920	127913
28.09733	107404
28.10545	90607
28.11358	83520
28.12170	78012
28.12982	76567
28.13795	70204
28.14607	73759
28.15420	68297
28.16232	62375
28.17043	68133
28.17857	68277
28.18668	78532
28.19482	86564
28.20293	94475
28.21105	98767
28.21918	103139
28.22730	100826
28.23542	101345
28.24355	91525
28.25167	81325
28.25980	79208
28.26792	72042
28.27603	70029
28.28417	67295
28.29228	74533
28.30042	80426
28.30853	95771
28.31665	122952
28.32478	150322
28.33290	165327
28.34102	202178
28.34915	228197
28.35727	266692
28.36540	296562
28.37352	304818
28.38163	325406
28.38977	332797
28.39788	334789
28.40602	338061
28.41413	302077
28.42225	288212
28.43038	275764
28.43850	252232
28.44663	230937
28.45475	213738
28.46287	200677
28.47100	188940
28.47912	178701
28.48723	165432
28.49537	166547
28.50348	156933
28.51162	157515
28.51973	142011
28.52785	136552
28.53598	118810
28.54410	108195
28.55223	113945
28.56035	104339
28.56847	96017
28.57660	94150
28.58472	98989
28.59285	98506
28.60097	100380
28.60908	95269
28.61722	88956
28.62533	94586
28.63345	97546
28.64158	99747
28.64970	103088
28.65783	104944
28.66595	99934
28.67407	97989
28.68220	89657
28.69032	89212
28.69845	90180
28.70657	83785
28.71468	79550
28.72282	87614
28.73093	80346
28.73905	91050
28.74718	102548
28.75530	110622
28.76343	121455
28.77155	123816
28.77967	122826
28.78780	107498
28.79592	97066
28.80405	98254
28.81217	93337
28.82028	90292
28.82842	92507
28.83653	86428
28.84467	82463
28.85278	77303
28.86090	80149
28.86903	79166
28.87715	86352
28.88527	90246
28.89340	93000
28.90152	93220
28.90965	98024
28.91777	96329
28.92588	88075
28.93402	81425
28.94213	83850
28.95027	86724
28.95838	85720
28.96650	77154
28.97463	78788
28.98275	80578
28.99087	72553
28.99900	65928
29.00712	66266
29.01525	68601
29.02337	69801
29.03148	66863
29.03962	64248
29.04773	61743
29.05587	61542
29.06398	63119
29.07210	69038
29.08023	68219
29.08835	67264
29.09648	71869
29.10460	72713
29.11272	66904
29.12085	66633
29.12897	62014
29.13708	65113
29.14522	62716
29.15333	59559
29.16147	61977
29.16958	64374
29.17770	67893
29.18583	73346
29.19395	85886
29.20208	98240
29.21020	109044
29.21832	128815
29.22645	154302
29.23457	201865
29.24270	291932
29.25082	426906
29.25893	567445
29.26707	653395
29.27518	655012
29.28330	571482
29.29143	412033
29.29955	286873
29.30768	184115
29.31580	116859
29.32392	91067
29.33205	78807
29.34017	71148
29.34830	66992
29.35642	63583
29.36453	65111
29.37267	66232
29.38078	64149
29.38890	65564
29.39703	65917
29.40515	62964
29.41328	66610
29.42140	67409
29.42952	67779
29.43765	68853
29.44577	66691
29.45390	63359
29.46202	66010
29.47013	67067
29.47827	62665
29.48638	66506
29.49452	64089
29.50263	62864
29.51075	67218
29.51888	64005
29.52700	67206
29.53512	64779
29.54325	62627
29.55137	59203
29.55950	59747
29.56762	58912
29.57573	53850
29.58387	54236
29.59198	56389
29.60012	56456
29.60823	54101
29.61635	57301
29.62448	58130
29.63260	53146
29.64073	52387
29.64885	53368
29.65697	56639
29.66510	54671
29.67322	57306
29.68133	58273
29.68947	64714
29.69758	67362
29.70572	67139
29.71383	64573
29.72195	62978
29.73008	65012
29.73820	68276
29.74633	61846
29.75445	62141
29.76257	60396
29.77070	56326
29.77882	55273
29.78693	54376
29.79507	53217
29.80318	53166
29.81132	55951
29.81943	53751
29.82755	51775
29.83568	51210
29.84380	51373
29.85193	54405
29.86005	53756
29.86817	58178
29.87630	69103
29.88442	72569
29.89255	86283
29.90067	96276
29.90878	94984
29.91692	89069
29.92503	82743
29.93315	83010
29.94128	71944
29.94940	76210
29.95753	84159
29.96565	98246
29.97377	112074
29.98190	124980
29.99002	145003
29.99815	162062
30.00627	174419
30.01438	173471
30.02252	183916
30.03063	183745
30.03875	180822
30.04688	182496
30.05500	180765
30.06313	177470
30.07125	172190
30.07937	164543
30.08750	164255
30.09562	151620
30.10375	156261
30.11187	151684
30.11998	143418
30.12812	137708
30.13623	133466
30.14437	132112
30.15248	123176
30.16060	117380
30.16873	121253
30.17685	117037
30.18497	121791
30.19310	121521
30.20122	123823
30.20935	117676
30.21747	117932
30.22558	111125
30.23372	104636
30.24183	98700
30.24997	87252
30.25808	85130
30.26620	78152
30.27433	77684
30.28245	75185
30.29058	76282
30.29870	68362
30.30682	71082
30.31495	72921
30.32307	73006
30.33118	77837
30.33932	72873
30.34743	74534
30.35557	70040
30.36368	73867
30.37180	67750
30.37993	67898
30.38805	72722
30.39618	62526
30.40430	65459
30.41242	64306
30.42055	64375
30.42867	61777
30.43680	62351
30.44492	58390
30.45303	59516
30.46117	63365
30.46928	59847
30.47740	63238
30.48553	62304
30.49365	61356
30.50178	69191
30.50990	60684
30.51802	62276
30.52615	62598
30.53427	56951
30.54240	60704
30.55052	59274
30.55863	60832
30.56677	64842
30.57488	64939
30.58300	61217
30.59113	60766
30.59925	59190
30.60738	58745
30.61550	59584
30.62362	57836
30.63175	59649
30.63987	58292
30.64800	58815
30.65612	57358
30.66423	59880
30.67237	67002
30.68048	75294
30.68862	81010
30.69673	86688
30.70485	85972
30.71298	89750
30.72110	93728
30.72922	99777
30.73735	105512
30.74547	100454
30.75360	106015
30.76172	102814
30.76983	107961
30.77797	121997
30.78608	131180
30.79422	150207
30.80233	161549
30.81045	174094
30.81858	162166
30.82670	157467
30.83482	146719
30.84295	137935
30.85107	124680
30.85920	121152
30.86732	115489
30.87543	120353
30.88357	124575
30.89168	127138
30.89982	119789
30.90793	117439
30.91605	114202
30.92418	110508
30.93230	107050
30.94043	105193
30.94855	114260
30.95667	112860
30.96480	108714
30.97292	105365
30.98103	105058
30.98917	101472
30.99728	105982
31.00542	100791
31.01353	104645
31.02165	105555
31.02978	107818
31.03790	104881
31.04603	110112
31.05415	100765
31.06227	103203
31.07040	107378
31.07852	106472
31.08665	116327
31.09477	125660
31.10288	131958
31.11102	133186
31.11913	124865
31.12725	120199
31.13538	112114
31.14350	109154
31.15163	104433
31.15975	110142
31.16787	107257
31.17600	116624
31.18412	128057
31.19225	156273
31.20037	183633
31.20848	234797
31.21662	276456
31.22473	300192
31.23285	303229
31.24098	275445
31.24910	219631
31.25723	174087
31.26535	136749
31.27347	115133
31.28160	105915
31.28972	98296
31.29785	91909
31.30597	92270
31.31408	91168
31.32222	91727
31.33033	91724
31.33847	93732
31.34658	89645
31.35470	91606
31.36283	89034
31.37095	87259
31.37907	86351
31.38720	89029
31.39532	90436
31.40345	89180
31.41157	86042
31.41968	82594
31.42782	78922
31.43593	82185
31.44407	76864
31.45218	77696
31.46030	79614
31.46843	73384
31.47655	82316
31.48468	78454
31.49280	75157
31.50092	85026
31.50905	85026
31.51717	89508
31.52528	92923
31.53342	92450
31.54153	92184
31.54967	89819
31.55778	90803
31.56590	88348
31.57403	78142
31.58215	79685
31.59028	72210
31.59840	76585
31.60652	73018
31.61465	77220
31.62277	76461
31.63088	75593
31.63902	73957
31.64713	73019
31.65527	72993
31.66338	75585
31.67150	75644
31.67963	76779
31.68775	71185
31.69588	70258
31.70400	69214
31.71212	69784
31.72025	71590
31.72837	68776
31.73650	65667
31.74462	68110
31.75273	69118
31.76087	64207
31.76898	68186
31.77710	70223
31.78523	68532
31.79335	67016
31.80148	65473
31.80960	69669
31.81772	67123
31.82585	64436
31.83397	64524
31.84210	62891
31.85022	63712
31.85833	68109
31.86647	71828
31.87458	69475
31.88270	77115
31.89083	73773
31.89895	84588
31.90708	95039
31.91520	106229
31.92332	109811
31.93145	120828
31.93957	128466
31.94770	136301
31.95582	140731
31.96393	141459
31.97207	149646
31.98018	153702
31.98832	151070
31.99643	149544
32.00455	150781
32.01268	150363
32.02080	141991
32.02892	141186
32.03705	130369
32.04517	130162
32.05330	124667
32.06142	119673
32.06953	118703
32.07767	114952
32.08578	106362
32.09392	94338
32.10203	95168
32.11015	94092
32.11828	87186
32.12640	89467
32.13453	86171
32.14265	85857
32.15077	79442
32.15890	83227
32.16702	74655
32.17513	81799
32.18327	78804
32.19138	82590
32.19952	79755
32.20763	79438
32.21575	72773
32.22388	72717
32.23200	77425
32.24013	75975
32.24825	71679
32.25637	73731
32.26450	73274
32.27262	72773
32.28073	75019
32.28887	74080
32.29698	68935
32.30512	71247
32.31323	65255
32.32135	69803
32.32948	68817
32.33760	68057
32.34573	71984
32.35385	70103
32.36197	65508
32.37010	69256
32.37822	67403
32.38635	68683
32.39447	70126
32.40258	67592
32.41072	65229
32.41883	65129
32.42695	61564
32.43508	62404
32.44320	65660
32.45133	63052
32.45945	61539
32.46757	61742
32.47570	63891
32.48382	60764
32.49195	61926
32.50007	63422
32.50818	62733
32.51632	60475
32.52443	57693
32.53257	62722
32.54068	59571
32.54880	61497
32.55693	58190
32.56505	61390
32.57317	63768
32.58130	63011
32.58942	61154
32.59755	59545
32.60567	56007
32.61378	56207
32.62192	60373
32.63003	67851
32.63817	67853
32.64628	73975
32.65440	84876
32.66253	92029
32.67065	90268
32.67877	79284
32.68690	78699
32.69502	71020
32.70315	75451
32.71127	68727
32.71938	70804
32.72752	60086
32.73563	69035
32.74377	61479
32.75188	62310
32.76000	65931
32.76813	64274
32.77625	62491
32.78438	59351
32.79250	58951
32.80062	59854
32.80875	57531
32.81687	58769
32.82498	55920
32.83312	59578
32.84123	59104
32.84937	60120
32.85748	58271
32.86560	65807
32.87373	64550
32.88185	68181
32.88998	70606
32.89810	79240
32.90622	85733
32.91435	89277
32.92247	78039
32.93058	78084
32.93872	70702
32.94683	68484
32.95497	67878
32.96308	60504
32.97120	64340
32.97933	66893
32.98745	75095
32.99558	78082
33.00370	83050
33.01182	90944
33.01995	82114
33.02807	75906
33.03620	69586
33.04432	66207
33.05243	67313
33.06057	68787
33.06868	78076
33.07680	83580
33.08493	89579
33.09305	97919
33.10118	102661
33.10930	107272
33.11742	104309
33.12555	97399
33.13367	93089
33.14180	86658
33.14992	76805
33.15803	73747
33.16617	70988
33.17428	69309
33.18242	67416
33.19053	65095
33.19865	66093
33.20678	60782
33.21490	66813
33.22302	68830
33.23115	66608
33.23927	63402
33.24740	65003
33.25552	64489
33.26363	63044
33.27177	62541
33.27988	57576
33.28802	59706
33.29613	60239
33.30425	67234
33.31238	63442
33.32050	63947
33.32862	65793
33.33675	64299
33.34487	65560
33.35300	68062
33.36112	69925
33.36923	68398
33.37737	70649
33.38548	66815
33.39362	64653
33.40173	62394
33.40985	59109
33.41798	53594
33.42610	58315
33.43423	61127
33.44235	57146
33.45047	55888
33.45860	56623
33.46672	58355
33.47483	57653
33.48297	58829
33.49108	58450
33.49922	57816
33.50733	63043
33.51545	56835
33.52358	63222
33.53170	61746
33.53983	60483
33.54795	60876
33.55607	66692
33.56420	68930
33.57232	66164
33.58045	63546
33.58857	62912
33.59668	61862
33.60482	60372
33.61293	61245
33.62105	56510
33.62918	61225
33.63730	63731
33.64543	60617
33.65355	67912
33.66167	66489
33.66980	67247
33.67792	63932
33.68605	62439
33.69417	56528
33.70228	61276
33.71042	59767
33.71853	61378
33.72665	56252
33.73478	58073
33.74290	56829
33.75103	60774
33.75915	56159
33.76727	51799
33.77540	55625
33.78352	59272
33.79165	56406
33.79977	58665
33.80788	55054
33.81602	57079
33.82413	57079
33.83227	57966
33.84038	58131
33.84850	57382
33.85663	59379
33.86475	59131
33.87287	60697
33.88100	60246
33.88912	63035
33.89725	68720
33.90537	66847
33.91348	68644
33.92162	70866
33.92973	65488
33.93787	62434
33.94598	66691
33.95410	66804
33.96223	60279
33.97035	55529
33.97848	56930
33.98660	55427
33.99472	56110
34.00285	57995
34.01097	62343
34.01908	59072
34.02722	59189
34.03533	56875
34.04347	62532
34.05158	63083
34.05970	63514
34.06783	57686
34.07595	59734
34.08408	57462
34.09220	57579
34.10032	59583
34.10845	64824
34.11657	64928
34.12468	67745
34.13282	63987
34.14093	65210
34.14907	63731
34.15718	69290
34.16530	66515
34.17343	67086
34.18155	64761
34.18968	63248
34.19780	63556
34.20592	66390
34.21405	61866
34.22217	63929
34.23030	63099
34.23842	62602
34.24653	64310
34.25467	64771
34.26278	63838
34.27090	59166
34.27903	61371
34.28715	60142
34.29528	62197
34.30340	61224
34.31152	59663
34.31965	60168
34.32777	64152
34.33590	63755
34.34402	63349
34.35213	59719
34.36027	56473
34.36838	65503
34.37650	60528
34.38463	57720
34.39275	61781
34.40088	61391
34.40900	63915
34.41712	62598
34.42525	60199
34.43337	62280
34.44150	60135
34.44962	58190
34.45773	65864
34.46587	58523
34.47398	60300
34.48212	61805
34.49023	66539
34.49835	73243
34.50648	82639
34.51460	96021
34.52272	107615
34.53085	128941
34.53897	137099
34.54710	137457
34.55522	144426
34.56333	147333
34.57147	146788
34.57958	135628
34.58772	116853
34.59583	113230
34.60395	109752
34.61208	101978
34.62020	95079
34.62833	89271
34.63645	85594
34.64457	82962
34.65270	76389
34.66082	81922
34.66893	77738
34.67707	75135
34.68518	75658
34.69332	73755
34.70143	77266
34.70955	72137
34.71768	70009
34.72580	72984
34.73393	67621
34.74205	68733
34.75017	68528
34.75830	71836
34.76642	74120
34.77453	76299
34.78267	75632
34.79078	77565
34.79892	74754
34.80703	78823
34.81515	76585
34.82328	80563
34.83140	77660
34.83953	72598
34.84765	72173
34.85577	71930
34.86390	70825
34.87202	74386
34.88015	69127
34.88827	72417
34.89638	71581
34.90452	71435
34.91263	72788
34.92075	71934
34.92888	78955
34.93700	80140
34.94513	72506
34.95325	80969
34.96137	79029
34.96950	80552
34.97762	81722
34.98575	84944
34.99387	84226
35.00198	74057
35.01012	70335
35.01823	72587
35.02637	72357
35.03448	68759
35.04260	67139
35.05073	67667
35.05885	65883
35.06697	69219
35.07510	63779
35.08322	65472
35.09135	64871
35.09947	61213
35.10758	65601
35.11572	65980
35.12383	67166
35.13197	63706
35.14008	67152
35.14820	67309
35.15633	68638
35.16445	69378
35.17257	64564
35.18070	65379
35.18882	63608
35.19695	61848
35.20507	64782
35.21318	63610
35.22132	63934
35.22943	63359
35.23757	63539
35.24568	61342
35.25380	64286
35.26193	66703
35.27005	65180
35.27818	67511
35.28630	64671
35.29442	65504
35.30255	60774
35.31067	59506
35.31878	63274
35.32692	59261
35.33503	57244
35.34317	61513
35.35128	62908
35.35940	59010
35.36753	60370
35.37565	67633
35.38378	71143
35.39190	79348
35.40002	92528
35.40815	109907
35.41627	125289
35.42438	141911
35.43252	146338
35.44063	147022
35.44877	127827
35.45688	114006
35.46500	96707
35.47313	88226
35.48125	83477
35.48938	76635
35.49750	73985
35.50562	74302
35.51375	73726
35.52187	69322
35.53000	68678
35.53812	68582
35.54623	67482
35.55437	68578
35.56248	72951
35.57060	67716
35.57873	69180
35.58685	69098
35.59498	67422
35.60310	62737
35.61122	66731
35.61935	64784
35.62747	61793
35.63560	66849
35.64372	67056
35.65183	64349
35.65997	68975
35.66808	66324
35.67622	68035
35.68433	69284
35.69245	69078
35.70058	64426
35.70870	65279
35.71682	64834
35.72495	66331
35.73307	69146
35.74120	69928
35.74932	74785
35.75743	74582
35.76557	84095
35.77368	79479
35.78182	77029
35.78993	72248
35.79805	69030
35.80618	64244
35.81430	66556
35.82242	69450
35.83055	68585
35.83867	66570
35.84680	64901
35.85492	65941
35.86303	63297
35.87117	66512
35.87928	64016
35.88742	65569
35.89553	63449
35.90365	65124
35.91178	68080
35.91990	68448
35.92803	67212
35.93615	72072
35.94427	65673
35.95240	67069
35.96052	67790
35.96863	60027
35.97677	67062
35.98488	63481
35.99302	68966
36.00113	67227
36.00925	70750
36.01738	74086
36.02550	72282
36.03363	67966
36.04175	72393
36.04987	69889
36.05800	67989
36.06612	63960
36.07425	70438
36.08237	69536
36.09048	65780
36.09862	70557
36.10673	70046
36.11485	73155
36.12298	68255
36.13110	76063
36.13923	79636
36.14735	70658
36.15547	75361
36.16360	71042
36.17172	70938
36.17985	69293
36.18797	70159
36.19608	66496
36.20422	68377
36.21233	74583
36.22045	83569
36.22858	83737
36.23670	83942
36.24483	89837
36.25295	83926
36.26107	85707
36.26920	94451
36.27732	99107
36.28545	107631
36.29357	113158
36.30168	122859
36.30982	119118
36.31793	124292
36.32607	121305
36.33418	108546
36.34230	104304
36.35043	101949
36.35855	100460
36.36667	94620
36.37480	98344
36.38292	93151
36.39105	104876
36.39917	102604
36.40728	100201
36.41542	101212
36.42353	98356
36.43167	98437
36.43978	96881
36.44790	101039
36.45603	93615
36.46415	94270
36.47227	90623
36.48040	91561
36.48852	93915
36.49665	96795
36.50477	94291
36.51288	95942
36.52102	93170
36.52913	91098
36.53727	94501
36.54538	88765
36.55350	90526
36.56163	90281
36.56975	88385
36.57788	91463
36.58600	88283
36.59412	90564
36.60225	89459
36.61037	89475
36.61848	94632
36.62662	91730
36.63473	85707
36.64287	89354
36.65098	89682
36.65910	92588
36.66723	90196
36.67535	93792
36.68348	88149
36.69160	87952
36.69972	84407
36.70785	84078
36.71597	87449
36.72410	84477
36.73222	85624
36.74033	84146
36.74847	88292
36.75658	85114
36.76470	83416
36.77283	82195
36.78095	92900
36.78908	87439
36.79720	91137
36.80532	83677
36.81345	83351
36.82157	87286
36.82970	86881
36.83782	84210
36.84593	83120
36.85407	80462
36.86218	77309
36.87032	77421
36.87843	83910
36.88655	81997
36.89468	81031
36.90280	81618
36.91092	81258
36.91905	85745
36.92717	81418
36.93530	85214
36.94342	90662
36.95153	98636
36.95967	100001
36.96778	99277
36.97592	101744
36.98403	98567
36.99215	95581
37.00028	97803
37.00840	90160
37.01652	86119
37.02465	83418
37.03277	84853
37.04090	89101
37.04902	81515
37.05713	87976
37.06527	82403
37.07338	86972
37.08152	87465
37.08963	86952
37.09775	90201
37.10588	92391
37.11400	84182
37.12213	79885
37.13025	79748
37.13837	79939
37.14650	81957
37.15462	75257
37.16273	80175
37.17087	81370
37.17898	82049
37.18712	83706
37.19523	86439
37.20335	87014
37.21148	80301
37.21960	84365
37.22773	84705
37.23585	85817
37.24397	78747
37.25210	85288
37.26022	81859
37.26833	74782
37.27647	73972
37.28458	84856
37.29272	80801
37.30083	84233
37.30895	88388
37.31708	98844
37.32520	112927
37.33333	128587
37.34145	145070
37.34957	141081
37.35770	138316
37.36582	137067
37.37395	128531
37.38207	127475
37.39018	118709
37.39832	118251
37.40643	109645
37.41455	104126
37.42268	108107
37.43080	105347
37.43893	106328
37.44705	98293
37.45517	101712
37.46330	101095
37.47142	100672
37.47955	90219
37.48767	96441
