C:\MassHunter\GCMS\1\data\JTB-E18\JTB-E18-026-07.D Tue Sep 17 13:54:36 2019
Start of data points
2.09522,121256
2.10333,129236
2.11145,127753
2.11958,121064
2.12770,126967
2.13583,121694
2.14395,118228
2.15207,118845
2.16020,124418
2.16832,116331
2.17643,108531
2.18457,110219
2.19268,107515
2.20082,110759
2.20893,101252
2.21705,102706
2.22518,104366
2.23330,102256
2.24143,101079
2.24955,102254
2.25767,104524
2.26580,105753
2.27392,381920
2.28205,1830928
2.29017,2058035
2.29828,917873
2.30642,512496
2.31453,385243
2.32265,330922
2.33078,297626
2.33890,276111
2.34703,252172
2.35515,224411
2.36327,205588
2.37140,196157
2.37952,193367
2.38765,271103
2.39577,253440
2.40388,196388
2.41202,188049
2.42013,184899
2.42827,196805
2.43638,192811
2.44450,175345
2.45263,185916
2.46075,173814
2.46887,160058
2.47700,159064
2.48512,149444
2.49325,187155
2.50137,246638
2.50948,197594
2.51762,164359
2.52573,158150
2.53387,159170
2.54198,157175
2.55010,155729
2.55823,159891
2.56635,160765
2.57447,153936
2.58260,146302
2.59072,146661
2.59885,146963
2.60697,146093
2.61508,164914
2.62322,178041
2.63133,169531
2.63947,152945
2.64758,143677
2.65570,147769
2.66383,144953
2.67195,148421
2.68008,189027
2.68820,195288
2.69632,158550
2.70445,144359
2.71257,133454
2.72068,128407
2.72882,126692
2.73693,136961
2.74507,134290
2.75318,132329
2.76130,128223
2.76943,130689
2.77755,128669
2.78568,124260
2.79380,126038
2.80192,130344
2.81005,142186
2.81817,149128
2.82630,243535
2.83442,608602
2.84253,722674
2.85067,428649
2.85878,265489
2.86690,246873
2.87503,226131
2.88315,183883
2.89128,171340
2.89940,150208
2.90752,148861
2.91565,145442
2.92377,139963
2.93190,137237
2.94002,130463
2.94813,129870
2.95627,127848
2.96438,129327
2.97250,130642
2.98063,127274
2.98875,126439
2.99688,126259
3.00500,140235
3.01312,141368
3.02125,169105
3.02937,291913
3.03750,571285
3.04562,809278
3.05373,2018762
3.06187,5752221
3.06998,7629789
3.07812,4871315
3.08623,2254956
3.09435,1233999
3.10248,862410
3.11060,672924
3.11872,579158
3.12685,488064
3.13497,419758
3.14310,366177
3.15122,337186
3.15933,301969
3.16747,291672
3.17558,283844
3.18372,260050
3.19183,244555
3.19995,233420
3.20808,223179
3.21620,217372
3.22432,218363
3.23245,219207
3.24057,214142
3.24870,195097
3.25682,188681
3.26493,180211
3.27307,180568
3.28118,298789
3.28932,1291666
3.29743,5132245
3.30555,1.136193E+07
3.31368,1.421601E+07
3.32180,1.124015E+07
3.32993,6937644
3.33805,4266668
3.34617,2896254
3.35430,2210896
3.36242,1796827
3.37053,1601930
3.37867,1611768
3.38678,1649201
3.39492,1446943
3.40303,1430205
3.41115,2432466
3.41928,4021109
3.42740,3917233
3.43553,2462716
3.44365,1443302
3.45177,1020603
3.45990,851698
3.46802,767518
3.47615,696160
3.48427,630345
3.49238,586465
3.50052,531344
3.50863,514935
3.51675,485824
3.52488,472474
3.53300,445858
3.54113,433186
3.54925,413234
3.55737,395790
3.56550,390356
3.57362,379670
3.58175,368517
3.58987,360734
3.59798,348344
3.60612,352036
3.61423,389285
3.62235,684547
3.63048,1368265
3.63860,2116908
3.64673,1991794
3.65485,1308101
3.66297,778986
3.67110,554175
3.67922,476260
3.68735,420504
3.69547,389793
3.70358,363241
3.71172,351827
3.71983,334461
3.72797,323409
3.73608,322523
3.74420,324705
3.75233,320718
3.76045,322917
3.76857,317160
3.77670,302104
3.78482,292031
3.79295,290457
3.80107,285512
3.80918,275996
3.81732,283277
3.82543,272004
3.83357,275800
3.84168,265059
3.84980,269746
3.85793,257458
3.86605,246073
3.87418,237298
3.88230,240401
3.89042,241652
3.89855,239869
3.90667,236834
3.91478,236356
3.92292,233679
3.93103,229489
3.93917,230489
3.94728,224867
3.95540,221309
3.96353,221350
3.97165,215333
3.97978,215535
3.98790,218125
3.99602,208403
4.00415,209691
4.01227,204144
4.02038,204635
4.02852,204557
4.03663,204835
4.04477,205067
4.05288,209796
4.06100,210160
4.06913,218004
4.07725,216587
4.08538,211397
4.09350,204126
4.10162,204113
4.10975,199838
4.11787,197419
4.12600,210068
4.13412,259367
4.14223,446548
4.15037,758667
4.15848,893048
4.16660,704596
4.17473,465469
4.18285,342484
4.19098,291278
4.19910,263254
4.20722,251790
4.21535,371451
4.22347,895882
4.23160,1884970
4.23972,2473353
4.24783,2081385
4.25597,1380813
4.26408,907664
4.27222,669453
4.28033,530115
4.28845,444475
4.29658,388439
4.30470,338195
4.31282,310857
4.32095,305127
4.32907,284985
4.33720,273461
4.34532,256961
4.35343,241894
4.36157,243054
4.36968,237920
4.37782,243278
4.38593,240050
4.39405,220754
4.40218,219403
4.41030,214787
4.41842,207295
4.42655,208230
4.43467,209809
4.44280,205215
4.45092,223378
4.45903,218322
4.46717,224893
4.47528,223506
4.48342,204998
4.49153,196826
4.49965,194159
4.50778,190256
4.51590,192538
4.52403,183144
4.53215,187005
4.54027,184420
4.54840,178590
4.55652,179523
4.56463,182863
4.57277,174289
4.58088,175209
4.58902,172431
4.59713,172759
4.60525,172281
4.61338,167254
4.62150,171326
4.62963,163764
4.63775,165011
4.64587,167699
4.65400,167118
4.66212,164928
4.67023,160018
4.67837,163498
4.68648,164955
4.69462,162299
4.70273,156622
4.71085,159722
4.71898,154746
4.72710,157522
4.73523,160442
4.74335,158122
4.75147,156414
4.75960,158374
4.76772,166164
4.77585,151257
4.78397,152426
4.79208,158445
4.80022,158012
4.80833,165216
4.81645,156635
4.82458,160231
4.83270,153671
4.84083,162402
4.84895,156529
4.85707,158137
4.86520,160541
4.87332,160408
4.88145,157516
4.88957,155620
4.89768,159346
4.90582,165387
4.91393,198491
4.92207,391234
4.93018,1002741
4.93830,2272483
4.94643,3702636
4.95455,4464781
4.96267,4065961
4.97080,2967619
4.97892,2014855
4.98705,1412270
4.99517,1070233
5.00328,858350
5.01142,720823
5.01953,637247
5.02767,560605
5.03578,510921
5.04390,454913
5.05203,419522
5.06015,396743
5.06827,374514
5.07640,348586
5.08452,332656
5.09265,337081
5.10077,348543
5.10888,396856
5.11702,430777
5.12513,434050
5.13327,400379
5.14138,358101
5.14950,311524
5.15763,295944
5.16575,299003
5.17388,343686
5.18200,384637
5.19012,411132
5.19825,405444
5.20637,340157
5.21448,306195
5.22262,280067
5.23073,298768
5.23887,322065
5.24698,348228
5.25510,333664
5.26323,302317
5.27135,264376
5.27948,251669
5.28760,249320
5.29572,238946
5.30385,238508
5.31197,228959
5.32010,216350
5.32822,227065
5.33633,233767
5.34447,219884
5.35258,226630
5.36070,199219
5.36883,204880
5.37695,203815
5.38508,193596
5.39320,194048
5.40132,186124
5.40945,189249
5.41757,187249
5.42570,191562
5.43382,179969
5.44193,183920
5.45007,187531
5.45818,183058
5.46630,185250
5.47443,179090
5.48255,178949
5.49068,183605
5.49880,183952
5.50692,177023
5.51505,180774
5.52317,183045
5.53130,176991
5.53942,180430
5.54753,174919
5.55567,173946
5.56378,178310
5.57192,179711
5.58003,181841
5.58815,192271
5.59628,190919
5.60440,189815
5.61252,194492
5.62065,197293
5.62877,212071
5.63690,227169
5.64502,230008
5.65313,218400
5.66127,203897
5.66938,197346
5.67752,190066
5.68563,200369
5.69375,204019
5.70188,199312
5.71000,203235
5.71812,220640
5.72625,241274
5.73437,245820
5.74250,239602
5.75062,223133
5.75873,229901
5.76687,241100
5.77498,253896
5.78312,245499
5.79123,232941
5.79935,249866
5.80748,341831
5.81560,562550
5.82373,908546
5.83185,1226283
5.83997,1283764
5.84810,1052420
5.85622,755180
5.86433,505330
5.87247,362733
5.88058,294591
5.88872,262306
5.89683,248329
5.90495,271218
5.91308,333850
5.92120,451980
5.92933,587587
5.93745,631904
5.94557,552599
5.95370,425687
5.96182,321176
5.96995,256762
5.97807,234026
5.98618,229987
5.99432,204688
6.00243,186289
6.01055,173572
6.01868,159012
6.02680,151350
6.03493,153018
6.04305,144499
6.05117,142250
6.05930,138856
6.06742,137755
6.07555,135314
6.08367,130981
6.09178,138212
6.09992,127243
6.10803,123637
6.11617,130443
6.12428,125532
6.13240,127833
6.14053,125190
6.14865,123414
6.15677,128632
6.16490,134831
6.17302,133611
6.18115,153216
6.18927,158574
6.19738,183754
6.20552,185850
6.21363,188774
6.22177,172478
6.22988,164866
6.23800,150774
6.24613,149698
6.25425,151723
6.26237,149453
6.27050,156237
6.27862,157633
6.28675,159400
6.29487,159024
6.30298,153911
6.31112,162622
6.31923,167974
6.32737,168904
6.33548,172201
6.34360,175723
6.35173,184080
6.35985,187921
6.36798,186910
6.37610,190092
6.38422,191576
6.39235,185240
6.40047,186659
6.40858,193819
6.41672,188623
6.42483,194449
6.43297,199560
6.44108,203547
6.44920,208909
6.45733,205814
6.46545,210214
6.47358,211829
6.48170,218873
6.48982,214509
6.49795,217496
6.50607,218862
6.51418,223236
6.52232,223394
6.53043,226429
6.53857,188850
6.54668,169436
6.55480,156797
6.56293,144981
6.57105,141572
6.57918,141558
6.58730,125428
6.59542,129487
6.60355,126301
6.61167,131611
6.61980,120551
6.62792,120774
6.63603,115671
6.64417,115594
6.65228,116846
6.66040,114086
6.66853,115479
6.67665,118330
6.68478,114948
6.69290,114737
6.70102,121243
6.70915,131202
6.71727,143903
6.72540,175616
6.73352,212523
6.74163,223376
6.74977,216858
6.75788,195276
6.76602,161752
6.77413,144188
6.78225,130631
6.79038,114213
6.79850,111295
6.80662,104129
6.81475,111528
6.82287,105617
6.83100,111043
6.83912,132096
6.84723,168164
6.85537,261016
6.86348,413556
6.87162,631799
6.87973,798091
6.88785,829522
6.89598,736914
6.90410,542738
6.91222,343715
6.92035,220590
6.92847,145308
6.93660,115001
6.94472,100840
6.95283,87749
6.96097,85400
6.96908,80045
6.97722,80797
6.98533,77661
6.99345,82725
7.00158,96068
7.00970,134095
7.01783,185451
7.02595,266861
7.03407,348151
7.04220,384726
7.05032,354725
7.05843,292203
7.06657,225626
7.07468,166219
7.08282,137157
7.09093,131283
7.09905,120737
7.10718,112948
7.11530,104593
7.12343,105290
7.13155,104162
7.13967,99496
7.14780,95080
7.15592,93426
7.16405,86580
7.17217,84641
7.18028,87351
7.18842,76550
7.19653,83075
7.20465,84526
7.21278,88773
7.22090,89718
7.22903,93097
7.23715,95011
7.24527,102175
7.25340,117050
7.26152,125279
7.26965,141824
7.27777,159587
7.28588,160677
7.29402,149445
7.30213,143502
7.31025,123169
7.31838,114646
7.32650,117717
7.33463,121721
7.34275,128739
7.35087,122233
7.35900,114838
7.36712,106722
7.37525,115680
7.38337,144153
7.39148,196805
7.39962,252908
7.40773,281048
7.41587,265896
7.42398,233002
7.43210,189690
7.44023,147279
7.44835,126351
7.45647,112533
7.46460,103721
7.47272,102851
7.48085,107582
7.48897,121627
7.49708,147189
7.50522,176894
7.51333,198310
7.52147,192440
7.52958,168287
7.53770,144934
7.54583,117473
7.55395,100125
7.56207,94221
7.57020,87092
7.57832,84135
7.58645,81433
7.59457,84389
7.60268,81072
7.61082,71810
7.61893,82737
7.62707,75878
7.63518,78284
7.64330,76537
7.65143,85847
7.65955,82648
7.66768,80223
7.67580,78492
7.68392,83890
7.69205,76732
7.70017,79181
7.70828,74720
7.71642,68003
7.72453,70474
7.73267,71507
7.74078,69111
7.74890,70385
7.75703,74462
7.76515,70578
7.77328,71058
7.78140,71303
7.78952,69730
7.79765,74191
7.80577,72492
7.81390,74048
7.82202,75639
7.83013,75035
7.83827,68438
7.84638,66133
7.85450,64931
7.86263,67550
7.87075,67624
7.87888,67749
7.88700,68274
7.89512,68745
7.90325,65381
7.91137,70251
7.91950,73304
7.92762,66331
7.93573,64762
7.94387,62878
7.95198,68381
7.96010,65855
7.96823,69587
7.97635,72193
7.98448,71747
7.99260,73980
8.00072,66520
8.00885,60435
8.01697,63168
8.02510,64930
8.03322,67720
8.04133,64808
8.04947,64808
8.05758,67572
8.06572,67714
8.07383,61461
8.08195,64697
8.09008,62629
8.09820,65594
8.10632,61559
8.11445,58804
8.12257,60794
8.13070,64093
8.13882,64373
8.14693,66794
8.15507,68667
8.16318,67286
8.17132,71633
8.17943,67791
8.18755,67952
8.19568,68607
8.20380,61090
8.21193,64276
8.22005,62854
8.22817,63835
8.23630,63474
8.24442,63344
8.25253,69088
8.26067,60098
8.26878,63452
8.27692,61575
8.28503,64425
8.29315,65948
8.30128,63025
8.30940,62736
8.31753,65003
8.32565,66701
8.33377,75150
8.34190,74101
8.35002,81001
8.35813,78822
8.36627,72591
8.37438,67760
8.38252,65056
8.39063,63559
8.39875,65150
8.40688,60344
8.41500,62340
8.42313,63160
8.43125,59290
8.43937,61328
8.44750,58211
8.45562,59151
8.46375,58738
8.47187,58180
8.47998,59219
8.48812,61373
8.49623,60556
8.50435,64041
8.51248,66264
8.52060,70469
8.52873,70865
8.53685,67658
8.54497,63748
8.55310,67732
8.56122,64803
8.56935,64342
8.57747,58979
8.58558,59536
8.59372,64206
8.60183,57813
8.60995,60750
8.61808,56889
8.62620,58223
8.63433,58951
8.64245,56746
8.65057,63960
8.65870,58196
8.66682,58120
8.67495,59667
8.68307,55783
8.69118,60507
8.69932,54796
8.70743,59188
8.71557,63190
8.72368,70258
8.73180,123909
8.73993,253012
8.74805,547130
8.75617,955597
8.76430,1314096
8.77242,1383054
8.78055,1162315
8.78867,824834
8.79678,570286
8.80492,407343
8.81303,311604
8.82117,257997
8.82928,217340
8.83740,195019
8.84553,174939
8.85365,163622
8.86178,142982
8.86990,131852
8.87802,121535
8.88615,121963
8.89427,116832
8.90238,111653
8.91052,105092
8.91863,106066
8.92677,106242
8.93488,110279
8.94300,107376
8.95113,103412
8.95925,99007
8.96738,94323
8.97550,94374
8.98362,96335
8.99175,90064
8.99987,90922
9.00798,96316
9.01612,89321
9.02423,89632
9.03237,87226
9.04048,82062
9.04860,85761
9.05673,87237
9.06485,88736
9.07298,92395
9.08110,79161
9.08922,86733
9.09735,85949
9.10547,82067
9.11360,80196
9.12172,82698
9.12983,77055
9.13797,79681
9.14608,77729
9.15420,77171
9.16233,83509
9.17045,76526
9.17858,73059
9.18670,73862
9.19482,76748
9.20295,71893
9.21107,73729
9.21920,69823
9.22732,68219
9.23543,69377
9.24357,71449
9.25168,69115
9.25982,68607
9.26793,71587
9.27605,80650
9.28418,69320
9.29230,73420
9.30042,68645
9.30855,68160
9.31667,71802
9.32480,70358
9.33292,65797
9.34103,71530
9.34917,69435
9.35728,71997
9.36542,73198
9.37353,72608
9.38165,69324
9.38978,64664
9.39790,63963
9.40602,66541
9.41415,63571
9.42227,66430
9.43040,69192
9.43852,64454
9.44663,64121
9.45477,68205
9.46288,61093
9.47102,62007
9.47913,57221
9.48725,61409
9.49538,60347
9.50350,65050
9.51163,64816
9.51975,63330
9.52787,61698
9.53600,62910
9.54412,62643
9.55223,58161
9.56037,54297
9.56848,53953
9.57662,49910
9.58473,50571
9.59285,51554
9.60098,51062
9.60910,48912
9.61723,51916
9.62535,45983
9.63347,42770
9.64160,43738
9.64972,41585
9.65785,42164
9.66597,43123
9.67408,45448
9.68222,40881
9.69033,41536
9.69845,38614
9.70658,42594
9.71470,43035
9.72283,41072
9.73095,40014
9.73907,39510
9.74720,43243
9.75532,41697
9.76345,38961
9.77157,41050
9.77968,38099
9.78782,39521
9.79593,39823
9.80405,40784
9.81218,34840
9.82030,40336
9.82843,39546
9.83655,40884
9.84467,38919
9.85280,45240
9.86092,40670
9.86905,41223
9.87717,39461
9.88528,39680
9.89342,37840
9.90153,36463
9.90967,41619
9.91778,41442
9.92590,40975
9.93403,36647
9.94215,38854
9.95027,42005
9.95840,42195
9.96652,45367
9.97465,46254
9.98277,50511
9.99088,52896
9.99902,55592
10.00713,52585
10.01527,49956
10.02338,47641
10.03150,44790
10.03963,44413
10.04775,40662
10.05587,44492
10.06400,42347
10.07212,43731
10.08025,42515
10.08837,41592
10.09648,38551
10.10462,38085
10.11273,39257
10.12087,37424
10.12898,39106
10.13710,37793
10.14523,38502
10.15335,38159
10.16148,38850
10.16960,37831
10.17772,36656
10.18585,41044
10.19397,37316
10.20208,39644
10.21022,42373
10.21833,38105
10.22647,44014
10.23458,44786
10.24270,44508
10.25083,43689
10.25895,41983
10.26708,43293
10.27520,45449
10.28332,50482
10.29145,46013
10.29957,47649
10.30770,46513
10.31582,45178
10.32393,45357
10.33207,43465
10.34018,41356
10.34830,43142
10.35643,41008
10.36455,42369
10.37268,41307
10.38080,42370
10.38892,48884
10.39705,49426
10.40517,51425
10.41330,49448
10.42142,50391
10.42953,44653
10.43767,39220
10.44578,43727
10.45390,38335
10.46203,40788
10.47015,37876
10.47828,38783
10.48640,38969
10.49452,39874
10.50265,43669
10.51077,40778
10.51890,44405
10.52702,47600
10.53513,46106
10.54327,48202
10.55138,50425
10.55952,45070
10.56763,44726
10.57575,42986
10.58388,40274
10.59200,41525
10.60012,42116
10.60825,39947
10.61637,41064
10.62450,39961
10.63262,42016
10.64073,42485
10.64887,38578
10.65698,39845
10.66512,41646
10.67323,40336
10.68135,43526
10.68948,47649
10.69760,46102
10.70573,45525
10.71385,47232
10.72197,47734
10.73010,49269
10.73822,46637
10.74633,47594
10.75447,43873
10.76258,46704
10.77072,50189
10.77883,46340
10.78695,43753
10.79508,43000
10.80320,42020
10.81133,40708
10.81945,39592
10.82757,41858
10.83570,37971
10.84382,40487
10.85193,39138
10.86007,38716
10.86818,38715
10.87632,34912
10.88443,38696
10.89255,40077
10.90068,40087
10.90880,34769
10.91693,39349
10.92505,38878
10.93317,36892
10.94130,36461
10.94942,39024
10.95755,34089
10.96567,38086
10.97378,39101
10.98192,38886
10.99003,42539
10.99815,40843
11.00628,37240
11.01440,43556
11.02253,39113
11.03065,38657
11.03877,40480
11.04690,36770
11.05502,35488
11.06315,36031
11.07127,40708
11.07938,36720
11.08752,36863
11.09563,38385
11.10375,40049
11.11188,39894
11.12000,41670
11.12813,42127
11.13625,45081
11.14437,45152
11.15250,49222
11.16062,50932
11.16875,48306
11.17687,46055
11.18498,49005
11.19312,45333
11.20123,43548
11.20937,45572
11.21748,47601
11.22560,41979
11.23373,38858
11.24185,46336
11.24997,44366
11.25810,40523
11.26622,42927
11.27435,50235
11.28247,64640
11.29058,86204
11.29872,105972
11.30683,131203
11.31497,143454
11.32308,151868
11.33120,135624
11.33933,125217
11.34745,113186
11.35558,108253
11.36370,98137
11.37182,87442
11.37995,79453
11.38807,71053
11.39618,59697
11.40432,54546
11.41243,55226
11.42057,47513
11.42868,45468
11.43680,51355
11.44493,48874
11.45305,44068
11.46118,45474
11.46930,43273
11.47742,42147
11.48555,44176
11.49367,42534
11.50180,43638
11.50992,44697
11.51803,41301
11.52617,44674
11.53428,52826
11.54240,60206
11.55053,60777
11.55865,64395
11.56678,66953
11.57490,58692
11.58302,64196
11.59115,56159
11.59927,57171
11.60740,54423
11.61552,52872
11.62363,49007
11.63177,46575
11.63988,41633
11.64800,45284
11.65613,42459
11.66425,46971
11.67238,43792
11.68050,39693
11.68862,42265
11.69675,45678
11.70487,52770
11.71300,53380
11.72112,60500
11.72923,60616
11.73737,64777
11.74548,66444
11.75362,68101
11.76173,65430
11.76985,65256
11.77798,65934
11.78610,62008
11.79422,57576
11.80235,60660
11.81047,54584
11.81860,52577
11.82672,48819
11.83483,49206
11.84297,51409
11.85108,44582
11.85922,49889
11.86733,46086
11.87545,45037
11.88358,48977
11.89170,44296
11.89982,44590
11.90795,39408
11.91607,39540
11.92420,46961
11.93232,50740
11.94043,52725
11.94857,56396
11.95668,67487
11.96482,72514
11.97293,69042
11.98105,63334
11.98918,63754
11.99730,58424
12.00543,56445
12.01355,55235
12.02167,48575
12.02980,47422
12.03792,41654
12.04603,42582
12.05417,40379
12.06228,40410
12.07042,43979
12.07853,39267
12.08665,39778
12.09478,43199
12.10290,37705
12.11103,36727
12.11915,37235
12.12727,40780
12.13540,40437
12.14352,39736
12.15165,40824
12.15977,42119
12.16788,40076
12.17602,38391
12.18413,40703
12.19225,36662
12.20038,39201
12.20850,39459
12.21663,37404
12.22475,36612
12.23287,36304
12.24100,34805
12.24912,36084
12.25725,36086
12.26537,38021
12.27348,37131
12.28162,33201
12.28973,35693
12.29785,36979
12.30598,38591
12.31410,41293
12.32223,39365
12.33035,38781
12.33847,37300
12.34660,34303
12.35472,35386
12.36285,35896
12.37097,37311
12.37908,36492
12.38722,41119
12.39533,44419
12.40347,53599
12.41158,58519
12.41970,59130
12.42783,51976
12.43595,49333
12.44407,48054
12.45220,46931
12.46032,47652
12.46845,45259
12.47657,40053
12.48468,35881
12.49282,34492
12.50093,41369
12.50907,34477
12.51718,35732
12.52530,38223
12.53343,37323
12.54155,37597
12.54968,34533
12.55780,34536
12.56592,34973
12.57405,36796
12.58217,34522
12.59028,35892
12.59842,33093
12.60653,34024
12.61467,34364
12.62278,31968
12.63090,33987
12.63903,36039
12.64715,33710
12.65528,36148
12.66340,33159
12.67152,33295
12.67965,34393
12.68777,36022
12.69588,33664
12.70402,37202
12.71213,35574
12.72027,36295
12.72838,38490
12.73650,40075
12.74463,39007
12.75275,40910
12.76088,36487
12.76900,38832
12.77712,39070
12.78525,35128
12.79337,40603
12.80150,44608
12.80962,45796
12.81773,47346
12.82587,48431
12.83398,49191
12.84210,47546
12.85023,48385
12.85835,45020
12.86648,43637
12.87460,38849
12.88272,37088
12.89085,36638
12.89897,37041
12.90710,41914
12.91522,34688
12.92333,35372
12.93147,36957
12.93958,40006
12.94770,47709
12.95583,63068
12.96395,79669
12.97208,101227
12.98020,123404
12.98832,133019
12.99645,136279
13.00457,136359
13.01270,131629
13.02082,117728
13.02893,100321
13.03707,92391
13.04518,78473
13.05332,71809
13.06143,60313
13.06955,56244
13.07768,55653
13.08580,47496
13.09392,51778
13.10205,46544
13.11017,41879
13.11830,41866
13.12642,39862
13.13453,42156
13.14267,43844
13.15078,42525
13.15892,44385
13.16703,40074
13.17515,40869
13.18328,44061
13.19140,40753
13.19953,42211
13.20765,41516
13.21577,44515
13.22390,42083
13.23202,45850
13.24013,47426
13.24827,49049
13.25638,49973
13.26452,52267
13.27263,59547
13.28075,63965
13.28888,66115
13.29700,66706
13.30513,71308
13.31325,68589
13.32137,63817
13.32950,69121
13.33762,71634
13.34573,65008
13.35387,69680
13.36198,68241
13.37012,62582
13.37823,58243
13.38635,53730
13.39448,51110
13.40260,47860
13.41073,47944
13.41885,45974
13.42697,43317
13.43510,40568
13.44322,42039
13.45135,44443
13.45947,41112
13.46758,39897
13.47572,42449
13.48383,36274
13.49195,39385
13.50008,39670
13.50820,41159
13.51633,41119
13.52445,37308
13.53257,37532
13.54070,41686
13.54882,41080
13.55695,47858
13.56507,54797
13.57318,57625
13.58132,63702
13.58943,65103
13.59757,63402
13.60568,65872
13.61380,66391
13.62193,65945
13.63005,69463
13.63817,73904
13.64630,75412
13.65442,78573
13.66255,81573
13.67067,75523
13.67878,67228
13.68692,62074
13.69503,52775
13.70317,53396
13.71128,53104
13.71940,53798
13.72753,51772
13.73565,51911
13.74377,46295
13.75190,51346
13.76002,48441
13.76815,46515
13.77627,48255
13.78438,47047
13.79252,44453
13.80063,43865
13.80877,43315
13.81688,41428
13.82500,40695
13.83313,42654
13.84125,42157
13.84938,37625
13.85750,39443
13.86562,43759
13.87375,45247
13.88187,45781
13.88998,47728
13.89812,53758
13.90623,53374
13.91437,56274
13.92248,59273
13.93060,62019
13.93873,60489
13.94685,61996
13.95498,60652
13.96310,54137
13.97122,54506
13.97935,53194
13.98747,55057
13.99558,51439
14.00372,53781
14.01183,59036
14.01997,54256
14.02808,59026
14.03620,54719
14.04433,61105
14.05245,57690
14.06058,61809
14.06870,54402
14.07682,56923
14.08495,50639
14.09307,54584
14.10120,51107
14.10932,49902
14.11743,52161
14.12557,57961
14.13368,74745
14.14180,121451
14.14993,200169
14.15805,336590
14.16618,448276
14.17430,494096
14.18242,456379
14.19055,362058
14.19867,240432
14.20680,183414
14.21492,142478
14.22303,118934
14.23117,114710
14.23928,97646
14.24742,96203
14.25553,89368
14.26365,83344
14.27178,81311
14.27990,79151
14.28802,74895
14.29615,67675
14.30427,65010
14.31240,60799
14.32052,58932
14.32863,52880
14.33677,47284
14.34488,45417
14.35302,42104
14.36113,42009
14.36925,39081
14.37738,38776
14.38550,40772
14.39362,41803
14.40175,37360
14.40987,35718
14.41800,40267
14.42612,42151
14.43423,40160
14.44237,37068
14.45048,45481
14.45862,40906
14.46673,40532
14.47485,37618
14.48298,37464
14.49110,39068
14.49923,36734
14.50735,34367
14.51547,34709
14.52360,36123
14.53172,36970
14.53983,38359
14.54797,36071
14.55608,36411
14.56422,38352
14.57233,39760
14.58045,34679
14.58858,36747
14.59670,33629
14.60483,34350
14.61295,34491
14.62107,37604
14.62920,36330
14.63732,35022
14.64545,35628
14.65357,32078
14.66168,34885
14.66982,33443
14.67793,35362
14.68605,38135
14.69418,34229
14.70230,35179
14.71043,34809
14.71855,30373
14.72667,35576
14.73480,33019
14.74292,37234
14.75105,36859
14.75917,35523
14.76728,35063
14.77542,34258
14.78353,34949
14.79165,35956
14.79978,37795
14.80790,34401
14.81603,36757
14.82415,32716
14.83227,34379
14.84040,36076
14.84852,35757
14.85665,36182
14.86477,37429
14.87288,39559
14.88102,38656
14.88913,35521
14.89727,35578
14.90538,36326
14.91350,37019
14.92163,35093
14.92975,34435
14.93787,38555
14.94600,33658
14.95412,34505
14.96225,36427
14.97037,35607
14.97848,35234
14.98662,32270
14.99473,32665
15.00287,35094
15.01098,32901
15.01910,33570
15.02723,33974
15.03535,35117
15.04348,33179
15.05160,32122
15.05972,32113
15.06785,36269
15.07597,33280
15.08408,33336
15.09222,35501
15.10033,36990
15.10847,34792
15.11658,33900
15.12470,32732
15.13283,34112
15.14095,31799
15.14908,34288
15.15720,32388
15.16532,36318
15.17345,35765
15.18157,33709
15.18968,34880
15.19782,36088
15.20593,32249
15.21407,31378
15.22218,33931
15.23030,35969
15.23843,33464
15.24655,32950
15.25468,34309
15.26280,33283
15.27092,34045
15.27905,30091
15.28717,28917
15.29530,32621
15.30342,30575
15.31153,34764
15.31967,36575
15.32778,34550
15.33590,32967
15.34403,31410
15.35215,32413
15.36028,34127
15.36840,32121
15.37652,31976
15.38465,31932
15.39277,32541
15.40090,29397
15.40902,34605
15.41713,34620
15.42527,30518
15.43338,33366
15.44150,30618
15.44963,32881
15.45775,30471
15.46588,31528
15.47400,31504
15.48212,33939
15.49025,31975
15.49837,29778
15.50650,34980
15.51462,33736
15.52273,33567
15.53087,32767
15.53898,32638
15.54712,30603
15.55523,33435
15.56335,31745
15.57148,35998
15.57960,32041
15.58772,33466
15.59585,31852
15.60397,34226
15.61210,34470
15.62022,33802
15.62833,33719
15.63647,33241
15.64458,30860
15.65272,33808
15.66083,33304
15.66895,36186
15.67708,34088
15.68520,32547
15.69333,32567
15.70145,30442
15.70957,34805
15.71770,29614
15.72582,33173
15.73393,31577
15.74207,33267
15.75018,36096
15.75832,35284
15.76643,32062
15.77455,35416
15.78268,33158
15.79080,38387
15.79893,33335
15.80705,33448
15.81517,30402
15.82330,30424
15.83142,33906
15.83953,30443
15.84767,33949
15.85578,33428
15.86392,33084
15.87203,37049
15.88015,31567
15.88828,35351
15.89640,33081
15.90453,32234
15.91265,34252
15.92077,31486
15.92890,35395
15.93702,32100
15.94515,30687
15.95327,34472
15.96138,32249
15.96952,32557
15.97763,32024
15.98575,33422
15.99388,34891
16.00200,34010
16.01013,37693
16.01825,41650
16.02637,42069
16.03450,40715
16.04262,43155
16.05075,37454
16.05887,36386
16.06698,38242
16.07512,37939
16.08323,36665
16.09137,35470
16.09948,35570
16.10760,35269
16.11573,32904
16.12385,30445
16.13197,34884
16.14010,39019
16.14822,32561
16.15635,35324
16.16447,34893
16.17258,36257
16.18072,34655
16.18883,34492
16.19697,35173
16.20508,35129
16.21320,33438
16.22133,31233
16.22945,33340
16.23757,38435
16.24570,32304
16.25382,33051
16.26195,37084
16.27007,37840
16.27818,35761
16.28632,39083
16.29443,35534
16.30257,38083
16.31068,36081
16.31880,34694
16.32693,38516
16.33505,37869
16.34318,36441
16.35130,36273
16.35942,36837
16.36755,36018
16.37567,33490
16.38378,33748
16.39192,31512
16.40003,34040
16.40817,33014
16.41628,37486
16.42440,35611
16.43253,34410
16.44065,35682
16.44878,36973
16.45690,35650
16.46502,38071
16.47315,33618
16.48127,33985
16.48938,34822
16.49752,34401
16.50563,34788
16.51377,38129
16.52188,38165
16.53000,34745
16.53813,35827
16.54625,37327
16.55438,34466
16.56250,35206
16.57062,39104
16.57875,35779
16.58687,41627
16.59500,38800
16.60312,42378
16.61123,37622
16.61937,41393
16.62748,41359
16.63560,37673
16.64373,35457
16.65185,35799
16.65998,37672
16.66810,37467
16.67622,35102
16.68435,36493
16.69247,41766
16.70060,34785
16.70872,37788
16.71683,39007
16.72497,37853
16.73308,39283
16.74122,35589
16.74933,34256
16.75745,35705
16.76558,35775
16.77370,33138
16.78182,34314
16.78995,36579
16.79807,34442
16.80620,36348
16.81432,33503
16.82243,34156
16.83057,35111
16.83868,34483
16.84682,36649
16.85493,40388
16.86305,39784
16.87118,34673
16.87930,36022
16.88743,33700
16.89555,36328
16.90367,33748
16.91180,35117
16.91992,32754
16.92803,38137
16.93617,35379
16.94428,34749
16.95242,36349
16.96053,36160
16.96865,36253
16.97678,34745
16.98490,35604
16.99303,37526
17.00115,34403
17.00927,35551
17.01740,35366
17.02552,36857
17.03363,35106
17.04177,32545
17.04988,34196
17.05802,38124
17.06613,36965
17.07425,38299
17.08238,35530
17.09050,37409
17.09863,36979
17.10675,38431
17.11487,40032
17.12300,37082
17.13112,37489
17.13925,33520
17.14737,38789
17.15548,38931
17.16362,35697
17.17173,35151
17.17985,37102
17.18798,36705
17.19610,34903
17.20423,40705
17.21235,36980
17.22047,33540
17.22860,34843
17.23672,37998
17.24485,34656
17.25297,33309
17.26108,36301
17.26922,35371
17.27733,38035
17.28545,35948
17.29358,37229
17.30170,34238
17.30983,36327
17.31795,34468
17.32607,38755
17.33420,36768
17.34232,37127
17.35045,39608
17.35857,40018
17.36668,40985
17.37482,43085
17.38293,40201
17.39107,44654
17.39918,45657
17.40730,42690
17.41543,42414
17.42355,42159
17.43167,43214
17.43980,40708
17.44792,43672
17.45605,41977
17.46417,41695
17.47228,37261
17.48042,40263
17.48853,42474
17.49667,40525
17.50478,43008
17.51290,45934
17.52103,51066
17.52915,52852
17.53728,61091
17.54540,68745
17.55352,74677
17.56165,76571
17.56977,73674
17.57788,70216
17.58602,63347
17.59413,51219
17.60227,49836
17.61038,50623
17.61850,47448
17.62663,42029
17.63475,41466
17.64288,39942
17.65100,45456
17.65912,41891
17.66725,41818
17.67537,45937
17.68348,44291
17.69162,44002
17.69973,45589
17.70787,41291
17.71598,42789
17.72410,39684
17.73223,39988
17.74035,38757
17.74848,37187
17.75660,43304
17.76472,37195
17.77285,37448
17.78097,37635
17.78910,37576
17.79722,39185
17.80533,35249
17.81347,37340
17.82158,41414
17.82970,38008
17.83783,39550
17.84595,40520
17.85408,44392
17.86220,43913
17.87032,40147
17.87845,42532
17.88657,40756
17.89470,39218
17.90282,39455
17.91093,41156
17.91907,36177
17.92718,37242
17.93532,35714
17.94343,37368
17.95155,35731
17.95968,35712
17.96780,35895
17.97592,39036
17.98405,37612
17.99217,37008
18.00030,38163
18.00842,36048
18.01653,42126
18.02467,38137
18.03278,42737
18.04092,41853
18.04903,45902
18.05715,41498
18.06528,44165
18.07340,44997
18.08152,46157
18.08965,46436
18.09777,41265
18.10590,43674
18.11402,41213
18.12213,38887
18.13027,38595
18.13838,38361
18.14652,45636
18.15463,41591
18.16275,39643
18.17088,41907
18.17900,39029
18.18713,38138
18.19525,38760
18.20337,39264
18.21150,39461
18.21962,41549
18.22773,40690
18.23587,44211
18.24398,44564
18.25212,40178
18.26023,39222
18.26835,41747
18.27648,42394
18.28460,38944
18.29273,37173
18.30085,36406
18.30897,43110
18.31710,39555
18.32522,35901
18.33333,38558
18.34147,36309
18.34958,34867
18.35772,36134
18.36583,33290
18.37395,37372
18.38208,42746
18.39020,40551
18.39833,36983
18.40645,40533
18.41457,42837
18.42270,36509
18.43082,37257
18.43895,37512
18.44707,41112
18.45518,36764
18.46332,44646
18.47143,38577
18.47955,43400
18.48768,43213
18.49580,40341
18.50393,43926
18.51205,46062
18.52017,43732
18.52830,39401
18.53642,39992
18.54455,43294
18.55267,42856
18.56078,42963
18.56892,39927
18.57703,41628
18.58517,42220
18.59328,43343
18.60140,48141
18.60953,49289
18.61765,44276
18.62577,47027
18.63390,48113
18.64202,45665
18.65015,46730
18.65827,46877
18.66638,41795
18.67452,40808
18.68263,44184
18.69077,44668
18.69888,44727
18.70700,45579
18.71513,41367
18.72325,43204
18.73137,46590
18.73950,42357
18.74762,43182
18.75575,42970
18.76387,42824
18.77198,41871
18.78012,41358
18.78823,37786
18.79637,36837
18.80448,41798
18.81260,36840
18.82073,38275
18.82885,38299
18.83698,42230
18.84510,38667
18.85322,40493
18.86135,45272
18.86947,38403
18.87758,40717
18.88572,41408
18.89383,41873
18.90197,45180
18.91008,42765
18.91820,44555
18.92633,43241
18.93445,45058
18.94258,39600
18.95070,37100
18.95882,38183
18.96695,42188
18.97507,40869
18.98320,38548
18.99132,41766
18.99943,40385
19.00757,44995
19.01568,46306
19.02380,49844
19.03193,43437
19.04005,42691
19.04818,43816
19.05630,43004
19.06442,39392
19.07255,50628
19.08067,46258
19.08880,44172
19.09692,46924
19.10503,50315
19.11317,52168
19.12128,51526
19.12940,54111
19.13753,58217
19.14565,62350
19.15378,63851
19.16190,70369
19.17002,68622
19.17815,66321
19.18627,59875
19.19440,58546
19.20252,51502
19.21063,50451
19.21877,42583
19.22688,46496
19.23502,43819
19.24313,40978
19.25125,42597
19.25938,37370
19.26750,39809
19.27562,47123
19.28375,45717
19.29187,44768
19.30000,47343
19.30812,42724
19.31623,43860
19.32437,41565
19.33248,42004
19.34062,44438
19.34873,44089
19.35685,40224
19.36498,39903
19.37310,39614
19.38123,41823
19.38935,37784
19.39747,40213
19.40560,35473
19.41372,42917
19.42183,46383
19.42997,59484
19.43808,70258
19.44622,112517
19.45433,166310
19.46245,227981
19.47058,251036
19.47870,246585
19.48683,203162
19.49495,142314
19.50307,97145
19.51120,69665
19.51932,57154
19.52743,54664
19.53557,49158
19.54368,47767
19.55182,49555
19.55993,46617
19.56805,43528
19.57618,43866
19.58430,46196
19.59243,41221
19.60055,43209
19.60867,42628
19.61680,45959
19.62492,48231
19.63305,59920
19.64117,78417
19.64928,92565
19.65742,103441
19.66553,109973
19.67365,104188
19.68178,92973
19.68990,84820
19.69803,69003
19.70615,62516
19.71427,57680
19.72240,53873
19.73052,56120
19.73865,49947
19.74677,47875
19.75488,48790
19.76302,47834
19.77113,46070
19.77925,46875
19.78738,45336
19.79550,49372
19.80363,43039
19.81175,41591
19.81987,44775
19.82800,46510
19.83612,46139
19.84425,48086
19.85237,44142
19.86048,53496
19.86862,48315
19.87673,56035
19.88487,68203
19.89298,82405
19.90110,91063
19.90923,103757
19.91735,106959
19.92547,111929
19.93360,101324
19.94172,104338
19.94985,98587
19.95797,98840
19.96608,95686
19.97422,92585
19.98233,89845
19.99047,86328
19.99858,86661
20.00670,82391
20.01483,80845
20.02295,86114
20.03108,79703
20.03920,71082
20.04732,66291
20.05545,64186
20.06357,58327
20.07168,52412
20.07982,51814
20.08793,47560
20.09607,51216
20.10418,53043
20.11230,46851
20.12043,49919
20.12855,48918
20.13668,45269
20.14480,47470
20.15292,46787
20.16105,49147
20.16917,50358
20.17728,50811
20.18542,52884
20.19353,49585
20.20167,52295
20.20978,52904
20.21790,52920
20.22603,57221
20.23415,63713
20.24228,73560
20.25040,83437
20.25852,92374
20.26665,94154
20.27477,99758
20.28290,86903
20.29102,83012
20.29913,68874
20.30727,61603
20.31538,57232
20.32350,54712
20.33163,48422
20.33975,47765
20.34788,46800
20.35600,47443
20.36412,46178
20.37225,48501
20.38037,50355
20.38850,50371
20.39662,50402
20.40473,53568
20.41287,51595
20.42098,50810
20.42912,51601
20.43723,52662
20.44535,52195
20.45348,53454
20.46160,51867
20.46972,45566
20.47785,48490
20.48597,47045
20.49410,45806
20.50222,45640
20.51033,46408
20.51847,45122
20.52658,45363
20.53472,41863
20.54283,39978
20.55095,41140
20.55908,40862
20.56720,42876
20.57532,41642
20.58345,38891
20.59157,37377
20.59970,37369
20.60782,42213
20.61593,40503
20.62407,38168
20.63218,41910
20.64032,42775
20.64843,38473
20.65655,39366
20.66468,39783
20.67280,38580
20.68093,37650
20.68905,40352
20.69717,44176
20.70530,39676
20.71342,37589
20.72153,38901
20.72967,40257
20.73778,36562
20.74592,38118
20.75403,39821
20.76215,40058
20.77028,44901
20.77840,41831
20.78653,42520
20.79465,41942
20.80277,41035
20.81090,41223
20.81902,41605
20.82713,41887
20.83527,43053
20.84338,44188
20.85152,39494
20.85963,38614
20.86775,41371
20.87588,38045
20.88400,39488
20.89213,40817
20.90025,37518
20.90837,37628
20.91650,39505
20.92462,38411
20.93275,37234
20.94087,38959
20.94898,43460
20.95712,34140
20.96523,40323
20.97335,40472
20.98148,41373
20.98960,37189
20.99773,36110
21.00585,36621
21.01397,38808
21.02210,39696
21.03022,41267
21.03835,42581
21.04647,38382
21.05458,39395
21.06272,39698
21.07083,41337
21.07897,41228
21.08708,40076
21.09520,42132
21.10333,42001
21.11145,38561
21.11957,41388
21.12770,41039
21.13582,41639
21.14395,43299
21.15207,37860
21.16018,40879
21.16832,37571
21.17643,39806
21.18457,41010
21.19268,40197
21.20080,36406
21.20893,38966
21.21705,39894
21.22517,42195
21.23330,39590
21.24142,42605
21.24955,43352
21.25767,45063
21.26578,45895
21.27392,42919
21.28203,39923
21.29017,43417
21.29828,45269
21.30640,35508
21.31453,41060
21.32265,42268
21.33078,39693
21.33890,42066
21.34702,39460
21.35515,42047
21.36327,38160
21.37138,39692
21.37952,38530
21.38763,40021
21.39577,41660
21.40388,41195
21.41200,43568
21.42013,41769
21.42825,41392
21.43638,42301
21.44450,39525
21.45262,41633
21.46075,41075
21.46887,38997
21.47700,36098
21.48512,42305
21.49323,37427
21.50137,42343
21.50948,39474
21.51760,41644
21.52573,37773
21.53385,42544
21.54198,41007
21.55010,40673
21.55822,39779
21.56635,41916
21.57447,42235
21.58260,47794
21.59072,51846
21.59883,53500
21.60697,58933
21.61508,59444
21.62320,59168
21.63133,52992
21.63945,47186
21.64758,47594
21.65570,46781
21.66382,47487
21.67195,44125
21.68007,41072
21.68820,41772
21.69632,40064
21.70443,40848
21.71257,38162
21.72068,43523
21.72882,38419
21.73693,42316
21.74505,40629
21.75318,40509
21.76130,41712
21.76942,44986
21.77755,44124
21.78567,50206
21.79380,46360
21.80192,52950
21.81003,50170
21.81817,50198
21.82628,49379
21.83442,45588
21.84253,45098
21.85065,41399
21.85878,41393
21.86690,38809
21.87502,39108
21.88315,40865
21.89127,40472
21.89940,37786
21.90752,37226
21.91563,42158
21.92377,39861
21.93188,37576
21.94002,35183
21.94813,35807
21.95625,36509
21.96438,38096
21.97250,36796
21.98063,38849
21.98875,35283
21.99687,35393
22.00500,33431
22.01312,35689
22.02123,37751
22.02937,38188
22.03748,42642
22.04562,39044
22.05373,40452
22.06185,41776
22.06998,41562
22.07810,46976
22.08623,41315
22.09435,40019
22.10247,43367
22.11060,43808
22.11872,38886
22.12685,42385
22.13497,38866
22.14308,42333
22.15122,36418
22.15933,35213
22.16745,39502
22.17558,41835
22.18370,37722
22.19183,44189
22.19995,40536
22.20807,40401
22.21620,36911
22.22432,36852
22.23245,35447
22.24057,38086
22.24868,35817
22.25682,38218
22.26493,36132
22.27307,37944
22.28118,35900
22.28930,34671
22.29743,35484
22.30555,40641
22.31367,39155
22.32180,36101
22.32992,37922
22.33805,37964
22.34617,38415
22.35428,35293
22.36242,35881
22.37053,36894
22.37867,35146
22.38678,35481
22.39490,35198
22.40303,38248
22.41115,34540
22.41927,36269
22.42740,40777
22.43552,38365
22.44365,39531
22.45177,34410
22.45988,39639
22.46802,36655
22.47613,37354
22.48427,36523
22.49238,31921
22.50050,34359
22.50863,35632
22.51675,35125
22.52488,35880
22.53300,38406
22.54112,33912
22.54925,34635
22.55737,36164
22.56548,35294
22.57362,34897
22.58173,32235
22.58987,31588
22.59798,30638
22.60610,35012
22.61423,32988
22.62235,35674
22.63048,36945
22.63860,31647
22.64672,32495
22.65485,33776
22.66297,36384
22.67108,32717
22.67922,37138
22.68733,34065
22.69547,34920
22.70358,37464
22.71170,33508
22.71983,35132
22.72795,35706
22.73608,34632
22.74420,36154
22.75232,35570
22.76045,33722
22.76857,36139
22.77670,34227
22.78482,32475
22.79293,37054
22.80107,38592
22.80918,33350
22.81730,34060
22.82543,39321
22.83355,36032
22.84168,32272
22.84980,36888
22.85792,41764
22.86605,37579
22.87417,40265
22.88230,42340
22.89042,44164
22.89853,42884
22.90667,42664
22.91478,45812
22.92292,49313
22.93103,50581
22.93915,53550
22.94728,56449
22.95540,53746
22.96352,50144
22.97165,48994
22.97977,49670
22.98790,43603
22.99602,46676
23.00413,45293
23.01227,43625
23.02038,44528
23.02852,42188
23.03663,41532
23.04475,38137
23.05288,36122
23.06100,38957
23.06912,43422
23.07725,39232
23.08537,43871
23.09350,35837
23.10162,38330
23.10973,39297
23.11787,41181
23.12598,37284
23.13412,36805
23.14223,37601
23.15035,38191
23.15848,36321
23.16660,39339
23.17473,43692
23.18285,37610
23.19097,39140
23.19910,39728
23.20722,40126
23.21533,38930
23.22347,35822
23.23158,36590
23.23972,38769
23.24783,34774
23.25595,37803
23.26408,37614
23.27220,36885
23.28033,38045
23.28845,39230
23.29657,38065
23.30470,37036
23.31282,38979
23.32095,38816
23.32907,37612
23.33718,36679
23.34532,39807
23.35343,36424
23.36155,35279
23.36968,33660
23.37780,40985
23.38593,41493
23.39405,39252
23.40217,40526
23.41030,40759
23.41842,40680
23.42655,41036
23.43467,36700
23.44278,35567
23.45092,37958
23.45903,40252
23.46715,36989
23.47528,38928
23.48340,37949
23.49153,40741
23.49965,35917
23.50777,41667
23.51590,40475
23.52402,40809
23.53215,37726
23.54027,42252
23.54838,44513
23.55652,45022
23.56463,43929
23.57277,41188
23.58088,43184
23.58900,41694
23.59713,46030
23.60525,46679
23.61337,43841
23.62150,46639
23.62962,43591
23.63775,45050
23.64587,51291
23.65398,52967
23.66212,49037
23.67023,52829
23.67837,57233
23.68648,50432
23.69460,50209
23.70273,52131
23.71085,52239
23.71897,53000
23.72710,65681
23.73522,105638
23.74335,212436
23.75147,467718
23.75958,1059589
23.76772,2005876
23.77583,2911433
23.78397,3457282
23.79208,3328680
23.80020,2806720
23.80833,2191491
23.81645,1619894
23.82458,1187622
23.83270,886079
23.84082,656984
23.84895,540156
23.85707,443399
23.86518,367434
23.87332,323135
23.88143,280550
23.88957,256966
23.89768,232197
23.90580,212172
23.91393,193349
23.92205,175281
23.93018,162459
23.93830,156958
23.94642,147559
23.95455,145208
23.96267,137905
23.97080,131735
23.97892,121800
23.98703,121951
23.99517,114545
24.00328,108448
24.01140,106289
24.01953,103945
24.02765,101722
24.03578,101883
24.04390,93806
24.05202,90085
24.06015,92670
24.06827,86850
24.07640,89771
24.08452,94467
24.09263,95005
24.10077,87151
24.10888,87426
24.11700,81353
24.12513,80168
24.13325,82603
24.14138,79012
24.14950,79121
24.15762,77836
24.16575,75726
24.17387,85140
24.18200,84597
24.19012,81970
24.19823,88109
24.20637,88963
24.21448,82231
24.22262,76549
24.23073,70950
24.23885,64221
24.24698,69420
24.25510,62444
24.26322,63663
24.27135,63210
24.27947,56694
24.28760,62340
24.29572,60855
24.30383,60334
24.31197,60845
24.32008,67261
24.32822,84777
24.33633,107627
24.34445,139849
24.35258,170079
24.36070,183858
24.36883,175309
24.37695,139072
24.38507,105780
24.39320,82040
24.40132,67875
24.40943,65928
24.41757,62827
24.42568,59120
24.43382,59393
24.44193,59343
24.45005,69714
24.45818,65119
24.46630,65410
24.47443,67729
24.48255,64651
24.49067,60529
24.49880,60967
24.50692,60121
24.51503,53181
24.52317,59330
24.53128,49438
24.53942,54990
24.54753,50502
24.55565,51990
24.56378,49445
24.57190,49215
24.58003,52774
24.58815,51258
24.59627,52080
24.60440,52058
24.61252,51434
24.62065,48327
24.62877,48540
24.63688,47092
24.64502,44797
24.65313,50395
24.66125,49155
24.66938,47382
24.67750,49614
24.68563,47009
24.69375,42474
24.70187,45718
24.71000,45647
24.71812,43316
24.72625,46163
24.73437,43309
24.74248,42470
24.75062,44238
24.75873,48811
24.76687,45663
24.77498,43732
24.78310,48161
24.79123,47875
24.79935,43749
24.80747,44766
24.81560,45214
24.82372,40412
24.83185,44248
24.83997,47121
24.84808,42664
24.85622,46729
24.86433,44968
24.87247,44162
24.88058,42727
24.88870,46509
24.89683,42298
24.90495,40558
24.91307,44097
24.92120,45832
24.92932,40093
24.93745,42912
24.94557,44384
24.95368,41855
24.96182,42242
24.96993,43613
24.97807,42714
24.98618,41441
24.99430,41967
25.00243,39232
25.01055,40477
25.01868,40997
25.02680,45086
25.03492,40454
25.04305,42230
25.05117,40278
25.05928,41170
25.06742,40311
25.07553,40362
25.08367,46074
25.09178,39791
25.09990,42418
25.10803,37880
25.11615,42518
25.12428,43435
25.13240,45247
25.14052,42552
25.14865,40051
25.15677,41994
25.16488,45644
25.17302,46801
25.18113,44851
25.18927,41521
25.19738,42674
25.20550,40069
25.21363,40881
25.22175,41348
25.22988,38823
25.23800,42985
25.24612,41152
25.25425,40627
25.26237,39194
25.27050,42804
25.27862,45532
25.28673,45191
25.29487,51213
25.30298,49692
25.31110,49504
25.31923,51363
25.32735,50590
25.33548,48728
25.34360,43590
25.35172,40929
25.35985,43742
25.36797,39415
25.37610,36317
25.38422,38800
25.39233,37633
25.40047,39574
25.40858,39744
25.41672,41603
25.42483,40568
25.43295,42723
25.44108,43573
25.44920,43931
25.45732,40603
25.46545,37750
25.47357,40368
25.48170,43195
25.48982,39032
25.49793,40836
25.50607,38558
25.51418,37439
25.52232,39401
25.53043,39181
25.53855,38722
25.54668,35421
25.55480,39627
25.56292,37815
25.57105,37500
25.57917,37705
25.58730,37979
25.59542,35709
25.60353,37016
25.61167,34671
25.61978,34688
25.62792,37229
25.63603,36806
25.64415,35998
25.65228,33508
25.66040,33055
25.66853,36572
25.67665,36675
25.68477,37908
25.69290,34645
25.70102,33916
25.70913,31381
25.71727,34737
25.72538,34561
25.73352,37287
25.74163,34590
25.74975,39002
25.75788,39871
25.76600,35775
25.77413,34781
25.78225,35122
25.79037,39520
25.79850,36072
25.80662,35292
25.81475,35720
25.82287,35728
25.83098,35944
25.83912,34999
25.84723,32149
25.85535,34849
25.86348,31154
25.87160,33767
25.87973,33359
25.88785,35880
25.89597,32685
25.90410,34347
25.91222,33119
25.92035,35383
25.92847,37165
25.93658,30843
25.94472,32460
25.95283,33596
25.96095,33406
25.96908,31410
25.97720,34852
25.98533,33558
25.99345,31839
26.00157,31612
26.00970,31160
26.01782,34797
26.02595,35595
26.03407,37442
26.04218,33514
26.05032,33441
26.05843,30868
26.06657,35100
26.07468,32247
26.08280,36847
26.09093,32723
26.09905,37777
26.10717,36590
26.11530,39010
26.12342,44206
26.13155,45042
26.13967,44665
26.14778,45760
26.15592,42588
26.16403,42145
26.17217,38472
26.18028,38967
26.18840,40860
26.19653,36493
26.20465,38814
26.21277,41459
26.22090,33235
26.22902,37352
26.23715,36446
26.24527,38239
26.25338,36619
26.26152,37330
26.26963,33985
26.27777,35445
26.28588,34427
26.29400,36692
26.30213,35011
26.31025,35570
26.31838,32716
26.32650,33312
26.33462,34623
26.34275,33583
26.35087,32809
26.35898,33803
26.36712,36459
26.37523,36466
26.38337,36362
26.39148,34584
26.39960,33038
26.40773,36436
26.41585,38279
26.42398,37970
26.43210,36258
26.44022,35615
26.44835,33399
26.45647,37100
26.46460,35521
26.47272,33871
26.48083,38297
26.48897,37147
26.49708,35513
26.50520,33990
26.51333,34626
26.52145,33166
26.52958,35084
26.53770,34874
26.54582,31064
26.55395,36495
26.56207,34944
26.57020,37246
26.57832,33059
26.58643,34364
26.59457,35253
26.60268,39661
26.61082,36985
26.61893,33953
26.62705,33087
26.63518,33903
26.64330,36897
26.65142,36205
26.65955,34383
26.66767,36764
26.67580,35815
26.68392,36210
26.69203,36617
26.70017,39443
26.70828,35180
26.71642,36569
26.72453,37070
26.73265,36266
26.74078,39998
26.74890,40017
26.75702,34917
26.76515,39407
26.77327,35882
26.78140,36055
26.78952,38362
26.79763,38719
26.80577,36422
26.81388,37125
26.82202,41773
26.83013,40436
26.83825,39256
26.84638,35241
26.85450,36786
26.86263,34780
26.87075,35623
26.87887,37932
26.88700,33536
26.89512,39240
26.90323,35142
26.91137,39179
26.91948,38516
26.92762,41753
26.93573,46566
26.94385,59033
26.95198,91371
26.96010,153584
26.96823,248679
26.97635,420589
26.98447,656502
26.99260,882321
27.00072,1099305
27.00883,1206962
27.01697,1155153
27.02508,975135
27.03322,741129
27.04133,574129
27.04945,445306
27.05758,338989
27.06570,271676
27.07383,218669
27.08195,199141
27.09007,167362
27.09820,146715
27.10632,136594
27.11445,129709
27.12257,112697
27.13068,105525
27.13882,97495
27.14693,94369
27.15505,89990
27.16318,88815
27.17130,82553
27.17943,78522
27.18755,74839
27.19567,72720
27.20380,69618
27.21192,69732
27.22005,68515
27.22817,66333
27.23628,63869
27.24442,61219
27.25253,66519
27.26067,60122
27.26878,59533
27.27690,58418
27.28503,58856
27.29315,54344
27.30127,53708
27.30940,54828
27.31752,53107
27.32565,49834
27.33377,52481
27.34188,51639
27.35002,52239
27.35813,52158
27.36627,53962
27.37438,49497
27.38250,43837
27.39063,46321
27.39875,49693
27.40687,47935
27.41500,45398
27.42312,46021
27.43125,50740
27.43937,51570
27.44748,50136
27.45562,45684
27.46373,46257
27.47187,47888
27.47998,48231
27.48810,48397
27.49623,46890
27.50435,43783
27.51248,44218
27.52060,43238
27.52872,45986
27.53685,47698
27.54497,43466
27.55308,44628
27.56122,39664
27.56933,41370
27.57747,42655
27.58558,43860
27.59370,41116
27.60183,44550
27.60995,39150
27.61808,40048
27.62620,42033
27.63432,42701
27.64245,41086
27.65057,37367
27.65870,40492
27.66682,39785
27.67493,41988
27.68307,38097
27.69118,43540
27.69930,39594
27.70743,42824
27.71555,42439
27.72368,45130
27.73180,50236
27.73992,54366
27.74805,57493
27.75617,60432
27.76430,54965
27.77242,47353
27.78053,44995
27.78867,46341
27.79678,41607
27.80490,38875
27.81303,39524
27.82115,41944
27.82928,43797
27.83740,41218
27.84552,37937
27.85365,37943
27.86177,40908
27.86990,36614
27.87802,37428
27.88613,43110
27.89427,40279
27.90238,39829
27.91052,39805
27.91863,37878
27.92675,38967
27.93488,38512
27.94300,40090
27.95112,43410
27.95925,41399
27.96737,42324
27.97550,49207
27.98362,45926
27.99173,46684
27.99987,45008
28.00798,45457
28.01612,40759
28.02423,38602
28.03235,38978
28.04048,36044
28.04860,43183
28.05672,42522
28.06485,42387
28.07297,49493
28.08110,58094
28.08922,64932
28.09733,81094
28.10547,91269
28.11358,93270
28.12172,91335
28.12983,85500
28.13795,65290
28.14608,59480
28.15420,55287
28.16233,51554
28.17045,47371
28.17857,43945
28.18670,41993
28.19482,43352
28.20293,40187
28.21107,39675
28.21918,39641
28.22732,41539
28.23543,40739
28.24355,47639
28.25168,59983
28.25980,78407
28.26793,114111
28.27605,155443
28.28417,212086
28.29230,281589
28.30042,349967
28.30855,395405
28.31667,424972
28.32478,445602
28.33292,446052
28.34103,426449
28.34915,402696
28.35728,360474
28.36540,320065
28.37353,282613
28.38165,260818
28.38977,222359
28.39790,195998
28.40602,166014
28.41415,152518
28.42227,141212
28.43038,122222
28.43852,114984
28.44663,106945
28.45475,100963
28.46288,90772
28.47100,91410
28.47913,87744
28.48725,79670
28.49537,80293
28.50350,79115
28.51162,76682
28.51975,73725
28.52787,73843
28.53598,70694
28.54412,68570
28.55223,72953
28.56037,68335
28.56848,62627
28.57660,62294
28.58473,63528
28.59285,57661
28.60097,64032
28.60910,59143
28.61722,58997
28.62535,57666
28.63347,65986
28.64158,60137
28.64972,64393
28.65783,65146
28.66597,66159
28.67408,67808
28.68220,62675
28.69033,63477
28.69845,69802
28.70658,77151
28.71470,90215
28.72282,103765
28.73095,107567
28.73907,97346
28.74718,80973
28.75532,71280
28.76343,61142
28.77157,53704
28.77968,51447
28.78780,50539
28.79593,50652
28.80405,49601
28.81218,47793
28.82030,46283
28.82842,48798
28.83655,49935
28.84467,51253
28.85278,44423
28.86092,45898
28.86903,43818
28.87717,46333
28.88528,48872
28.89340,44912
28.90153,48603
28.90965,45911
28.91778,49931
28.92590,46957
28.93402,51500
28.94215,50719
28.95027,46238
28.95840,46264
28.96652,45613
28.97463,45669
28.98277,45377
28.99088,47453
28.99900,45250
29.00713,45583
29.01525,45240
29.02338,47136
29.03150,48007
29.03962,47329
29.04775,46440
29.05587,45279
29.06400,44853
29.07212,46680
29.08023,45353
29.08837,40651
29.09648,46305
29.10460,45459
29.11273,42989
29.12085,44377
29.12898,42022
29.13710,40615
29.14522,42441
29.15335,44450
29.16147,44112
29.16960,43671
29.17772,46852
29.18583,47516
29.19397,43392
29.20208,44450
29.21022,46012
29.21833,43428
29.22645,50339
29.23458,49658
29.24270,46045
29.25082,52732
29.25895,45663
29.26707,54968
29.27520,50835
29.28332,51657
29.29143,48795
29.29957,45633
29.30768,43506
29.31582,43679
29.32393,49270
29.33205,50840
29.34018,43263
29.34830,46631
29.35643,44946
29.36455,42012
29.37267,46630
29.38080,43813
29.38892,44774
29.39703,40295
29.40517,42350
29.41328,41510
29.42142,43689
29.42953,46567
29.43765,41541
29.44578,47310
29.45390,40861
29.46203,41182
29.47015,43986
29.47827,44112
29.48640,43441
29.49452,43968
29.50263,50254
29.51077,46389
29.51888,47927
29.52702,44994
29.53513,43500
29.54325,43633
29.55138,45702
29.55950,45276
29.56763,49039
29.57575,54940
29.58387,61371
29.59200,61073
29.60012,65335
29.60825,63821
29.61637,58345
29.62448,55390
29.63262,50162
29.64073,42001
29.64885,45665
29.65698,44191
29.66510,45719
29.67323,40949
29.68135,44952
29.68947,44251
29.69760,39636
29.70572,41685
29.71385,42500
29.72197,45475
29.73008,40761
29.73822,42056
29.74633,43128
29.75447,41393
29.76258,40412
29.77070,37582
29.77883,38663
29.78695,42857
29.79507,38349
29.80320,41791
29.81132,40412
29.81945,36641
29.82757,39217
29.83568,43437
29.84382,42719
29.85193,40033
29.86007,43446
29.86818,46450
29.87630,57063
29.88443,63442
29.89255,78645
29.90067,92157
29.90880,114295
29.91692,131144
29.92505,151954
29.93317,166253
29.94128,189710
29.94942,213886
29.95753,220197
29.96567,216118
29.97378,221425
29.98190,210056
29.99003,210796
29.99815,191516
30.00628,174177
30.01440,168677
30.02252,140688
30.03065,139026
30.03877,126710
30.04688,111758
30.05502,117330
30.06313,101879
30.07127,94332
30.07938,88056
30.08750,87533
30.09563,78425
30.10375,79564
30.11188,79893
30.12000,71422
30.12812,71278
30.13625,66682
30.14437,70970
30.15250,68510
30.16062,63368
30.16873,61449
30.17687,63719
30.18498,57521
30.19310,58762
30.20123,54437
30.20935,54511
30.21748,62705
30.22560,54569
30.23372,53362
30.24185,54672
30.24997,52648
30.25810,52766
30.26622,54172
30.27433,52378
30.28247,48867
30.29058,50587
30.29870,54985
30.30683,53316
30.31495,47658
30.32308,48733
30.33120,52881
30.33932,49310
30.34745,50219
30.35557,47337
30.36370,50746
30.37182,48765
30.37993,48817
30.38807,46293
30.39618,48204
30.40432,49534
30.41243,47924
30.42055,48155
30.42868,47604
30.43680,49206
30.44492,43546
30.45305,44149
30.46117,48594
30.46930,45784
30.47742,43415
30.48553,48502
30.49367,46790
30.50178,46253
30.50992,45450
30.51803,45493
30.52615,47627
30.53428,47219
30.54240,45672
30.55052,47207
30.55865,43207
30.56677,42499
30.57490,46200
30.58302,42788
30.59113,43987
30.59927,44270
30.60738,42090
30.61552,40904
30.62363,42187
30.63175,45276
30.63988,41782
30.64800,43467
30.65613,47501
30.66425,42867
30.67237,45562
30.68050,43428
30.68862,48370
30.69673,43324
30.70487,41980
30.71298,41105
30.72112,45463
30.72923,43471
30.73735,41867
30.74548,48885
30.75360,40320
30.76173,43353
30.76985,40982
30.77797,43696
30.78610,45910
30.79422,45161
30.80235,45682
30.81047,44625
30.81858,44780
30.82672,46592
30.83483,43569
30.84295,42707
30.85108,44563
30.85920,43556
30.86733,43456
30.87545,40387
30.88357,42842
30.89170,45897
30.89982,41213
30.90795,47151
30.91607,41333
30.92418,40755
30.93232,40492
30.94043,39645
30.94855,37881
30.95668,41698
30.96480,45312
30.97293,39525
30.98105,42445
30.98917,37786
30.99730,40334
31.00542,41639
31.01355,46742
31.02167,46332
31.02978,40264
31.03792,42850
31.04603,43068
31.05417,39653
31.06228,42341
31.07040,44380
31.07853,47672
31.08665,48941
31.09477,47708
31.10290,47979
31.11102,45982
31.11915,47945
31.12727,45769
31.13538,47200
31.14352,47252
31.15163,50194
31.15977,50878
31.16788,63306
31.17600,73358
31.18413,99323
31.19225,129188
31.20038,151609
31.20850,175687
31.21662,178822
31.22475,170191
31.23287,140043
31.24098,109494
31.24912,80093
31.25723,60433
31.26537,53681
31.27348,49770
31.28160,47812
31.28973,44071
31.29785,46759
31.30598,44010
31.31410,42173
31.32222,42965
31.33035,46862
31.33847,47355
31.34658,46349
31.35472,42802
31.36283,42686
31.37097,47339
31.37908,51753
31.38720,48115
31.39533,41009
31.40345,42309
31.41158,40687
31.41970,44201
31.42782,44596
31.43595,40800
31.44407,43904
31.45220,41089
31.46032,38352
31.46843,42949
31.47657,43290
31.48468,43445
31.49280,42657
31.50093,44085
31.50905,46757
31.51718,39360
31.52530,41392
31.53342,45560
31.54155,40341
31.54967,41173
31.55780,44009
31.56592,44868
31.57403,42522
31.58217,42924
31.59028,43785
31.59840,38198
31.60653,39012
31.61465,44412
31.62278,44859
31.63090,45045
31.63902,44308
31.64715,44882
31.65527,46448
31.66340,46435
31.67152,46474
31.67963,50189
31.68777,53476
31.69588,55294
31.70402,53410
31.71213,50605
31.72025,47164
31.72838,42255
31.73650,44403
31.74462,40124
31.75275,42824
31.76087,44143
31.76900,40687
31.77712,44879
31.78523,42090
31.79337,44710
31.80148,44924
31.80962,45601
31.81773,48530
31.82585,49708
31.83398,53775
31.84210,62771
31.85023,75525
31.85835,88232
31.86647,92639
31.87460,105841
31.88272,122720
31.89083,126658
31.89897,125121
31.90708,128663
31.91522,126507
31.92333,125168
31.93145,122019
31.93958,115405
31.94770,105012
31.95583,103011
31.96395,95494
31.97207,85696
31.98020,82759
31.98832,82710
31.99645,77764
32.00457,75708
32.01268,73925
32.02082,76632
32.02893,70303
32.03705,59366
32.04518,65423
32.05330,58010
32.06143,65892
32.06955,55613
32.07767,60563
32.08580,50352
32.09392,54652
32.10205,51416
32.11017,54393
32.11828,52853
32.12642,51004
32.13453,52943
32.14265,49918
32.15078,46866
32.15890,51147
32.16703,50599
32.17515,53957
32.18327,49180
32.19140,47215
32.19952,51420
32.20765,49760
32.21577,46298
32.22388,47092
32.23202,49472
32.24013,47534
32.24827,49615
32.25638,44551
32.26450,50645
32.27263,48821
32.28075,45268
32.28887,48764
32.29700,47437
32.30512,48912
32.31325,44750
32.32137,45144
32.32948,46042
32.33762,45984
32.34573,45518
32.35387,45896
32.36198,45084
32.37010,49211
32.37823,45092
32.38635,42351
32.39447,46332
32.40260,46767
32.41072,43857
32.41885,42908
32.42697,47025
32.43508,44273
32.44322,48038
32.45133,43562
32.45947,46019
32.46758,45626
32.47570,39871
32.48383,44703
32.49195,44019
32.50008,48265
32.50820,41296
32.51632,42754
32.52445,46599
32.53257,44564
32.54068,44204
32.54882,45759
32.55693,45213
32.56507,47257
32.57318,50513
32.58130,53290
32.58943,51647
32.59755,63725
32.60568,72193
32.61380,76510
32.62192,81295
32.63005,70893
32.63817,64818
32.64630,56375
32.65442,56483
32.66253,46994
32.67067,46840
32.67878,49395
32.68690,48696
32.69503,49740
32.70315,47267
32.71128,46773
32.71940,46851
32.72752,43947
32.73565,47952
32.74377,47154
32.75190,46119
32.76002,45940
32.76813,46347
32.77627,46388
32.78438,44491
32.79250,45815
32.80063,42970
32.80875,45366
32.81688,43470
32.82500,46223
32.83312,45187
32.84125,50164
32.84937,42768
32.85750,40227
32.86562,45514
32.87373,43192
32.88187,41683
32.88998,41846
32.89812,46686
32.90623,44563
32.91435,45316
32.92248,43644
32.93060,47937
32.93872,42113
32.94685,44868
32.95497,41084
32.96310,44874
32.97122,44757
32.97933,47527
32.98747,41798
32.99558,48551
33.00372,43007
33.01183,42069
33.01995,47352
33.02808,45911
33.03620,44256
33.04433,45855
33.05245,44846
33.06057,44332
33.06870,45175
33.07682,46134
33.08493,47003
33.09307,47950
33.10118,56762
33.10932,58957
33.11743,62461
33.12555,58997
33.13368,55630
33.14180,54087
33.14993,50698
33.15805,45578
33.16617,44208
33.17430,46135
33.18242,50143
33.19053,42149
33.19867,48414
33.20678,47003
33.21492,41137
33.22303,46091
33.23115,47165
33.23928,44245
33.24740,42752
33.25553,42718
33.26365,46214
33.27177,44678
33.27990,42574
33.28802,41566
33.29615,42236
33.30427,42849
33.31238,42476
33.32052,44384
33.32863,46793
33.33675,49199
33.34488,41113
33.35300,43936
33.36113,45991
33.36925,40070
33.37737,44194
33.38550,41994
33.39362,46426
33.40175,42075
33.40987,44762
33.41798,44044
33.42612,42593
33.43423,43006
33.44235,43960
33.45048,43580
33.45860,44222
33.46673,43022
33.47485,44624
33.48297,42743
33.49110,45051
33.49922,43707
33.50735,49770
33.51547,45315
33.52358,45133
33.53172,45019
33.53983,42808
33.54797,46544
33.55608,46150
33.56420,48465
33.57233,45899
33.58045,42701
33.58857,44257
33.59670,41349
33.60482,45760
33.61295,43412
33.62107,44992
33.62918,38467
33.63732,45583
33.64543,45037
33.65357,43064
33.66168,47909
33.66980,46771
33.67793,44831
33.68605,42136
33.69418,43170
33.70230,41600
33.71042,46511
33.71855,46169
33.72667,43980
33.73478,44936
33.74292,49079
33.75103,49361
33.75917,52886
33.76728,47817
33.77540,50933
33.78353,48211
33.79165,50544
33.79978,49257
33.80790,49822
33.81602,52982
33.82415,50162
33.83227,53306
33.84038,46988
33.84852,47992
33.85663,54944
33.86477,53263
33.87288,56112
33.88100,55888
33.88913,58647
33.89725,57241
33.90538,58949
33.91350,59685
33.92162,56788
33.92975,55802
33.93787,59413
33.94600,57548
33.95412,56465
33.96223,58304
33.97037,55337
33.97848,53581
33.98660,57503
33.99473,59558
34.00285,58909
34.01098,55987
34.01910,58621
34.02722,58455
34.03535,55219
34.04347,56926
34.05160,57019
34.05972,55291
34.06783,51424
34.07597,48906
34.08408,51903
34.09222,53708
34.10033,54486
34.10845,55894
34.11658,52658
34.12470,53713
34.13282,52725
34.14095,49958
34.14907,49071
34.15720,51491
34.16532,48491
34.17343,49359
34.18157,50368
34.18968,52665
34.19782,50770
34.20593,49754
34.21405,50656
34.22218,50267
34.23030,50180
34.23842,49723
34.24655,50030
34.25467,49300
34.26280,51259
34.27092,50652
34.27903,49997
34.28717,51776
34.29528,55181
34.30342,54137
34.31153,50105
34.31965,52890
34.32778,51796
34.33590,53982
34.34403,53747
34.35215,52976
34.36027,55610
34.36840,56359
34.37652,50923
34.38463,52770
34.39277,48446
34.40088,52296
34.40902,48920
34.41713,53102
34.42525,50999
34.43338,56774
34.44150,58210
34.44963,62064
34.45775,72536
34.46587,80159
34.47400,99247
34.48212,110752
34.49025,117730
34.49837,131230
34.50648,133956
34.51462,123421
34.52273,118173
34.53085,110974
34.53898,107627
34.54710,94916
34.55523,87306
34.56335,78557
34.57147,76875
34.57960,73038
34.58772,73494
34.59585,65723
34.60397,71043
34.61208,69818
34.62022,72945
34.62833,67029
34.63645,65480
34.64458,66647
34.65270,69686
34.66083,64241
34.66895,67631
34.67707,70917
34.68520,69618
34.69332,66918
34.70145,64691
34.70957,64785
34.71768,63063
34.72582,62207
34.73393,63391
34.74207,65431
34.75018,67959
34.75830,67205
34.76643,65417
34.77455,64041
34.78267,66280
34.79080,64804
34.79892,59161
34.80705,62469
34.81517,58009
34.82328,59212
34.83142,64023
34.83953,63997
34.84767,59784
34.85578,59342
34.86390,59901
34.87203,59159
34.88015,61261
34.88827,60999
34.89640,61677
34.90452,59560
34.91265,55641
34.92077,57882
34.92888,58659
34.93702,60290
34.94513,55615
34.95327,58427
34.96138,61261
34.96950,57397
34.97763,59346
34.98575,60208
34.99388,56718
35.00200,56367
35.01012,57662
35.01825,56013
35.02637,56665
35.03448,56901
35.04262,58139
35.05073,59034
35.05887,55530
35.06698,56404
35.07510,58798
35.08323,59744
35.09135,58737
35.09948,56494
35.10760,59747
35.11572,59317
35.12385,56364
35.13197,57887
35.14010,57868
35.14822,58898
35.15633,61132
35.16447,57519
35.17258,56235
35.18070,54029
35.18883,58255
35.19695,59922
35.20508,54418
35.21320,57134
35.22132,58868
35.22945,58082
35.23757,60135
35.24570,54774
35.25382,57166
35.26193,58301
35.27007,58764
35.27818,58500
35.28630,56753
35.29443,54202
35.30255,57595
35.31068,58868
35.31880,56788
35.32692,56896
35.33505,55758
35.34317,60579
35.35130,60084
35.35942,57255
35.36753,55685
35.37567,59349
35.38378,58722
35.39192,59715
35.40003,58825
35.40815,56150
35.41628,57923
35.42440,61861
35.43252,61186
35.44065,57879
35.44877,56824
35.45690,67533
35.46502,61515
35.47313,67005
35.48127,62501
35.48938,63456
35.49752,60956
35.50563,57419
35.51375,58787
35.52188,56979
35.53000,53161
35.53813,62300
35.54625,59779
35.55437,61128
35.56250,65432
35.57062,58499
35.57873,60283
35.58687,57109
35.59498,60911
35.60312,61337
35.61123,60684
35.61935,64392
35.62748,66615
35.63560,62726
35.64373,57771
35.65185,60054
35.65997,61097
35.66810,63637
35.67622,59673
35.68433,61929
35.69247,59314
35.70058,58466
35.70872,59565
35.71683,57953
35.72495,54874
35.73308,60143
35.74120,57499
35.74933,58236
35.75745,60506
35.76557,57440
35.77370,57039
35.78182,60075
35.78995,57380
35.79807,59628
35.80618,60589
35.81432,60773
35.82243,62465
35.83055,62189
35.83868,58155
35.84680,61755
35.85493,66757
35.86305,62712
35.87117,62649
35.87930,60046
35.88742,62246
35.89555,62052
35.90367,59449
35.91178,62752
35.91992,60130
35.92803,57598
35.93615,67327
35.94428,64124
35.95240,60640
35.96053,60984
35.96865,62210
35.97677,63272
35.98490,64657
35.99302,65608
36.00115,61467
36.00927,67244
36.01738,66750
36.02552,67372
36.03363,68968
36.04177,70040
36.04988,64808
36.05800,65748
36.06613,69048
36.07425,69185
36.08237,60835
36.09050,66385
36.09862,61848
36.10675,65258
36.11487,61135
36.12298,65278
36.13112,62270
36.13923,59922
36.14737,65783
36.15548,65730
36.16360,60393
36.17173,63484
36.17985,57959
36.18798,60665
36.19610,63589
36.20422,61743
36.21235,63521
36.22047,66178
36.22858,71911
36.23672,74260
36.24483,84740
36.25297,90980
36.26108,97160
36.26920,100388
36.27733,97896
36.28545,87737
36.29358,73841
36.30170,73635
36.30982,64025
36.31795,65739
36.32607,68287
36.33418,63605
36.34232,67491
36.35043,68714
36.35857,61705
36.36668,64416
36.37480,65342
36.38293,64550
36.39105,68662
36.39918,67502
36.40730,69800
36.41542,64281
36.42355,63735
36.43167,65800
36.43980,67458
36.44792,71613
36.45603,66920
36.46417,64169
36.47228,67153
36.48040,64113
36.48853,68812
36.49665,62608
36.50478,67319
36.51290,67303
36.52102,69137
36.52915,67567
36.53727,61842
36.54540,65744
36.55352,67612
36.56163,66329
36.56977,67849
36.57788,67727
36.58602,70650
36.59413,65682
36.60225,65986
36.61038,70731
36.61850,72156
36.62662,63790
36.63475,69146
36.64287,65192
36.65100,65084
36.65912,68305
36.66723,66774
36.67537,69499
36.68348,71623
36.69162,62208
36.69973,67482
36.70785,66912
36.71598,65919
36.72410,67929
36.73222,65595
36.74035,69928
36.74847,68859
36.75660,65856
36.76472,70155
36.77283,64215
36.78097,67735
36.78908,65010
36.79722,66724
36.80533,66984
36.81345,67469
36.82158,67954
36.82970,67012
36.83783,63555
36.84595,69107
36.85407,67509
36.86220,63964
36.87032,65818
36.87843,69157
36.88657,71407
36.89468,67922
36.90282,72295
36.91093,69854
36.91905,71098
36.92718,66679
36.93530,66286
36.94343,69759
36.95155,74349
36.95967,70095
36.96780,71035
36.97592,72164
36.98403,79094
36.99217,94732
37.00028,112537
37.00842,141586
37.01653,169273
37.02465,192429
37.03278,198543
37.04090,181316
37.04903,155539
37.05715,131736
37.06527,111784
37.07340,91099
37.08152,87586
37.08965,77156
37.09777,81187
37.10588,80345
37.11402,75381
37.12213,72811
37.13025,76269
37.13838,70228
37.14650,78858
37.15463,75119
37.16275,73415
37.17087,79362
37.17900,75606
37.18712,72975
37.19525,74535
37.20337,76086
37.21148,73480
37.21962,73950
37.22773,70699
37.23587,76504
37.24398,78223
37.25210,80841
37.26023,88032
37.26835,99082
37.27647,109694
37.28460,125951
37.29272,135037
37.30085,139946
37.30897,145236
37.31708,136233
37.32522,127516
37.33333,116160
37.34147,116387
37.34958,103303
37.35770,100733
37.36583,94021
37.37395,95752
37.38208,91903
37.39020,91542
37.39832,89926
37.40645,86590
37.41457,88161
37.42268,89618
37.43082,87574
37.43893,89549
37.44707,87403
37.45518,82261
37.46330,84552
37.47143,87237
37.47955,89056
37.48768,83423
