C:\MassHunter\GCMS\1\data\JTB-E02\BACandBLUE\JTB-E18-012-09.D Wed Jun 19 09:54:11 2019
Start of data points
2.09520,75121
2.10332,73423
2.11143,71436
2.11957,75183
2.12768,72418
2.13582,73087
2.14393,67485
2.15205,66663
2.16018,69308
2.16830,70489
2.17642,63098
2.18455,62798
2.19267,63737
2.20080,61200
2.20892,60525
2.21703,59846
2.22517,62722
2.23328,58247
2.24142,56848
2.24953,56889
2.25765,55491
2.26578,57313
2.27390,138003
2.28203,719948
2.29015,1138864
2.29827,615088
2.30640,334953
2.31452,254201
2.32263,214089
2.33077,188876
2.33888,174416
2.34702,167793
2.35513,147387
2.36325,147793
2.37138,134392
2.37950,126316
2.38763,125063
2.39575,119106
2.40387,117898
2.41200,112174
2.42012,116007
2.42823,116434
2.43637,115768
2.44448,113028
2.45262,114391
2.46073,117676
2.46885,102593
2.47698,107961
2.48510,103821
2.49323,106091
2.50135,113328
2.50947,117399
2.51760,103503
2.52572,100047
2.53385,102904
2.54197,102825
2.55008,101608
2.55822,109791
2.56633,164657
2.57445,219973
2.58258,183497
2.59070,143242
2.59883,133359
2.60695,154834
2.61507,536051
2.62320,1320127
2.63132,1110032
2.63945,578124
2.64757,383509
2.65568,299569
2.66382,245146
2.67193,205624
2.68007,181273
2.68818,169865
2.69630,152823
2.70443,149404
2.71255,136281
2.72067,139897
2.72880,135352
2.73692,130885
2.74505,126983
2.75317,122685
2.76128,121776
2.76942,116630
2.77753,119040
2.78567,161095
2.79378,377899
2.80190,530648
2.81003,367124
2.81815,258435
2.82628,230999
2.83440,225790
2.84252,186030
2.85065,168724
2.85877,154485
2.86688,143195
2.87502,136931
2.88313,135113
2.89127,123921
2.89938,124844
2.90750,113960
2.91563,112480
2.92375,113048
2.93188,114625
2.94000,109370
2.94812,103835
2.95625,105552
2.96437,113390
2.97248,122851
2.98062,135168
2.98873,121958
2.99687,116471
3.00498,112407
3.01310,114904
3.02123,113201
3.02935,110732
3.03748,97927
3.04560,99131
3.05372,99524
3.06185,97091
3.06997,96632
3.07810,97485
3.08622,164983
3.09433,954643
3.10247,3509024
3.11058,5656462
3.11870,6155952
3.12683,5858771
3.13495,3992630
3.14308,2527891
3.15120,1874024
3.15932,1484785
3.16745,1210958
3.17557,1015903
3.18370,912812
3.19182,869427
3.19993,1093037
3.20807,1574771
3.21618,1511525
3.22430,1126567
3.23243,890533
3.24055,756905
3.24868,653650
3.25680,593885
3.26492,526544
3.27305,481813
3.28117,449288
3.28930,427619
3.29742,491177
3.30553,1150384
3.31367,3321216
3.32178,6351892
3.32992,7379432
3.33803,5774812
3.34615,3791598
3.35428,2639351
3.36240,1990340
3.37052,1613849
3.37865,1390447
3.38677,1207446
3.39490,1048769
3.40302,965003
3.41113,891108
3.41927,799436
3.42738,759882
3.43552,724033
3.44363,696098
3.45175,666696
3.45988,631336
3.46800,597313
3.47613,582573
3.48425,604998
3.49237,606510
3.50050,562657
3.50862,511556
3.51673,491728
3.52487,473800
3.53298,435003
3.54112,412380
3.54923,392689
3.55735,378272
3.56548,339103
3.57360,328156
3.58173,368335
3.58985,466338
3.59797,478805
3.60610,410290
3.61422,375091
3.62233,362498
3.63047,393341
3.63858,409067
3.64672,409219
3.65483,414063
3.66295,420622
3.67108,518379
3.67920,1547739
3.68733,5628844
3.69545,1.070352E+07
3.70357,1.067773E+07
3.71170,6907682
3.71982,4259030
3.72795,3201105
3.73607,2620043
3.74418,2231438
3.75232,1979369
3.76043,1763485
3.76855,1593938
3.77668,1462159
3.78480,1376374
3.79293,1286657
3.80105,1197466
3.80917,1175292
3.81730,1301100
3.82542,1854389
3.83355,2395667
3.84167,2213354
3.84978,1702400
3.85792,1371180
3.86603,1214448
3.87417,1121074
3.88228,1019362
3.89040,960001
3.89853,887614
3.90665,832720
3.91477,788336
3.92290,756568
3.93102,759224
3.93915,839999
3.94727,915559
3.95538,1001440
3.96352,1878850
3.97163,5232368
3.97977,1.045652E+07
3.98788,1.250453E+07
3.99600,9596680
4.00413,6158227
4.01225,7472950
4.02037,1.819283E+07
4.02850,3.460416E+07
4.03662,4.153551E+07
4.04475,3.323836E+07
4.05287,1.921262E+07
4.06098,1.044283E+07
4.06912,6784740
4.07723,5069352
4.08537,4043089
4.09348,3340188
4.10160,2803826
4.10973,2435518
4.11785,2173840
4.12598,1957190
4.13410,1824953
4.14222,1647479
4.15035,1556440
4.15847,1528663
4.16658,1525178
4.17472,1462387
4.18283,1342270
4.19097,1243514
4.19908,1167642
4.20720,1078626
4.21533,1002803
4.22345,1251801
4.23158,2988905
4.23970,7638581
4.24782,1.323668E+07
4.25595,1.576188E+07
4.26407,1.318824E+07
4.27218,8479799
4.28032,5498425
4.28843,4025264
4.29657,3119094
4.30468,2525161
4.31280,2152517
4.32093,1885225
4.32905,1715483
4.33718,1548955
4.34530,1442838
4.35342,1312190
4.36155,1233302
4.36967,1193984
4.37780,1157937
4.38592,1151182
4.39403,1093125
4.40217,1005289
4.41028,926528
4.41840,874283
4.42653,845408
4.43465,801974
4.44278,761298
4.45090,737295
4.45902,687689
4.46715,663557
4.47527,628835
4.48340,610565
4.49152,584371
4.49963,575018
4.50777,560169
4.51588,545614
4.52402,533253
4.53213,533182
4.54025,533192
4.54838,532658
4.55650,523849
4.56462,532861
4.57275,541710
4.58087,527883
4.58900,511078
4.59712,502166
4.60523,474808
4.61337,462336
4.62148,468104
4.62962,453167
4.63773,491463
4.64585,577333
4.65398,744626
4.66210,840209
4.67022,788655
4.67835,662847
4.68647,560848
4.69460,533042
4.70272,504498
4.71083,488883
4.71897,441087
4.72708,450157
4.73522,425909
4.74333,404288
4.75145,407911
4.75958,391748
4.76770,384287
4.77583,381858
4.78395,363693
4.79207,370133
4.80020,367210
4.80832,418342
4.81643,553209
4.82457,693008
4.83268,714526
4.84082,613040
4.84893,534042
4.85705,519718
4.86518,515149
4.87330,507874
4.88143,493051
4.88955,456049
4.89767,440249
4.90580,407867
4.91392,388473
4.92205,373972
4.93017,374721
4.93828,358309
4.94642,390195
4.95453,545620
4.96265,1071605
4.97078,2206922
4.97890,3631378
4.98703,4473315
4.99515,4205450
5.00327,3196705
5.01140,2279560
5.01952,1633436
5.02765,1278027
5.03577,1079432
5.04388,999096
5.05202,972277
5.06013,995212
5.06825,954079
5.07638,865930
5.08450,738545
5.09263,681950
5.10075,627472
5.10887,569065
5.11700,531693
5.12512,496875
5.13325,473245
5.14137,455510
5.14948,444230
5.15762,452663
5.16573,476468
5.17387,524834
5.18198,594576
5.19010,625230
5.19823,594609
5.20635,547255
5.21447,534755
5.22260,541292
5.23072,539462
5.23885,514980
5.24697,494956
5.25508,459055
5.26322,457804
5.27133,437988
5.27947,404530
5.28758,393190
5.29570,379114
5.30383,371911
5.31195,370814
5.32007,360505
5.32820,349650
5.33632,359620
5.34445,363154
5.35257,379783
5.36068,386677
5.36882,389712
5.37693,365811
5.38507,340137
5.39318,345854
5.40130,335853
5.40943,358821
5.41755,365804
5.42568,364309
5.43380,348598
5.44192,333076
5.45005,326570
5.45817,318317
5.46628,332317
5.47442,330974
5.48253,351157
5.49067,325853
5.49878,325820
5.50690,307352
5.51503,298830
5.52315,293061
5.53128,294635
5.53940,296449
5.54752,296039
5.55565,294844
5.56377,287722
5.57190,315686
5.58002,362358
5.58813,466972
5.59627,486436
5.60438,465796
5.61250,415328
5.62063,352214
5.62875,321567
5.63688,316184
5.64500,309574
5.65312,320099
5.66125,324493
5.66937,327135
5.67750,314402
5.68562,297041
5.69373,300901
5.70187,318312
5.70998,346396
5.71810,355624
5.72623,334552
5.73435,313184
5.74248,297826
5.75060,282973
5.75872,269228
5.76685,274222
5.77497,259622
5.78310,260786
5.79122,258527
5.79933,259188
5.80747,257025
5.81558,245521
5.82372,247347
5.83183,247938
5.83995,244508
5.84808,247298
5.85620,248706
5.86432,243561
5.87245,239581
5.88057,242227
5.88870,231535
5.89682,238935
5.90493,228850
5.91307,209075
5.92118,178449
5.92932,176440
5.93743,182197
5.94555,189796
5.95368,178310
5.96180,188237
5.96993,200052
5.97805,225455
5.98617,247803
5.99430,278116
6.00242,326836
6.01053,350181
6.01867,341623
6.02678,322114
6.03492,269272
6.04303,255528
6.05115,234791
6.05928,213037
6.06740,194622
6.07553,181448
6.08365,177724
6.09177,178946
6.09990,175574
6.10802,171747
6.11613,165911
6.12427,163538
6.13238,169881
6.14052,191154
6.14863,247709
6.15675,372888
6.16488,486335
6.17300,518386
6.18113,444020
6.18925,359572
6.19737,290528
6.20550,260902
6.21362,240986
6.22175,224782
6.22987,219208
6.23798,211517
6.24612,209440
6.25423,203934
6.26235,212387
6.27048,214017
6.27860,220468
6.28673,222569
6.29485,216358
6.30297,220486
6.31110,207022
6.31922,202717
6.32735,210275
6.33547,209770
6.34358,222816
6.35172,254235
6.35983,266106
6.36797,278420
6.37608,254393
6.38420,236264
6.39233,232298
6.40045,220787
6.40857,217378
6.41670,215322
6.42482,213745
6.43295,214391
6.44107,204556
6.44918,214897
6.45732,201199
6.46543,210735
6.47357,210175
6.48168,205153
6.48980,206875
6.49793,199232
6.50605,215017
6.51417,214000
6.52230,208720
6.53042,214346
6.53855,218829
6.54667,218114
6.55478,216071
6.56292,218452
6.57103,218285
6.57917,225530
6.58728,256575
6.59540,310694
6.60353,346112
6.61165,347370
6.61978,304572
6.62790,259841
6.63602,254071
6.64415,244324
6.65227,238776
6.66038,246380
6.66852,299019
6.67663,473078
6.68477,770131
6.69288,1031889
6.70100,1031103
6.70913,813277
6.71725,574534
6.72538,435025
6.73350,376337
6.74162,337399
6.74975,315912
6.75787,274979
6.76598,261580
6.77412,233737
6.78223,230908
6.79037,212615
6.79848,199501
6.80660,188020
6.81473,183967
6.82285,186484
6.83098,175863
6.83910,171472
6.84722,163108
6.85535,180270
6.86347,178958
6.87160,211921
6.87972,256632
6.88783,290293
6.89597,283493
6.90408,231296
6.91220,182472
6.92033,146057
6.92845,129041
6.93658,117889
6.94470,110672
6.95282,113498
6.96095,103951
6.96907,107622
6.97720,107178
6.98532,119237
6.99343,139204
7.00157,144354
7.00968,139720
7.01782,127794
7.02593,113720
7.03405,112962
7.04218,109529
7.05030,112524
7.05842,111156
7.06655,108768
7.07467,113142
7.08280,117147
7.09092,121395
7.09903,117824
7.10717,107751
7.11528,105168
7.12342,97330
7.13153,94872
7.13965,98858
7.14778,102354
7.15590,111870
7.16402,164088
7.17215,251205
7.18027,346543
7.18840,390828
7.19652,351945
7.20463,273383
7.21277,221206
7.22088,222055
7.22902,385722
7.23713,840755
7.24525,1583569
7.25338,2165911
7.26150,2047710
7.26963,1491432
7.27775,927648
7.28587,578433
7.29400,397251
7.30212,286174
7.31023,196327
7.31837,154074
7.32648,134618
7.33462,136532
7.34273,133963
7.35085,134339
7.35898,127950
7.36710,126005
7.37523,123997
7.38335,118874
7.39147,112158
7.39960,120576
7.40772,124297
7.41585,124165
7.42397,126622
7.43208,123483
7.44022,115971
7.44833,112767
7.45645,111259
7.46458,104059
7.47270,103045
7.48083,103746
7.48895,101434
7.49707,100045
7.50520,100530
7.51332,96000
7.52145,93189
7.52957,99876
7.53768,117880
7.54582,171273
7.55393,270909
7.56205,429633
7.57018,614518
7.57830,736942
7.58643,796249
7.59455,694395
7.60267,554675
7.61080,391616
7.61892,274486
7.62705,198939
7.63517,169046
7.64328,136564
7.65142,125307
7.65953,114698
7.66767,108713
7.67578,102552
7.68390,99523
7.69203,89702
7.70015,97004
7.70827,89961
7.71640,91498
7.72452,87150
7.73265,91359
7.74077,89653
7.74888,91584
7.75702,91195
7.76513,88782
7.77327,93702
7.78138,95516
7.78950,93641
7.79763,101996
7.80575,102548
7.81387,107703
7.82200,113820
7.83012,120716
7.83825,120952
7.84637,114456
7.85448,106064
7.86262,96060
7.87073,91558
7.87887,95122
7.88698,99859
7.89510,107886
7.90323,114633
7.91135,113963
7.91948,106771
7.92760,99933
7.93572,95076
7.94385,104239
7.95197,114860
7.96008,129184
7.96822,140880
7.97633,145103
7.98447,129861
7.99258,112634
8.00070,102713
8.00883,95151
8.01695,83857
8.02508,80672
8.03320,82420
8.04132,81528
8.04945,75814
8.05757,78787
8.06570,78684
8.07382,79388
8.08193,76427
8.09007,76158
8.09818,79113
8.10630,74954
8.11443,75057
8.12255,74543
8.13068,72654
8.13880,72355
8.14692,79951
8.15505,92386
8.16317,101859
8.17130,111118
8.17942,109834
8.18753,108443
8.19567,93640
8.20378,78936
8.21192,78572
8.22003,76478
8.22815,74208
8.23628,74521
8.24440,68476
8.25252,71755
8.26065,69321
8.26877,68268
8.27690,71213
8.28502,71660
8.29313,68337
8.30127,69754
8.30938,67335
8.31752,69432
8.32563,75490
8.33375,77523
8.34188,79801
8.35000,77318
8.35812,72843
8.36625,78824
8.37437,75011
8.38250,75867
8.39062,72222
8.39873,75309
8.40687,75057
8.41498,72792
8.42312,68571
8.43123,69664
8.43935,62531
8.44748,69771
8.45560,61511
8.46373,61908
8.47185,60537
8.47997,63861
8.48810,64035
8.49622,62919
8.50433,63827
8.51247,60822
8.52058,62822
8.52872,65042
8.53683,75885
8.54495,117721
8.55308,215755
8.56120,324268
8.56933,443191
8.57745,413935
8.58557,325200
8.59370,214430
8.60182,146211
8.60993,110532
8.61807,108441
8.62618,104011
8.63432,102198
8.64243,96631
8.65055,91968
8.65868,83777
8.66680,79964
8.67493,74347
8.68305,72449
8.69117,68308
8.69930,74929
8.70742,74213
8.71555,73839
8.72367,73156
8.73178,76443
8.73992,71467
8.74803,71914
8.75615,74541
8.76428,87148
8.77240,134767
8.78053,277704
8.78865,611133
8.79677,1090777
8.80490,1515413
8.81302,1637360
8.82115,1404456
8.82927,985120
8.83738,633155
8.84552,409803
8.85363,302141
8.86177,249840
8.86988,231428
8.87800,218706
8.88613,213534
8.89425,206796
8.90237,194658
8.91050,179335
8.91862,170515
8.92675,164422
8.93487,158853
8.94298,161837
8.95112,171131
8.95923,187456
8.96737,207402
8.97548,204079
8.98360,187681
8.99173,180647
8.99985,174409
9.00797,168771
9.01610,165728
9.02422,161727
9.03235,142156
9.04047,138268
9.04858,130097
9.05672,129574
9.06483,127018
9.07297,121717
9.08108,119903
9.08920,115964
9.09733,116944
9.10545,121021
9.11358,127266
9.12170,139552
9.12982,159810
9.13795,182883
9.14607,179840
9.15418,163870
9.16232,150313
9.17043,133240
9.17857,126844
9.18668,123520
9.19480,112771
9.20293,114324
9.21105,105979
9.21918,104880
9.22730,98719
9.23542,107043
9.24355,99147
9.25167,105981
9.25980,106034
9.26792,106994
9.27603,104569
9.28417,106368
9.29228,100528
9.30040,97085
9.30853,94792
9.31665,94672
9.32478,90431
9.33290,94554
9.34102,89757
9.34915,95386
9.35727,91846
9.36540,90533
9.37352,90712
9.38163,88268
9.38977,88961
9.39788,92874
9.40600,88769
9.41413,89080
9.42225,95404
9.43038,101340
9.43850,118047
9.44662,129984
9.45475,148551
9.46287,148976
9.47100,143132
9.47912,134821
9.48723,117175
9.49537,97936
9.50348,95014
9.51162,91220
9.51973,92611
9.52785,96382
9.53598,115804
9.54410,123066
9.55222,124310
9.56035,117387
9.56847,103424
9.57660,96076
9.58472,89544
9.59283,88807
9.60097,81837
9.60908,87410
9.61722,82643
9.62533,80989
9.63345,74744
9.64158,69058
9.64970,65387
9.65782,64779
9.66595,60136
9.67407,61222
9.68220,57478
9.69032,63116
9.69843,57255
9.70657,59845
9.71468,54788
9.72282,55461
9.73093,54509
9.73905,52859
9.74718,57086
9.75530,53483
9.76343,59854
9.77155,51949
9.77967,50538
9.78780,50026
9.79592,52853
9.80403,48221
9.81217,52386
9.82028,53746
9.82842,52202
9.83653,51081
9.84465,51589
9.85278,53312
9.86090,47544
9.86903,55608
9.87715,57041
9.88527,60523
9.89340,60688
9.90152,66589
9.90965,58904
9.91777,57028
9.92588,59232
9.93402,58582
9.94213,64954
9.95025,96612
9.95838,143204
9.96650,212046
9.97463,269364
9.98275,281798
9.99087,251762
9.99900,195800
10.00712,147311
10.01525,120581
10.02337,107553
10.03148,101447
10.03962,95732
10.04773,81835
10.05585,76130
10.06398,76627
10.07210,71923
10.08023,71073
10.08835,72901
10.09647,72515
10.10460,72055
10.11272,74002
10.12085,71663
10.12897,71446
10.13708,65462
10.14522,68041
10.15333,64212
10.16147,62357
10.16958,68069
10.17770,64581
10.18583,56593
10.19395,63631
10.20207,59672
10.21020,57685
10.21832,51999
10.22645,59108
10.23457,60029
10.24268,61344
10.25082,64093
10.25893,66016
10.26707,75180
10.27518,107331
10.28330,208641
10.29143,499331
10.29955,1053326
10.30768,1860441
10.31580,2846303
10.32392,3929886
10.33205,5556680
10.34017,8088088
10.34828,1.071365E+07
10.35642,1.198152E+07
10.36453,1.09409E+07
10.37267,8264838
10.38078,5545440
10.38890,3781911
10.39703,2774843
10.40515,2003940
10.41328,1438582
10.42140,1019292
10.42952,747925
10.43765,575362
10.44577,497683
10.45388,448456
10.46202,423093
10.47013,400226
10.47827,389585
10.48638,358632
10.49450,325291
10.50263,312809
10.51075,287811
10.51888,280875
10.52700,262476
10.53512,242760
10.54325,235302
10.55137,225224
10.55950,217669
10.56762,212386
10.57573,209656
10.58387,204720
10.59198,200576
10.60010,192257
10.60823,187241
10.61635,183491
10.62448,171942
10.63260,163385
10.64072,153653
10.64885,158410
10.65697,148793
10.66510,142489
10.67322,138703
10.68133,143312
10.68947,139744
10.69758,139230
10.70572,137297
10.71383,137263
10.72195,134667
10.73008,129006
10.73820,133782
10.74632,123636
10.75445,132123
10.76257,121048
10.77070,119919
10.77882,114666
10.78693,115007
10.79507,113865
10.80318,112702
10.81132,110185
10.81943,104049
10.82755,109914
10.83568,109480
10.84380,101577
10.85192,101593
10.86005,99178
10.86817,93046
10.87630,93913
10.88442,91579
10.89253,87187
10.90067,89741
10.90878,89033
10.91692,84247
10.92503,87984
10.93315,81370
10.94128,80759
10.94940,84369
10.95753,80919
10.96565,79056
10.97377,80659
10.98190,80085
10.99002,84598
10.99813,88300
11.00627,84720
11.01438,81820
11.02252,84540
11.03063,78212
11.03875,75481
11.04688,78376
11.05500,73998
11.06313,72433
11.07125,70767
11.07937,70030
11.08750,73084
11.09562,75189
11.10373,77520
11.11187,80712
11.11998,76173
11.12812,74620
11.13623,69906
11.14435,68170
11.15248,61705
11.16060,59885
11.16873,65694
11.17685,63039
11.18497,66075
11.19310,61536
11.20122,65991
11.20935,66176
11.21747,63722
11.22558,64403
11.23372,63992
11.24183,63223
11.24995,54596
11.25808,53177
11.26620,50925
11.27433,51791
11.28245,51039
11.29057,47257
11.29870,44683
11.30682,50299
11.31495,61238
11.32307,97147
11.33118,164221
11.33932,268990
11.34743,416619
11.35557,566565
11.36368,631734
11.37180,603269
11.37993,482344
11.38805,348302
11.39617,237768
11.40430,168905
11.41242,138360
11.42055,132551
11.42867,124738
11.43678,111497
11.44492,103362
11.45303,102184
11.46117,94873
11.46928,85802
11.47740,82405
11.48553,80073
11.49365,87634
11.50177,102206
11.50990,121064
11.51802,126431
11.52615,132552
11.53427,121254
11.54238,108142
11.55052,96845
11.55863,90387
11.56677,85409
11.57488,81232
11.58300,87235
11.59113,78870
11.59925,75320
11.60738,87782
11.61550,105090
11.62362,131561
11.63175,168252
11.63987,181705
11.64798,165912
11.65612,140375
11.66423,115075
11.67237,96378
11.68048,84297
11.68860,76663
11.69673,81278
11.70485,77169
11.71298,81664
11.72110,83298
11.72922,82981
11.73735,82082
11.74547,71425
11.75360,70504
11.76172,68451
11.76983,63149
11.77797,59708
11.78608,61310
11.79420,62802
11.80233,57429
11.81045,59015
11.81858,56993
11.82670,59742
11.83482,56585
11.84295,57826
11.85107,63216
11.85920,57660
11.86732,56302
11.87543,61286
11.88357,55344
11.89168,54421
11.89980,46721
11.90793,46352
11.91605,49125
11.92418,50546
11.93230,57938
11.94042,65460
11.94855,64306
11.95667,66374
11.96480,61665
11.97292,58457
11.98103,57038
11.98917,76374
11.99728,137200
12.00542,277669
12.01353,499260
12.02165,739570
12.02978,894914
12.03790,867069
12.04602,688290
12.05415,469803
12.06227,307728
12.07040,213741
12.07852,166288
12.08663,143632
12.09477,146905
12.10288,129370
12.11102,119084
12.11913,117315
12.12725,124999
12.13538,130921
12.14350,141161
12.15162,148894
12.15975,149579
12.16787,139890
12.17600,121997
12.18412,105978
12.19223,97426
12.20037,84258
12.20848,82790
12.21662,84766
12.22473,79918
12.23285,81377
12.24098,80773
12.24910,79170
12.25723,78325
12.26535,85964
12.27347,77516
12.28160,75846
12.28972,70161
12.29783,72830
12.30597,66998
12.31408,73007
12.32222,61964
12.33033,65992
12.33845,63185
12.34658,62569
12.35470,68737
12.36283,62016
12.37095,61838
12.37907,63050
12.38720,65712
12.39532,67847
12.40345,72135
12.41157,78499
12.41968,92904
12.42782,104906
12.43593,117801
12.44405,125000
12.45218,117218
12.46030,112386
12.46843,98068
12.47655,93252
12.48467,90521
12.49280,72674
12.50092,75112
12.50905,66560
12.51717,66720
12.52528,68661
12.53342,64005
12.54153,67207
12.54965,67581
12.55778,75666
12.56590,82629
12.57403,99651
12.58215,105786
12.59027,102460
12.59840,90395
12.60652,83516
12.61465,76219
12.62277,72947
12.63088,66955
12.63902,67090
12.64713,63127
12.65527,58689
12.66338,55835
12.67150,61677
12.67963,56567
12.68775,58053
12.69587,52820
12.70400,53073
12.71212,55436
12.72025,53968
12.72837,52742
12.73648,54496
12.74462,55630
12.75273,62183
12.76087,64661
12.76898,62310
12.77710,57389
12.78523,56604
12.79335,51426
12.80148,45978
12.80960,44863
12.81772,47029
12.82585,41183
12.83397,43320
12.84208,40349
12.85022,43502
12.85833,40799
12.86647,43439
12.87458,42823
12.88270,38365
12.89083,38626
12.89895,40126
12.90708,38922
12.91520,41476
12.92332,41490
12.93145,40389
12.93957,39825
12.94768,43217
12.95582,44868
12.96393,56459
12.97207,93383
12.98018,161146
12.98830,271239
12.99643,381431
13.00455,408757
13.01268,350916
13.02080,254082
13.02892,170984
13.03705,120474
13.04517,90467
13.05330,81081
13.06142,68102
13.06953,65771
13.07767,59150
13.08578,64720
13.09390,57590
13.10203,50020
13.11015,55617
13.11828,55675
13.12640,48401
13.13452,52035
13.14265,49726
13.15077,48557
13.15890,47277
13.16702,45993
13.17513,49321
13.18327,53777
13.19138,52095
13.19950,51425
13.20763,51898
13.21575,53863
13.22388,53272
13.23200,54816
13.24012,56153
13.24825,50851
13.25637,50161
13.26450,48892
13.27262,50470
13.28073,48945
13.28887,45621
13.29698,43481
13.30512,42993
13.31323,41309
13.32135,38998
13.32948,39694
13.33760,39175
13.34572,47035
13.35385,39537
13.36197,43968
13.37010,43058
13.37822,43396
13.38633,39895
13.39447,40142
13.40258,38404
13.41072,40581
13.41883,39126
13.42695,36362
13.43508,38093
13.44320,38829
13.45133,39993
13.45945,40589
13.46757,38989
13.47570,38323
13.48382,39135
13.49193,37226
13.50007,40994
13.50818,39947
13.51632,39749
13.52443,43137
13.53255,43123
13.54068,47028
13.54880,41378
13.55693,42078
13.56505,40534
13.57317,39854
13.58130,38048
13.58942,42597
13.59755,44464
13.60567,43092
13.61378,46472
13.62192,50089
13.63003,50798
13.63815,56607
13.64628,53447
13.65440,49754
13.66253,44475
13.67065,43682
13.67877,38880
13.68690,42880
13.69502,37403
13.70315,39678
13.71127,37280
13.71938,37732
13.72752,35050
13.73563,42621
13.74375,56123
13.75188,116431
13.76000,273191
13.76813,676207
13.77625,1336400
13.78437,2185403
13.79250,2805944
13.80062,2900801
13.80875,2499851
13.81687,1825694
13.82498,1181258
13.83312,798779
13.84123,635630
13.84937,553389
13.85748,525432
13.86560,466910
13.87373,414642
13.88185,340121
13.88997,298041
13.89810,261746
13.90622,226606
13.91435,208039
13.92247,204553
13.93058,191938
13.93872,170310
13.94683,170841
13.95497,165549
13.96308,167089
13.97120,193633
13.97933,210705
13.98745,248141
13.99557,293484
14.00370,293068
14.01182,277865
14.01995,233475
14.02807,202523
14.03618,162374
14.04432,152956
14.05243,135104
14.06057,136368
14.06868,136534
14.07680,126359
14.08493,118372
14.09305,122982
14.10118,119858
14.10930,119695
14.11742,111541
14.12555,111047
14.13367,114736
14.14178,120389
14.14992,138665
14.15803,172765
14.16617,188556
14.17428,201201
14.18240,207561
14.19053,214166
14.19865,260323
14.20678,340241
14.21490,438461
14.22302,482481
14.23115,472513
14.23927,404920
14.24740,331988
14.25552,268552
14.26363,224972
14.27177,201094
14.27988,184445
14.28800,167969
14.29613,153300
14.30425,136039
14.31238,127692
14.32050,120077
14.32862,110594
14.33675,108731
14.34487,101706
14.35300,95037
14.36112,91042
14.36923,91082
14.37737,76303
14.38548,71551
14.39360,63321
14.40173,64423
14.40985,64066
14.41798,68086
14.42610,71075
14.43422,75507
14.44235,81150
14.45047,77869
14.45860,70772
14.46672,67397
14.47483,62797
14.48297,61986
14.49108,66299
14.49922,64910
14.50733,62907
14.51545,62547
14.52358,73595
14.53170,80294
14.53982,79334
14.54795,86449
14.55607,77685
14.56420,76769
14.57232,66415
14.58043,60496
14.58857,54694
14.59668,53750
14.60482,47124
14.61293,51137
14.62105,46861
14.62918,44813
14.63730,47836
14.64543,50098
14.65355,44096
14.66167,48454
14.66980,44166
14.67792,45808
14.68603,43937
14.69417,49607
14.70228,46256
14.71042,40945
14.71853,49221
14.72665,47816
14.73478,48059
14.74290,46087
14.75103,51273
14.75915,55875
14.76727,58950
14.77540,56285
14.78352,56072
14.79163,61682
14.79977,95370
14.80788,207369
14.81602,528890
14.82413,1274501
14.83225,2595569
14.84038,3865524
14.84850,4805694
14.85663,4664192
14.86475,3781097
14.87287,2559834
14.88100,1549248
14.88912,920913
14.89725,615564
14.90537,466611
14.91348,368726
14.92162,312884
14.92973,278523
14.93785,248037
14.94598,218266
14.95410,204846
14.96223,190886
14.97035,179990
14.97847,165032
14.98660,154411
14.99472,147807
15.00285,155373
15.01097,139830
15.01908,132238
15.02722,125810
15.03533,120750
15.04345,115096
15.05158,111298
15.05970,106661
15.06783,109225
15.07595,105668
15.08407,102030
15.09220,98177
15.10032,93303
15.10845,95485
15.11657,94002
15.12468,93326
15.13282,88842
15.14093,92665
15.14907,103650
15.15718,111596
15.16530,106566
15.17343,100783
15.18155,85017
15.18967,74871
15.19780,65777
15.20592,65061
15.21405,60422
15.22217,56432
15.23028,54296
15.23842,52381
15.24653,54676
15.25467,50128
15.26278,47881
15.27090,47247
15.27903,49220
15.28715,47372
15.29528,47596
15.30340,50469
15.31152,44553
15.31965,44434
15.32777,46232
15.33588,45480
15.34402,46577
15.35213,40038
15.36027,42309
15.36838,42873
15.37650,43664
15.38463,44168
15.39275,46197
15.40088,45054
15.40900,46262
15.41712,46971
15.42525,41023
15.43337,40694
15.44148,44325
15.44962,40764
15.45773,42318
15.46587,41912
15.47398,44563
15.48210,54483
15.49023,63886
15.49835,84026
15.50648,99289
15.51460,128521
15.52272,141416
15.53085,143921
15.53897,177531
15.54710,217664
15.55522,268059
15.56333,320397
15.57147,335367
15.57958,284283
15.58770,208135
15.59583,154911
15.60395,112199
15.61208,83595
15.62020,71059
15.62832,67643
15.63645,61220
15.64457,62170
15.65270,59091
15.66082,56048
15.66893,51300
15.67707,50820
15.68518,48131
15.69332,51539
15.70143,44539
15.70955,45477
15.71768,44096
15.72580,44636
15.73392,46239
15.74205,48368
15.75017,47783
15.75830,53097
15.76642,66132
15.77453,98020
15.78267,157554
15.79078,235619
15.79892,309591
15.80703,360220
15.81515,316615
15.82328,259277
15.83140,183205
15.83952,125880
15.84765,104976
15.85577,81951
15.86390,76369
15.87202,73801
15.88013,63110
15.88827,67545
15.89638,64363
15.90452,61205
15.91263,55747
15.92075,57864
15.92888,54265
15.93700,55138
15.94513,59027
15.95325,60479
15.96137,71400
15.96950,100601
15.97762,128969
15.98573,153929
15.99387,174667
16.00198,172607
16.01012,152871
16.01823,125396
16.02635,113696
16.03448,96228
16.04260,92350
16.05073,78819
16.05885,76877
16.06697,70491
16.07510,62068
16.08322,63917
16.09133,56207
16.09947,56430
16.10758,58872
16.11572,54773
16.12383,56474
16.13195,55975
16.14008,59807
16.14820,55676
16.15633,61795
16.16445,57592
16.17257,61521
16.18070,60544
16.18882,58038
16.19695,58281
16.20507,53608
16.21318,49748
16.22132,49041
16.22943,50976
16.23755,47230
16.24568,48466
16.25380,49546
16.26193,48467
16.27005,46430
16.27817,47306
16.28630,47697
16.29442,51648
16.30255,52069
16.31067,56422
16.31878,56679
16.32692,57231
16.33503,53469
16.34317,57673
16.35128,59647
16.35940,74073
16.36753,111523
16.37565,144918
16.38377,190165
16.39190,223690
16.40002,232644
16.40815,198128
16.41627,150988
16.42438,115371
16.43252,93972
16.44063,84268
16.44877,81186
16.45688,105686
16.46500,180994
16.47313,339285
16.48125,599074
16.48937,892853
16.49750,1064439
16.50562,1020309
16.51375,826428
16.52187,571966
16.52998,355861
16.53812,227216
16.54623,164777
16.55437,130991
16.56248,116381
16.57060,107948
16.57873,101429
16.58685,90551
16.59498,95384
16.60310,94055
16.61122,98518
16.61935,104216
16.62747,115421
16.63558,109284
16.64372,102589
16.65183,94775
16.65997,88682
16.66808,80139
16.67620,72394
16.68433,67415
16.69245,64422
16.70058,71179
16.70870,62280
16.71682,57528
16.72495,62143
16.73307,58152
16.74120,54192
16.74932,54644
16.75743,58221
16.76557,60928
16.77368,62296
16.78180,63750
16.78993,64480
16.79805,60804
16.80618,57817
16.81430,52515
16.82242,51360
16.83055,49687
16.83867,46423
16.84680,48088
16.85492,49901
16.86303,47311
16.87117,44437
16.87928,43224
16.88740,45236
16.89553,44458
16.90365,43174
16.91178,44257
16.91990,41887
16.92802,45289
16.93615,44156
16.94427,45641
16.95240,42222
16.96052,44535
16.96863,43812
16.97677,41050
16.98488,43973
16.99302,42402
17.00113,42676
17.00925,44958
17.01738,44349
17.02550,41724
17.03362,42828
17.04175,44838
17.04987,46852
17.05800,46927
17.06612,52452
17.07423,54079
17.08237,46443
17.09048,49282
17.09862,50213
17.10673,45206
17.11485,47488
17.12298,46059
17.13110,43316
17.13923,50275
17.14735,46684
17.15547,49871
17.16360,47800
17.17172,47711
17.17983,48466
17.18797,42841
17.19608,47823
17.20422,44543
17.21233,43080
17.22045,38456
17.22858,40464
17.23670,43234
17.24483,44772
17.25295,42990
17.26107,41381
17.26920,42475
17.27732,43237
17.28543,38952
17.29357,42412
17.30168,38573
17.30982,44345
17.31793,44658
17.32605,48306
17.33418,53862
17.34230,61568
17.35043,66775
17.35855,72362
17.36667,73013
17.37480,66950
17.38292,60967
17.39105,66534
17.39917,60592
17.40728,60034
17.41542,55275
17.42353,58172
17.43165,52950
17.43978,55719
17.44790,55566
17.45603,56150
17.46415,52639
17.47227,48399
17.48040,48912
17.48852,46741
17.49665,46256
17.50477,43891
17.51288,45972
17.52102,47724
17.52913,53630
17.53725,45098
17.54538,45626
17.55350,50174
17.56163,53825
17.56975,60728
17.57787,77449
17.58600,124312
17.59412,206425
17.60225,314660
17.61037,440264
17.61848,531639
17.62662,568302
17.63473,502765
17.64287,410001
17.65098,314751
17.65910,267542
17.66723,256838
17.67535,258093
17.68347,259344
17.69160,243345
17.69972,208527
17.70785,169576
17.71597,135537
17.72408,113746
17.73222,99025
17.74033,93998
17.74847,84170
17.75658,78723
17.76470,81536
17.77283,75449
17.78095,69176
17.78908,75378
17.79720,89062
17.80532,133385
17.81345,229376
17.82157,415354
17.82968,641558
17.83782,823210
17.84593,924308
17.85407,853650
17.86218,702741
17.87030,510458
17.87843,370668
17.88655,270170
17.89468,213056
17.90280,177342
17.91092,153314
17.91905,132270
17.92717,124896
17.93528,117823
17.94342,105419
17.95153,105755
17.95967,100701
17.96778,88777
17.97590,90632
17.98403,89019
17.99215,82437
18.00028,81321
18.00840,80781
18.01652,84452
18.02465,91773
18.03277,94747
18.04090,110321
18.04902,125029
18.05713,137110
18.06527,168653
18.07338,276685
18.08150,510994
18.08963,887596
18.09775,1333052
18.10588,1657773
18.11400,1739108
18.12212,1559130
18.13025,1164995
18.13837,853256
18.14650,617018
18.15462,480786
18.16273,394552
18.17087,361777
18.17898,320813
18.18712,283212
18.19523,257567
18.20335,231802
18.21148,228431
18.21960,202201
18.22772,186898
18.23585,184900
18.24397,171061
18.25210,160548
18.26022,148985
18.26833,142481
18.27647,130225
18.28458,120478
18.29272,106738
18.30083,91374
18.30895,81295
18.31708,73612
18.32520,68550
18.33332,65947
18.34145,66516
18.34957,87973
18.35770,128349
18.36582,187295
18.37393,247185
18.38207,273611
18.39018,293500
18.39832,304166
18.40643,309853
18.41455,321642
18.42268,324698
18.43080,322723
18.43893,334953
18.44705,338069
18.45517,362249
18.46330,373140
18.47142,417250
18.47953,451202
18.48767,500655
18.49578,519231
18.50392,515027
18.51203,467990
18.52015,436752
18.52828,392323
18.53640,356282
18.54453,335288
18.55265,319869
18.56077,309330
18.56890,314682
18.57702,294713
18.58513,286865
18.59327,285619
18.60138,283518
18.60952,290258
18.61763,280969
18.62575,294883
18.63388,286995
18.64200,279382
18.65013,268390
18.65825,271484
18.66637,276581
18.67450,254639
18.68262,255765
18.69075,244052
18.69887,236807
18.70698,242815
18.71512,242999
18.72323,231576
18.73135,238353
18.73948,227821
18.74760,231386
18.75573,229516
18.76385,220652
18.77197,220009
18.78010,215387
18.78822,214963
18.79635,209944
18.80447,211786
18.81258,209772
18.82072,213067
18.82883,208121
18.83697,203097
18.84508,201656
18.85320,199311
18.86133,193027
18.86945,205587
18.87757,195102
18.88570,187868
18.89382,190505
18.90195,188109
18.91007,186591
18.91818,196062
18.92632,192631
18.93443,193992
18.94257,194888
18.95068,193436
18.95880,190850
18.96693,194758
18.97505,199463
18.98318,199165
18.99130,185234
18.99942,185117
19.00755,178958
19.01567,174542
19.02378,166140
19.03192,168354
19.04003,166854
19.04817,158087
19.05628,160477
19.06440,162379
19.07253,167707
19.08065,177837
19.08878,211299
19.09690,251963
19.10502,296328
19.11315,347489
19.12127,360596
19.12938,343636
19.13752,311562
19.14563,263250
19.15377,229191
19.16188,207018
19.17000,191925
19.17813,177479
19.18625,169134
19.19438,167831
19.20250,158996
19.21062,161007
19.21875,158083
19.22687,149856
19.23500,157016
19.24312,139027
19.25123,144098
19.25937,136278
19.26748,131675
19.27560,138030
19.28373,139995
19.29185,126391
19.29998,138520
19.30810,141166
19.31622,135656
19.32435,135480
19.33247,127997
19.34060,134517
19.34872,139011
19.35683,142270
19.36497,163657
19.37308,179364
19.38120,197010
19.38933,222287
19.39745,203823
19.40558,184703
19.41370,167866
19.42182,155751
19.42995,140843
19.43807,135738
19.44620,121494
19.45432,125890
19.46243,120818
19.47057,123000
19.47868,125254
19.48682,134481
19.49493,163515
19.50305,215043
19.51118,264258
19.51930,305249
19.52742,328991
19.53555,296996
19.54367,240133
19.55180,192690
19.55992,150029
19.56803,137320
19.57617,122843
19.58428,120617
19.59242,115562
19.60053,107400
19.60865,110077
19.61678,108502
19.62490,107678
19.63303,100560
19.64115,115803
19.64927,126773
19.65740,157032
19.66552,200949
19.67363,249028
19.68177,296898
19.68988,318690
19.69802,315080
19.70613,301870
19.71425,273529
19.72238,243983
19.73050,219114
19.73863,191001
19.74675,167918
19.75487,150975
19.76300,144210
19.77112,132062
19.77923,131475
19.78737,132237
19.79548,133843
19.80362,142484
19.81173,144033
19.81985,143802
19.82798,136896
19.83610,124387
19.84423,119699
19.85235,120124
19.86047,150785
19.86860,264904
19.87672,537568
19.88485,1126823
19.89297,2089850
19.90108,3208135
19.90922,4142291
19.91733,4480128
19.92545,4077276
19.93358,3251554
19.94170,2353033
19.94983,1560539
19.95795,1115899
19.96607,847793
19.97420,698609
19.98232,606296
19.99045,560473
19.99857,519519
20.00668,477160
20.01482,441811
20.02293,421232
20.03107,392031
20.03918,356906
20.04730,342391
20.05543,303931
20.06355,263330
20.07167,229537
20.07980,204139
20.08792,190190
20.09605,177557
20.10417,166929
20.11228,159063
20.12042,148657
20.12853,136171
20.13667,134463
20.14478,127548
20.15290,126317
20.16103,129133
20.16915,137802
20.17727,150049
20.18540,168946
20.19352,188115
20.20165,201164
20.20977,209820
20.21788,203451
20.22602,191148
20.23413,179414
20.24227,160624
20.25038,165167
20.25850,166355
20.26663,195335
20.27475,239598
20.28288,289332
20.29100,314958
20.29912,330674
20.30725,313411
20.31537,276977
20.32348,230712
20.33162,194499
20.33973,170834
20.34787,141314
20.35598,129984
20.36410,111348
20.37223,107780
20.38035,95752
20.38848,88543
20.39660,90561
20.40472,85516
20.41285,82618
20.42097,89021
20.42908,89765
20.43722,91127
20.44533,101765
20.45347,109434
20.46158,119005
20.46970,129912
20.47783,126852
20.48595,134962
20.49408,122887
20.50220,114131
20.51032,104047
20.51845,98584
20.52657,89581
20.53470,81391
20.54282,84061
20.55093,78519
20.55907,79055
20.56718,75817
20.57530,78405
20.58343,74520
20.59155,73735
20.59968,70311
20.60780,71693
20.61592,69047
20.62405,71929
20.63217,69317
20.64030,66921
20.64842,69857
20.65653,70215
20.66467,69492
20.67278,70395
20.68092,68314
20.68903,68461
20.69715,63856
20.70528,62628
20.71340,64902
20.72152,60689
20.72965,64310
20.73777,64551
20.74590,63758
20.75402,65132
20.76213,62551
20.77027,67536
20.77838,70697
20.78652,83128
20.79463,96142
20.80275,127984
20.81088,182940
20.81900,236868
20.82712,285051
20.83525,293006
20.84337,261385
20.85150,204668
20.85962,157897
20.86773,122273
20.87587,100374
20.88398,80650
20.89212,74880
20.90023,79369
20.90835,73170
20.91648,70415
20.92460,69013
20.93273,72358
20.94085,67756
20.94897,67777
20.95710,67983
20.96522,66519
20.97333,65675
20.98147,64805
20.98958,59058
20.99772,58913
21.00583,58695
21.01395,59695
21.02208,58350
21.03020,61822
21.03833,63199
21.04645,62747
21.05457,63079
21.06270,69272
21.07082,65664
21.07895,64332
21.08707,70135
21.09518,72551
21.10332,66226
21.11143,63384
21.11955,63750
21.12768,62326
21.13580,63825
21.14393,71180
21.15205,81991
21.16017,101705
21.16830,113278
21.17642,122793
21.18455,113916
21.19267,106192
21.20078,100436
21.20892,83199
21.21703,78259
21.22515,71308
21.23328,71176
21.24140,64971
21.24953,67950
21.25765,65386
21.26577,65170
21.27390,61542
21.28202,57375
21.29015,62024
21.29827,59107
21.30638,60392
21.31452,58325
21.32263,56740
21.33077,54659
21.33888,60669
21.34700,56043
21.35513,59035
21.36325,59311
21.37137,62042
21.37950,61255
21.38762,61331
21.39575,67970
21.40387,82158
21.41198,83021
21.42012,94740
21.42823,104771
21.43637,100188
21.44448,86709
21.45260,76117
21.46073,68869
21.46885,66328
21.47697,66471
21.48510,63540
21.49322,60114
21.50135,59145
21.50947,65078
21.51758,55955
21.52572,52241
21.53383,58505
21.54197,55489
21.55008,57736
21.55820,58029
21.56633,56452
21.57445,56559
21.58258,59162
21.59070,68575
21.59882,67354
21.60695,71886
21.61507,76534
21.62318,76527
21.63132,83119
21.63943,84893
21.64757,89464
21.65568,90821
21.66380,97936
21.67193,96001
21.68005,96794
21.68818,98160
21.69630,94598
21.70442,83996
21.71255,79182
21.72067,71972
21.72880,67651
21.73692,63317
21.74503,60838
21.75317,59344
21.76128,64287
21.76940,61709
21.77753,62395
21.78565,64900
21.79378,61281
21.80190,70766
21.81002,70019
21.81815,74425
21.82627,75226
21.83440,83869
21.84252,83767
21.85063,89983
21.85877,83264
21.86688,85050
21.87500,75513
21.88313,71059
21.89125,66233
21.89938,64397
21.90750,65931
21.91562,64090
21.92375,63358
21.93187,59731
21.94000,55560
21.94812,58368
21.95623,56636
21.96437,54372
21.97248,49457
21.98062,50442
21.98873,47946
21.99685,46808
22.00498,49813
22.01310,46326
22.02122,53040
22.02935,50451
22.03747,51299
22.04560,60154
22.05372,53668
22.06183,53235
22.06997,56203
22.07808,51978
22.08622,50002
22.09433,57285
22.10245,49986
22.11058,50610
22.11870,49581
22.12683,49926
22.13495,47039
22.14307,48887
22.15120,49152
22.15932,50730
22.16743,52372
22.17557,51351
22.18368,51632
22.19182,55018
22.19993,49758
22.20805,50473
22.21618,50241
22.22430,49254
22.23243,47385
22.24055,54830
22.24867,52533
22.25680,49284
22.26492,51775
22.27303,49114
22.28117,53458
22.28928,52683
22.29742,57218
22.30553,55943
22.31365,60760
22.32178,59356
22.32990,55464
22.33803,57875
22.34615,56627
22.35427,62991
22.36240,55517
22.37052,55360
22.37865,54933
22.38677,54080
22.39488,62463
22.40302,76766
22.41113,86627
22.41925,109325
22.42738,123915
22.43550,134596
22.44363,127514
22.45175,108416
22.45987,98393
22.46800,85852
22.47612,74908
22.48425,69118
22.49237,78621
22.50048,87740
22.50862,85676
22.51673,91620
22.52487,90018
22.53298,89383
22.54110,84823
22.54923,80173
22.55735,69708
22.56547,71072
22.57360,70258
22.58172,64294
22.58985,64063
22.59797,59180
22.60608,52497
22.61422,55804
22.62233,54324
22.63047,58911
22.63858,52597
22.64670,56420
22.65483,54598
22.66295,58419
22.67107,61690
22.67920,57007
22.68732,58201
22.69545,59108
22.70357,59923
22.71168,63763
22.71982,66410
22.72793,70868
22.73607,68705
22.74418,70603
22.75230,64624
22.76043,57617
22.76855,56117
22.77668,58063
22.78480,62918
22.79292,64604
22.80105,80071
22.80917,87032
22.81728,89127
22.82542,88603
22.83353,90427
22.84167,83670
22.84978,77053
22.85790,69067
22.86603,68088
22.87415,64812
22.88228,71644
22.89040,78538
22.89852,86704
22.90665,98077
22.91477,101735
22.92288,118473
22.93102,129081
22.93913,135128
22.94727,130976
22.95538,117302
22.96350,104673
22.97163,92088
22.97975,82741
22.98788,75905
22.99600,72800
23.00412,72580
23.01225,70730
23.02037,67520
23.02850,72029
23.03662,67974
23.04473,66915
23.05287,73078
23.06098,73636
23.06910,69026
23.07723,72696
23.08535,74290
23.09348,75403
23.10160,73369
23.10972,77709
23.11785,71275
23.12597,69635
23.13410,66104
23.14222,69226
23.15033,69559
23.15847,70031
23.16658,63281
23.17472,68908
23.18283,70870
23.19095,67230
23.19908,68026
23.20720,67190
23.21532,64531
23.22345,68565
23.23157,64323
23.23970,67821
23.24782,66229
23.25593,69102
23.26407,77383
23.27218,81907
23.28032,78074
23.28843,75551
23.29655,73635
23.30468,71638
23.31280,70469
23.32092,66831
23.32905,73629
23.33717,74861
23.34530,89851
23.35342,118445
23.36153,160505
23.36967,230167
23.37778,315966
23.38592,413684
23.39403,529209
23.40215,652347
23.41028,741511
23.41840,819470
23.42653,877813
23.43465,882539
23.44277,875551
23.45090,837662
23.45902,798139
23.46713,740264
23.47527,700755
23.48338,641547
23.49152,598900
23.49963,534315
23.50775,499682
23.51588,456912
23.52400,416223
23.53213,388813
23.54025,365091
23.54837,333657
23.55650,308621
23.56462,296461
23.57275,283536
23.58087,284360
23.58898,292467
23.59712,309043
23.60523,307197
23.61335,312797
23.62148,302221
23.62960,288569
23.63773,263894
23.64585,234161
23.65397,228025
23.66210,236925
23.67022,242248
23.67835,243383
23.68647,219065
23.69458,212935
23.70272,189204
23.71083,173317
23.71895,152753
23.72708,148194
23.73520,135760
23.74333,133835
23.75145,156009
23.75957,202220
23.76770,344266
23.77582,630628
23.78395,1105039
23.79207,1668854
23.80018,2128129
23.80832,2318017
23.81643,2140213
23.82457,1820009
23.83268,1445998
23.84080,1109624
23.84893,874441
23.85705,684037
23.86517,557208
23.87330,478282
23.88142,429737
23.88955,374528
23.89767,345584
23.90578,311063
23.91392,300112
23.92203,283706
23.93017,264542
23.93828,244330
23.94640,222841
23.95453,216418
23.96265,209422
23.97077,192796
23.97890,179957
23.98702,176111
23.99515,173752
24.00327,190712
24.01138,247791
24.01952,370439
24.02763,583133
24.03577,820605
24.04388,972594
24.05200,970581
24.06013,802752
24.06825,588611
24.07638,414938
24.08450,283523
24.09262,205235
24.10075,170722
24.10887,145783
24.11698,134684
24.12512,135064
24.13323,130291
24.14137,142600
24.14948,133649
24.15760,130026
24.16573,126106
24.17385,131217
24.18198,131314
24.19010,120585
24.19822,121230
24.20635,121632
24.21447,124679
24.22260,120866
24.23072,115078
24.23883,114663
24.24697,107687
24.25508,100670
24.26320,101700
24.27133,96794
24.27945,90896
24.28758,93393
24.29570,89994
24.30382,91189
24.31195,93016
24.32007,90284
24.32820,89515
24.33632,90580
24.34443,89705
24.35257,86359
24.36068,83611
24.36882,84285
24.37693,93310
24.38505,106410
24.39318,131895
24.40130,157859
24.40942,170111
24.41755,185615
24.42567,177652
24.43380,166205
24.44192,165688
24.45003,157131
24.45817,152252
24.46628,160420
24.47442,171273
24.48253,183296
24.49065,193213
24.49878,199351
24.50690,202358
24.51502,207109
24.52315,210733
24.53127,209657
24.53940,201555
24.54752,202984
24.55563,195672
24.56377,197907
24.57188,188745
24.58002,189108
24.58813,183664
24.59625,175367
24.60438,164501
24.61250,161145
24.62063,157943
24.62875,162067
24.63687,157950
24.64500,151836
24.65312,151126
24.66123,157067
24.66937,156472
24.67748,149603
24.68562,149385
24.69373,145011
24.70185,140142
24.70998,141119
24.71810,145674
24.72623,141299
24.73435,135514
24.74247,132830
24.75060,137667
24.75872,141280
24.76683,134534
24.77497,138493
24.78308,135015
24.79122,140490
24.79933,144991
24.80745,141120
24.81558,139310
24.82370,138510
24.83183,140070
24.83995,152980
24.84807,170125
24.85620,198464
24.86432,251027
24.87245,313988
24.88057,408352
24.88868,489680
24.89682,583719
24.90493,599393
24.91305,568005
24.92118,458537
24.92930,357267
24.93743,265502
24.94555,204001
24.95367,168264
24.96180,152189
24.96992,132404
24.97805,127188
24.98617,126571
24.99428,129781
25.00242,124689
25.01053,120377
25.01867,119500
25.02678,119962
25.03490,120406
25.04303,117058
25.05115,113534
25.05927,107858
25.06740,119013
25.07552,111052
25.08365,115233
25.09177,117443
25.09988,141479
25.10802,193894
25.11613,328781
25.12427,621700
25.13238,1141019
25.14050,1818679
25.14863,2460342
25.15675,2706612
25.16487,2495896
25.17300,1964432
25.18112,1399027
25.18925,909724
25.19737,562735
25.20548,341925
25.21362,239702
25.22173,186196
25.22987,168400
25.23798,157266
25.24610,162212
25.25423,177159
25.26235,192368
25.27048,222016
25.27860,223084
25.28672,225916
25.29485,204865
25.30297,179429
25.31108,153874
25.31922,130786
25.32733,111702
25.33547,108440
25.34358,94017
25.35170,92845
25.35983,86088
25.36795,81456
25.37608,79329
25.38420,74900
25.39232,80221
25.40045,69918
25.40857,71774
25.41670,70187
25.42482,75064
25.43293,70142
25.44107,69084
25.44918,72146
25.45730,66004
25.46543,69904
25.47355,71795
25.48168,69174
25.48980,69838
25.49792,72058
25.50605,71434
25.51417,66424
25.52230,67660
25.53042,62198
25.53853,65561
25.54667,61532
25.55478,60763
25.56290,61987
25.57103,66044
25.57915,62484
25.58728,63725
25.59540,68253
25.60352,63733
25.61165,64395
25.61977,62349
25.62790,60755
25.63602,63476
25.64413,63534
25.65227,63789
25.66038,63658
25.66852,59073
25.67663,60470
25.68475,57235
25.69288,59800
25.70100,65328
25.70912,70919
25.71725,87442
25.72537,99150
25.73350,107719
25.74162,118597
25.74973,118388
25.75787,125477
25.76598,129918
25.77412,133331
25.78223,139333
25.79035,143099
25.79848,143081
25.80660,135813
25.81472,149300
25.82285,152704
25.83097,148059
25.83910,157863
25.84722,170824
25.85533,177961
25.86347,180498
25.87158,170857
25.87972,161727
25.88783,153200
25.89595,148295
25.90408,138080
25.91220,133686
25.92033,133120
25.92845,130289
25.93657,136085
25.94470,130616
25.95282,124973
25.96093,125813
25.96907,128357
25.97718,122690
25.98532,122796
25.99343,121047
26.00155,113697
26.00968,118161
26.01780,116430
26.02593,116129
26.03405,112572
26.04217,108986
26.05030,110654
26.05842,106615
26.06655,114608
26.07467,105635
26.08278,112610
26.09092,108001
26.09903,111474
26.10715,112324
26.11528,107801
26.12340,111513
26.13153,104226
26.13965,102269
26.14777,110383
26.15590,111584
26.16402,111990
26.17215,111843
26.18027,109064
26.18838,107041
26.19652,98240
26.20463,101182
26.21275,93372
26.22088,95572
26.22900,94710
26.23713,97423
26.24525,93000
26.25337,91092
26.26150,91086
26.26962,87884
26.27775,86801
26.28587,86196
26.29398,83183
26.30212,83088
26.31023,78051
26.31837,81152
26.32648,78306
26.33460,78459
26.34273,78185
26.35085,78364
26.35897,75726
26.36710,77357
26.37522,80677
26.38335,87482
26.39147,94446
26.39958,109300
26.40772,110357
26.41583,109013
26.42397,110098
26.43208,109646
26.44020,97764
26.44833,95101
26.45645,87301
26.46458,84151
26.47270,79589
26.48082,82924
26.48895,82440
26.49707,84112
26.50518,78335
26.51332,72792
26.52143,67136
26.52957,63673
26.53768,64487
26.54580,64161
26.55393,61482
26.56205,64621
26.57018,63125
26.57830,63811
26.58642,62952
26.59455,63171
26.60267,67362
26.61078,62862
26.61892,60317
26.62703,61402
26.63517,57960
26.64328,54996
26.65140,62014
26.65953,65522
26.66765,65496
26.67578,63520
26.68390,70867
26.69202,67098
26.70015,66115
26.70827,58824
26.71640,60137
26.72452,55857
26.73263,53515
26.74077,61550
26.74888,56322
26.75700,56933
26.76513,52747
26.77325,53168
26.78138,53125
26.78950,58048
26.79762,59921
26.80575,55675
26.81387,63796
26.82200,57156
26.83012,55448
26.83823,56501
26.84637,57767
26.85448,57737
26.86260,57441
26.87073,52303
26.87885,56408
26.88698,55625
26.89510,48310
26.90322,55511
26.91135,51725
26.91947,52055
26.92760,57423
26.93572,55719
26.94383,51268
26.95197,51107
26.96008,53276
26.96822,54547
26.97633,63993
26.98445,79010
26.99258,114350
27.00070,156939
27.00882,219321
27.01695,296094
27.02507,367675
27.03320,424106
27.04132,428617
27.04943,411013
27.05757,370887
27.06568,318672
27.07382,283423
27.08193,230971
27.09005,199269
27.09818,176671
27.10630,161028
27.11443,147510
27.12255,144882
27.13067,140303
27.13880,128286
27.14692,124837
27.15503,117688
27.16317,113694
27.17128,112174
27.17942,120633
27.18753,115295
27.19565,107937
27.20378,113943
27.21190,107798
27.22003,99394
27.22815,96877
27.23627,95689
27.24440,98397
27.25252,89691
27.26063,88960
27.26877,83756
27.27688,88491
27.28502,76726
27.29313,71663
27.30125,72122
27.30938,71892
27.31750,70939
27.32563,74712
27.33375,68575
27.34187,69117
27.35000,78276
27.35812,66993
27.36625,68586
27.37437,69541
27.38248,70726
27.39062,70228
27.39873,65343
27.40685,67709
27.41498,66678
27.42310,61638
27.43123,58127
27.43935,61543
27.44747,61270
27.45560,59319
27.46372,60109
27.47185,60319
27.47997,62082
27.48808,55223
27.49622,55466
27.50433,53759
27.51247,56961
27.52058,59640
27.52870,62037
27.53683,62240
27.54495,60788
27.55307,59219
27.56120,60846
27.56932,58455
27.57745,67539
27.58557,70644
27.59368,75406
27.60182,82694
27.60993,80804
27.61807,82594
27.62618,74903
27.63430,70775
27.64243,61452
27.65055,60384
27.65867,57868
27.66680,54550
27.67492,57073
27.68305,57800
27.69117,56098
27.69928,54475
27.70742,52289
27.71553,56256
27.72367,54922
27.73178,57277
27.73990,55214
27.74803,49737
27.75615,51194
27.76428,53326
27.77240,48607
27.78052,52260
27.78865,49512
27.79677,54066
27.80488,59830
27.81302,53006
27.82113,55856
27.82927,52961
27.83738,58359
27.84550,51760
27.85363,52380
27.86175,53968
27.86988,55637
27.87800,50431
27.88612,47384
27.89425,51037
27.90237,48152
27.91050,52292
27.91862,50634
27.92673,49618
27.93487,46524
27.94298,47930
27.95110,44823
27.95923,46866
27.96735,50032
27.97548,45213
27.98360,48620
27.99172,45800
27.99985,49059
28.00797,48714
28.01610,49009
28.02422,54664
28.03233,56259
28.04047,60345
28.04858,62147
28.05670,66792
28.06483,65602
28.07295,64824
28.08108,58831
28.08920,61429
28.09732,64077
28.10545,61154
28.11357,62005
28.12170,53644
28.12982,50774
28.13793,46687
28.14607,46394
28.15418,44730
28.16232,51742
28.17043,47651
28.17855,49206
28.18668,53249
28.19480,55847
28.20292,67117
28.21105,72764
28.21917,82625
28.22730,88863
28.23542,85929
28.24353,77475
28.25167,74530
28.25978,66788
28.26792,55975
28.27603,54736
28.28415,50636
28.29228,58504
28.30040,59215
28.30852,59212
28.31665,63901
28.32477,74517
28.33290,80890
28.34102,86575
28.34913,97518
28.35727,100293
28.36538,109198
28.37352,121541
28.38163,130838
28.38975,137575
28.39788,139687
28.40600,145731
28.41413,139072
28.42225,136780
28.43037,130188
28.43850,119222
28.44662,109335
28.45473,110098
28.46287,102286
28.47098,101974
28.47912,94750
28.48723,85316
28.49535,84101
28.50348,86010
28.51160,86903
28.51973,77811
28.52785,77329
28.53597,78999
28.54410,74308
28.55222,69124
28.56035,68140
28.56847,67654
28.57658,62656
28.58472,63094
28.59283,64253
28.60095,63862
28.60908,62665
28.61720,68334
28.62533,61529
28.63345,66613
28.64157,69708
28.64970,67513
28.65782,69177
28.66595,66670
28.67407,66912
28.68218,69488
28.69032,63619
28.69843,70770
28.70655,57927
28.71468,61231
28.72280,62470
28.73093,59356
28.73905,60350
28.74717,62504
28.75530,61314
28.76342,77772
28.77155,87698
28.77967,87547
28.78778,87954
28.79592,85041
28.80403,76189
28.81217,70271
28.82028,64956
28.82840,68366
28.83653,68004
28.84465,61900
28.85277,56207
28.86090,56457
28.86902,61617
28.87715,56269
28.88527,61362
28.89338,63452
28.90152,67548
28.90963,74005
28.91777,67310
28.92588,65831
28.93400,61471
28.94213,61118
28.95025,59789
28.95838,59428
28.96650,58216
28.97462,59512
28.98275,61318
28.99087,56616
28.99898,56974
29.00712,55112
29.01523,52370
29.02337,49887
29.03148,51197
29.03960,49471
29.04773,48933
29.05585,49960
29.06398,49849
29.07210,48799
29.08022,52502
29.08835,50606
29.09647,54508
29.10458,54136
29.11272,54396
29.12083,49551
29.12897,48008
29.13708,49826
29.14520,48384
29.15333,50283
29.16145,52465
29.16958,49645
29.17770,47912
29.18582,52599
29.19395,61453
29.20207,70339
29.21020,85069
29.21832,88608
29.22643,97160
29.23457,100922
29.24268,104830
29.25080,120011
29.25893,137234
29.26705,168087
29.27518,180338
29.28330,175450
29.29142,156413
29.29955,126782
29.30767,92732
29.31580,76186
29.32392,65877
29.33203,60430
29.34017,52292
29.34828,55067
29.35640,48519
29.36453,52878
29.37265,47970
29.38078,47998
29.38890,53141
29.39702,51795
29.40515,49890
29.41327,46764
29.42140,48211
29.42952,50015
29.43763,49335
29.44577,47035
29.45388,46778
29.46202,48805
29.47013,49627
29.47825,50267
29.48638,49156
29.49450,49539
29.50262,52660
29.51075,53857
29.51887,56960
29.52700,53893
29.53512,51782
29.54323,52118
29.55137,50536
29.55948,46051
29.56762,43314
29.57573,44247
29.58385,45238
29.59198,46591
29.60010,44505
29.60823,41547
29.61635,45076
29.62447,46599
29.63260,43175
29.64072,43515
29.64883,45389
29.65697,46894
29.66508,48956
29.67322,50899
29.68133,51297
29.68945,50858
29.69758,49943
29.70570,53457
29.71383,49812
29.72195,50932
29.73007,48191
29.73820,47594
29.74632,45476
29.75445,46110
29.76257,44850
29.77068,45455
29.77882,41385
29.78693,38855
29.79505,41607
29.80318,43525
29.81130,41534
29.81943,39561
29.82755,40320
29.83567,41077
29.84380,46990
29.85192,41547
29.86005,44935
29.86817,44682
29.87628,49660
29.88442,51835
29.89253,63338
29.90065,69929
29.90878,81003
29.91690,78504
29.92503,74279
29.93315,66416
29.94127,56194
29.94940,50514
29.95752,51352
29.96565,53215
29.97377,54189
29.98188,59922
29.99002,63443
29.99813,71717
30.00627,78257
30.01438,77391
30.02250,81535
30.03063,85038
30.03875,91774
30.04687,86919
30.05500,89164
30.06312,88890
30.07125,90859
30.07937,87137
30.08748,88297
30.09562,88953
30.10373,85385
30.11187,80910
30.11998,80225
30.12810,79922
30.13623,82756
30.14435,72908
30.15247,71794
30.16060,75499
30.16872,81439
30.17685,73239
30.18497,69041
30.19308,71390
30.20122,70961
30.20933,69413
30.21747,65118
30.22558,65324
30.23370,62665
30.24183,58471
30.24995,58492
30.25808,57597
30.26620,55763
30.27432,51731
30.28245,56227
30.29057,53854
30.29868,54524
30.30682,57115
30.31493,52522
30.32307,50277
30.33118,53559
30.33930,57427
30.34743,54369
30.35555,50276
30.36368,53200
30.37180,48278
30.37992,54962
30.38805,50128
30.39617,50150
30.40430,48806
30.41242,48816
30.42053,49585
30.42867,48286
30.43678,50025
30.44490,45548
30.45303,45901
30.46115,46864
30.46928,46761
30.47740,41926
30.48552,48909
30.49365,50021
30.50177,49958
30.50990,45262
30.51802,43217
30.52613,43888
30.53427,43211
30.54238,44462
30.55050,52958
30.55863,46073
30.56675,41971
30.57488,40533
30.58300,44330
30.59112,44883
30.59925,43008
30.60737,45698
30.61550,42082
30.62362,44181
30.63173,49537
30.63987,50081
30.64798,57601
30.65612,61912
30.66423,67344
30.67235,67183
30.68048,71773
30.68860,74111
30.69672,77316
30.70485,79286
30.71297,79317
30.72110,82162
30.72922,81625
30.73733,84180
30.74547,85388
30.75358,85605
30.76172,91025
30.76983,95072
30.77795,88548
30.78608,103785
30.79420,110123
30.80233,128583
30.81045,134884
30.81857,138287
30.82670,135476
30.83482,128001
30.84293,120355
30.85107,110950
30.85918,100732
30.86732,99075
30.87543,93156
30.88355,95896
30.89168,97735
30.89980,93491
30.90793,91701
30.91605,89667
30.92417,89238
30.93230,92205
30.94042,90498
30.94853,89226
30.95667,95579
30.96478,89305
30.97292,84680
30.98103,84857
30.98915,85285
30.99728,87018
31.00540,84227
31.01353,87484
31.02165,93042
31.02977,85736
31.03790,92803
31.04602,87012
31.05415,90851
31.06227,88485
31.07038,87394
31.07852,93110
31.08663,93904
31.09475,99188
31.10288,107153
31.11100,113484
31.11913,106790
31.12725,107277
31.13537,98400
31.14350,98820
31.15162,88929
31.15975,86391
31.16787,85803
31.17598,91951
31.18412,99047
31.19223,110376
31.20035,127716
31.20848,161008
31.21660,194839
31.22473,220417
31.23285,221763
31.24097,208529
31.24910,184232
31.25722,156047
31.26535,127875
31.27347,102239
31.28158,88306
31.28972,80087
31.29783,76839
31.30597,74609
31.31408,73938
31.32220,74933
31.33033,71962
31.33845,76946
31.34657,74479
31.35470,71623
31.36282,76835
31.37095,71211
31.37907,72745
31.38718,78515
31.39532,71116
31.40343,74335
31.41157,74087
31.41968,70784
31.42780,70090
31.43593,63954
31.44405,63171
31.45218,65248
31.46030,64179
31.46842,65566
31.47655,60151
31.48467,65961
31.49278,66213
31.50092,65274
31.50903,65380
31.51717,70057
31.52528,65394
31.53340,68113
31.54153,70849
31.54965,61664
31.55778,66392
31.56590,66924
31.57402,66753
31.58215,61804
31.59027,64008
31.59838,62887
31.60652,60980
31.61463,64820
31.62277,59373
31.63088,57098
31.63900,57760
31.64713,57597
31.65525,59888
31.66338,63118
31.67150,64314
31.67962,63224
31.68775,66174
31.69587,60969
31.70400,63707
31.71212,58673
31.72023,58412
31.72837,54080
31.73648,56300
31.74460,52498
31.75273,59899
31.76085,52862
31.76898,51240
31.77710,49418
31.78522,56250
31.79335,57193
31.80147,57532
31.80960,60409
31.81772,58668
31.82583,54052
31.83397,54380
31.84208,55861
31.85022,57143
31.85833,56520
31.86645,58523
31.87458,55435
31.88270,58375
31.89082,64196
31.89895,65570
31.90707,64805
31.91520,72885
31.92332,74380
31.93143,77214
31.93957,76904
31.94768,79935
31.95582,79863
31.96393,87436
31.97205,95011
31.98018,91307
31.98830,95283
31.99642,96484
32.00455,97511
32.01267,97760
32.02080,93046
32.02892,99420
32.03703,87640
32.04517,84191
32.05328,80169
32.06142,79189
32.06953,75775
32.07765,76416
32.08578,76848
32.09390,78180
32.10203,74007
32.11015,77529
32.11827,70275
32.12640,70031
32.13452,67853
32.14263,70273
32.15077,65732
32.15888,62275
32.16702,58307
32.17513,60563
32.18325,56606
32.19138,60018
32.19950,60514
32.20763,62511
32.21575,57091
32.22387,54409
32.23200,58567
32.24012,58064
32.24823,59317
32.25637,57954
32.26448,61150
32.27262,61569
32.28073,61594
32.28885,60816
32.29698,55764
32.30510,54091
32.31323,58795
32.32135,51172
32.32947,54002
32.33760,56016
32.34572,54893
32.35385,57494
32.36197,58583
32.37008,60642
32.37822,59474
32.38633,55806
32.39445,51115
32.40258,54044
32.41070,51331
32.41883,57841
32.42695,52619
32.43507,50709
32.44320,53211
32.45132,51243
32.45945,51871
32.46757,50193
32.47568,49874
32.48382,47734
32.49193,52585
32.50007,50713
32.50818,55625
32.51630,54725
32.52443,55238
32.53255,48877
32.54067,50472
32.54880,53473
32.55692,55554
32.56505,51892
32.57317,51176
32.58128,52830
32.58942,55076
32.59753,50046
32.60567,53843
32.61378,49917
32.62190,48550
32.63003,52885
32.63815,52231
32.64627,58924
32.65440,63243
32.66252,69837
32.67065,74046
32.67877,74580
32.68688,72619
32.69502,69663
32.70313,62738
32.71127,60595
32.71938,60091
32.72750,58963
32.73563,59768
32.74375,56291
32.75188,55025
32.76000,55815
32.76812,53637
32.77625,49985
32.78437,49503
32.79248,51487
32.80062,53300
32.80873,52868
32.81687,51526
32.82498,50392
32.83310,49974
32.84123,52902
32.84935,51507
32.85748,49448
32.86560,47521
32.87372,50283
32.88185,53222
32.88997,50489
32.89810,53653
32.90622,53920
32.91433,58351
32.92247,51774
32.93058,55369
32.93870,54549
32.94683,51217
32.95495,52923
32.96308,54896
32.97120,53098
32.97932,58970
32.98745,64658
32.99557,67386
33.00370,78182
33.01182,74350
33.01993,76837
33.02807,74269
33.03618,64981
33.04430,61467
33.05243,60300
33.06055,59553
33.06868,65078
33.07680,63818
33.08492,70224
33.09305,76182
33.10117,78065
33.10930,75957
33.11742,81587
33.12553,82848
33.13367,77829
33.14178,72092
33.14992,72650
33.15803,64820
33.16615,64107
33.17428,60797
33.18240,62173
33.19052,54280
33.19865,54467
33.20677,57495
33.21490,55662
33.22302,55165
33.23113,58305
33.23927,54711
33.24738,57652
33.25552,56509
33.26363,54127
33.27175,54310
33.27988,53025
33.28800,53820
33.29613,51358
33.30425,53169
33.31237,53806
33.32050,51218
33.32862,55304
33.33673,56823
33.34487,54247
33.35298,58979
33.36112,59685
33.36923,62104
33.37735,58556
33.38548,62004
33.39360,55021
33.40173,54381
33.40985,52692
33.41797,52126
33.42610,48391
33.43422,49701
33.44233,51854
33.45047,50749
33.45858,45854
33.46672,52939
33.47483,52997
33.48295,48952
33.49108,51820
33.49920,47736
33.50733,49960
33.51545,51639
33.52357,58558
33.53170,53451
33.53982,58313
33.54795,59980
33.55607,60998
33.56418,59845
33.57232,60730
33.58043,61011
33.58855,53780
33.59668,54344
33.60480,52977
33.61293,55633
33.62105,53127
33.62917,57207
33.63730,54241
33.64542,53140
33.65355,51496
33.66167,55594
33.66978,54232
33.67792,58446
33.68603,57305
33.69415,54483
33.70228,53481
33.71040,48914
33.71853,49941
33.72665,54687
33.73477,50878
33.74290,48310
33.75102,49687
33.75915,47363
33.76727,48682
33.77538,51350
33.78352,50253
33.79163,49442
33.79977,47815
33.80788,47609
33.81600,50911
33.82413,52140
33.83225,53495
33.84037,49035
33.84850,50273
33.85662,48855
33.86475,51722
33.87287,56722
33.88098,48739
33.88912,54671
33.89723,51106
33.90537,49832
33.91348,51977
33.92160,50554
33.92973,54422
33.93785,50962
33.94598,53167
33.95410,52827
33.96222,55369
33.97035,48561
33.97847,52310
33.98658,52700
33.99472,57079
34.00283,52077
34.01097,48201
34.01908,48950
34.02720,51204
34.03533,50573
34.04345,52760
34.05158,55027
34.05970,50766
34.06782,47570
34.07595,51758
34.08407,53481
34.09218,49714
34.10032,52790
34.10843,53893
34.11657,53465
34.12468,53169
34.13280,55895
34.14093,52206
34.14905,51696
34.15718,51973
34.16530,52750
34.17342,56734
34.18155,55075
34.18967,50219
34.19780,52898
34.20592,52361
34.21403,51509
34.22217,50409
34.23028,47464
34.23840,52622
34.24653,52217
34.25465,54305
34.26278,54912
34.27090,53311
34.27902,51913
34.28715,51560
34.29527,49605
34.30340,51658
34.31152,50648
34.31963,51356
34.32777,49335
34.33588,55120
34.34402,51123
34.35213,49152
34.36025,53165
34.36838,55453
34.37650,51852
34.38462,53905
34.39275,54097
34.40087,51922
34.40900,53044
34.41712,53448
34.42523,55352
34.43337,50863
34.44148,53919
34.44962,50774
34.45773,52042
34.46585,54493
34.47398,50050
34.48210,51991
34.49022,49349
34.49835,54835
34.50647,53672
34.51460,57438
34.52272,60817
34.53083,71676
34.53897,72659
34.54708,89959
34.55522,86408
34.56333,89548
34.57145,89422
34.57958,86266
34.58770,81760
34.59583,83945
34.60395,76460
34.61207,71348
34.62020,73735
34.62832,67382
34.63643,64861
34.64457,66833
34.65268,65007
34.66082,68297
34.66893,64010
34.67705,66166
34.68518,63926
34.69330,60427
34.70143,64576
34.70955,57488
34.71767,59356
34.72580,62197
34.73392,64065
34.74203,63810
34.75017,55352
34.75828,56194
34.76642,59602
34.77453,52783
34.78265,57186
34.79078,58561
34.79890,58121
34.80703,58995
34.81515,60422
34.82327,63449
34.83140,63908
34.83952,61023
34.84765,56404
34.85577,62154
34.86388,63339
34.87202,57818
34.88013,59323
34.88825,56299
34.89638,60597
34.90450,54583
34.91263,61289
34.92075,56342
34.92887,58911
34.93700,59805
34.94512,60513
34.95325,61959
34.96137,62340
34.96948,65136
34.97762,70143
34.98573,68420
34.99387,67051
35.00198,62478
35.01010,64186
35.01823,57400
35.02635,56356
35.03447,57878
35.04260,57951
35.05072,61231
35.05885,57279
35.06697,54001
35.07508,55058
35.08322,56741
35.09133,55175
35.09947,52747
35.10758,54749
35.11570,54507
35.12383,54469
35.13195,55158
35.14008,49883
35.14820,57035
35.15632,54426
35.16445,57977
35.17257,59166
35.18068,56717
35.18882,54181
35.19693,54669
35.20507,56131
35.21318,56824
35.22130,51384
35.22943,54653
35.23755,51830
35.24568,53373
35.25380,58350
35.26192,56352
35.27005,56013
35.27817,55645
35.28628,59674
35.29442,56225
35.30253,56392
35.31067,55152
35.31878,53969
35.32690,55926
35.33503,55395
35.34315,52031
35.35128,55872
35.35940,57574
35.36752,53730
35.37565,51223
35.38377,46367
35.39190,55069
35.40002,55241
35.40813,56540
35.41627,56497
35.42438,53982
35.43250,55993
35.44063,57124
35.44875,58903
35.45688,57410
35.46500,57936
35.47312,59645
35.48125,60795
35.48937,61468
35.49750,59898
35.50562,59047
35.51373,53077
35.52187,57223
35.52998,58244
35.53810,55929
35.54623,55949
35.55435,52192
35.56248,59045
35.57060,54572
35.57872,52107
35.58685,55270
35.59497,52251
35.60310,55783
35.61122,53797
35.61933,55429
35.62747,48634
35.63558,55364
35.64372,55145
35.65183,57459
35.65995,60354
35.66808,59338
35.67620,61539
35.68432,56501
35.69245,61713
35.70057,63854
35.70870,61193
35.71682,57669
35.72493,59731
35.73307,57784
35.74118,59541
35.74932,64861
35.75743,68232
35.76555,67772
35.77368,67775
35.78180,75222
35.78993,69014
35.79805,64196
35.80617,60431
35.81430,58079
35.82242,57465
35.83053,58980
35.83867,57303
35.84678,58849
35.85492,56190
35.86303,56326
35.87115,57198
35.87928,59482
35.88740,56376
35.89553,58883
35.90365,57979
35.91177,56135
35.91990,57204
35.92802,53813
35.93613,59396
35.94427,57139
35.95238,60958
35.96052,52424
35.96863,59297
35.97675,52834
35.98488,58014
35.99300,55100
36.00113,58937
36.00925,57530
36.01737,62687
36.02550,63397
36.03362,61476
36.04175,57015
36.04987,59552
36.05798,60164
36.06612,57989
36.07423,58311
36.08235,54603
36.09048,57704
36.09860,57183
36.10673,59513
36.11485,63552
36.12297,52909
36.13110,57230
36.13922,61879
36.14735,62187
36.15547,65902
36.16358,64548
36.17172,64274
36.17983,65331
36.18797,66383
36.19608,69800
36.20420,74265
36.21233,75871
36.22045,72547
36.22857,75733
36.23670,74212
36.24482,77854
36.25295,75382
36.26107,80406
36.26918,80634
36.27732,86608
36.28543,83481
36.29357,91955
36.30168,94912
36.30980,102948
36.31793,104078
36.32605,105304
36.33417,97359
36.34230,91219
36.35042,88652
36.35855,86795
36.36667,86582
36.37478,88056
36.38292,88438
36.39103,85597
36.39917,90219
36.40728,88033
36.41540,84422
36.42353,85201
36.43165,88383
36.43978,88678
36.44790,88618
36.45602,83193
36.46415,78703
36.47227,78804
36.48038,81349
36.48852,78924
36.49663,88245
36.50477,86469
36.51288,79746
36.52100,81775
36.52913,75647
36.53725,81238
36.54538,80512
36.55350,77084
36.56162,81417
36.56975,81184
36.57787,79474
36.58598,75985
36.59412,73248
36.60223,76783
36.61037,77054
36.61848,81231
36.62660,75221
36.63473,80009
36.64285,79618
36.65098,75525
36.65910,80648
36.66722,76765
36.67535,74279
36.68347,75443
36.69160,78104
36.69972,75934
36.70783,80849
36.71597,77181
36.72408,76144
36.73220,76268
36.74033,73423
36.74845,78710
36.75658,72671
36.76470,73463
36.77282,75248
36.78095,70504
36.78907,76525
36.79720,70246
36.80532,69030
36.81343,69178
36.82157,69306
36.82968,66453
36.83782,72296
36.84593,75501
36.85405,71246
36.86218,67788
36.87030,70482
36.87842,68694
36.88655,70677
36.89467,72401
36.90280,71250
36.91092,67502
36.91903,75006
36.92717,70891
36.93528,77359
36.94342,77475
36.95153,77174
36.95965,80668
36.96778,87157
36.97590,86476
36.98402,88173
36.99215,78847
37.00027,79352
37.00840,68546
37.01652,75004
37.02463,74720
37.03277,68391
37.04088,70879
37.04902,71408
37.05713,66239
37.06525,68637
37.07338,68223
37.08150,75663
37.08963,71345
37.09775,77625
37.10587,71824
37.11400,73504
37.12212,73476
37.13023,72422
37.13837,74096
37.14648,72959
37.15462,68716
37.16273,72744
37.17085,75588
37.17898,71260
37.18710,74773
37.19523,76306
37.20335,72738
37.21147,72356
37.21960,68402
37.22772,73000
37.23585,75512
37.24397,71310
37.25208,66982
37.26022,68863
37.26833,69523
37.27645,74965
37.28458,70331
37.29270,67101
37.30083,70435
37.30895,72231
37.31707,75974
37.32520,79758
37.33332,85647
37.34145,91014
37.34957,93761
37.35768,95177
37.36582,101873
37.37393,101317
37.38205,97264
37.39018,97130
37.39830,88473
37.40643,87781
37.41455,85381
37.42267,82415
37.43080,83610
37.43892,88087
37.44705,85686
37.45517,80601
37.46328,87762
37.47142,80054
37.47953,78181
37.48767,79808
