C:\MassHunter\GCMS\1\data\JTB-E02\BACandBLUE\JTB-E18-014-11.D Tue Jun 25 15:28:56 2019
Start of data points
2.09532,69037
2.10343,67535
2.11157,73149
2.11968,69786
2.12780,70000
2.13593,68187
2.14405,70626
2.15217,69126
2.16030,68322
2.16842,74605
2.17655,68211
2.18467,70375
2.19278,59810
2.20092,62526
2.20903,61014
2.21717,60241
2.22528,66370
2.23340,57584
2.24153,60526
2.24965,65030
2.25778,64245
2.26590,128422
2.27402,705209
2.28215,1478471
2.29027,896026
2.29838,410835
2.30652,289494
2.31463,248249
2.32277,218590
2.33088,248181
2.33900,380795
2.34713,239801
2.35525,185093
2.36338,167784
2.37150,153431
2.37962,140724
2.38775,142917
2.39587,133831
2.40398,127691
2.41212,126618
2.42023,126092
2.42837,120427
2.43648,113362
2.44460,116686
2.45273,120925
2.46085,111225
2.46898,107105
2.47710,104459
2.48522,115335
2.49335,151882
2.50147,162534
2.50960,123861
2.51772,116032
2.52583,112797
2.53397,113018
2.54208,105020
2.55020,123435
2.55833,217233
2.56645,338730
2.57458,259451
2.58270,198339
2.59082,173407
2.59895,173324
2.60707,214706
2.61520,323688
2.62332,322427
2.63143,250724
2.63957,186998
2.64768,162436
2.65582,152993
2.66393,147959
2.67205,135208
2.68018,131607
2.68830,120728
2.69642,120858
2.70455,120575
2.71267,113761
2.72080,116752
2.72892,118732
2.73703,118065
2.74517,107538
2.75328,107102
2.76142,111202
2.76953,107919
2.77765,133954
2.78578,219936
2.79390,259463
2.80203,195387
2.81015,160737
2.81827,171318
2.82640,187063
2.83452,174874
2.84263,166674
2.85077,140629
2.85888,131458
2.86702,121690
2.87513,120968
2.88325,118514
2.89138,108895
2.89950,115070
2.90763,109386
2.91575,103257
2.92387,100898
2.93200,100582
2.94012,102861
2.94823,106068
2.95637,97568
2.96448,100164
2.97262,96430
2.98073,102719
2.98885,114618
2.99698,128082
3.00510,143195
3.01323,130017
3.02135,120483
3.02947,107185
3.03760,106663
3.04572,99215
3.05385,100136
3.06197,110310
3.07008,105546
3.07822,114226
3.08633,165210
3.09445,422348
3.10258,1534189
3.11070,3635355
3.11883,3827305
3.12695,2439658
3.13507,1589614
3.14320,1209998
3.15132,965925
3.15945,794082
3.16757,722880
3.17568,716396
3.18382,844872
3.19193,1492131
3.20005,2053361
3.20818,1645449
3.21630,1131217
3.22443,899152
3.23255,747812
3.24067,636616
3.24880,565291
3.25692,498665
3.26505,453768
3.27317,405678
3.28128,409404
3.28942,605367
3.29753,1601704
3.30567,3733132
3.31378,5480708
3.32190,5169761
3.33003,3689293
3.33815,2530701
3.34627,1960150
3.35440,1565238
3.36252,1345399
3.37065,1141166
3.37877,1033444
3.38688,921867
3.39502,836369
3.40313,765116
3.41127,720108
3.41938,656862
3.42750,640581
3.43563,616889
3.44375,593584
3.45188,564249
3.46000,531881
3.46812,545384
3.47625,567987
3.48437,557667
3.49248,535453
3.50062,515932
3.50873,479076
3.51687,458864
3.52498,447320
3.53310,453466
3.54123,465229
3.54935,457929
3.55748,439269
3.56560,412525
3.57372,388550
3.58185,397010
3.58997,381930
3.59808,373391
3.60622,361580
3.61433,371716
3.62247,373736
3.63058,378525
3.63870,410934
3.64683,388894
3.65495,389889
3.66308,762911
3.67120,2842077
3.67932,6962467
3.68745,8677637
3.69557,6281702
3.70370,3698500
3.71182,2556685
3.71993,2051562
3.72807,1752951
3.73618,1542873
3.74430,1378094
3.75243,1257508
3.76055,1157136
3.76868,1078212
3.77680,987295
3.78492,936037
3.79305,906569
3.80117,1004300
3.80930,1590929
3.81742,2479227
3.82553,2560581
3.83367,1962372
3.84178,1430435
3.84992,1173228
3.85803,1042238
3.86615,950150
3.87428,878991
3.88240,819974
3.89052,783673
3.89865,731630
3.90677,709100
3.91490,734333
3.92302,872579
3.93113,1059290
3.93927,1039396
3.94738,906492
3.95552,909265
3.96363,1089412
3.97175,1209084
3.97988,1058427
3.98800,833215
3.99612,803552
4.00425,1233800
4.01237,2060247
4.02050,2523461
4.02862,2090881
4.03673,1381165
4.04487,952838
4.05298,782028
4.06112,670337
4.06923,602520
4.07735,557721
4.08548,524347
4.09360,504874
4.10173,500214
4.10985,471314
4.11797,470308
4.12610,450219
4.13422,525777
4.14233,827205
4.15047,1362934
4.15858,1618268
4.16672,1372073
4.17483,1023430
4.18295,823964
4.19108,693324
4.19920,635403
4.20733,879491
4.21545,2585971
4.22357,7475312
4.23170,1.397253E+07
4.23982,1.73478E+07
4.24793,1.523505E+07
4.25607,9882466
4.26418,5961890
4.27232,4118237
4.28043,3086431
4.28855,2391266
4.29668,1986108
4.30480,1687291
4.31293,1471450
4.32105,1315037
4.32917,1257594
4.33730,1174510
4.34542,1103828
4.35355,1056230
4.36167,1042233
4.36978,1025377
4.37792,945574
4.38603,852433
4.39415,770601
4.40228,725946
4.41040,683532
4.41853,650749
4.42665,617560
4.43477,598815
4.44290,567306
4.45102,557860
4.45915,539333
4.46727,515997
4.47538,507986
4.48352,498635
4.49163,489889
4.49977,466108
4.50788,456583
4.51600,437200
4.52413,437019
4.53225,428020
4.54037,436057
4.54850,425759
4.55662,425844
4.56475,410910
4.57287,396152
4.58098,383107
4.58912,371899
4.59723,379861
4.60537,365446
4.61348,366128
4.62160,430994
4.62973,610334
4.63785,965831
4.64597,1207374
4.65410,1153012
4.66222,889874
4.67035,646225
4.67847,548180
4.68658,492683
4.69472,461916
4.70283,423716
4.71097,390632
4.71908,375691
4.72720,354276
4.73533,350718
4.74345,344548
4.75158,330753
4.75970,317797
4.76782,317315
4.77595,312021
4.78407,316693
4.79218,318578
4.80032,366190
4.80843,404208
4.81657,401313
4.82468,373031
4.83280,362292
4.84093,373688
4.84905,396171
4.85718,376551
4.86530,355540
4.87342,330531
4.88155,313576
4.88967,310448
4.89780,295183
4.90592,303490
4.91403,289589
4.92217,288035
4.93028,314397
4.93840,438775
4.94653,762772
4.95465,1341758
4.96278,1954124
4.97090,2161734
4.97902,1945963
4.98715,1567688
4.99527,1213009
5.00340,986922
5.01152,848409
5.01963,782232
5.02777,884316
5.03588,1197390
5.04400,1520319
5.05213,1539648
5.06025,1276325
5.06838,1025592
5.07650,883362
5.08462,788651
5.09275,722617
5.10087,670922
5.10900,620930
5.11712,601986
5.12523,595602
5.13337,564375
5.14148,540426
5.14962,539476
5.15773,595294
5.16585,654270
5.17398,692219
5.18210,662716
5.19022,609869
5.19835,604160
5.20647,661774
5.21460,694933
5.22272,675860
5.23083,619902
5.23897,586496
5.24708,520070
5.25522,497696
5.26333,449598
5.27145,412075
5.27958,400883
5.28770,376157
5.29583,364319
5.30395,365596
5.31207,360537
5.32020,361996
5.32832,380714
5.33643,418550
5.34457,461455
5.35268,442990
5.36082,428088
5.36893,378995
5.37705,363695
5.38518,355040
5.39330,374312
5.40143,388071
5.40955,400440
5.41767,377229
5.42580,351385
5.43392,331998
5.44203,342681
5.45017,346014
5.45828,356067
5.46642,349888
5.47453,328620
5.48265,317731
5.49078,307564
5.49890,295907
5.50703,304925
5.51515,296258
5.52327,309834
5.53140,308503
5.53952,311382
5.54765,298934
5.55577,316714
5.56388,373857
5.57202,450917
5.58013,495753
5.58825,457562
5.59638,394374
5.60450,351082
5.61263,318283
5.62075,302203
5.62887,297581
5.63700,308449
5.64512,303127
5.65325,304868
5.66137,304038
5.66948,293988
5.67762,304969
5.68573,323530
5.69385,366480
5.70198,367329
5.71010,349725
5.71823,322179
5.72635,309165
5.73447,278315
5.74260,270899
5.75072,266311
5.75885,259937
5.76697,261274
5.77508,248538
5.78322,245544
5.79133,247449
5.79947,242057
5.80758,242309
5.81570,230138
5.82383,241908
5.83195,244780
5.84007,242934
5.84820,238584
5.85632,241697
5.86445,233351
5.87257,228362
5.88068,226451
5.88882,235864
5.89693,230363
5.90507,223434
5.91318,210396
5.92130,174159
5.92943,177826
5.93755,172371
5.94568,180768
5.95380,196507
5.96192,219251
5.97005,237738
5.97817,291479
5.98628,334302
5.99442,359632
6.00253,337589
6.01067,300409
6.01878,245471
6.02690,216533
6.03503,195940
6.04315,179013
6.05128,180193
6.05940,169393
6.06752,164299
6.07565,164091
6.08377,163115
6.09188,172466
6.10002,162587
6.10813,162311
6.11627,171674
6.12438,204023
6.13250,303166
6.14063,487562
6.14875,648562
6.15688,654891
6.16500,563971
6.17312,408076
6.18125,323770
6.18937,276467
6.19750,256293
6.20562,235112
6.21373,229022
6.22187,223174
6.22998,216020
6.23810,216573
6.24623,220160
6.25435,236278
6.26248,245880
6.27060,251472
6.27872,244017
6.28685,227595
6.29497,214449
6.30310,209566
6.31122,209812
6.31933,214459
6.32747,210092
6.33558,210345
6.34372,208094
6.35183,205123
6.35995,202505
6.36808,199180
6.37620,201861
6.38432,207494
6.39245,213379
6.40057,207066
6.40870,206885
6.41682,206224
6.42493,204695
6.43307,202377
6.44118,212413
6.44932,210365
6.45743,209096
6.46555,219905
6.47368,209472
6.48180,208840
6.48992,210474
6.49805,219700
6.50617,210573
6.51430,220857
6.52242,225534
6.53053,223138
6.53867,226407
6.54678,221028
6.55492,219624
6.56303,244690
6.57115,308352
6.57928,381033
6.58740,434098
6.59553,403746
6.60365,340771
6.61177,291599
6.61990,263043
6.62802,256184
6.63613,270931
6.64427,376711
6.65238,941484
6.66052,2453040
6.66863,4677517
6.67675,6082093
6.68488,5552142
6.69300,3775565
6.70113,2286658
6.70925,1460273
6.71737,1085344
6.72550,877718
6.73362,820305
6.74173,722120
6.74987,647676
6.75798,568399
6.76612,511941
6.77423,477080
6.78235,453996
6.79048,424470
6.79860,394236
6.80673,363227
6.81485,339405
6.82297,330799
6.83110,317587
6.83922,294300
6.84735,295459
6.85547,296990
6.86358,271302
6.87172,254868
6.87983,237036
6.88795,211302
6.89608,200191
6.90420,184939
6.91233,174498
6.92045,160233
6.92857,166595
6.93670,155409
6.94482,144994
6.95295,142812
6.96107,151478
6.96918,167529
6.97732,193151
6.98543,205649
6.99357,198685
7.00168,175758
7.00980,174926
7.01793,180736
7.02605,188943
7.03417,192863
7.04230,182506
7.05042,186109
7.05855,196995
7.06667,192452
7.07478,193739
7.08292,187015
7.09103,173361
7.09917,167038
7.10728,160058
7.11540,149079
7.12353,141589
7.13165,145353
7.13977,152921
7.14790,194978
7.15602,247691
7.16415,306139
7.17227,333130
7.18038,294256
7.18852,237262
7.19663,204237
7.20477,229602
7.21288,400226
7.22100,817430
7.22913,1384643
7.23725,1703546
7.24538,1579157
7.25350,1118841
7.26162,704651
7.26975,460431
7.27787,340321
7.28598,249589
7.29412,180778
7.30223,159431
7.31037,144760
7.31848,141600
7.32660,150356
7.33473,146791
7.34285,154416
7.35098,139635
7.35910,136216
7.36722,139163
7.37535,129704
7.38347,125674
7.39160,133612
7.39972,132612
7.40783,135397
7.41597,124694
7.42408,122769
7.43220,115485
7.44033,116262
7.44845,118223
7.45658,115217
7.46470,119397
7.47282,114650
7.48095,114618
7.48907,114450
7.49720,102567
7.50532,107757
7.51343,136433
7.52157,179712
7.52968,311212
7.53780,562079
7.54593,922403
7.55405,1314750
7.56218,1554191
7.57030,1587548
7.57842,1363529
7.58655,1024250
7.59467,710455
7.60280,463946
7.61092,315488
7.61903,232263
7.62717,194959
7.63528,167301
7.64342,153352
7.65153,142395
7.65965,124467
7.66778,116859
7.67590,108957
7.68402,101484
7.69215,105202
7.70027,103296
7.70840,102577
7.71652,107811
7.72463,106616
7.73277,101594
7.74088,96041
7.74902,97521
7.75713,106049
7.76525,109494
7.77338,117275
7.78150,126038
7.78962,128961
7.79775,131623
7.80587,142294
7.81400,142749
7.82212,138075
7.83023,132792
7.83837,117102
7.84648,113528
7.85462,119566
7.86273,124766
7.87085,138840
7.87898,162888
7.88710,174466
7.89523,176726
7.90335,172374
7.91147,150754
7.91960,131775
7.92772,138215
7.93583,153172
7.94397,178902
7.95208,195301
7.96022,186550
7.96833,155748
7.97645,141304
7.98458,118220
7.99270,101518
8.00083,92038
8.00895,94478
8.01707,90270
8.02520,90557
8.03332,85722
8.04145,85614
8.04957,86499
8.05768,90567
8.06582,87346
8.07393,89063
8.08205,85998
8.09018,85480
8.09830,80882
8.10643,83776
8.11455,77512
8.12267,83442
8.13080,94262
8.13892,103040
8.14705,130134
8.15517,142453
8.16328,139458
8.17142,125894
8.17953,108480
8.18767,94168
8.19578,84890
8.20390,81224
8.21203,89444
8.22015,87762
8.22827,89987
8.23640,90954
8.24452,89590
8.25265,85464
8.26077,82103
8.26888,77521
8.27702,75298
8.28513,76446
8.29327,73792
8.30138,78884
8.30950,79354
8.31763,84492
8.32575,81332
8.33387,86554
8.34200,82200
8.35012,77435
8.35825,73194
8.36637,77918
8.37448,75033
8.38262,84767
8.39073,85358
8.39887,79508
8.40698,75213
8.41510,67832
8.42323,65472
8.43135,63905
8.43948,63948
8.44760,70142
8.45572,64274
8.46385,66960
8.47197,72606
8.48008,68732
8.48822,68712
8.49633,68627
8.50447,68823
8.51258,68750
8.52070,86889
8.52883,134990
8.53695,217278
8.54508,327258
8.55320,377379
8.56132,348428
8.56945,250901
8.57757,171746
8.58568,119896
8.59382,98805
8.60193,93764
8.61007,94708
8.61818,94399
8.62630,93132
8.63443,81565
8.64255,81996
8.65068,78568
8.65880,72495
8.66692,74353
8.67505,83586
8.68317,84672
8.69130,92414
8.69942,92558
8.70753,104652
8.71567,100314
8.72378,97903
8.73190,86569
8.74003,76856
8.74815,83665
8.75628,112244
8.76440,196028
8.77252,334730
8.78065,511906
8.78877,626054
8.79690,609806
8.80502,500286
8.81313,373873
8.82127,267993
8.82938,224182
8.83752,208219
8.84563,204575
8.85375,213852
8.86188,203649
8.87000,196815
8.87812,184820
8.88625,181436
8.89437,171438
8.90250,165039
8.91062,167041
8.91873,158772
8.92687,164554
8.93498,179899
8.94312,175006
8.95123,187472
8.95935,183718
8.96748,174614
8.97560,175287
8.98372,174012
8.99185,175437
8.99997,170152
9.00810,157191
9.01622,154444
9.02433,139795
9.03247,134456
9.04058,130535
9.04872,129937
9.05683,128573
9.06495,121183
9.07308,122717
9.08120,120509
9.08933,126942
9.09745,150247
9.10557,164128
9.11370,188397
9.12182,209214
9.12993,209810
9.13807,189293
9.14618,163818
9.15432,144499
9.16243,131576
9.17055,126364
9.17868,117687
9.18680,114918
9.19493,115004
9.20305,106147
9.21117,105849
9.21930,112611
9.22742,106868
9.23555,108271
9.24367,102002
9.25178,112302
9.25992,114032
9.26803,110048
9.27615,111337
9.28428,102318
9.29240,106286
9.30053,106224
9.30865,98946
9.31677,102687
9.32490,100089
9.33302,103350
9.34115,102613
9.34927,94688
9.35738,95616
9.36552,96415
9.37363,90693
9.38175,93563
9.38988,96065
9.39800,96890
9.40613,110151
9.41425,139129
9.42237,173584
9.43050,224036
9.43862,271689
9.44675,275184
9.45487,265060
9.46298,233317
9.47112,184901
9.47923,142215
9.48737,118403
9.49548,110203
9.50360,109185
9.51173,130767
9.51985,136397
9.52797,156658
9.53610,156753
9.54422,137648
9.55235,124169
9.56047,104370
9.56858,87847
9.57672,83825
9.58483,75809
9.59297,73380
9.60108,71936
9.60920,69562
9.61733,61096
9.62545,62022
9.63357,57609
9.64170,61345
9.64982,58089
9.65795,61104
9.66607,57618
9.67418,57323
9.68232,55751
9.69043,53068
9.69857,55865
9.70668,55995
9.71480,49319
9.72293,53219
9.73105,52030
9.73918,50736
9.74730,51021
9.75542,51059
9.76355,50360
9.77167,47610
9.77978,48600
9.78792,50232
9.79603,48502
9.80417,48162
9.81228,51262
9.82040,48882
9.82853,49199
9.83665,51240
9.84478,50412
9.85290,48187
9.86102,48262
9.86915,51212
9.87727,57313
9.88540,51426
9.89352,49403
9.90163,48867
9.90977,48643
9.91788,51683
9.92600,60884
9.93413,67753
9.94225,95805
9.95038,111394
9.95850,132671
9.96662,134875
9.97475,126345
9.98287,109865
9.99100,93439
9.99912,81656
10.00723,78962
10.01537,74772
10.02348,72433
10.03160,63965
10.03973,63055
10.04785,58443
10.05598,58050
10.06410,59499
10.07222,60769
10.08035,63870
10.08847,58122
10.09660,63033
10.10472,63904
10.11283,64165
10.12097,62161
10.12908,56588
10.13722,55292
10.14533,56792
10.15345,56571
10.16158,56552
10.16970,59593
10.17782,56196
10.18595,52759
10.19407,46608
10.20220,52718
10.21032,57988
10.21843,56416
10.22657,56495
10.23468,60990
10.24282,75984
10.25093,81335
10.25905,112884
10.26718,216664
10.27530,500154
10.28343,1049335
10.29155,1805672
10.29967,2756853
10.30780,3864922
10.31592,5615438
10.32403,8090309
10.33217,1.050621E+07
10.34028,1.164711E+07
10.34842,1.04265E+07
10.35653,7728409
10.36465,5439803
10.37278,4109371
10.38090,3275712
10.38903,2473325
10.39715,1726011
10.40527,1156940
10.41340,754827
10.42152,550732
10.42963,451917
10.43777,427948
10.44588,437494
10.45402,425709
10.46213,412877
10.47025,382950
10.47838,362350
10.48650,325298
10.49463,297842
10.50275,274341
10.51087,258379
10.51900,242062
10.52712,244447
10.53525,246690
10.54337,242803
10.55148,236390
10.55962,221784
10.56773,212469
10.57585,198092
10.58398,186370
10.59210,176044
10.60023,167355
10.60835,155549
10.61647,154817
10.62460,144564
10.63272,139639
10.64085,145254
10.64897,128833
10.65708,130196
10.66522,126445
10.67333,119786
10.68147,119541
10.68958,120658
10.69770,122658
10.70583,115262
10.71395,119017
10.72207,117548
10.73020,115221
10.73832,117932
10.74645,111042
10.75457,107581
10.76268,97723
10.77082,97728
10.77893,96613
10.78707,99766
10.79518,99801
10.80330,107023
10.81143,113656
10.81955,113877
10.82767,108788
10.83580,101497
10.84392,94719
10.85205,83971
10.86017,87231
10.86828,80388
10.87642,76748
10.88453,79746
10.89267,78542
10.90078,78588
10.90890,77042
10.91703,75741
10.92515,74234
10.93328,75393
10.94140,73617
10.94952,75164
10.95765,71113
10.96577,70569
10.97388,76565
10.98202,75129
10.99013,81322
10.99827,86284
11.00638,93357
11.01450,87700
11.02263,88230
11.03075,85964
11.03888,74451
11.04700,70787
11.05512,74066
11.06325,70853
11.07137,72368
11.07948,82046
11.08762,88604
11.09573,92754
11.10387,93277
11.11198,84555
11.12010,83727
11.12823,78098
11.13635,73623
11.14448,63818
11.15260,65427
11.16072,61389
11.16885,63448
11.17697,72346
11.18510,71182
11.19322,73367
11.20133,68896
11.20947,65338
11.21758,63260
11.22570,59704
11.23383,57937
11.24195,52766
11.25008,52604
11.25820,54745
11.26632,53620
11.27445,52742
11.28257,58268
11.29070,63177
11.29882,100218
11.30693,193302
11.31507,419466
11.32318,858483
11.33132,1524887
11.33943,2164279
11.34755,2574028
11.35568,2480346
11.36380,2025078
11.37192,1469348
11.38005,962074
11.38817,636770
11.39630,489586
11.40442,399166
11.41253,361031
11.42067,333439
11.42878,298585
11.43692,263155
11.44503,245616
11.45315,215367
11.46128,198918
11.46940,193937
11.47752,204927
11.48565,242231
11.49377,281013
11.50190,313151
11.51002,301832
11.51813,273047
11.52627,220974
11.53438,185959
11.54252,164201
11.55063,161894
11.55875,156277
11.56688,154103
11.57500,148654
11.58313,143627
11.59125,149683
11.59937,149751
11.60750,159715
11.61562,181794
11.62373,180769
11.63187,169516
11.63998,149691
11.64812,124801
11.65623,114540
11.66435,101588
11.67248,94971
11.68060,92502
11.68873,96540
11.69685,106111
11.70497,106799
11.71310,106820
11.72122,97404
11.72935,94173
11.73747,89517
11.74558,74550
11.75372,74409
11.76183,76069
11.76995,67846
11.77808,67662
11.78620,68122
11.79433,65863
11.80245,64182
11.81057,60906
11.81870,58481
11.82682,61663
11.83495,61831
11.84307,59439
11.85118,59622
11.85932,61222
11.86743,60533
11.87555,58933
11.88368,58605
11.89180,57378
11.89993,57995
11.90805,56206
11.91617,60435
11.92430,62819
11.93242,67836
11.94055,67582
11.94867,60043
11.95678,58197
11.96492,55694
11.97303,55181
11.98117,65697
11.98928,94169
11.99740,131805
12.00553,172734
12.01365,205909
12.02177,212370
12.02990,180050
12.03802,129149
12.04615,106719
12.05427,90277
12.06238,85481
12.07052,80020
12.07863,91117
12.08677,94391
12.09488,103209
12.10300,100809
12.11113,104572
12.11925,120800
12.12737,132443
12.13550,141107
12.14362,143401
12.15175,136863
12.15987,114415
12.16798,92184
12.17612,75629
12.18423,69055
12.19237,68451
12.20048,70733
12.20860,67962
12.21673,65743
12.22485,64252
12.23298,66567
12.24110,58732
12.24922,61690
12.25735,59088
12.26547,66231
12.27358,68731
12.28172,61717
12.28983,58244
12.29797,55329
12.30608,62355
12.31420,53508
12.32233,54348
12.33045,51113
12.33858,51817
12.34670,47959
12.35482,51597
12.36295,47892
12.37107,52001
12.37920,49974
12.38732,55805
12.39543,58122
12.40357,69280
12.41168,84830
12.41980,107212
12.42793,116977
12.43605,122214
12.44418,112870
12.45230,97329
12.46042,81328
12.46855,77102
12.47667,75628
12.48480,67120
12.49292,73117
12.50103,65315
12.50917,67217
12.51728,62411
12.52540,63109
12.53353,68481
12.54165,84719
12.54978,100299
12.55790,134101
12.56602,154508
12.57415,158728
12.58227,141398
12.59040,125623
12.59852,104010
12.60663,88358
12.61477,82352
12.62288,70869
12.63102,71389
12.63913,66730
12.64725,63178
12.65538,60590
12.66350,60011
12.67162,60381
12.67975,56348
12.68787,58262
12.69600,51920
12.70412,51909
12.71223,50330
12.72037,50797
12.72848,50523
12.73662,53514
12.74473,51543
12.75285,51247
12.76098,49037
12.76910,45608
12.77723,48301
12.78535,49547
12.79347,45646
12.80160,51194
12.80972,46207
12.81783,46374
12.82597,44729
12.83408,42647
12.84222,42634
12.85033,39984
12.85845,41670
12.86658,43694
12.87470,42092
12.88283,42007
12.89095,45816
12.89907,39220
12.90720,37777
12.91532,41502
12.92343,44623
12.93157,41297
12.93968,39240
12.94782,41727
12.95593,48134
12.96405,60218
12.97218,77433
12.98030,84909
12.98843,101214
12.99655,94136
13.00467,85040
13.01280,71129
13.02092,60245
13.02905,59413
13.03717,56594
13.04528,48769
13.05342,53631
13.06153,51320
13.06965,46730
13.07778,44891
13.08590,52069
13.09403,48595
13.10215,45693
13.11027,46014
13.11840,42579
13.12652,40960
13.13465,45673
13.14277,43686
13.15088,40324
13.15902,45078
13.16713,49340
13.17525,44455
13.18338,47888
13.19150,47979
13.19963,52971
13.20775,55545
13.21587,56590
13.22400,57754
13.23212,53246
13.24025,49410
13.24837,49864
13.25648,50460
13.26462,48181
13.27273,50714
13.28087,43681
13.28898,42610
13.29710,38678
13.30523,38360
13.31335,41226
13.32147,42236
13.32960,38226
13.33772,41530
13.34585,37887
13.35397,41066
13.36208,36390
13.37022,40876
13.37833,39031
13.38647,38388
13.39458,41719
13.40270,34944
13.41083,35994
13.41895,37284
13.42708,38214
13.43520,37625
13.44332,41078
13.45145,39111
13.45957,43824
13.46768,44535
13.47582,45489
13.48393,42864
13.49207,44590
13.50018,43281
13.50830,42019
13.51643,41436
13.52455,46096
13.53268,37366
13.54080,39499
13.54892,39837
13.55705,38225
13.56517,40531
13.57330,45756
13.58142,50513
13.58953,58637
13.59767,64315
13.60578,88926
13.61390,120221
13.62203,147477
13.63015,158788
13.63828,141749
13.64640,112298
13.65452,88328
13.66265,69750
13.67077,54321
13.67890,51841
13.68702,48222
13.69513,46530
13.70327,48559
13.71138,46005
13.71950,42726
13.72763,53380
13.73575,68986
13.74388,130392
13.75200,281867
13.76012,574957
13.76825,1000039
13.77637,1378843
13.78450,1621931
13.79262,1471062
13.80073,1198909
13.80887,919145
13.81698,792450
13.82512,747320
13.83323,792106
13.84135,809561
13.84948,769121
13.85760,641542
13.86572,520524
13.87385,414621
13.88197,333844
13.89010,264467
13.89822,230430
13.90633,198407
13.91447,176104
13.92258,161632
13.93072,146304
13.93883,142269
13.94695,136197
13.95508,128533
13.96320,130468
13.97132,128085
13.97945,134760
13.98757,135984
13.99570,130760
14.00382,130015
14.01193,116604
14.02007,114013
14.02818,106001
14.03632,107684
14.04443,101102
14.05255,104931
14.06068,106674
14.06880,103332
14.07693,102417
14.08505,98949
14.09317,95946
14.10130,94899
14.10942,93637
14.11753,90538
14.12567,90354
14.13378,92317
14.14192,98746
14.15003,96575
14.15815,106521
14.16628,110269
14.17440,122499
14.18253,150697
14.19065,187892
14.19877,249340
14.20690,288919
14.21502,312201
14.22315,300009
14.23127,268945
14.23938,242897
14.24752,214050
14.25563,211091
14.26375,191076
14.27188,181993
14.28000,158145
14.28813,138219
14.29625,125945
14.30437,120736
14.31250,114440
14.32062,113603
14.32875,108130
14.33687,102927
14.34498,94708
14.35312,91081
14.36123,80333
14.36935,72559
14.37748,69347
14.38560,76497
14.39373,88108
14.40185,141735
14.40997,230072
14.41810,333779
14.42622,403118
14.43435,397491
14.44247,318475
14.45058,233691
14.45872,164637
14.46683,126770
14.47497,103663
14.48308,91200
14.49120,91486
14.49933,84719
14.50745,77345
14.51557,85511
14.52370,82220
14.53182,77075
14.53995,75172
14.54807,75021
14.55618,69877
14.56432,65888
14.57243,63467
14.58057,60851
14.58868,58851
14.59680,59654
14.60493,57679
14.61305,57902
14.62118,52573
14.62930,55945
14.63742,52545
14.64555,52529
14.65367,53252
14.66178,50875
14.66992,49056
14.67803,51707
14.68617,53989
14.69428,51024
14.70240,52128
14.71053,55667
14.71865,53115
14.72678,63530
14.73490,58326
14.74302,58536
14.75115,56406
14.75927,57444
14.76738,60991
14.77552,65564
14.78363,71171
14.79177,106172
14.79988,230100
14.80800,510624
14.81613,1058851
14.82425,1827070
14.83238,2432887
14.84050,2651717
14.84862,2328410
14.85675,1711585
14.86487,1099177
14.87300,674045
14.88112,455667
14.88923,335558
14.89737,257673
14.90548,227949
14.91360,199914
14.92173,186324
14.92985,178768
14.93798,167598
14.94610,157066
14.95422,147974
14.96235,135550
14.97047,125735
14.97860,115866
14.98672,117571
14.99483,114399
15.00297,108006
15.01108,107740
15.01920,107353
15.02733,106979
15.03545,101555
15.04358,101206
15.05170,99697
15.05982,96936
15.06795,89774
15.07607,84353
15.08420,84487
15.09232,82476
15.10043,77715
15.10857,74891
15.11668,75878
15.12482,80613
15.13293,82758
15.14105,85312
15.14918,93212
15.15730,86894
15.16542,81062
15.17355,73801
15.18167,68534
15.18980,60942
15.19792,64580
15.20603,60488
15.21417,60071
15.22228,60346
15.23042,52857
15.23853,55878
15.24665,49089
15.25478,55429
15.26290,51134
15.27103,48627
15.27915,49757
15.28727,48666
15.29540,47965
15.30352,45478
15.31163,41896
15.31977,47864
15.32788,42159
15.33602,42903
15.34413,42534
15.35225,38961
15.36038,44061
15.36850,42746
15.37663,46050
15.38475,44728
15.39287,46771
15.40100,46521
15.40912,44381
15.41723,47286
15.42537,45612
15.43348,46251
15.44162,48911
15.44973,55130
15.45785,58162
15.46598,78191
15.47410,128825
15.48223,195929
15.49035,301240
15.49847,411905
15.50660,493789
15.51472,526178
15.52285,520036
15.53097,524323
15.53908,553888
15.54722,599578
15.55533,616230
15.56345,564990
15.57158,454765
15.57970,327846
15.58783,227951
15.59595,157628
15.60407,128193
15.61220,98073
15.62032,91823
15.62845,80189
15.63657,76452
15.64468,74790
15.65282,72397
15.66093,68054
15.66907,68330
15.67718,64894
15.68530,57200
15.69343,58765
15.70155,60383
15.70967,59942
15.71780,55249
15.72592,55956
15.73405,55363
15.74217,60951
15.75028,63371
15.75842,77030
15.76653,119917
15.77467,169392
15.78278,232451
15.79090,280516
15.79903,290853
15.80715,264016
15.81527,200238
15.82340,146069
15.83152,110240
15.83965,90370
15.84777,81634
15.85588,75535
15.86402,72014
15.87213,74481
15.88027,70212
15.88838,66717
15.89650,64649
15.90463,66922
15.91275,62229
15.92088,60935
15.92900,60584
15.93712,58353
15.94525,63795
15.95337,72774
15.96148,81517
15.96962,102139
15.97773,107178
15.98587,113166
15.99398,109019
16.00210,95254
16.01023,87466
16.01835,86781
16.02648,74413
16.03460,72384
16.04272,69218
16.05085,67861
16.05897,61874
16.06710,62488
16.07522,59543
16.08333,57406
16.09147,61312
16.09958,55543
16.10770,53986
16.11583,53168
16.12395,62073
16.13208,67838
16.14020,68891
16.14832,78086
16.15645,77676
16.16457,77113
16.17270,71711
16.18082,66092
16.18893,63153
16.19707,54250
16.20518,59956
16.21330,56566
16.22143,54406
16.22955,55663
16.23768,52833
16.24580,51886
16.25392,49358
16.26205,48213
16.27017,52750
16.27830,55419
16.28642,63656
16.29453,63362
16.30267,69364
16.31078,69701
16.31892,72512
16.32703,65725
16.33515,68003
16.34328,61679
16.35140,75439
16.35952,81633
16.36765,86533
16.37577,96678
16.38390,116416
16.39202,109977
16.40013,87719
16.40827,80672
16.41638,66724
16.42452,67335
16.43263,62876
16.44075,54936
16.44888,62094
16.45700,88731
16.46512,107231
16.47325,146376
16.48137,178512
16.48950,188968
16.49762,173922
16.50573,150226
16.51387,119584
16.52198,89253
16.53012,74659
16.53823,67981
16.54635,64158
16.55448,63378
16.56260,61859
16.57073,60168
16.57885,67576
16.58697,68085
16.59510,77991
16.60322,90317
16.61133,99184
16.61947,108229
16.62758,103906
16.63572,93548
16.64383,89339
16.65195,74596
16.66008,67140
16.66820,61235
16.67633,57250
16.68445,55593
16.69257,54038
16.70070,52391
16.70882,60448
16.71695,54777
16.72507,52107
16.73318,53584
16.74132,49192
16.74943,53531
16.75755,49324
16.76568,51638
16.77380,54463
16.78193,51804
16.79005,49858
16.79817,50032
16.80630,47113
16.81442,48162
16.82255,44544
16.83067,47378
16.83878,45568
16.84692,43094
16.85503,44935
16.86315,47750
16.87128,42866
16.87940,41949
16.88753,41698
16.89565,40940
16.90377,42265
16.91190,46575
16.92002,41302
16.92815,41285
16.93627,43471
16.94438,40359
16.95252,40384
16.96063,43031
16.96877,37993
16.97688,43639
16.98500,37772
16.99313,49491
17.00125,50956
17.00937,46041
17.01750,44498
17.02562,47319
17.03375,51990
17.04187,52054
17.04998,56968
17.05812,57441
17.06623,55536
17.07437,54431
17.08248,53769
17.09060,50993
17.09873,44337
17.10685,51454
17.11498,49060
17.12310,56491
17.13122,53132
17.13935,51772
17.14747,59106
17.15558,55988
17.16372,52525
17.17183,56789
17.17997,55993
17.18808,47352
17.19620,49128
17.20433,50558
17.21245,47573
17.22058,43826
17.22870,43189
17.23682,45782
17.24495,45479
17.25307,46205
17.26118,48345
17.26932,42358
17.27743,42416
17.28557,37292
17.29368,42367
17.30180,40443
17.30993,42383
17.31805,46662
17.32618,52344
17.33430,60173
17.34242,66651
17.35055,69648
17.35867,80034
17.36680,73829
17.37492,71224
17.38303,66483
17.39117,72686
17.39928,68911
17.40740,68308
17.41553,70041
17.42365,72091
17.43178,78535
17.43990,75638
17.44802,69894
17.45615,69987
17.46427,63388
17.47240,64862
17.48052,55197
17.48863,50748
17.49677,51210
17.50488,47508
17.51300,49688
17.52113,50575
17.52925,47212
17.53738,48553
17.54550,51514
17.55362,57961
17.56175,76718
17.56987,112805
17.57800,184169
17.58612,323921
17.59423,511840
17.60237,743225
17.61048,922470
17.61862,939882
17.62673,785500
17.63485,592419
17.64298,422515
17.65110,313180
17.65922,228840
17.66735,189236
17.67547,168780
17.68360,151626
17.69172,136610
17.69983,123164
17.70797,111063
17.71608,109400
17.72422,105011
17.73233,96365
17.74045,91663
17.74858,92980
17.75670,87849
17.76483,81983
17.77295,75883
17.78107,76249
17.78920,76648
17.79732,67532
17.80543,73542
17.81357,67452
17.82168,65936
17.82982,69321
17.83793,75862
17.84605,83240
17.85418,92356
17.86230,95360
17.87043,100640
17.87855,92606
17.88667,84203
17.89480,74090
17.90292,67267
17.91103,63305
17.91917,57963
17.92728,60417
17.93542,53418
17.94353,51193
17.95165,52473
17.95978,51305
17.96790,51539
17.97603,45264
17.98415,48753
17.99227,49218
18.00040,50190
18.00852,54118
18.01665,61749
18.02477,68290
18.03288,79134
18.04102,96441
18.04913,93740
18.05725,93528
18.06538,80102
18.07350,81173
18.08163,87380
18.08975,99307
18.09787,111378
18.10600,114847
18.11412,124408
18.12225,119843
18.13037,117024
18.13848,111715
18.14662,110654
18.15473,105774
18.16287,105211
18.17098,100474
18.17910,93324
18.18723,88823
18.19535,84953
18.20347,84778
18.21160,79318
18.21972,72080
18.22785,70533
18.23597,65934
18.24408,69696
18.25222,64916
18.26033,66824
18.26847,61317
18.27658,61547
18.28470,54453
18.29283,55308
18.30095,52004
18.30907,49728
18.31720,49247
18.32532,49714
18.33345,47930
18.34157,46808
18.34968,47620
18.35782,43670
18.36593,51501
18.37407,47132
18.38218,48567
18.39030,47561
18.39843,50552
18.40655,57366
18.41468,63660
18.42280,75799
18.43092,87355
18.43905,109031
18.44717,128055
18.45528,151591
18.46342,189407
18.47153,219535
18.47967,266171
18.48778,286710
18.49590,275662
18.50403,241868
18.51215,188183
18.52028,149380
18.52840,114980
18.53652,98212
18.54465,84541
18.55277,78597
18.56088,70544
18.56902,65134
18.57713,68986
18.58527,71174
18.59338,69099
18.60150,74087
18.60963,87181
18.61775,95082
18.62588,100488
18.63400,106001
18.64212,103017
18.65025,94310
18.65837,86386
18.66650,81049
18.67462,90241
18.68273,102066
18.69087,131667
18.69898,138844
18.70710,163279
18.71523,154373
18.72335,165272
18.73148,162540
18.73960,165904
18.74772,165424
18.75585,167327
18.76397,171708
18.77210,170935
18.78022,172717
18.78833,175652
18.79647,166209
18.80458,177281
18.81272,168325
18.82083,175150
18.82895,167125
18.83708,170305
18.84520,168515
18.85332,167730
18.86145,170955
18.86957,174947
18.87770,173517
18.88582,174085
18.89393,173810
18.90207,169102
18.91018,168431
18.91832,168671
18.92643,170672
18.93455,166259
18.94268,165999
18.95080,168044
18.95893,167487
18.96705,168739
18.97517,169111
18.98330,160781
18.99142,161064
18.99953,155746
19.00767,152313
19.01578,154363
19.02392,149195
19.03203,148310
19.04015,151884
19.04828,153161
19.05640,164770
19.06453,208067
19.07265,313012
19.08077,534832
19.08890,928369
19.09702,1394725
19.10513,1834362
19.11327,1990293
19.12138,1814773
19.12952,1420348
19.13763,1013750
19.14575,691179
19.15388,473554
19.16200,354717
19.17013,288943
19.17825,251345
19.18637,225802
19.19450,204734
19.20262,192512
19.21075,191199
19.21887,177213
19.22698,165844
19.23512,154804
19.24323,156219
19.25135,149572
19.25948,142888
19.26760,136410
19.27573,144836
19.28385,139805
19.29197,139481
19.30010,146247
19.30822,145216
19.31635,140287
19.32447,139891
19.33258,133903
19.34072,138525
19.34883,137227
19.35695,151247
19.36508,173569
19.37320,190401
19.38133,199193
19.38945,199126
19.39757,181969
19.40570,169488
19.41382,150755
19.42195,139827
19.43007,131723
19.43818,128847
19.44632,124831
19.45443,123395
19.46257,125544
19.47068,122444
19.47880,140647
19.48693,164256
19.49505,202061
19.50317,247966
19.51130,287774
19.51942,300157
19.52755,272664
19.53567,231691
19.54378,203964
19.55192,174341
19.56003,160170
19.56817,136045
19.57628,132591
19.58440,120856
19.59253,115566
19.60065,102949
19.60878,104143
19.61690,103649
19.62502,105759
19.63315,120283
19.64127,133481
19.64938,174223
19.65752,219057
19.66563,283955
19.67377,337644
19.68188,367232
19.69000,370580
19.69813,341618
19.70625,312859
19.71438,263384
19.72250,228773
19.73062,204469
19.73875,185742
19.74687,168836
19.75498,155127
19.76312,153828
19.77123,161041
19.77937,165573
19.78748,192605
19.79560,229218
19.80373,230995
19.81185,235312
19.81998,223013
19.82810,202394
19.83622,165126
19.84435,141339
19.85247,136917
19.86060,128290
19.86872,155184
19.87683,208677
19.88497,295979
19.89308,409519
19.90120,531938
19.90933,631666
19.91745,638796
19.92558,613105
19.93370,551574
19.94182,491926
19.94995,448590
19.95807,411688
19.96620,397750
19.97432,377425
19.98243,361757
19.99057,327251
19.99868,320928
20.00682,317299
20.01493,320149
20.02305,303664
20.03118,288043
20.03930,278583
20.04742,257540
20.05555,250494
20.06367,244282
20.07180,273275
20.07992,287186
20.08803,306091
20.09617,317559
20.10428,288420
20.11242,257016
20.12053,219958
20.12865,185047
20.13678,169994
20.14490,178205
20.15302,215389
20.16115,297524
20.16927,405877
20.17740,593284
20.18552,797418
20.19363,944574
20.20177,989429
20.20988,968283
20.21802,875663
20.22613,721174
20.23425,598500
20.24238,508389
20.25050,521429
20.25863,561594
20.26675,672763
20.27487,742827
20.28300,792307
20.29112,796238
20.29923,721973
20.30737,584461
20.31548,460866
20.32362,356776
20.33173,281670
20.33985,215626
20.34798,185056
20.35610,157366
20.36423,142704
20.37235,132370
20.38047,123608
20.38860,115111
20.39672,104053
20.40483,98626
20.41297,97272
20.42108,100618
20.42922,106749
20.43733,119543
20.44545,112708
20.45358,116353
20.46170,116616
20.46983,109140
20.47795,104295
20.48607,90980
20.49420,92047
20.50232,82496
20.51045,83250
20.51857,79415
20.52668,78675
20.53482,72876
20.54293,76120
20.55105,70874
20.55918,74233
20.56730,70130
20.57543,72516
20.58355,70752
20.59167,71889
20.59980,68664
20.60792,73691
20.61605,72720
20.62417,72827
20.63228,78898
20.64042,76635
20.64853,82684
20.65667,83482
20.66478,88446
20.67290,78982
20.68103,82833
20.68915,73296
20.69727,69481
20.70540,66468
20.71352,71367
20.72165,64507
20.72977,65587
20.73788,62257
20.74602,72067
20.75413,73825
20.76227,73908
20.77038,84386
20.77850,100274
20.78663,133319
20.79475,216422
20.80287,339835
20.81100,522879
20.81912,640682
20.82725,689239
20.83537,623055
20.84348,487674
20.85162,332626
20.85973,223529
20.86787,152781
20.87598,124669
20.88410,111703
20.89223,106174
20.90035,97110
20.90848,106048
20.91660,103733
20.92472,112872
20.93285,109893
20.94097,112924
20.94908,108997
20.95722,106468
20.96533,99057
20.97347,88406
20.98158,85462
20.98970,82082
20.99783,74668
21.00595,69957
21.01408,71300
21.02220,77127
21.03032,81183
21.03845,81880
21.04657,78338
21.05470,71476
21.06282,72785
21.07093,74968
21.07907,69365
21.08718,68691
21.09530,61945
21.10343,63774
21.11155,60993
21.11968,65259
21.12780,68977
21.13592,80778
21.14405,103963
21.15217,128710
21.16030,152705
21.16842,163394
21.17653,165271
21.18467,140354
21.19278,126360
21.20090,104541
21.20903,90420
21.21715,79652
21.22528,73087
21.23340,74580
21.24152,72430
21.24965,69679
21.25777,68446
21.26590,68956
21.27402,68841
21.28213,66979
21.29027,69860
21.29838,65520
21.30652,64389
21.31463,59661
21.32275,55672
21.33088,65314
21.33900,59296
21.34712,57945
21.35525,58473
21.36337,54879
21.37150,56845
21.37962,54154
21.38773,56766
21.39587,64156
21.40398,68243
21.41212,68371
21.42023,69996
21.42835,65923
21.43648,65111
21.44460,59547
21.45273,61828
21.46085,58897
21.46897,57207
21.47710,60310
21.48522,61037
21.49333,58748
21.50147,58748
21.50958,55483
21.51772,57812
21.52583,56101
21.53395,53460
21.54208,58358
21.55020,57808
21.55833,54691
21.56645,54938
21.57457,57518
21.58270,58181
21.59082,73841
21.59893,75219
21.60707,78348
21.61518,80398
21.62332,82733
21.63143,87658
21.63955,93461
21.64768,97777
21.65580,101572
21.66393,106059
21.67205,107733
21.68017,116967
21.68830,108457
21.69642,97555
21.70455,89011
21.71267,83556
21.72078,71465
21.72892,68616
21.73703,69910
21.74515,62508
21.75328,65168
21.76140,60236
21.76953,64596
21.77765,62584
21.78577,65907
21.79390,61129
21.80202,64852
21.81015,66665
21.81827,68386
21.82638,75813
21.83452,88124
21.84263,87964
21.85075,88696
21.85888,85281
21.86700,75848
21.87513,74117
21.88325,69506
21.89137,68337
21.89950,63042
21.90762,60765
21.91575,59419
21.92387,60909
21.93198,58928
21.94012,59709
21.94823,55179
21.95637,55035
21.96448,52138
21.97260,47040
21.98073,47991
21.98885,49470
21.99697,49767
22.00510,50815
22.01322,47107
22.02135,49731
22.02947,51450
22.03758,54733
22.04572,54656
22.05383,54882
22.06197,55159
22.07008,54986
22.07820,60980
22.08633,58920
22.09445,62302
22.10258,63297
22.11070,69985
22.11882,67119
22.12695,71204
22.13507,72046
22.14318,74619
22.15132,74751
22.15943,75185
22.16757,77566
22.17568,74064
22.18380,78559
22.19193,71837
22.20005,74618
22.20818,78306
22.21630,79471
22.22442,79716
22.23255,84024
22.24067,84094
22.24878,81456
22.25692,85852
22.26503,77907
22.27317,89337
22.28128,90729
22.28940,94384
22.29753,103336
22.30565,95842
22.31378,93262
22.32190,86349
22.33002,85115
22.33815,81601
22.34627,82243
22.35440,72936
22.36252,67778
22.37063,66758
22.37877,68353
22.38688,75738
22.39500,90658
22.40313,119421
22.41125,147683
22.41938,174076
22.42750,198908
22.43562,182256
22.44375,162325
22.45187,137011
22.46000,109000
22.46812,98365
22.47623,94554
22.48437,99241
22.49248,117383
22.50062,128038
22.50873,140207
22.51685,134764
22.52498,139150
22.53310,125861
22.54122,119208
22.54935,97433
22.55747,87317
22.56560,85762
22.57372,79561
22.58183,67305
22.58997,69093
22.59808,66931
22.60622,68594
22.61433,82754
22.62245,94714
22.63058,105816
22.63870,108856
22.64682,114519
22.65495,118989
22.66307,123113
22.67120,129230
22.67932,134767
22.68743,137079
22.69557,132439
22.70368,143415
22.71182,146885
22.71993,151434
22.72805,146834
22.73618,145672
22.74430,148229
22.75243,139402
22.76055,141231
22.76867,131227
22.77680,134950
22.78492,129948
22.79303,145720
22.80117,157068
22.80928,161463
22.81742,163894
22.82553,165844
22.83365,149206
22.84178,149404
22.84990,153380
22.85803,149372
22.86615,160598
22.87427,173301
22.88240,195060
22.89052,212138
22.89863,234520
22.90677,257091
22.91488,262783
22.92302,286700
22.93113,282709
22.93925,265371
22.94738,244249
22.95550,215327
22.96363,183993
22.97175,161159
22.97987,150464
22.98800,141892
22.99612,138551
23.00425,131143
23.01237,125485
23.02048,115866
23.02862,118823
23.03673,113055
23.04485,110032
23.05298,113309
23.06110,114774
23.06923,114614
23.07735,111705
23.08547,112771
23.09360,106254
23.10172,102603
23.10985,95004
23.11797,93663
23.12608,98546
23.13422,95188
23.14233,92987
23.15047,98096
23.15858,95083
23.16670,93874
23.17483,99559
23.18295,90532
23.19107,93560
23.19920,92052
23.20732,88996
23.21545,88992
23.22357,88496
23.23168,86821
23.23982,88088
23.24793,90070
23.25607,95882
23.26418,98414
23.27230,101052
23.28043,97783
23.28855,91897
23.29667,91582
23.30480,90708
23.31292,89161
23.32105,92618
23.32917,95478
23.33728,107634
23.34542,124745
23.35353,146402
23.36167,173084
23.36978,176694
23.37790,185281
23.38603,169438
23.39415,158513
23.40228,136488
23.41040,121874
23.41852,109552
23.42665,100882
23.43477,96467
23.44288,95053
23.45102,89544
23.45913,85278
23.46727,80309
23.47538,80795
23.48350,81900
23.49163,78672
23.49975,80970
23.50788,82476
23.51600,77666
23.52412,77506
23.53225,78165
23.54037,76234
23.54850,79680
23.55662,85904
23.56473,101881
23.57287,133518
23.58098,175597
23.58910,241722
23.59723,321131
23.60535,377252
23.61348,380610
23.62160,340881
23.62972,292496
23.63785,236858
23.64597,206275
23.65410,200980
23.66222,198149
23.67033,200935
23.67847,190278
23.68658,167797
23.69470,145359
23.70283,124562
23.71095,109346
23.71908,92476
23.72720,83894
23.73532,91063
23.74345,103636
23.75157,169020
23.75970,336298
23.76782,679152
23.77593,1342855
23.78407,2105950
23.79218,2735296
23.80032,3038234
23.80843,2860111
23.81655,2381458
23.82468,1899021
23.83280,1485774
23.84092,1099689
23.84905,840325
23.85717,669488
23.86530,566267
23.87342,471974
23.88153,417079
23.88967,362488
23.89778,339118
23.90592,312857
23.91403,301347
23.92215,282622
23.93028,272154
23.93840,241704
23.94652,229033
23.95465,209045
23.96277,195878
23.97090,186971
23.97902,177282
23.98713,171662
23.99527,176088
24.00338,176791
24.01152,200745
24.01963,254809
24.02775,341956
24.03588,386148
24.04400,399973
24.05213,360078
24.06025,287574
24.06837,222049
24.07650,172973
24.08462,143583
24.09273,126685
24.10087,118577
24.10898,122744
24.11712,124295
24.12523,121474
24.13335,128899
24.14148,134644
24.14960,137227
24.15773,143003
24.16585,146897
24.17397,146920
24.18210,141979
24.19022,134443
24.19835,142586
24.20647,138852
24.21458,140442
24.22272,127232
24.23083,118454
24.23895,110307
24.24708,103178
24.25520,94919
24.26333,94988
24.27145,90804
24.27957,84280
24.28770,86901
24.29582,83412
24.30395,82641
24.31207,78814
24.32018,84229
24.32832,77082
24.33643,84888
24.34457,85119
24.35268,79240
24.36080,80017
24.36893,88733
24.37705,97409
24.38517,119919
24.39330,135464
24.40142,160310
24.40955,170385
24.41767,169674
24.42578,161730
24.43392,155331
24.44203,148334
24.45017,151396
24.45828,157236
24.46640,158953
24.47453,165110
24.48265,170150
24.49077,182794
24.49890,195381
24.50702,205238
24.51515,214424
24.52327,226047
24.53138,256137
24.53952,280170
24.54763,330022
24.55577,346416
24.56388,372905
24.57200,358904
24.58013,324620
24.58825,281268
24.59638,241861
24.60450,212845
24.61262,194741
24.62075,184181
24.62887,177870
24.63698,183029
24.64512,174495
24.65323,170519
24.66137,166559
24.66948,172138
24.67760,168479
24.68573,162807
24.69385,169183
24.70198,159686
24.71010,160989
24.71822,163864
24.72635,154569
24.73447,158461
24.74258,158820
24.75072,154968
24.75883,157290
24.76697,158207
24.77508,160669
24.78320,161286
24.79133,162791
24.79945,172939
24.80758,177514
24.81570,169988
24.82382,179586
24.83195,190392
24.84007,219893
24.84820,255080
24.85632,314591
24.86443,384886
24.87257,489073
24.88068,595469
24.88880,687826
24.89693,730567
24.90505,711745
24.91318,633533
24.92130,485666
24.92942,363082
24.93755,282158
24.94567,224434
24.95380,185428
24.96192,175071
24.97003,166267
24.97817,153644
24.98628,150121
24.99442,147457
25.00253,141144
25.01065,145189
25.01878,139124
25.02690,131348
25.03502,131517
25.04315,126542
25.05127,121123
25.05940,120797
25.06752,125470
25.07563,126064
25.08377,128148
25.09188,137086
25.10002,194104
25.10813,322501
25.11625,614385
25.12438,1182983
25.13250,2004128
25.14062,2814164
25.14875,3310865
25.15687,3363602
25.16500,2907893
25.17312,2119985
25.18123,1394302
25.18937,826021
25.19748,495722
25.20562,313739
25.21373,213461
25.22185,168953
25.22998,150315
25.23810,165690
25.24623,188785
25.25435,235605
25.26247,282611
25.27060,336197
25.27872,351324
25.28683,341600
25.29497,295713
25.30308,238442
25.31122,186924
25.31933,147258
25.32745,121557
25.33558,109006
25.34370,94445
25.35183,89358
25.35995,87225
25.36807,77959
25.37620,74379
25.38432,74525
25.39245,71635
25.40057,71419
25.40868,72290
25.41682,70878
25.42493,68623
25.43305,67067
25.44118,69198
25.44930,68039
25.45743,68952
25.46555,74921
25.47367,72012
25.48180,72113
25.48992,75957
25.49805,75132
25.50617,68175
25.51428,74252
25.52242,67728
25.53053,63215
25.53865,70419
25.54678,86065
25.55490,113455
25.56303,133574
25.57115,155981
25.57927,168408
25.58740,182922
25.59552,195169
25.60365,188954
25.61177,206328
25.61988,197409
25.62802,202555
25.63613,206894
25.64427,206650
25.65238,206007
25.66050,204307
25.66863,200650
25.67675,200175
25.68487,195834
25.69300,197940
25.70112,201542
25.70925,203515
25.71737,199694
25.72548,205633
25.73362,196629
25.74173,193745
25.74987,194531
25.75798,194703
25.76610,199910
25.77423,191462
25.78235,192307
25.79047,193856
25.79860,196086
25.80672,195251
25.81485,187010
25.82297,193266
25.83108,188465
25.83922,181927
25.84733,185151
25.85547,181828
25.86358,180936
25.87170,177217
25.87983,171217
25.88795,168181
25.89608,166356
25.90420,161691
25.91232,156052
25.92045,161073
25.92857,161227
25.93668,154921
25.94482,155024
25.95293,159468
25.96107,151205
25.96918,155153
25.97730,150384
25.98543,145720
25.99355,142902
26.00168,134922
26.00980,134982
26.01792,136328
26.02605,131596
26.03417,136939
26.04230,127195
26.05042,127624
26.05853,127500
26.06667,131033
26.07478,131413
26.08290,132565
26.09103,134083
26.09915,131733
26.10728,129408
26.11540,129613
26.12352,125031
26.13165,126965
26.13977,128677
26.14790,129113
26.15602,134752
26.16413,129505
26.17227,128463
26.18038,129539
26.18850,121643
26.19663,123561
26.20475,115928
26.21288,110163
26.22100,109305
26.22912,111013
26.23725,109409
26.24537,109326
26.25350,102389
26.26162,103788
26.26973,104524
26.27787,102430
26.28598,97427
26.29412,96790
26.30223,95313
26.31035,94029
26.31848,92035
26.32660,88142
26.33472,88590
26.34285,89915
26.35097,96167
26.35910,111644
26.36722,130866
26.37533,182920
26.38347,223855
26.39158,286398
26.39972,325035
26.40783,325987
26.41595,307153
26.42408,271440
26.43220,222761
26.44033,171953
26.44845,134126
26.45657,118821
26.46470,107110
26.47282,94196
26.48093,92641
26.48907,92254
26.49718,86302
26.50532,80728
26.51343,81898
26.52155,83333
26.52968,82654
26.53780,75811
26.54593,69442
26.55405,75481
26.56217,73124
26.57030,72738
26.57842,71860
26.58653,74713
26.59467,67978
26.60278,69496
26.61092,65701
26.61903,67738
26.62715,70577
26.63528,72323
26.64340,67563
26.65153,68209
26.65965,69659
26.66777,71796
26.67590,76814
26.68402,79220
26.69215,73609
26.70027,69516
26.70838,70254
26.71652,67710
26.72463,66769
26.73275,71074
26.74088,65979
26.74900,68042
26.75713,72179
26.76525,63636
26.77337,66308
26.78150,70217
26.78962,73152
26.79775,74708
26.80587,71434
26.81398,74232
26.82212,68441
26.83023,68770
26.83837,66134
26.84648,65299
26.85460,64942
26.86273,64892
26.87085,59008
26.87897,58737
26.88710,58891
26.89522,58486
26.90335,58489
26.91147,60230
26.91958,59825
26.92772,59557
26.93583,56340
26.94397,56251
26.95208,62798
26.96020,66249
26.96833,78429
26.97645,94457
26.98457,132320
26.99270,196646
27.00082,301840
27.00895,425236
27.01707,561484
27.02518,674511
27.03332,744783
27.04143,736823
27.04957,670343
27.05768,571809
27.06580,463499
27.07393,367872
27.08205,312871
27.09018,273751
27.09830,239077
27.10642,214409
27.11455,193897
27.12267,174870
27.13078,171707
27.13892,160816
27.14703,152522
27.15517,150157
27.16328,145363
27.17140,154003
27.17953,159088
27.18765,163143
27.19578,155642
27.20390,153250
27.21202,136324
27.22015,131387
27.22827,121290
27.23638,110964
27.24452,104033
27.25263,104848
27.26077,94812
27.26888,95015
27.27700,91433
27.28513,92229
27.29325,89368
27.30138,87375
27.30950,84743
27.31762,87074
27.32575,83665
27.33387,80726
27.34200,82626
27.35012,83822
27.35823,87757
27.36637,85414
27.37448,82334
27.38260,83468
27.39073,85204
27.39885,77380
27.40698,74226
27.41510,78667
27.42322,75629
27.43135,75932
27.43947,76602
27.44760,69184
27.45572,68819
27.46383,70357
27.47197,71769
27.48008,65061
27.48822,64568
27.49633,65848
27.50445,67901
27.51258,75022
27.52070,75441
27.52882,80307
27.53695,81042
27.54507,72744
27.55320,74239
27.56132,67151
27.56943,72582
27.57757,79851
27.58568,87213
27.59382,94809
27.60193,103540
27.61005,102884
27.61818,97204
27.62630,87377
27.63442,84894
27.64255,76188
27.65067,76242
27.65880,72848
27.66692,79918
27.67503,86170
27.68317,101808
27.69128,107599
27.69942,112724
27.70753,102104
27.71565,90855
27.72378,82052
27.73190,72392
27.74003,64277
27.74815,60911
27.75627,62448
27.76440,58479
27.77252,60054
27.78063,63395
27.78877,63870
27.79688,63478
27.80502,63648
27.81313,59721
27.82125,63017
27.82938,61068
27.83750,65781
27.84563,58284
27.85375,59534
27.86187,55113
27.87000,55074
27.87812,56888
27.88625,57912
27.89437,53285
27.90248,50889
27.91062,54083
27.91873,51153
27.92685,54245
27.93498,53996
27.94310,51483
27.95123,53126
27.95935,54144
27.96747,56693
27.97560,52906
27.98372,50917
27.99185,59150
27.99997,59680
28.00808,69175
28.01622,82557
28.02433,113689
28.03245,151136
28.04058,190911
28.04870,216972
28.05683,232739
28.06495,210297
28.07307,182696
28.08120,151326
28.08932,109508
28.09745,93301
28.10557,78260
28.11368,82478
28.12182,65674
28.12993,63569
28.13807,64453
28.14618,60959
28.15430,56123
28.16243,57395
28.17055,58214
28.17867,63975
28.18680,63269
28.19492,75647
28.20305,89568
28.21117,92460
28.21928,100045
28.22742,99090
28.23553,99390
28.24367,86805
28.25178,80245
28.25990,71409
28.26803,64290
28.27615,65304
28.28427,62640
28.29240,62695
28.30052,69438
28.30865,80657
28.31677,90107
28.32488,107134
28.33302,123023
28.34113,140110
28.34927,154871
28.35738,181998
28.36550,198649
28.37363,215984
28.38175,233306
28.38988,229922
28.39800,230072
28.40612,233724
28.41425,221017
28.42237,214918
28.43048,199400
28.43862,183243
28.44673,169896
28.45487,161774
28.46298,148426
28.47110,143799
28.47923,131993
28.48735,140107
28.49548,130423
28.50360,128481
28.51172,125821
28.51985,115105
28.52797,108732
28.53610,104795
28.54422,96322
28.55233,97225
28.56047,88299
28.56858,84594
28.57670,79328
28.58483,80535
28.59295,78033
28.60108,83846
28.60920,81884
28.61732,82797
28.62545,81869
28.63357,85837
28.64170,83343
28.64982,88578
28.65793,88947
28.66607,86110
28.67418,82304
28.68230,79303
28.69043,78555
28.69855,74795
28.70668,68510
28.71480,69787
28.72292,66837
28.73105,71814
28.73917,68106
28.74730,71970
28.75542,74216
28.76353,94829
28.77167,96223
28.77978,93570
28.78792,94634
28.79603,92255
28.80415,87112
28.81228,81596
28.82040,76417
28.82852,68204
28.83665,77838
28.84477,75436
28.85290,67084
28.86102,70098
28.86913,69157
28.87727,74473
28.88538,81648
28.89352,81081
28.90163,82120
28.90975,85454
28.91788,84694
28.92600,79695
28.93413,80952
28.94225,72499
28.95037,77381
28.95850,73296
28.96662,71227
28.97473,68674
28.98287,67135
28.99098,67885
28.99912,59104
29.00723,55261
29.01535,56521
29.02348,58412
29.03160,56509
29.03973,57533
29.04785,58252
29.05597,55865
29.06410,57830
29.07222,55370
29.08033,61445
29.08847,63618
29.09658,58405
29.10472,61122
29.11283,61346
29.12095,57003
29.12908,53293
29.13720,57588
29.14533,51962
29.15345,53388
29.16157,55135
29.16970,56497
29.17782,56376
29.18595,60539
29.19407,71459
29.20218,86633
29.21032,101114
29.21843,111878
29.22655,118203
29.23468,120991
29.24280,133338
29.25093,148224
29.25905,174804
29.26717,184405
29.27530,184242
29.28342,165956
29.29155,141288
29.29967,110819
29.30778,88050
29.31592,71634
29.32403,60390
29.33215,61363
29.34028,55366
29.34840,53529
29.35653,56077
29.36465,48704
29.37277,51831
29.38090,55046
29.38902,51113
29.39715,54186
29.40527,53168
29.41338,54598
29.42152,58123
29.42963,62867
29.43777,57673
29.44588,60255
29.45400,56653
29.46213,56216
29.47025,53410
29.47837,56061
29.48650,54888
29.49462,54833
29.50275,57941
29.51087,61999
29.51898,56729
29.52712,56660
29.53523,55397
29.54337,57004
29.55148,48648
29.55960,48734
29.56773,49104
29.57585,55812
29.58398,44664
29.59210,47195
29.60022,44418
29.60835,46986
29.61647,45830
29.62458,49818
29.63272,48254
29.64083,46680
29.64897,47863
29.65708,49611
29.66520,47664
29.67333,49391
29.68145,53093
29.68958,54769
29.69770,60176
29.70582,61255
29.71395,54891
29.72207,55710
29.73020,59629
29.73832,53131
29.74643,53038
29.75457,54785
29.76268,50924
29.77080,52821
29.77893,48802
29.78705,44805
29.79518,45666
29.80330,43716
29.81142,47527
29.81955,44976
29.82767,43221
29.83580,41578
29.84392,46631
29.85203,49526
29.86017,50985
29.86828,54546
29.87640,70403
29.88453,94187
29.89265,125497
29.90078,145801
29.90890,148221
29.91702,143488
29.92515,116525
29.93327,95169
29.94140,74569
29.94952,68445
29.95763,76640
29.96577,75656
29.97388,85353
29.98202,92541
29.99013,104299
29.99825,119626
30.00638,126831
30.01450,135175
30.02262,134444
30.03075,144470
30.03887,136080
30.04700,144161
30.05512,135361
30.06323,133085
30.07137,134291
30.07948,130232
30.08762,122289
30.09573,122010
30.10385,125886
30.11198,112834
30.12010,111747
30.12822,109700
30.13635,109976
30.14447,106466
30.15260,103475
30.16072,101890
30.16883,93435
30.17697,90775
30.18508,98910
30.19322,94678
30.20133,95965
30.20945,103353
30.21758,93580
30.22570,88187
30.23383,80308
30.24195,78300
30.25007,69877
30.25820,68284
30.26632,69211
30.27443,64124
30.28257,61464
30.29068,60818
30.29882,60456
30.30693,60900
30.31505,60967
30.32318,60028
30.33130,63606
30.33943,66605
30.34755,61703
30.35567,61134
30.36380,59744
30.37192,60751
30.38005,55741
30.38817,56755
30.39628,54063
30.40442,54146
30.41253,51947
30.42065,48630
30.42878,51525
30.43690,54511
30.44503,51444
30.45315,48042
30.46127,53067
30.46940,47903
30.47752,50589
30.48565,54941
30.49377,49167
30.50188,50320
30.51002,48025
30.51813,48785
30.52625,45572
30.53438,46795
30.54250,49337
30.55063,57913
30.55875,53231
30.56687,52077
30.57500,50858
30.58312,51973
30.59125,49986
30.59937,50163
30.60748,53460
30.61562,54140
30.62373,47998
30.63187,47891
30.63998,49058
30.64810,48033
30.65623,49267
30.66435,46757
30.67247,46935
30.68060,48925
30.68872,47009
30.69685,45915
30.70497,43553
30.71308,43895
30.72122,51820
30.72933,44699
30.73747,45332
30.74558,46549
30.75370,44382
30.76183,49340
30.76995,50806
30.77808,55060
30.78620,67729
30.79432,78903
30.80245,89781
30.81057,103611
30.81868,107156
30.82682,98778
30.83493,92017
30.84307,71593
30.85118,66421
30.85930,60214
30.86743,57164
30.87555,60501
30.88368,58919
30.89180,65092
30.89992,66340
30.90805,67554
30.91617,65586
30.92428,61149
30.93242,59454
30.94053,64559
30.94867,60605
30.95678,65248
30.96490,61610
30.97303,61459
30.98115,61886
30.98928,60014
30.99740,61733
31.00552,60007
31.01365,61648
31.02177,64079
31.02990,62640
31.03802,68830
31.04613,64893
31.05427,64638
31.06238,64570
31.07050,70134
31.07863,77446
31.08675,77608
31.09488,80903
31.10300,87815
31.11112,90969
31.11925,94331
31.12737,81885
31.13550,80003
31.14362,79814
31.15173,74716
31.15987,73551
31.16798,77090
31.17610,80327
31.18423,92022
31.19235,111480
31.20048,137709
31.20860,172998
31.21672,221070
31.22485,243751
31.23297,241561
31.24110,234221
31.24922,190439
31.25733,149451
31.26547,112093
31.27358,92753
31.28172,80179
31.28983,69361
31.29795,62173
31.30608,69871
31.31420,68342
31.32232,64351
31.33045,66574
31.33857,65086
31.34670,63734
31.35482,67512
31.36293,63408
31.37107,64617
31.37918,62570
31.38732,65321
31.39543,66135
31.40355,66821
31.41168,68502
31.41980,60517
31.42793,63233
31.43605,61508
31.44417,60690
31.45230,60273
31.46042,56550
31.46853,58812
31.47667,61324
31.48478,58012
31.49292,58098
31.50103,63028
31.50915,64938
31.51728,68436
31.52540,75594
31.53353,68731
31.54165,71777
31.54977,70517
31.55790,64008
31.56602,63045
31.57413,61203
31.58227,59998
31.59038,55447
31.59852,56594
31.60663,56763
31.61475,53149
31.62288,56284
31.63100,51242
31.63913,54547
31.64725,60336
31.65537,63193
31.66350,61722
31.67162,69661
31.67975,61363
31.68787,64009
31.69598,58682
31.70412,60028
31.71223,56861
31.72035,56189
31.72848,51823
31.73660,55167
31.74473,52486
31.75285,51719
31.76097,55302
31.76910,54450
31.77722,55478
31.78535,52751
31.79347,50980
31.80158,58537
31.80972,52003
31.81783,52359
31.82597,54670
31.83408,51524
31.84220,51136
31.85033,55541
31.85845,55255
31.86657,56708
31.87470,63338
31.88282,61639
31.89095,65209
31.89907,71213
31.90718,69474
31.91532,81503
31.92343,87260
31.93157,91780
31.93968,101598
31.94780,100291
31.95593,107442
31.96405,106805
31.97217,110453
31.98030,111451
31.98842,113954
31.99655,117160
32.00467,114417
32.01278,114740
32.02092,109575
32.02903,109305
32.03717,107335
32.04528,104810
32.05340,98881
32.06153,94049
32.06965,93801
32.07778,90705
32.08590,91801
32.09402,83173
32.10215,78349
32.11027,73628
32.11838,71449
32.12652,71876
32.13463,70805
32.14277,69986
32.15088,63294
32.15900,61920
32.16713,68056
32.17525,64601
32.18338,59826
32.19150,62038
32.19962,63481
32.20775,59880
32.21587,55592
32.22400,62655
32.23212,59341
32.24023,58237
32.24837,60584
32.25648,61893
32.26460,58449
32.27273,59692
32.28085,63393
32.28898,60802
32.29710,56027
32.30522,55574
32.31335,54397
32.32147,56940
32.32960,59243
32.33772,57363
32.34583,56078
32.35397,54998
32.36208,63089
32.37020,55472
32.37833,53889
32.38645,52354
32.39458,52435
32.40270,51495
32.41082,51551
32.41895,48077
32.42707,51601
32.43520,53084
32.44332,50600
32.45143,45515
32.45957,47184
32.46768,44996
32.47582,49173
32.48393,48163
32.49205,44305
32.50018,46964
32.50830,51584
32.51642,46480
32.52455,48261
32.53267,52108
32.54080,48478
32.54892,47382
32.55703,53372
32.56517,49481
32.57328,52855
32.58142,49269
32.58953,49682
32.59765,48254
32.60578,49035
32.61390,48633
32.62202,46588
32.63015,49629
32.63827,49510
32.64640,58432
32.65452,63266
32.66263,64655
32.67077,67602
32.67888,63111
32.68702,68344
32.69513,57328
32.70325,57423
32.71138,54340
32.71950,52743
32.72763,54239
32.73575,53735
32.74387,55224
32.75200,55866
32.76012,47615
32.76823,50669
32.77637,48769
32.78448,47345
32.79262,51756
32.80073,45810
32.80885,46997
32.81698,48606
32.82510,45426
32.83323,45949
32.84135,47722
32.84947,49613
32.85760,45129
32.86572,48851
32.87385,52438
32.88197,55844
32.89008,56443
32.89822,64276
32.90633,74991
32.91445,71597
32.92258,73022
32.93070,65169
32.93883,57303
32.94695,54982
32.95507,53941
32.96320,50927
32.97132,56136
32.97945,52625
32.98757,60273
32.99568,66551
33.00382,66434
33.01193,73427
33.02005,67761
33.02818,61439
33.03630,60505
33.04443,58904
33.05255,53239
33.06067,56733
33.06880,62946
33.07692,68607
33.08505,75731
33.09317,81112
33.10128,88032
33.10942,85374
33.11753,96352
33.12567,88537
33.13378,84580
33.14190,71450
33.15003,71785
33.15815,63210
33.16627,63453
33.17440,57839
33.18252,56766
33.19065,56805
33.19877,57107
33.20688,57289
33.21502,57160
33.22313,56931
33.23127,56500
33.23938,60003
33.24750,51655
33.25563,52545
33.26375,52650
33.27188,53800
33.28000,47616
33.28812,47217
33.29625,52596
33.30437,50558
33.31248,51864
33.32062,55467
33.32873,51183
33.33687,52799
33.34498,54983
33.35310,57284
33.36123,58677
33.36935,58380
33.37748,54059
33.38560,56608
33.39372,52327
33.40185,50831
33.40997,49132
33.41808,46507
33.42622,51780
33.43433,47384
33.44247,47840
33.45058,48028
33.45870,48718
33.46683,49488
33.47495,49086
33.48308,45035
33.49120,51634
33.49932,50266
33.50745,49564
33.51557,48538
33.52370,53825
33.53182,52538
33.53993,51972
33.54807,53512
33.55618,55631
33.56430,55296
33.57243,58996
33.58055,54076
33.58868,52446
33.59680,50592
33.60492,45022
33.61305,52666
33.62117,51229
33.62930,47714
33.63742,52374
33.64553,53672
33.65367,46002
33.66178,54558
33.66990,51388
33.67803,51443
33.68615,52311
33.69428,47524
33.70240,48776
33.71052,50076
33.71865,50080
33.72677,45304
33.73490,47783
33.74302,48545
33.75113,45206
33.75927,48378
33.76738,47681
33.77552,44975
33.78363,46265
33.79175,45480
33.79988,44962
33.80800,44994
33.81612,46531
33.82425,45385
33.83237,47537
33.84050,48666
33.84862,49014
33.85673,49318
33.86487,50744
33.87298,52733
33.88112,53684
33.88923,55984
33.89735,56785
33.90548,62161
33.91360,61105
33.92173,59932
33.92985,53625
33.93797,54707
33.94610,47943
33.95422,49592
33.96233,46477
33.97047,47113
33.97858,47814
33.98672,49188
33.99483,46333
34.00295,45911
34.01108,44648
34.01920,47698
34.02733,51615
34.03545,47259
34.04357,47489
34.05170,51489
34.05982,48831
34.06793,46497
34.07607,48999
34.08418,45753
34.09232,51001
34.10043,48728
34.10855,49136
34.11668,48266
34.12480,49061
34.13293,49573
34.14105,49826
34.14917,49954
34.15730,49735
34.16542,48573
34.17355,48208
34.18167,48816
34.18978,53088
34.19792,48357
34.20603,50098
34.21415,48062
34.22228,51747
34.23040,51028
34.23853,49549
34.24665,48739
34.25477,46923
34.26290,49759
34.27102,46897
34.27915,46049
34.28727,53512
34.29538,50768
34.30352,48878
34.31163,45957
34.31977,47681
34.32788,51034
34.33600,49849
34.34413,47453
34.35225,50843
34.36037,48628
34.36850,49296
34.37662,48106
34.38475,47962
34.39287,46205
34.40098,44885
34.40912,47437
34.41723,43633
34.42537,44818
34.43348,48988
34.44160,47715
34.44973,48101
34.45785,47960
34.46597,50613
34.47410,45130
34.48222,47847
34.49035,49713
34.49847,53837
34.50658,61465
34.51472,64075
34.52283,75624
34.53097,83646
34.53908,95313
34.54720,107183
34.55533,112514
34.56345,115688
34.57158,114807
34.57970,109159
34.58782,100826
34.59595,91864
34.60407,84490
34.61218,83805
34.62032,75630
34.62843,71677
34.63657,72222
34.64468,70248
34.65280,63960
34.66093,65515
34.66905,62773
34.67718,64746
34.68530,58409
34.69342,61714
34.70155,62405
34.70967,59376
34.71778,59173
34.72592,56323
34.73403,58785
34.74217,58212
34.75028,59491
34.75840,62428
34.76653,63654
34.77465,55903
34.78278,57898
34.79090,59204
34.79902,56558
34.80715,59075
34.81527,64138
34.82340,59245
34.83152,59679
34.83963,55200
34.84777,53989
34.85588,56297
34.86400,54054
34.87213,53855
34.88025,54690
34.88838,52431
34.89650,57372
34.90462,51667
34.91275,52120
34.92087,56925
34.92900,56962
34.93712,56231
34.94523,62547
34.95337,58502
34.96148,62047
34.96962,67308
34.97773,64958
34.98585,62648
34.99398,65618
35.00210,62383
35.01022,57958
35.01835,55678
35.02647,55426
35.03460,57294
35.04272,54882
35.05083,55493
35.05897,53676
35.06708,54996
35.07522,57558
35.08333,57740
35.09145,54471
35.09958,52186
35.10770,54497
35.11583,53211
35.12395,49337
35.13207,50228
35.14020,55753
35.14832,57650
35.15643,57215
35.16457,55614
35.17268,56371
35.18082,53650
35.18893,56806
35.19705,52723
35.20518,59300
35.21330,55559
35.22143,51357
35.22955,50441
35.23767,50702
35.24580,49743
35.25392,46930
35.26203,49184
35.27017,55131
35.27828,55896
35.28642,57010
35.29453,54865
35.30265,56308
35.31078,51235
35.31890,51841
35.32703,51312
35.33515,47653
35.34327,51399
35.35140,45779
35.35952,48128
35.36765,56437
35.37577,49863
35.38388,56086
35.39202,61545
35.40013,67483
35.40825,81838
35.41638,94874
35.42450,102296
35.43263,111298
35.44075,110733
35.44887,104450
35.45700,88909
35.46512,77057
35.47325,70333
35.48137,69218
35.48948,60332
35.49762,58333
35.50573,57128
35.51385,59564
35.52198,58141
35.53010,57666
35.53823,59831
35.54635,53701
35.55447,55166
35.56260,53794
35.57072,51049
35.57885,54479
35.58697,53138
35.59508,51053
35.60322,53725
35.61133,53999
35.61947,52048
35.62758,54478
35.63570,48165
35.64383,49926
35.65195,55445
35.66007,54276
35.66820,57536
35.67632,55051
35.68445,60238
35.69257,59520
35.70068,55827
35.70882,54560
35.71693,55310
35.72507,54583
35.73318,53178
35.74130,54146
35.74943,59521
35.75755,67080
35.76568,67694
35.77380,67360
35.78192,59634
35.79005,61763
35.79817,59933
35.80628,53064
35.81442,57587
35.82253,53573
35.83067,52655
35.83878,51390
35.84690,55503
35.85503,53370
35.86315,55595
35.87128,54273
35.87940,54801
35.88752,50517
35.89565,51053
35.90377,53195
35.91188,52704
35.92002,54127
35.92813,50815
35.93627,50793
35.94438,54041
35.95250,51876
35.96063,54214
35.96875,54850
35.97688,51994
35.98500,53628
35.99312,54227
36.00125,54545
36.00937,58980
36.01750,54928
36.02562,59986
36.03373,62077
36.04187,62027
36.04998,56240
36.05810,55010
36.06623,56143
36.07435,59759
36.08248,57320
36.09060,57173
36.09872,55088
36.10685,53379
36.11497,56885
36.12310,59317
36.13122,56978
36.13933,57145
36.14747,60103
36.15558,57531
36.16372,56982
36.17183,59057
36.17995,56233
36.18808,51258
36.19620,51334
36.20432,54578
36.21245,56359
36.22057,55905
36.22870,50353
36.23682,50074
36.24493,50097
36.25307,53236
36.26118,53550
36.26932,54961
36.27743,56107
36.28555,58924
36.29368,62284
36.30180,67130
36.30992,69581
36.31805,72907
36.32617,68673
36.33430,65451
36.34242,61580
36.35053,58624
36.35867,54023
36.36678,56675
36.37492,59144
36.38303,59838
36.39115,61984
36.39928,62435
36.40740,62020
36.41553,61514
36.42365,60458
36.43177,58840
36.43990,59973
36.44802,58036
36.45613,62124
36.46427,59535
36.47238,59731
36.48052,61871
36.48863,61035
36.49675,58560
36.50488,57182
36.51300,58709
36.52113,60416
36.52925,61945
36.53737,60523
36.54550,62817
36.55362,58360
36.56173,59939
36.56987,57014
36.57798,62676
36.58612,59576
36.59423,63905
36.60235,62472
36.61048,60248
36.61860,58110
36.62673,59257
36.63485,62957
36.64297,59876
36.65110,63234
36.65922,64886
36.66735,62799
36.67547,63046
36.68358,64755
36.69172,58088
36.69983,66150
36.70795,64429
36.71608,64673
36.72420,63510
36.73233,61014
36.74045,57829
36.74857,66183
36.75670,59577
36.76482,61958
36.77295,61890
36.78107,59881
36.78918,61450
36.79732,66978
36.80543,61376
36.81357,57093
36.82168,58403
36.82980,55457
36.83793,58928
36.84605,59932
36.85417,58923
36.86230,58119
36.87042,60760
36.87855,57160
36.88667,57051
36.89478,58181
36.90292,63521
36.91103,60165
36.91917,57873
36.92728,59519
36.93540,66519
36.94353,68473
36.95165,70645
36.95977,72478
36.96790,77451
36.97602,75667
36.98415,73998
36.99227,72873
37.00038,65126
37.00852,66408
37.01663,62780
37.02477,59561
37.03288,63673
37.04100,59973
37.04913,61937
37.05725,61470
37.06538,58569
37.07350,63931
37.08162,64710
37.08975,64310
37.09787,65411
37.10598,61981
37.11412,61908
37.12223,63348
37.13037,60344
37.13848,59455
37.14660,61388
37.15473,60282
37.16285,63124
37.17098,62301
37.17910,61665
37.18722,63676
37.19535,64068
37.20347,69258
37.21160,63607
37.21972,61086
37.22783,63685
37.23597,66752
37.24408,62108
37.25220,57887
37.26033,58078
37.26845,57858
37.27658,58391
37.28470,58265
37.29282,56311
37.30095,60057
37.30907,67017
37.31720,70620
37.32532,80551
37.33343,83289
37.34157,100758
37.34968,104010
37.35780,102511
37.36593,102361
37.37405,100665
37.38218,96140
37.39030,92068
37.39842,87176
37.40655,83526
37.41467,80028
37.42280,77488
37.43092,81862
37.43903,84782
37.44717,76021
37.45528,77083
37.46342,68576
37.47153,73476
37.47965,71808
37.48778,72116
