C:\MassHunter\GCMS\1\data\JTB-E02\BACandBLUE\JTB-E18-015-11.D Wed Jun 26 13:26:29 2019
Start of data points
2.09517,68374
2.10330,69733
2.11142,69011
2.11953,63893
2.12767,64368
2.13578,66742
2.14392,64572
2.15203,65577
2.16015,65411
2.16828,70690
2.17640,70569
2.18453,69294
2.19265,101343
2.20077,229051
2.20890,244015
2.21702,234560
2.22515,409780
2.23327,407948
2.24138,283760
2.24952,219727
2.25763,265827
2.26575,270413
2.27388,212573
2.28200,237380
2.29013,204650
2.29825,175970
2.30637,157981
2.31450,145324
2.32262,134692
2.33075,133578
2.33887,123206
2.34698,128289
2.35512,122057
2.36323,116529
2.37135,113248
2.37948,119596
2.38760,123929
2.39573,113184
2.40385,113690
2.41197,108849
2.42010,124340
2.42822,117621
2.43635,121330
2.44447,130295
2.45258,121094
2.46072,113029
2.46883,108911
2.47697,104889
2.48508,113445
2.49320,111735
2.50133,115671
2.50945,135494
2.51757,134351
2.52570,129732
2.53382,203435
2.54195,285181
2.55007,268539
2.55818,347797
2.56632,404885
2.57443,314195
2.58257,230617
2.59068,182760
2.59880,160030
2.60693,147527
2.61505,126852
2.62318,127609
2.63130,121678
2.63942,118965
2.64755,115538
2.65567,114606
2.66378,109879
2.67192,105248
2.68003,113758
2.68817,108652
2.69628,108123
2.70440,108301
2.71253,144376
2.72065,156528
2.72878,152500
2.73690,196004
2.74502,190716
2.75315,163593
2.76127,146784
2.76938,153877
2.77752,147997
2.78563,127406
2.79377,128076
2.80188,115309
2.81000,110291
2.81813,103806
2.82625,109061
2.83438,108442
2.84250,100735
2.85062,101014
2.85875,104966
2.86687,101157
2.87500,100447
2.88312,97808
2.89123,95674
2.89937,98930
2.90748,98203
2.91560,103158
2.92373,106781
2.93185,102574
2.93998,104606
2.94810,102745
2.95622,103436
2.96435,100206
2.97247,91663
2.98060,95941
2.98872,98448
2.99683,93892
3.00497,99477
3.01308,153053
3.02122,386436
3.02933,766023
3.03745,1465865
3.04558,2178696
3.05370,2456837
3.06182,3080293
3.06995,3091688
3.07807,2259884
3.08620,1599435
3.09432,1221314
3.10243,1011303
3.11057,863575
3.11868,859790
3.12682,994422
3.13493,1054963
3.14305,1159597
3.15118,1322079
3.15930,1187547
3.16742,910968
3.17555,746240
3.18367,643325
3.19180,573893
3.19992,499954
3.20803,454547
3.21617,431354
3.22428,589599
3.23242,1343287
3.24053,2999855
3.24865,4750762
3.25678,5748411
3.26490,5914892
3.27303,5101412
3.28115,3830957
3.28927,2752464
3.29740,2072017
3.30552,1662876
3.31363,1376467
3.32177,1186173
3.32988,1040030
3.33802,936144
3.34613,843668
3.35425,769838
3.36238,712823
3.37050,669349
3.37863,619297
3.38675,591601
3.39487,559729
3.40300,529757
3.41112,526747
3.41923,505472
3.42737,500011
3.43548,497107
3.44362,469942
3.45173,459084
3.45985,439534
3.46798,430500
3.47610,418119
3.48423,413303
3.49235,407533
3.50047,399684
3.50860,395151
3.51672,376085
3.52485,374604
3.53297,361624
3.54108,352516
3.54922,350317
3.55733,331661
3.56545,327133
3.57358,341087
3.58170,330340
3.58983,339553
3.59795,373403
3.60607,769762
3.61420,1874521
3.62232,2979627
3.63045,3647569
3.63857,4313775
3.64668,3989387
3.65482,2845710
3.66293,2008637
3.67107,1586698
3.67918,1365524
3.68730,1171528
3.69543,1075134
3.70355,962402
3.71167,899535
3.71980,853287
3.72792,786359
3.73605,758717
3.74417,880002
3.75228,1192605
3.76042,1459302
3.76853,1670489
3.77667,1852494
3.78478,1698293
3.79290,1352269
3.80103,1099083
3.80915,934298
3.81727,844007
3.82540,783017
3.83352,726301
3.84165,673269
3.84977,654744
3.85788,641752
3.86602,709183
3.87413,738641
3.88227,781491
3.89038,897925
3.89850,1245182
3.90663,1750722
3.91475,2127460
3.92288,2346735
3.93100,2336942
3.93912,2382574
3.94725,3554188
3.95537,5752363
3.96348,7570354
3.97162,8419524
3.97973,7964188
3.98787,5998904
3.99598,3813437
4.00410,2538843
4.01223,1858972
4.02035,1492068
4.02848,1270175
4.03660,1079901
4.04472,963068
4.05285,872298
4.06097,794792
4.06910,737503
4.07722,699290
4.08533,702306
4.09347,745544
4.10158,783601
4.10970,817366
4.11783,821533
4.12595,771773
4.13408,687107
4.14220,618829
4.15032,649484
4.15845,1252537
4.16657,3186714
4.17470,6023685
4.18282,8158191
4.19093,9767745
4.19907,1.1391E+07
4.20718,1.123512E+07
4.21530,8557542
4.22343,5659046
4.23155,3933374
4.23968,2934153
4.24780,2367660
4.25592,1961324
4.26405,1670177
4.27217,1460565
4.28030,1313226
4.28842,1201011
4.29653,1110006
4.30467,1077453
4.31278,1006228
4.32092,952167
4.32903,889456
4.33715,817290
4.34528,761408
4.35340,706538
4.36152,665401
4.36965,638820
4.37777,616676
4.38590,597928
4.39402,575531
4.40213,539613
4.41027,519286
4.41838,527290
4.42652,487931
4.43463,482340
4.44275,468396
4.45088,464572
4.45900,447917
4.46712,436875
4.47525,424153
4.48337,412639
4.49150,410182
4.49962,401850
4.50773,405963
4.51587,390419
4.52398,382115
4.53212,368280
4.54023,366549
4.54835,361296
4.55648,351787
4.56460,351562
4.57273,382347
4.58085,470770
4.58897,594370
4.59710,727929
4.60522,760283
4.61333,700608
4.62147,595788
4.62958,490695
4.63772,434300
4.64583,396460
4.65395,372279
4.66208,362801
4.67020,336741
4.67833,325129
4.68645,327560
4.69457,313965
4.70270,297781
4.71082,308434
4.71895,285377
4.72707,291836
4.73518,292115
4.74332,284418
4.75143,308511
4.75955,322059
4.76768,346544
4.77580,347057
4.78393,343572
4.79205,344175
4.80017,341491
4.80830,347644
4.81642,342746
4.82455,323790
4.83267,311446
4.84078,304374
4.84892,276941
4.85703,278621
4.86515,276137
4.87328,262996
4.88140,269175
4.88953,318339
4.89765,533143
4.90577,1092472
4.91390,2201543
4.92202,3467873
4.93015,4180176
4.93827,4061031
4.94638,3266930
4.95452,2357818
4.96263,1723254
4.97077,1288339
4.97888,1085125
4.98700,1067708
4.99513,1156985
5.00325,1231873
5.01137,1275038
5.01950,1172532
5.02762,985970
5.03575,845092
5.04387,741676
5.05198,691247
5.06012,634286
5.06823,594569
5.07637,546258
5.08448,522781
5.09260,496816
5.10073,481691
5.10885,494072
5.11698,510664
5.12510,539700
5.13322,536365
5.14135,528731
5.14947,511263
5.15758,503343
5.16572,510531
5.17383,518679
5.18197,510340
5.19008,476074
5.19820,456022
5.20633,437459
5.21445,415391
5.22258,389324
5.23070,368121
5.23882,347949
5.24695,332794
5.25507,331149
5.26318,319683
5.27132,314259
5.27943,318437
5.28757,335773
5.29568,361222
5.30380,372004
5.31193,370786
5.32005,356336
5.32818,329366
5.33630,316421
5.34442,304644
5.35255,302243
5.36067,308333
5.36880,307300
5.37692,301273
5.38503,291042
5.39317,276873
5.40128,280243
5.40940,280859
5.41753,285504
5.42565,283576
5.43378,279182
5.44190,279498
5.45002,259643
5.45815,254996
5.46627,258162
5.47440,263158
5.48252,258628
5.49063,266700
5.49877,265575
5.50688,264326
5.51502,249093
5.52313,273411
5.53125,292471
5.53938,318914
5.54750,318045
5.55562,299928
5.56375,274210
5.57187,254764
5.58000,243047
5.58812,257456
5.59623,258382
5.60437,270624
5.61248,268552
5.62062,264639
5.62873,245981
5.63685,257385
5.64498,269508
5.65310,281044
5.66122,293514
5.66935,288109
5.67747,298008
5.68560,286664
5.69372,265545
5.70183,254861
5.70997,240425
5.71808,232460
5.72622,221804
5.73433,222807
5.74245,215433
5.75058,210238
5.75870,218688
5.76683,213066
5.77495,202051
5.78307,209879
5.79120,213199
5.79932,209012
5.80743,202260
5.81557,201854
5.82368,202712
5.83182,199477
5.83993,197223
5.84805,199716
5.85618,192950
5.86430,198667
5.87243,190973
5.88055,198242
5.88867,200531
5.89680,198158
5.90492,198791
5.91303,171582
5.92117,173545
5.92928,178830
5.93742,189343
5.94553,223391
5.95365,233574
5.96178,253341
5.96990,248779
5.97803,245316
5.98615,238355
5.99427,213605
6.00240,197662
6.01052,179699
6.01865,168269
6.02677,157032
6.03488,146786
6.04302,148122
6.05113,142013
6.05925,144385
6.06738,143483
6.07550,142728
6.08363,152658
6.09175,195747
6.09987,279315
6.10800,395902
6.11612,473619
6.12425,463401
6.13237,402970
6.14048,319400
6.14862,260496
6.15673,230124
6.16487,214367
6.17298,198070
6.18110,194217
6.18923,192504
6.19735,191681
6.20547,196473
6.21360,186338
6.22172,184663
6.22985,196376
6.23797,193456
6.24608,188777
6.25422,190390
6.26233,187512
6.27047,179377
6.27858,178058
6.28670,185691
6.29483,191054
6.30295,182674
6.31107,189681
6.31920,183940
6.32732,179729
6.33545,183173
6.34357,185645
6.35168,187447
6.35982,181962
6.36793,180606
6.37607,187029
6.38418,183238
6.39230,177834
6.40043,183805
6.40855,189332
6.41668,190372
6.42480,194739
6.43292,189848
6.44105,191799
6.44917,188450
6.45728,186319
6.46542,190228
6.47353,193522
6.48167,193271
6.48978,192811
6.49790,189245
6.50603,195764
6.51415,194188
6.52228,198566
6.53040,203214
6.53852,225889
6.54665,247436
6.55477,259830
6.56290,250472
6.57102,236225
6.57913,217433
6.58727,211340
6.59538,208885
6.60350,221542
6.61163,255926
6.61975,399964
6.62788,744732
6.63600,1239502
6.64412,1758289
6.65225,1615829
6.66037,1195371
6.66850,821226
6.67662,555521
6.68473,433026
6.69287,365323
6.70098,308933
6.70910,296783
6.71723,261637
6.72535,250063
6.73348,230110
6.74160,218737
6.74972,218845
6.75785,203544
6.76597,195727
6.77410,189306
6.78222,186045
6.79033,165642
6.79847,162408
6.80658,164344
6.81472,167284
6.82283,167276
6.83095,185115
6.83908,186994
6.84720,187573
6.85532,174366
6.86345,156460
6.87157,122847
6.87970,114927
6.88782,98995
6.89593,95476
6.90407,88875
6.91218,95577
6.92032,87398
6.92843,94724
6.93655,117155
6.94468,145379
6.95280,174515
6.96092,178347
6.96905,155721
6.97717,139871
6.98530,123722
6.99342,116757
7.00153,113619
7.00967,107706
7.01778,108741
7.02592,103267
7.03403,101754
7.04215,103369
7.05028,97319
7.05840,105435
7.06653,105125
7.07465,97010
7.08277,88178
7.09090,82410
7.09902,90389
7.10713,95621
7.11527,108843
7.12338,147988
7.13152,183564
7.13963,220740
7.14775,216625
7.15588,203110
7.16400,240951
7.17213,382746
7.18025,719395
7.18837,1157724
7.19650,1402940
7.20462,1380982
7.21275,1018462
7.22087,651060
7.22898,357488
7.23712,196868
7.24523,136014
7.25335,116249
7.26148,105734
7.26960,105410
7.27773,102104
7.28585,97033
7.29397,97995
7.30210,105041
7.31022,105539
7.31835,110204
7.32647,105029
7.33458,109030
7.34272,100589
7.35083,95562
7.35897,94726
7.36708,93260
7.37520,102960
7.38333,102319
7.39145,100625
7.39957,102010
7.40770,101554
7.41582,92723
7.42395,93135
7.43207,82283
7.44018,82602
7.44832,86583
7.45643,82239
7.46457,81736
7.47268,81842
7.48080,79961
7.48893,77634
7.49705,89600
7.50517,98050
7.51330,131534
7.52142,188144
7.52955,270439
7.53767,363090
7.54578,419455
7.55392,424923
7.56203,392869
7.57017,310973
7.57828,222553
7.58640,176266
7.59453,136675
7.60265,115293
7.61078,108423
7.61890,93347
7.62702,87084
7.63515,87371
7.64327,85565
7.65138,71600
7.65952,76618
7.66763,72753
7.67577,78591
7.68388,69850
7.69200,70866
7.70013,73051
7.70825,85710
7.71638,78381
7.72450,85092
7.73262,89254
7.74075,91284
7.74887,87675
7.75698,82093
7.76512,91511
7.77323,90435
7.78137,94194
7.78948,97656
7.79760,94427
7.80573,93645
7.81385,83073
7.82198,80685
7.83010,74799
7.83822,79298
7.84635,87584
7.85447,82299
7.86260,88277
7.87072,93939
7.87883,99236
7.88697,98678
7.89508,97023
7.90320,99393
7.91133,114333
7.91945,131094
7.92758,141151
7.93570,135362
7.94382,126489
7.95195,107708
7.96007,94692
7.96820,83963
7.97632,70224
7.98443,70646
7.99257,67207
8.00068,67750
8.00882,68616
8.01693,61459
8.02505,71620
8.03318,67371
8.04130,68115
8.04942,62324
8.05755,65205
8.06567,68215
8.07380,66741
8.08192,63047
8.09003,61353
8.09817,66767
8.10628,62957
8.11442,75512
8.12253,83801
8.13065,101435
8.13878,103699
8.14690,95243
8.15502,83610
8.16315,72978
8.17127,75249
8.17940,66196
8.18752,59478
8.19563,66480
8.20377,67101
8.21188,62288
8.22002,66502
8.22813,64370
8.23625,61785
8.24438,63330
8.25250,63149
8.26063,54038
8.26875,64434
8.27687,67532
8.28500,62667
8.29312,63034
8.30123,64652
8.30937,64799
8.31748,71294
8.32562,66827
8.33373,66449
8.34185,61648
8.34998,60521
8.35810,65751
8.36623,63787
8.37435,71518
8.38247,66256
8.39060,64828
8.39872,61151
8.40685,57686
8.41497,56799
8.42308,53339
8.43122,54057
8.43933,54503
8.44745,54479
8.45558,55332
8.46370,51686
8.47183,60834
8.47995,59842
8.48807,66227
8.49620,107554
8.50432,175919
8.51245,260476
8.52057,346070
8.52868,336990
8.53682,269686
8.54493,176971
8.55305,119480
8.56118,86655
8.56930,80207
8.57743,79786
8.58555,76979
8.59367,78611
8.60180,80022
8.60992,82361
8.61805,76722
8.62617,74433
8.63428,62223
8.64242,62124
8.65053,63370
8.65867,61843
8.66678,63924
8.67490,69558
8.68303,66964
8.69115,72504
8.69927,71530
8.70740,69313
8.71552,68899
8.72365,63584
8.73177,72287
8.73988,89767
8.74802,172052
8.75613,371371
8.76427,700058
8.77238,1082078
8.78050,1307898
8.78863,1247473
8.79675,953804
8.80487,634673
8.81300,421688
8.82112,317325
8.82925,268651
8.83737,245127
8.84548,217445
8.85362,206904
8.86173,180514
8.86987,167525
8.87798,155785
8.88610,140333
8.89423,143553
8.90235,142995
8.91048,148506
8.91860,154675
8.92672,153434
8.93485,151076
8.94297,144603
8.95108,135118
8.95922,131986
8.96733,128383
8.97547,130811
8.98358,124585
8.99170,120473
8.99983,120768
9.00795,106045
9.01608,101662
9.02420,100510
9.03232,96611
9.04045,94824
9.04857,96559
9.05670,93852
9.06482,91427
9.07293,93750
9.08107,104142
9.08918,112392
9.09730,121554
9.10543,130362
9.11355,125518
9.12168,127986
9.12980,110491
9.13792,100043
9.14605,103267
9.15417,93794
9.16230,96363
9.17042,86840
9.17853,86430
9.18667,90256
9.19478,86076
9.20290,87707
9.21103,85089
9.21915,81773
9.22728,82560
9.23540,82172
9.24352,81506
9.25165,82576
9.25977,79731
9.26790,81469
9.27602,75417
9.28413,72521
9.29227,75932
9.30038,79449
9.30852,74951
9.31663,73584
9.32475,75943
9.33288,71722
9.34100,74868
9.34912,70442
9.35725,67509
9.36537,71346
9.37350,74398
9.38162,72874
9.38973,76477
9.39787,80334
9.40598,89820
9.41412,102821
9.42223,122024
9.43035,127390
9.43848,130175
9.44660,114759
9.45473,102780
9.46285,93941
9.47097,83123
9.47910,83076
9.48722,82718
9.49533,90668
9.50347,94293
9.51158,101867
9.51972,103158
9.52783,98301
9.53595,91355
9.54408,90025
9.55220,91546
9.56033,102382
9.56845,120762
9.57657,159258
9.58470,172994
9.59282,165535
9.60093,138252
9.60907,102678
9.61718,74763
9.62532,63520
9.63343,61491
9.64155,62747
9.64968,58929
9.65780,62680
9.66593,56030
9.67405,53878
9.68217,50947
9.69030,48434
9.69842,46258
9.70655,47500
9.71467,46973
9.72278,48378
9.73092,45681
9.73903,44673
9.74715,46442
9.75528,47256
9.76340,44009
9.77153,45287
9.77965,46636
9.78777,43504
9.79590,42273
9.80402,43712
9.81215,43760
9.82027,44182
9.82838,43830
9.83652,48683
9.84463,46364
9.85275,47579
9.86088,45064
9.86900,43419
9.87713,44294
9.88525,44781
9.89337,47108
9.90150,47766
9.90962,49871
9.91775,65425
9.92587,81188
9.93398,103523
9.94212,120423
9.95023,124258
9.95837,115968
9.96648,102258
9.97460,85155
9.98273,79839
9.99085,68839
9.99897,67749
10.00710,64082
10.01522,63738
10.02335,62211
10.03147,58519
10.03958,58338
10.04772,58790
10.05583,52952
10.06397,55426
10.07208,56057
10.08020,55922
10.08833,54612
10.09645,50039
10.10458,54067
10.11270,54689
10.12082,46549
10.12895,50575
10.13707,46070
10.14518,45319
10.15332,48633
10.16143,47463
10.16957,47423
10.17768,44565
10.18580,42555
10.19393,43883
10.20205,45352
10.21018,50157
10.21830,48340
10.22642,53836
10.23455,66203
10.24267,100852
10.25078,220860
10.25892,526293
10.26703,1071481
10.27517,1790854
10.28328,2710310
10.29140,3977472
10.29953,5865072
10.30765,8503300
10.31578,1.085719E+07
10.32390,1.132117E+07
10.33202,9443452
10.34015,6237963
10.34827,3610625
10.35640,2097257
10.36452,1486200
10.37263,1169543
10.38077,928500
10.38888,709824
10.39700,559707
10.40513,453264
10.41325,390060
10.42138,359081
10.42950,325669
10.43762,299639
10.44575,278900
10.45387,258417
10.46200,234666
10.47012,220218
10.47823,209413
10.48637,201148
10.49448,184527
10.50262,174999
10.51073,175851
10.51885,170490
10.52698,168440
10.53510,168838
10.54322,163895
10.55135,153652
10.55947,149288
10.56760,147917
10.57572,137649
10.58383,131030
10.59197,124158
10.60008,114878
10.60822,118244
10.61633,110598
10.62445,106024
10.63258,106086
10.64070,101118
10.64882,99577
10.65695,97701
10.66507,89998
10.67320,92377
10.68132,91793
10.68943,94275
10.69757,93597
10.70568,91512
10.71382,89657
10.72193,87461
10.73005,88788
10.73818,82927
10.74630,82974
10.75443,80742
10.76255,77755
10.77067,78563
10.77880,79348
10.78692,75477
10.79503,74969
10.80317,76983
10.81128,74972
10.81942,73670
10.82753,77285
10.83565,69579
10.84378,68476
10.85190,66749
10.86003,63273
10.86815,64791
10.87627,61835
10.88440,65825
10.89252,61529
10.90065,61633
10.90877,62726
10.91688,61346
10.92502,60490
10.93313,62799
10.94125,63848
10.94938,59089
10.95750,62083
10.96563,58364
10.97375,59004
10.98187,56800
10.99000,57972
10.99812,56213
11.00625,55732
11.01437,55180
11.02248,52535
11.03062,50819
11.03873,51306
11.04685,57704
11.05498,53431
11.06310,56123
11.07123,57398
11.07935,60455
11.08747,57239
11.09560,58183
11.10372,53635
11.11185,54481
11.11997,49553
11.12808,48297
11.13622,47715
11.14433,43219
11.15247,45795
11.16058,49114
11.16870,46639
11.17683,54927
11.18495,54006
11.19307,53534
11.20120,51015
11.20932,48135
11.21745,46770
11.22557,41667
11.23368,45843
11.24182,46579
11.24993,40562
11.25807,39781
11.26618,42786
11.27430,41298
11.28243,41549
11.29055,53699
11.29867,69820
11.30680,108806
11.31492,195509
11.32305,312255
11.33117,431447
11.33928,538963
11.34742,547473
11.35553,466752
11.36367,370702
11.37178,279419
11.37990,222961
11.38803,178256
11.39615,162423
11.40428,143470
11.41240,115738
11.42052,107434
11.42865,96387
11.43677,90050
11.44488,85362
11.45302,86176
11.46113,98950
11.46927,118978
11.47738,156869
11.48550,196910
11.49363,205226
11.50175,191137
11.50988,172202
11.51800,143253
11.52612,120832
11.53425,110465
11.54237,99573
11.55050,94264
11.55862,84015
11.56673,86689
11.57487,86024
11.58298,92648
11.59110,108125
11.59923,125457
11.60735,146712
11.61548,135365
11.62360,120478
11.63172,105165
11.63985,91880
11.64797,74600
11.65610,65772
11.66422,61408
11.67233,61565
11.68047,58369
11.68858,62750
11.69670,62438
11.70483,62376
11.71295,65569
11.72108,62704
11.72920,60465
11.73732,57477
11.74545,53060
11.75357,52993
11.76170,50642
11.76982,49415
11.77793,48354
11.78607,47823
11.79418,50303
11.80232,48663
11.81043,48659
11.81855,49042
11.82668,46924
11.83480,49239
11.84292,45220
11.85105,46901
11.85917,47040
11.86730,46925
11.87542,46294
11.88353,43426
11.89167,43648
11.89978,46402
11.90792,47829
11.91603,52172
11.92415,53505
11.93228,51228
11.94040,48393
11.94853,46011
11.95665,44319
11.96477,49964
11.97290,67642
11.98102,91037
11.98913,133290
11.99727,169039
12.00538,176178
12.01352,169765
12.02163,135816
12.02975,99637
12.03788,79137
12.04600,66783
12.05413,65453
12.06225,62828
12.07037,57578
12.07850,55919
12.08662,59041
12.09473,56953
12.10287,63629
12.11098,56984
12.11912,58907
12.12723,58941
12.13535,60831
12.14348,62620
12.15160,62993
12.15973,53995
12.16785,53565
12.17597,50889
12.18410,48119
12.19222,51363
12.20035,49931
12.20847,46752
12.21658,49921
12.22472,50239
12.23283,45468
12.24095,45340
12.24908,46026
12.25720,45849
12.26533,49531
12.27345,46575
12.28157,42159
12.28970,42866
12.29782,42698
12.30595,41833
12.31407,44853
12.32218,39395
12.33032,43017
12.33843,41531
12.34655,43465
12.35468,39519
12.36280,41270
12.37093,41323
12.37905,42235
12.38717,49422
12.39530,63604
12.40342,79679
12.41155,99613
12.41967,113035
12.42778,108949
12.43592,92632
12.44403,84004
12.45217,68188
12.46028,65223
12.46840,58338
12.47653,54969
12.48465,49845
12.49277,49348
12.50090,48354
12.50902,49879
12.51715,52816
12.52527,63012
12.53338,83202
12.54152,106044
12.54963,129055
12.55777,139476
12.56588,128399
12.57400,105662
12.58213,85163
12.59025,70620
12.59838,64193
12.60650,64192
12.61462,56486
12.62275,55889
12.63087,53171
12.63898,49053
12.64712,46708
12.65523,46723
12.66337,48701
12.67148,46833
12.67960,43997
12.68773,42740
12.69585,42339
12.70398,40892
12.71210,43397
12.72022,43743
12.72835,46743
12.73647,48401
12.74460,48549
12.75272,49160
12.76083,45093
12.76897,42119
12.77708,36229
12.78520,37569
12.79333,38231
12.80145,39120
12.80958,38211
12.81770,33783
12.82582,38223
12.83395,38450
12.84207,36792
12.85020,35264
12.85832,37021
12.86643,36332
12.87457,33327
12.88268,32861
12.89080,34185
12.89893,35441
12.90705,32178
12.91518,35563
12.92330,35852
12.93142,35239
12.93955,38061
12.94767,48611
12.95580,63059
12.96392,78524
12.97203,94734
12.98017,88780
12.98828,78969
12.99642,62587
13.00453,58507
13.01265,51325
13.02078,46692
13.02890,42453
13.03702,43262
13.04515,37527
13.05327,37955
13.06140,39842
13.06952,39034
13.07763,36473
13.08577,38121
13.09388,37707
13.10202,37132
13.11013,38040
13.11825,34105
13.12638,36378
13.13450,36394
13.14262,39018
13.15075,39410
13.15887,39495
13.16700,37191
13.17512,40042
13.18323,41308
13.19137,39046
13.19948,45147
13.20762,42253
13.21573,45164
13.22385,45966
13.23198,44236
13.24010,41316
13.24823,38615
13.25635,39107
13.26447,36379
13.27260,38908
13.28072,39588
13.28883,33975
13.29697,32723
13.30508,36723
13.31322,35249
13.32133,34360
13.32945,32436
13.33758,32550
13.34570,33257
13.35383,34488
13.36195,30843
13.37007,33721
13.37820,34450
13.38632,33753
13.39445,32552
13.40257,30156
13.41068,31149
13.41882,30540
13.42693,31915
13.43505,30837
13.44318,32516
13.45130,31123
13.45943,31097
13.46755,32521
13.47567,35611
13.48380,33444
13.49192,31818
13.50005,30620
13.50817,33665
13.51628,32832
13.52442,31713
13.53253,32579
13.54065,35175
13.54878,32163
13.55690,32507
13.56503,35012
13.57315,32995
13.58127,44423
13.58940,54053
13.59752,80914
13.60565,107044
13.61377,131601
13.62188,137098
13.63002,119962
13.63813,100346
13.64627,75253
13.65438,60160
13.66250,51337
13.67063,43096
13.67875,39605
13.68687,37949
13.69500,42100
13.70312,37503
13.71125,38772
13.71937,44550
13.72748,68158
13.73562,129066
13.74373,290264
13.75187,577156
13.75998,986651
13.76810,1384811
13.77623,1551783
13.78435,1402000
13.79248,1090822
13.80060,788148
13.80872,576484
13.81685,492173
13.82497,434721
13.83308,439140
13.84122,429363
13.84933,390197
13.85747,346929
13.86558,292260
13.87370,233416
13.88183,204919
13.88995,176158
13.89808,162088
13.90620,146252
13.91432,137799
13.92245,128142
13.93057,126900
13.93868,117423
13.94682,115942
13.95493,117986
13.96307,115367
13.97118,113092
13.97930,124053
13.98743,116676
13.99555,112296
14.00368,105047
14.01180,103329
14.01992,95852
14.02805,92385
14.03617,91742
14.04430,94578
14.05242,89502
14.06053,84420
14.06867,89545
14.07678,87045
14.08490,78580
14.09303,85278
14.10115,80646
14.10928,82160
14.11740,81416
14.12552,83783
14.13365,82834
14.14177,84132
14.14990,88235
14.15802,91720
14.16613,104744
14.17427,131006
14.18238,194596
14.19050,297152
14.19863,399699
14.20675,455978
14.21488,449831
14.22300,379616
14.23112,284119
14.23925,225606
14.24737,184302
14.25550,156087
14.26362,149239
14.27173,129937
14.27987,113756
14.28798,108597
14.29612,104594
14.30423,91394
14.31235,93397
14.32048,83294
14.32860,82965
14.33672,87446
14.34485,82533
14.35297,77821
14.36110,68070
14.36922,63119
14.37733,63114
14.38547,81608
14.39358,122256
14.40172,196788
14.40983,304322
14.41795,386047
14.42608,379881
14.43420,325580
14.44233,239784
14.45045,166389
14.45857,122075
14.46670,98352
14.47482,86336
14.48293,79996
14.49107,77620
14.49918,72226
14.50732,70680
14.51543,67993
14.52355,69457
14.53168,69136
14.53980,68353
14.54793,60164
14.55605,58465
14.56417,54982
14.57230,50001
14.58042,52116
14.58853,52830
14.59667,51559
14.60478,48461
14.61292,46783
14.62103,49140
14.62915,47941
14.63728,48046
14.64540,47619
14.65353,44359
14.66165,45367
14.66977,39130
14.67790,41330
14.68602,43135
14.69415,41191
14.70227,40949
14.71038,44455
14.71852,48422
14.72663,43820
14.73475,45114
14.74288,46686
14.75100,49920
14.75913,47973
14.76725,50196
14.77537,54604
14.78350,76755
14.79162,136165
14.79975,310054
14.80787,694258
14.81598,1263504
14.82412,1879896
14.83223,2165943
14.84037,2069627
14.84848,1650365
14.85660,1135033
14.86473,728706
14.87285,469493
14.88097,335476
14.88910,253784
14.89722,214602
14.90535,180840
14.91347,168880
14.92158,153811
14.92972,140406
14.93783,128729
14.94597,123486
14.95408,116796
14.96220,106725
14.97033,109480
14.97845,106898
14.98657,106371
14.99470,93081
15.00282,86619
15.01095,86587
15.01907,78246
15.02718,80655
15.03532,80503
15.04343,76798
15.05157,77237
15.05968,74391
15.06780,69949
15.07593,75127
15.08405,73274
15.09218,65436
15.10030,66293
15.10842,66388
15.11655,66558
15.12467,72228
15.13278,73377
15.14092,76823
15.14903,75503
15.15717,74467
15.16528,70306
15.17340,61563
15.18153,55296
15.18965,49380
15.19778,49110
15.20590,45026
15.21402,45763
15.22215,44785
15.23027,46037
15.23838,43159
15.24652,43110
15.25463,43371
15.26277,43911
15.27088,39296
15.27900,42447
15.28713,42138
15.29525,41478
15.30338,43280
15.31150,43030
15.31962,38790
15.32775,36794
15.33587,38181
15.34400,36453
15.35212,35909
15.36023,39787
15.36837,39431
15.37648,36542
15.38460,34986
15.39273,38221
15.40085,34238
15.40898,39646
15.41710,39075
15.42522,38851
15.43335,38584
15.44147,37842
15.44960,38355
15.45772,40608
15.46583,43556
15.47397,53272
15.48208,75039
15.49022,88090
15.49833,107065
15.50645,127978
15.51458,138886
15.52270,155977
15.53082,176034
15.53895,193030
15.54707,218263
15.55520,232350
15.56332,211562
15.57143,179005
15.57957,140262
15.58768,105488
15.59582,84374
15.60393,64907
15.61205,57867
15.62018,55918
15.62830,52457
15.63642,50308
15.64455,49016
15.65267,42704
15.66080,45526
15.66892,42805
15.67703,43788
15.68517,38164
15.69328,43330
15.70142,41526
15.70953,38992
15.71765,41758
15.72578,42936
15.73390,42758
15.74203,48848
15.75015,56101
15.75827,79927
15.76640,117410
15.77452,174653
15.78263,228630
15.79077,260438
15.79888,247608
15.80702,197629
15.81513,142858
15.82325,109369
15.83138,86060
15.83950,73870
15.84763,65276
15.85575,59725
15.86387,61399
15.87200,58400
15.88012,56001
15.88825,52230
15.89637,52780
15.90448,51351
15.91262,51640
15.92073,47249
15.92885,45618
15.93698,51393
15.94510,56299
15.95323,67247
15.96135,75052
15.96947,88257
15.97760,95452
15.98572,99082
15.99385,87533
16.00197,83712
16.01008,75442
16.01822,67695
16.02633,67031
16.03445,65879
16.04258,64360
16.05070,62034
16.05883,57263
16.06695,50879
16.07507,50119
16.08320,48870
16.09132,39949
16.09945,46217
16.10757,48772
16.11568,48147
16.12382,49357
16.13193,48302
16.14007,53222
16.14818,52380
16.15630,56745
16.16443,51148
16.17255,49027
16.18067,49171
16.18880,48114
16.19692,47331
16.20505,47218
16.21317,45430
16.22128,42877
16.22942,45669
16.23753,43009
16.24567,45592
16.25378,42940
16.26190,41779
16.27003,40545
16.27815,44086
16.28628,43873
16.29440,46946
16.30252,47370
16.31065,48631
16.31877,47168
16.32688,44769
16.33502,46936
16.34313,54064
16.35127,57540
16.35938,77130
16.36750,91277
16.37563,97126
16.38375,101366
16.39188,90784
16.40000,77006
16.40812,62691
16.41625,58125
16.42437,53270
16.43248,55497
16.44062,50474
16.44873,56232
16.45687,63431
16.46498,78189
16.47310,92469
16.48123,101060
16.48935,109753
16.49748,92493
16.50560,80201
16.51372,62992
16.52185,57518
16.52997,54181
16.53810,53119
16.54622,52039
16.55433,51096
16.56247,47521
16.57058,48103
16.57870,52162
16.58683,52382
16.59495,60809
16.60308,73766
16.61120,76229
16.61932,75965
16.62745,77129
16.63557,73893
16.64370,61700
16.65182,56126
16.65993,50985
16.66807,49024
16.67618,47333
16.68430,45343
16.69243,46007
16.70055,43329
16.70868,42389
16.71680,42424
16.72492,43373
16.73305,43497
16.74117,41579
16.74930,45819
16.75742,43286
16.76553,44608
16.77367,44398
16.78178,43182
16.78992,37722
16.79803,40333
16.80615,39752
16.81428,37670
16.82240,37573
16.83052,36965
16.83865,36536
16.84677,33228
16.85490,33087
16.86302,37523
16.87113,35105
16.87927,34139
16.88738,36093
16.89552,34389
16.90363,34342
16.91175,35374
16.91988,38625
16.92800,34273
16.93613,39339
16.94425,36139
16.95237,35699
16.96050,37712
16.96862,32668
16.97673,37523
16.98487,34788
16.99298,40101
17.00112,37493
17.00923,36345
17.01735,39130
17.02548,37454
17.03360,43871
17.04173,41802
17.04985,45527
17.05797,46295
17.06610,47514
17.07422,43701
17.08233,41748
17.09047,40984
17.09858,36802
17.10672,40939
17.11483,45808
17.12295,39921
17.13108,41667
17.13920,41789
17.14733,46568
17.15545,42377
17.16357,41001
17.17170,42013
17.17982,40009
17.18795,37625
17.19607,37220
17.20418,37621
17.21232,35932
17.22043,36194
17.22855,36995
17.23668,34274
17.24480,35952
17.25293,39010
17.26105,36452
17.26917,35548
17.27730,38186
17.28542,37992
17.29355,33833
17.30167,34179
17.30978,40212
17.31792,37120
17.32603,42263
17.33417,48525
17.34228,49274
17.35040,55322
17.35853,58536
17.36665,58266
17.37477,56592
17.38290,54504
17.39102,47569
17.39915,47600
17.40727,45399
17.41538,49994
17.42352,51060
17.43163,50627
17.43977,50133
17.44788,46983
17.45600,44911
17.46413,46677
17.47225,45600
17.48037,39849
17.48850,41986
17.49662,39832
17.50475,40725
17.51287,34668
17.52098,37310
17.52912,39253
17.53723,37310
17.54537,41112
17.55348,49280
17.56160,66795
17.56973,107210
17.57785,181311
17.58598,319696
17.59410,519192
17.60222,711210
17.61035,857227
17.61847,841357
17.62658,715791
17.63472,550371
17.64283,390152
17.65097,284209
17.65908,223810
17.66720,179323
17.67533,160936
17.68345,142564
17.69158,124168
17.69970,113741
17.70782,97880
17.71595,91385
17.72407,82605
17.73218,82710
17.74032,76567
17.74843,79538
17.75657,67253
17.76468,72096
17.77280,62376
17.78093,62579
17.78905,62469
17.79718,66602
17.80530,81642
17.81342,103566
17.82155,119452
17.82967,138066
17.83780,142583
17.84592,135250
17.85403,122043
17.86217,106913
17.87028,92584
17.87840,86083
17.88653,80676
17.89465,73498
17.90278,63005
17.91090,57596
17.91902,56027
17.92715,55238
17.93527,53484
17.94340,53972
17.95152,52355
17.95963,49469
17.96777,55936
17.97588,51998
17.98402,47857
17.99213,46691
18.00025,47942
18.00838,48715
18.01650,56580
18.02462,61950
18.03275,68294
18.04087,76302
18.04900,79516
18.05712,84809
18.06523,105612
18.07337,141787
18.08148,194417
18.08962,251167
18.09773,297119
18.10585,293927
18.11398,261427
18.12210,221508
18.13023,183291
18.13835,155181
18.14647,141842
18.15460,130805
18.16272,122825
18.17083,111005
18.17897,109050
18.18708,99575
18.19522,95802
18.20333,93157
18.21145,84521
18.21958,79994
18.22770,78408
18.23583,77285
18.24395,68877
18.25207,74971
18.26020,71380
18.26832,67021
18.27643,62531
18.28457,56301
18.29268,52912
18.30082,50756
18.30893,47494
18.31705,47418
18.32518,44028
18.33330,42511
18.34143,44941
18.34955,50801
18.35767,65263
18.36580,100959
18.37392,149712
18.38205,192279
18.39017,231727
18.39828,254838
18.40642,274246
18.41453,286519
18.42265,282047
18.43078,301168
18.43890,318067
18.44703,335972
18.45515,374836
18.46327,423621
18.47140,502558
18.47952,551117
18.48765,577955
18.49577,577526
18.50388,512246
18.51202,442453
18.52013,394523
18.52825,360935
18.53638,323674
18.54450,313372
18.55263,304929
18.56075,305118
18.56887,294921
18.57700,283667
18.58512,287034
18.59325,274484
18.60137,284052
18.60948,271988
18.61762,272657
18.62573,279240
18.63387,275112
18.64198,269996
18.65010,266044
18.65823,256137
18.66635,256194
18.67447,246539
18.68260,240301
18.69072,237584
18.69885,227295
18.70697,235404
18.71508,234053
18.72322,223720
18.73133,224722
18.73947,221556
18.74758,208690
18.75570,220406
18.76383,222922
18.77195,216336
18.78007,210857
18.78820,217573
18.79632,204879
18.80445,206189
18.81257,199025
18.82068,193847
18.82882,203331
18.83693,204932
18.84507,196724
18.85318,190593
18.86130,189513
18.86943,188418
18.87755,192464
18.88568,190995
18.89380,182964
18.90192,185164
18.91005,178918
18.91817,186378
18.92628,175271
18.93442,183178
18.94253,187526
18.95067,185379
18.95878,185572
18.96690,184727
18.97503,184739
18.98315,186397
18.99128,173528
18.99940,176772
19.00752,171352
19.01565,157919
19.02377,161272
19.03190,159857
19.04002,153463
19.04813,159148
19.05627,165414
19.06438,192573
19.07250,242612
19.08063,348982
19.08875,544114
19.09688,770200
19.10500,967320
19.11312,1043246
19.12125,971221
19.12937,790966
19.13750,588440
19.14562,419043
19.15373,328020
19.16187,262848
19.16998,225849
19.17812,205009
19.18623,188671
19.19435,175603
19.20248,176542
19.21060,170188
19.21872,160121
19.22685,157518
19.23497,151718
19.24310,146531
19.25122,144597
19.25933,138199
19.26747,134177
19.27558,134987
19.28372,136498
19.29183,147223
19.29995,137557
19.30808,138125
19.31620,142066
19.32432,137824
19.33245,134401
19.34057,129029
19.34870,143424
19.35682,148227
19.36493,174403
19.37307,198072
19.38118,200101
19.38932,197111
19.39743,179764
19.40555,159447
19.41368,143718
19.42180,134581
19.42993,126572
19.43805,121755
19.44617,120894
19.45430,122982
19.46242,124451
19.47053,127011
19.47867,147102
19.48678,186487
19.49492,244755
19.50303,293866
19.51115,329238
19.51928,321095
19.52740,289172
19.53553,220997
19.54365,175138
19.55177,141674
19.55990,131144
19.56802,116449
19.57613,111967
19.58427,107616
19.59238,108275
19.60052,104604
19.60863,99535
19.61675,101836
19.62488,105192
19.63300,104268
19.64113,119291
19.64925,134029
19.65737,178656
19.66550,219961
19.67362,253723
19.68175,271034
19.68987,261779
19.69798,256437
19.70612,237278
19.71423,213709
19.72235,182711
19.73048,162981
19.73860,145787
19.74673,137550
19.75485,128054
19.76297,121270
19.77110,119682
19.77922,119924
19.78735,124511
19.79547,133255
19.80358,138629
19.81172,137830
19.81983,129363
19.82797,125673
19.83608,116210
19.84420,109924
19.85233,115941
19.86045,138091
19.86857,229686
19.87670,390908
19.88482,657142
19.89295,996942
19.90107,1318124
19.90918,1438621
19.91732,1373222
19.92543,1165988
19.93357,936658
19.94168,763514
19.94980,613875
19.95793,538385
19.96605,482011
19.97417,449378
19.98230,408189
19.99042,390152
19.99855,384985
20.00667,372552
20.01478,342828
20.02292,332100
20.03103,315646
20.03917,301475
20.04728,272523
20.05540,231011
20.06353,207006
20.07165,180561
20.07978,160980
20.08790,159838
20.09602,152454
20.10415,146294
20.11227,140438
20.12038,124713
20.12852,121589
20.13663,116088
20.14477,107537
20.15288,109717
20.16100,117258
20.16913,122183
20.17725,135124
20.18538,148084
20.19350,156105
20.20162,165676
20.20975,160612
20.21787,147880
20.22600,144767
20.23412,127459
20.24223,130055
20.25037,143167
20.25848,158905
20.26660,184136
20.27473,219853
20.28285,238320
20.29098,257144
20.29910,249714
20.30722,228679
20.31535,191492
20.32347,165283
20.33160,141440
20.33972,126010
20.34783,115768
20.35597,103585
20.36408,88042
20.37220,88623
20.38033,82295
20.38845,83443
20.39658,76433
20.40470,81089
20.41282,79653
20.42095,80913
20.42907,80753
20.43720,87798
20.44532,94052
20.45343,87602
20.46157,91990
20.46968,89209
20.47782,88153
20.48593,81172
20.49405,81002
20.50218,72218
20.51030,66361
20.51842,68955
20.52655,70052
20.53467,66966
20.54280,75180
20.55092,69971
20.55903,68458
20.56717,66056
20.57528,70340
20.58342,66554
20.59153,65035
20.59965,64209
20.60778,59775
20.61590,62211
20.62402,62353
20.63215,63752
20.64027,72615
20.64840,68926
20.65652,67873
20.66463,67067
20.67277,69393
20.68088,72495
20.68902,65135
20.69713,63744
20.70525,66575
20.71338,63281
20.72150,62438
20.72963,60680
20.73775,66360
20.74587,64153
20.75400,63299
20.76212,67407
20.77023,70829
20.77837,76068
20.78648,91993
20.79462,120766
20.80273,175580
20.81085,248742
20.81898,315855
20.82710,343676
20.83523,326191
20.84335,263574
20.85147,209398
20.85960,141700
20.86772,114536
20.87585,97385
20.88397,86659
20.89208,80469
20.90022,82092
20.90833,74093
20.91645,78487
20.92458,74582
20.93270,74157
20.94083,79243
20.94895,72423
20.95707,71599
20.96520,72724
20.97332,63316
20.98145,65847
20.98957,62591
20.99768,63832
21.00582,63637
21.01393,64586
21.02205,66621
21.03018,65143
21.03830,66076
21.04643,65202
21.05455,68797
21.06267,64417
21.07080,66095
21.07892,61791
21.08705,62460
21.09517,64665
21.10328,61626
21.11142,60137
21.11953,59941
21.12767,57883
21.13578,65276
21.14390,66832
21.15203,82800
21.16015,84099
21.16827,98624
21.17640,90930
21.18452,85566
21.19265,79919
21.20077,70906
21.20888,61838
21.21702,61378
21.22513,59952
21.23327,57407
21.24138,59064
21.24950,63881
21.25763,54872
21.26575,58778
21.27388,52926
21.28200,52133
21.29012,53558
21.29825,53536
21.30637,51809
21.31448,51659
21.32262,53421
21.33073,51299
21.33887,49505
21.34698,50544
21.35510,43887
21.36323,46043
21.37135,50246
21.37948,50877
21.38760,51643
21.39572,52407
21.40385,57420
21.41197,54466
21.42008,57026
21.42822,58729
21.43633,55170
21.44447,53377
21.45258,52698
21.46070,49575
21.46883,52655
21.47695,52792
21.48508,49378
21.49320,45831
21.50132,46303
21.50945,46050
21.51757,47392
21.52570,45890
21.53382,45044
21.54193,45975
21.55007,45611
21.55818,47637
21.56630,47939
21.57443,49211
21.58255,57485
21.59068,63962
21.59880,66980
21.60692,70121
21.61505,73763
21.62317,71521
21.63130,72580
21.63942,83018
21.64753,82754
21.65567,86063
21.66378,84109
21.67192,84767
21.68003,87268
21.68815,94297
21.69628,82100
21.70440,76607
21.71252,74108
21.72065,65570
21.72877,59063
21.73690,55876
21.74502,59022
21.75313,56237
21.76127,55124
21.76938,54859
21.77752,54618
21.78563,55516
21.79375,56761
21.80188,54256
21.81000,56473
21.81812,58675
21.82625,65016
21.83437,65484
21.84250,72659
21.85062,75528
21.85873,70761
21.86687,63770
21.87498,59943
21.88312,56511
21.89123,55948
21.89935,52943
21.90748,51491
21.91560,53081
21.92373,49545
21.93185,49010
21.93997,50306
21.94810,60052
21.95622,67708
21.96433,77081
21.97247,77958
21.98058,76889
21.98872,75986
21.99683,84685
22.00495,92045
22.01308,86432
22.02120,92361
22.02933,92985
22.03745,92899
22.04557,96262
22.05370,98996
22.06182,88417
22.06993,95757
22.07807,98836
22.08618,98695
22.09432,90838
22.10243,93875
22.11055,88724
22.11868,91815
22.12680,93095
22.13493,92497
22.14305,89432
22.15117,93135
22.15930,84295
22.16742,79679
22.17555,68127
22.18367,65172
22.19178,61947
22.19992,59664
22.20803,62772
22.21615,58106
22.22428,56526
22.23240,58747
22.24053,54170
22.24865,58279
22.25677,56824
22.26490,51695
22.27302,53578
22.28115,54528
22.28927,59448
22.29738,63320
22.30552,59866
22.31363,70980
22.32177,65094
22.32988,61646
22.33800,67327
22.34613,62733
22.35425,56109
22.36237,51339
22.37050,56067
22.37862,56307
22.38675,65028
22.39487,71972
22.40298,83390
22.41112,101830
22.41923,131443
22.42737,131548
22.43548,123286
22.44360,120546
22.45173,99685
22.45985,85613
22.46797,84807
22.47610,100643
22.48422,129700
22.49235,157569
22.50047,177612
22.50858,195249
22.51672,197475
22.52483,198285
22.53297,198643
22.54108,183869
22.54920,185688
22.55733,181896
22.56545,173129
22.57358,174214
22.58170,175153
22.58982,169388
22.59795,177072
22.60607,164657
22.61418,171482
22.62232,169878
22.63043,164168
22.63857,162481
22.64668,157861
22.65480,165511
22.66293,170156
22.67105,165496
22.67918,172293
22.68730,164663
22.69542,166155
22.70355,167882
22.71167,175434
22.71980,179371
22.72792,178473
22.73603,177139
22.74417,163260
22.75228,158846
22.76040,165283
22.76853,164367
22.77665,161713
22.78478,160621
22.79290,170180
22.80102,187681
22.80915,199364
22.81727,200002
22.82540,203495
22.83352,194326
22.84163,180572
22.84977,167699
22.85788,163435
22.86600,165387
22.87413,156885
22.88225,164130
22.89038,174574
22.89850,183952
22.90662,219257
22.91475,239306
22.92287,261495
22.93100,274232
22.93912,267815
22.94723,236699
22.95537,212761
22.96348,181675
22.97162,162732
22.97973,151608
22.98785,143785
22.99598,140892
23.00410,133773
23.01222,130800
23.02035,125001
23.02847,121217
23.03660,122649
23.04472,121475
23.05283,116787
23.06097,110569
23.06908,116227
23.07722,112597
23.08533,111767
23.09345,115449
23.10158,106932
23.10970,107807
23.11782,101067
23.12595,99716
23.13407,102445
23.14220,95088
23.15032,92250
23.15843,99861
23.16657,99644
23.17468,101121
23.18282,101929
23.19093,92706
23.19905,93343
23.20718,88957
23.21530,91396
23.22343,87751
23.23155,89874
23.23967,90591
23.24780,93249
23.25592,106333
23.26403,100093
23.27217,103041
23.28028,99951
23.28842,100048
23.29653,98967
23.30465,95688
23.31278,88874
23.32090,99352
23.32903,96039
23.33715,104485
23.34527,114960
23.35340,144438
23.36152,176748
23.36965,209933
23.37777,248900
23.38588,305592
23.39402,335351
23.40213,364662
23.41025,387619
23.41838,401445
23.42650,408096
23.43463,399283
23.44275,387249
23.45087,375083
23.45900,339430
23.46712,326995
23.47525,308660
23.48337,296553
23.49148,278419
23.49962,258905
23.50773,245823
23.51585,225488
23.52398,212927
23.53210,204178
23.54023,192160
23.54835,185085
23.55647,181731
23.56460,172580
23.57272,194537
23.58085,206914
23.58897,244374
23.59708,285787
23.60522,322704
23.61333,346065
23.62147,312660
23.62958,279200
23.63770,235056
23.64583,214784
23.65395,205256
23.66207,202118
23.67020,211895
23.67832,204817
23.68645,180641
23.69457,152050
23.70268,139662
23.71082,126372
23.71893,106726
23.72707,102420
23.73518,94044
23.74330,104898
23.75143,126478
23.75955,210550
23.76768,372109
23.77580,646032
23.78392,1034190
23.79205,1412951
23.80017,1618121
23.80828,1640517
23.81642,1436133
23.82453,1195381
23.83267,954743
23.84078,752718
23.84890,607634
23.85703,478384
23.86515,409178
23.87328,360734
23.88140,310951
23.88952,285388
23.89765,261873
23.90577,252748
23.91388,227554
23.92202,224688
23.93013,216594
23.93827,195041
23.94638,181261
23.95450,177701
23.96263,151202
23.97075,150234
23.97888,139831
23.98700,135673
23.99512,140424
24.00325,149488
24.01137,184818
24.01950,237332
24.02762,313973
24.03573,368556
24.04387,396966
24.05198,367965
24.06010,280472
24.06823,204473
24.07635,153196
24.08448,128283
24.09260,110748
24.10072,108047
24.10885,104947
24.11697,99747
24.12510,103514
24.13322,105861
24.14133,98150
24.14947,97722
24.15758,102491
24.16570,102821
24.17383,101592
24.18195,96240
24.19008,98781
24.19820,100372
24.20632,98175
24.21445,96316
24.22257,96943
24.23070,110387
24.23882,127454
24.24693,160346
24.25507,178754
24.26318,195149
24.27132,190608
24.27943,204887
24.28755,213108
24.29568,213769
24.30380,223892
24.31192,231191
24.32005,232460
24.32817,233367
24.33630,229231
24.34442,228080
24.35253,223163
24.36067,233488
24.36878,242061
24.37692,246491
24.38503,275911
24.39315,312842
24.40128,313422
24.40940,330226
24.41753,304057
24.42565,268010
24.43377,240388
24.44190,231651
24.45002,223180
24.45813,226489
24.46627,219405
24.47438,220782
24.48252,227146
24.49063,244441
24.49875,253459
24.50688,251345
24.51500,261955
24.52313,266679
24.53125,272130
24.53937,278060
24.54750,293191
24.55562,292300
24.56375,309811
24.57187,305752
24.57998,293495
24.58812,277425
24.59623,273658
24.60435,260069
24.61248,255470
24.62060,248585
24.62873,243759
24.63685,245542
24.64497,244008
24.65310,233572
24.66122,236497
24.66935,242169
24.67747,241114
24.68558,235195
24.69372,234548
24.70183,232272
24.70995,220778
24.71808,229798
24.72620,226539
24.73433,221175
24.74245,213185
24.75057,212691
24.75870,212887
24.76682,211790
24.77495,214192
24.78307,219671
24.79118,219890
24.79932,214456
24.80743,209048
24.81557,207541
24.82368,208280
24.83180,219293
24.83993,233109
24.84805,269153
24.85617,292472
24.86430,368009
24.87242,445407
24.88055,544684
24.88867,654559
24.89678,734610
24.90492,696993
24.91303,626129
24.92117,498796
24.92928,388752
24.93740,296580
24.94553,233222
24.95365,198058
24.96177,168514
24.96990,148527
24.97802,121202
24.98615,111052
24.99427,99895
25.00238,95378
25.01052,95073
25.01863,85708
25.02677,86062
25.03488,82303
25.04300,76351
25.05113,78343
25.05925,77445
25.06738,77732
25.07550,80968
25.08362,79677
25.09175,88958
25.09987,116745
25.10798,209643
25.11612,447635
25.12423,876291
25.13237,1503543
25.14048,2251515
25.14860,2751744
25.15673,2807937
25.16485,2401743
25.17298,1744142
25.18110,1143534
25.18922,700245
25.19735,411536
25.20547,255174
25.21360,180213
25.22172,146218
25.22983,134669
25.23797,135908
25.24608,154626
25.25420,184641
25.26233,230598
25.27045,260756
25.27858,279995
25.28670,271662
25.29482,244883
25.30295,193234
25.31107,157569
25.31920,121166
25.32732,106892
25.33543,94905
25.34357,82671
25.35168,78897
25.35980,76506
25.36793,78290
25.37605,79815
25.38418,107110
25.39230,132227
25.40042,165017
25.40855,214797
25.41667,251190
25.42480,264121
25.43292,277243
25.44103,280952
25.44917,291196
25.45728,287714
25.46542,299552
25.47353,293260
25.48165,306588
25.48978,303208
25.49790,297078
25.50602,307072
25.51415,304748
25.52227,294424
25.53040,303403
25.53852,296615
25.54663,293609
25.55477,281509
25.56288,288594
25.57102,293347
25.57913,280506
25.58725,282689
25.59538,277695
25.60350,281725
25.61163,280725
25.61975,276143
25.62787,271839
25.63600,279965
25.64412,278056
25.65223,269808
25.66037,271734
25.66848,259264
25.67662,257197
25.68473,249245
25.69285,248073
25.70098,245119
25.70910,233602
25.71723,241552
25.72535,234601
25.73347,233512
25.74160,228939
25.74972,225244
25.75783,229879
25.76597,227338
25.77408,224430
25.78222,226279
25.79033,233310
25.79845,225616
25.80658,219682
25.81470,212178
25.82283,209138
25.83095,215928
25.83907,212424
25.84720,208654
25.85532,213975
25.86345,211592
25.87157,204788
25.87968,198461
25.88782,189819
25.89593,180606
25.90405,192402
25.91218,181954
25.92030,183286
25.92843,175375
25.93655,171243
25.94467,173831
25.95280,171087
25.96092,163365
25.96905,161744
25.97717,161208
25.98528,161789
25.99342,164660
26.00153,150583
26.00965,157937
26.01778,154202
26.02590,152069
26.03403,150683
26.04215,152829
26.05027,142629
26.05840,143188
26.06652,141081
26.07465,140692
26.08277,140393
26.09088,140460
26.09902,140121
26.10713,142628
26.11527,135585
26.12338,138707
26.13150,138585
26.13963,141512
26.14775,137667
26.15587,137032
26.16400,135791
26.17212,134590
26.18025,129187
26.18837,127504
26.19648,124962
26.20462,131305
26.21273,123938
26.22087,113996
26.22898,115124
26.23710,111243
26.24523,115634
26.25335,114009
26.26148,108110
26.26960,109873
26.27772,106246
26.28585,109593
26.29397,108914
26.30208,107749
26.31022,98146
26.31833,99584
26.32647,99896
26.33458,97600
26.34270,97895
26.35083,94659
26.35895,98223
26.36708,100698
26.37520,101148
26.38332,106901
26.39145,110460
26.39957,111835
26.40768,113900
26.41582,122975
26.42393,112660
26.43207,100908
26.44018,102647
26.44830,96781
26.45643,89173
26.46455,89319
26.47268,93744
26.48080,95677
26.48892,91264
26.49705,87468
26.50517,82428
26.51330,90565
26.52142,81401
26.52953,82802
26.53767,72130
26.54578,72652
26.55390,74337
26.56203,70282
26.57015,73289
26.57828,70487
26.58640,73232
26.59452,70994
26.60265,68831
26.61077,66807
26.61890,72796
26.62702,68793
26.63513,64252
26.64327,73719
26.65138,71697
26.65952,81987
26.66763,78661
26.67575,75159
26.68388,76567
26.69200,73504
26.70012,71806
26.70825,65712
26.71637,67027
26.72450,64242
26.73262,62899
26.74073,65032
26.74887,58970
26.75698,58886
26.76512,65986
26.77323,60116
26.78135,64400
26.78948,63261
26.79760,69867
26.80572,68763
26.81385,65697
26.82197,72334
26.83010,66610
26.83822,64219
26.84633,63210
26.85447,58455
26.86258,58517
26.87072,61222
26.87883,59921
26.88695,53832
26.89508,52977
26.90320,59944
26.91133,54537
26.91945,57957
26.92757,55401
26.93570,52858
26.94382,55290
26.95193,60995
26.96007,58305
26.96818,62568
26.97632,71796
26.98443,96154
26.99255,124888
27.00068,169543
27.00880,233615
27.01693,286344
27.02505,343515
27.03317,374396
27.04130,370391
27.04942,350257
27.05755,315533
27.06567,266367
27.07378,227354
27.08192,195975
27.09003,171736
27.09815,154941
27.10628,140823
27.11440,142522
27.12253,126887
27.13065,122657
27.13877,116120
27.14690,113216
27.15502,108363
27.16315,104887
27.17127,99438
27.17938,103518
27.18752,104250
27.19563,106947
27.20375,102001
27.21188,91056
27.22000,96027
27.22813,90138
27.23625,85290
27.24437,79906
27.25250,74500
27.26062,72920
27.26875,66930
27.27687,66555
27.28498,68621
27.29312,68881
27.30123,67373
27.30937,67184
27.31748,66213
27.32560,61642
27.33373,66717
27.34185,64502
27.34997,61991
27.35810,65713
27.36622,61754
27.37435,69260
27.38247,67263
27.39058,66293
27.39872,69288
27.40683,62863
27.41497,57512
27.42308,56557
27.43120,55801
27.43933,54401
27.44745,53269
27.45557,54378
27.46370,55655
27.47182,55387
27.47995,54301
27.48807,58554
27.49618,53657
27.50432,54306
27.51243,58397
27.52057,58569
27.52868,61297
27.53680,60794
27.54493,59804
27.55305,56869
27.56118,56132
27.56930,56245
27.57742,61740
27.58555,72920
27.59367,73812
27.60178,81422
27.60992,78485
27.61803,80047
27.62617,66263
27.63428,63835
27.64240,58330
27.65053,58309
27.65865,56837
27.66678,55453
27.67490,55796
27.68302,57681
27.69115,62931
27.69927,66810
27.70740,63560
27.71552,57357
27.72363,54723
27.73177,56425
27.73988,50041
27.74800,47015
27.75613,49865
27.76425,46176
27.77238,49993
27.78050,52984
27.78862,47140
27.79675,52517
27.80487,51355
27.81300,50500
27.82112,50052
27.82923,51261
27.83737,47353
27.84548,51305
27.85360,45977
27.86173,49743
27.86985,45618
27.87798,49595
27.88610,51094
27.89422,45601
27.90235,48750
27.91047,44965
27.91860,43945
27.92672,43965
27.93483,41728
27.94297,44531
27.95108,44490
27.95922,44858
27.96733,42262
27.97545,50066
27.98358,47740
27.99170,49091
27.99982,44391
28.00795,50609
28.01607,51272
28.02420,59541
28.03232,67367
28.04043,72750
28.04857,82227
28.05668,78311
28.06482,81258
28.07293,74640
28.08105,68876
28.08918,59504
28.09730,53973
28.10543,53214
28.11355,47956
28.12167,50528
28.12980,45267
28.13792,43140
28.14603,44359
28.15417,42489
28.16228,45370
28.17042,46501
28.17853,48875
28.18665,49283
28.19478,60143
28.20290,68580
28.21103,74833
28.21915,80565
28.22727,80812
28.23540,82481
28.24352,73469
28.25163,64062
28.25977,58347
28.26788,55950
28.27602,52064
28.28413,50663
28.29225,48113
28.30038,54110
28.30850,60195
28.31663,71522
28.32475,73918
28.33287,87646
28.34100,92793
28.34912,103465
28.35725,116614
28.36537,123340
28.37348,136090
28.38162,147534
28.38973,148375
28.39785,158202
28.40598,151148
28.41410,152481
28.42223,151389
28.43035,138723
28.43847,131565
28.44660,123709
28.45472,109645
28.46285,111705
28.47097,101727
28.47908,94855
28.48722,91786
28.49533,88535
28.50345,87814
28.51158,90755
28.51970,84426
28.52783,77652
28.53595,76878
28.54407,77012
28.55220,69883
28.56032,64057
28.56845,65321
28.57657,63116
28.58468,65856
28.59282,64165
28.60093,65852
28.60907,62406
28.61718,66907
28.62530,61007
28.63343,64812
28.64155,65192
28.64967,66902
28.65780,63974
28.66592,67589
28.67405,62802
28.68217,64472
28.69028,64323
28.69842,58989
28.70653,59383
28.71467,59794
28.72278,55215
28.73090,56848
28.73903,60186
28.74715,65900
28.75528,71832
28.76340,79606
28.77152,86783
28.77965,89877
28.78777,84054
28.79588,79064
28.80402,75633
28.81213,67802
28.82027,63349
28.82838,61731
28.83650,64820
28.84463,60656
28.85275,56885
28.86088,61000
28.86900,59410
28.87712,62853
28.88525,64068
28.89337,70862
28.90148,75793
28.90962,75110
28.91773,70071
28.92587,64268
28.93398,60828
28.94210,58903
28.95023,61164
28.95835,63071
28.96648,57899
28.97460,55232
28.98272,56060
28.99085,53036
28.99897,51598
29.00710,48591
29.01522,51827
29.02333,47734
29.03147,49270
29.03958,49248
29.04770,51970
29.05583,51712
29.06395,47655
29.07208,47792
29.08020,54858
29.08832,53084
29.09645,53734
29.10457,50401
29.11270,51266
29.12082,50324
29.12893,47702
29.13707,45669
29.14518,48573
29.15332,50740
29.16143,46896
29.16955,50834
29.17768,51665
29.18580,56788
29.19392,65426
29.20205,77661
29.21017,91401
29.21830,104903
29.22642,98731
29.23453,96704
29.24267,88228
29.25078,85760
29.25892,86075
29.26703,86210
29.27515,89386
29.28328,83731
29.29140,81759
29.29952,68744
29.30765,62138
29.31577,55792
29.32390,47937
29.33202,49974
29.34013,47354
29.34827,45355
29.35638,44698
29.36452,48726
29.37263,44870
29.38075,45446
29.38888,42113
29.39700,48402
29.40513,46934
29.41325,44224
29.42137,46225
29.42950,44798
29.43762,44216
29.44573,47198
29.45387,48311
29.46198,49989
29.47012,44774
29.47823,48897
29.48635,49307
29.49448,48835
29.50260,53120
29.51073,46531
29.51885,46125
29.52697,50696
29.53510,48079
29.54322,44541
29.55133,45192
29.55947,44173
29.56758,42650
29.57572,42094
29.58383,40422
29.59195,43824
29.60008,43088
29.60820,42699
29.61633,40931
29.62445,42461
29.63257,44784
29.64070,43627
29.64882,40873
29.65695,45166
29.66507,41556
29.67318,46808
29.68132,48911
29.68943,56360
29.69755,50132
29.70568,52631
29.71380,48082
29.72193,49948
29.73005,44463
29.73817,42590
29.74630,40578
29.75442,45919
29.76255,39317
29.77067,39821
29.77878,40749
29.78692,39362
29.79503,41227
29.80317,39993
29.81128,38920
29.81940,37952
29.82753,39276
29.83565,37690
29.84377,42692
29.85190,42933
29.86002,44996
29.86815,54347
29.87627,74934
29.88438,98317
29.89252,130582
29.90063,164301
29.90877,171262
29.91688,155108
29.92500,122397
29.93313,99847
29.94125,73033
29.94938,61493
29.95750,58026
29.96562,61147
29.97375,65113
29.98187,68926
29.98998,76523
29.99812,79484
30.00623,81398
30.01437,90134
30.02248,90892
30.03060,93201
30.03873,89444
30.04685,94707
30.05498,92459
30.06310,98398
30.07122,91751
30.07935,97221
30.08747,95815
30.09558,87401
30.10372,84306
30.11183,89684
30.11997,85508
30.12808,83336
30.13620,75889
30.14433,76569
30.15245,75782
30.16058,71354
30.16870,68858
30.17682,77400
30.18495,71197
30.19307,66547
30.20120,69716
30.20932,67518
30.21743,66506
30.22557,61871
30.23368,62418
30.24180,56355
30.24993,54176
30.25805,55120
30.26618,51869
30.27430,56337
30.28242,52454
30.29055,52212
30.29867,52777
30.30680,52929
30.31492,49092
30.32303,52161
30.33117,51969
30.33928,49788
30.34740,53990
30.35553,51433
30.36365,53477
30.37178,51185
30.37990,57296
30.38802,49356
30.39615,47458
30.40427,46925
30.41240,46377
30.42052,46668
30.42863,44042
30.43677,47211
30.44488,41974
30.45302,43109
30.46113,41991
30.46925,46632
30.47738,45729
30.48550,43426
30.49362,44826
30.50175,46486
30.50987,43510
30.51800,45086
30.52612,45926
30.53423,44733
30.54237,42865
30.55048,41560
30.55862,41210
30.56673,43225
30.57485,43114
30.58298,43065
30.59110,44375
30.59923,43116
30.60735,43439
30.61547,41165
30.62360,37887
30.63172,38218
30.63983,44448
30.64797,42145
30.65608,37142
30.66422,40290
30.67233,37394
30.68045,42567
30.68858,38244
30.69670,41493
30.70483,41616
30.71295,39012
30.72107,37689
30.72920,42094
30.73732,45207
30.74543,44594
30.75357,43781
30.76168,47766
30.76982,43698
30.77793,52333
30.78605,60753
30.79418,85458
30.80230,98599
30.81043,109163
30.81855,109044
30.82667,104270
30.83480,89440
30.84292,74185
30.85105,59936
30.85917,51199
30.86728,55556
30.87542,56126
30.88353,56300
30.89165,58232
30.89978,61676
30.90790,57780
30.91603,57619
30.92415,61556
30.93227,61400
30.94040,64537
30.94852,64687
30.95665,63485
30.96477,61195
30.97288,63253
30.98102,62390
30.98913,61362
30.99727,64274
31.00538,62219
31.01350,61184
31.02163,62862
31.02975,63857
31.03787,65162
31.04600,65881
31.05412,63159
31.06225,65899
31.07037,60746
31.07848,68478
31.08662,75013
31.09473,84204
31.10287,84328
31.11098,88951
31.11910,80442
31.12723,81351
31.13535,78861
31.14347,77480
31.15160,76961
31.15972,72138
31.16785,72608
31.17597,77146
31.18408,80552
31.19222,94638
31.20033,114867
31.20847,133562
31.21658,158521
31.22470,175864
31.23283,182988
31.24095,163177
31.24908,147305
31.25720,124775
31.26532,96704
31.27345,81725
31.28157,75912
31.28968,68864
31.29782,69059
31.30593,62998
31.31407,61020
31.32218,63446
31.33030,66190
31.33843,65601
31.34655,67838
31.35468,61021
31.36280,60870
31.37092,65122
31.37905,66816
31.38717,69280
31.39528,69410
31.40342,63417
31.41153,63543
31.41967,61671
31.42778,61311
31.43590,60012
31.44403,57914
31.45215,55328
31.46028,56014
31.46840,58494
31.47652,59780
31.48465,56869
31.49277,60340
31.50090,61011
31.50902,55828
31.51713,56137
31.52527,55995
31.53338,57555
31.54150,55482
31.54963,55449
31.55775,56022
31.56588,56371
31.57400,56908
31.58212,59796
31.59025,58964
31.59837,55560
31.60650,55419
31.61462,55999
31.62273,55709
31.63087,53188
31.63898,52109
31.64712,54966
31.65523,55171
31.66335,58364
31.67148,55286
31.67960,55733
31.68772,59228
31.69585,57121
31.70397,50394
31.71210,55097
31.72022,49643
31.72833,50415
31.73647,50375
31.74458,48922
31.75272,49448
31.76083,50410
31.76895,47860
31.77708,48087
31.78520,50788
31.79332,49646
31.80145,50994
31.80957,44949
31.81770,47779
31.82582,46911
31.83393,49458
31.84207,51053
31.85018,51696
31.85832,49581
31.86643,49715
31.87455,52219
31.88268,60377
31.89080,56545
31.89893,61790
31.90705,67780
31.91517,76001
31.92330,77224
31.93142,82686
31.93953,79147
31.94767,82163
31.95578,79408
31.96392,81642
31.97203,86540
31.98015,90589
31.98828,84299
31.99640,94458
32.00453,85550
32.01265,89935
32.02077,89704
32.02890,82720
32.03702,78315
32.04515,80907
32.05327,81736
32.06138,78660
32.06952,77267
32.07763,72812
32.08575,70007
32.09388,64226
32.10200,64107
32.11013,61888
32.11825,62526
32.12637,62223
32.13450,59993
32.14262,58279
32.15075,58317
32.15887,55715
32.16698,54841
32.17512,59490
32.18323,56330
32.19135,52804
32.19948,50905
32.20760,52501
32.21573,50671
32.22385,49135
32.23197,48114
32.24010,55536
32.24822,50062
32.25635,50712
32.26447,55653
32.27258,54384
32.28072,48659
32.28883,53110
32.29697,48580
32.30508,48300
32.31320,47388
32.32133,45345
32.32945,46637
32.33757,45183
32.34570,46587
32.35382,45493
32.36195,47874
32.37007,49952
32.37818,47238
32.38632,47155
32.39443,47044
32.40257,46442
32.41068,44517
32.41880,46628
32.42693,44571
32.43505,46696
32.44318,42474
32.45130,43338
32.45942,42706
32.46755,44461
32.47567,45349
32.48378,41755
32.49192,42899
32.50003,47682
32.50817,44425
32.51628,44927
32.52440,44793
32.53253,45410
32.54065,41712
32.54878,44043
32.55690,43526
32.56502,46244
32.57315,44133
32.58127,46190
32.58938,48254
32.59752,38147
32.60563,43192
32.61377,40900
32.62188,40630
32.63000,44991
32.63813,46934
32.64625,51645
32.65438,59611
32.66250,60964
32.67062,66864
32.67875,57811
32.68687,60216
32.69500,50900
32.70312,51100
32.71123,48256
32.71937,46068
32.72748,46759
32.73560,46722
32.74373,44435
32.75185,43254
32.75998,41726
32.76810,42074
32.77622,43313
32.78435,42042
32.79247,40129
32.80060,42897
32.80872,41312
32.81683,37469
32.82497,41357
32.83308,43163
32.84120,40965
32.84933,36609
32.85745,42504
32.86558,43102
32.87370,39472
32.88182,43051
32.88995,44492
32.89807,42042
32.90620,46660
32.91432,43943
32.92243,47902
32.93057,44506
32.93868,49575
32.94682,43418
32.95493,43810
32.96305,45588
32.97118,46220
32.97930,52831
32.98742,56298
32.99555,58306
33.00367,61721
33.01180,71057
33.01992,59498
33.02803,60055
33.03617,56538
33.04428,50222
33.05242,50675
33.06053,51114
33.06865,56805
33.07678,57154
33.08490,57860
33.09303,61773
33.10115,65103
33.10927,68330
33.11740,68510
33.12552,68822
33.13363,65199
33.14177,61338
33.14988,57384
33.15802,49401
33.16613,46970
33.17425,50860
33.18238,48484
33.19050,48107
33.19863,45790
33.20675,47713
33.21487,44045
33.22300,44659
33.23112,45948
33.23923,41691
33.24737,42801
33.25548,45173
33.26362,44465
33.27173,43679
33.27985,47973
33.28798,42815
33.29610,44785
33.30423,46104
33.31235,43800
33.32047,42231
33.32860,43930
33.33672,39761
33.34485,43991
33.35297,48001
33.36108,44698
33.36922,45894
33.37733,50386
33.38545,48619
33.39358,45744
33.40170,45724
33.40983,42931
33.41795,44267
33.42607,40525
33.43420,43207
33.44232,41862
33.45045,41013
33.45857,37417
33.46668,41288
33.47482,43382
33.48293,41984
33.49107,40540
33.49918,38921
33.50730,39106
33.51543,43898
33.52355,45174
33.53167,45844
33.53980,46814
33.54792,43649
33.55605,54189
33.56417,51300
33.57228,51319
33.58042,47709
33.58853,43595
33.59667,44512
33.60478,45904
33.61290,43584
33.62103,43340
33.62915,41244
33.63727,47607
33.64540,44542
33.65352,45935
33.66165,50279
33.66977,48972
33.67788,50076
33.68602,46997
33.69413,45144
33.70227,44414
33.71038,44665
33.71850,44955
33.72663,39982
33.73475,38838
33.74288,43687
33.75100,43748
33.75912,39577
33.76725,39886
33.77537,39965
33.78348,43108
33.79162,42426
33.79973,40021
33.80787,40643
33.81598,39023
33.82410,40019
33.83223,41503
33.84035,42565
33.84848,46348
33.85660,45461
33.86472,42314
33.87285,44874
33.88097,48374
33.88908,44042
33.89722,44109
33.90533,45181
33.91347,48461
33.92158,46800
33.92970,44193
33.93783,42813
33.94595,43208
33.95408,40262
33.96220,45371
33.97032,42328
33.97845,43041
33.98657,41134
33.99470,43522
34.00282,43800
34.01093,38004
34.01907,40563
34.02718,41444
34.03530,44049
34.04343,40416
34.05155,41426
34.05968,43129
34.06780,44538
34.07592,43744
34.08405,41259
34.09217,44202
34.10030,43767
34.10842,38719
34.11653,43184
34.12467,41109
34.13278,46030
34.14092,41711
34.14903,46221
34.15715,44923
34.16528,47301
34.17340,48028
34.18152,41936
34.18965,41822
34.19777,41782
34.20590,43825
34.21402,42548
34.22213,42192
34.23027,47555
34.23838,44280
34.24652,44429
34.25463,42278
34.26275,41681
34.27088,45098
34.27900,41191
34.28712,44093
34.29525,42762
34.30337,41153
34.31150,44209
34.31962,41809
34.32773,41640
34.33587,40132
34.34398,46961
34.35212,44265
34.36023,43411
34.36835,45347
34.37648,46104
34.38460,45682
34.39273,41922
34.40085,44908
34.40897,43553
34.41710,44285
34.42522,40082
34.43333,42245
34.44147,40901
34.44958,44752
34.45772,42282
34.46583,41084
34.47395,42328
34.48208,42015
34.49020,50139
34.49833,46074
34.50645,50725
34.51457,53808
34.52270,57440
34.53082,67372
34.53895,76077
34.54707,76115
34.55518,79143
34.56332,80541
34.57143,84937
34.57955,79959
34.58768,67221
34.59580,67202
34.60393,65484
34.61205,64199
34.62017,69686
34.62830,65015
34.63642,56002
34.64455,57844
34.65267,56288
34.66078,59027
34.66892,54057
34.67703,52128
34.68515,54486
34.69328,51898
34.70140,46966
34.70953,48259
34.71765,48665
34.72577,47768
34.73390,50628
34.74202,54692
34.75015,48610
34.75827,49312
34.76638,51813
34.77452,51240
34.78263,53271
34.79077,50364
34.79888,49835
34.80700,49349
34.81513,50422
34.82325,51960
34.83137,51680
34.83950,53044
34.84762,49970
34.85575,51654
34.86387,48953
34.87198,52652
34.88012,51930
34.88823,48843
34.89637,50828
34.90448,48809
34.91260,54432
34.92073,49983
34.92885,49412
34.93697,50340
34.94510,54415
34.95322,52541
34.96135,56032
34.96947,59202
34.97758,54550
34.98572,57088
34.99383,54837
35.00197,55184
35.01008,56599
35.01820,50846
35.02633,51466
35.03445,50341
35.04258,45542
35.05070,47300
35.05882,45367
35.06695,46693
35.07507,48277
35.08318,46223
35.09132,46423
35.09943,45531
35.10757,45740
35.11568,48188
35.12380,47100
35.13193,45431
35.14005,44830
35.14818,49240
35.15630,50410
35.16442,49890
35.17255,47618
35.18067,48640
35.18880,48067
35.19692,47561
35.20503,50094
35.21317,40405
35.22128,46705
35.22940,49504
35.23753,46186
35.24565,48131
35.25378,45945
35.26190,41093
35.27002,47177
35.27815,50288
35.28627,47075
35.29440,47810
35.30252,43895
35.31063,47248
35.31877,45817
35.32688,43444
35.33502,45080
35.34313,42585
35.35125,43522
35.35938,47626
35.36750,49310
35.37562,43158
35.38375,51306
35.39187,49001
35.40000,47233
35.40812,51325
35.41623,59202
35.42437,54710
35.43248,57851
35.44062,61987
35.44873,58040
35.45685,52392
35.46498,54428
35.47310,55520
35.48122,53845
35.48935,51903
35.49747,48334
35.50560,50061
35.51372,49164
35.52183,51334
35.52997,49211
35.53808,46833
35.54622,46932
35.55433,46210
35.56245,45527
35.57058,47789
35.57870,48204
35.58683,44519
35.59495,46019
35.60307,46110
35.61120,43154
35.61932,49949
35.62743,49326
35.63557,50211
35.64368,45992
35.65182,48849
35.65993,49796
35.66805,53546
35.67618,52315
35.68430,49095
35.69243,51494
35.70055,47691
35.70867,47861
35.71680,48658
35.72492,54194
35.73303,51013
35.74117,54082
35.74928,54525
35.75742,54692
35.76553,57176
35.77365,53597
35.78178,54487
35.78990,53522
35.79803,50749
35.80615,49887
35.81427,47652
35.82240,43995
35.83052,45080
35.83865,48107
35.84677,46976
35.85488,45415
35.86302,46485
35.87113,49029
35.87925,44853
35.88738,48440
35.89550,51025
35.90363,51898
35.91175,46508
35.91987,41857
35.92800,48339
35.93612,45713
35.94425,44931
35.95237,45054
35.96048,48108
35.96862,51740
35.97673,46355
35.98487,46815
35.99298,48219
36.00110,53737
36.00923,47355
36.01735,49967
36.02547,54131
36.03360,48976
36.04172,49226
36.04985,51583
36.05797,49536
36.06608,48564
36.07422,46696
36.08233,49649
36.09047,49733
36.09858,50691
36.10670,49196
36.11483,47541
36.12295,47737
36.13107,49353
36.13920,52717
36.14732,53850
36.15545,52556
36.16357,50876
36.17168,50390
36.17982,49018
36.18793,47074
36.19607,49619
36.20418,46534
36.21230,52987
36.22043,49206
36.22855,46994
36.23668,46319
36.24480,44448
36.25292,47589
36.26105,48994
36.26917,52342
36.27728,53708
36.28542,53951
36.29353,54298
36.30167,63926
36.30978,70578
36.31790,65630
36.32603,66992
36.33415,60385
36.34228,57821
36.35040,56238
36.35852,51608
36.36665,48500
36.37477,53483
36.38290,52477
36.39102,51545
36.39913,52166
36.40727,53728
36.41538,51369
36.42350,54530
36.43163,54882
36.43975,56283
36.44788,51061
36.45600,50524
36.46412,54390
36.47225,51261
36.48037,51138
36.48850,51596
36.49662,54275
36.50473,55987
36.51287,56506
36.52098,54736
36.52910,60372
36.53723,56329
36.54535,54538
36.55348,56944
36.56160,60476
36.56972,55928
36.57785,53067
36.58597,53214
36.59410,56396
36.60222,54660
36.61033,52728
36.61847,59830
36.62658,55656
36.63472,54242
36.64283,59957
36.65095,54147
36.65908,59537
36.66720,56407
36.67532,57209
36.68345,54982
36.69157,55643
36.69970,56224
36.70782,53155
36.71593,53067
36.72407,58974
36.73218,55453
36.74032,58191
36.74843,59417
36.75655,56296
36.76468,58661
36.77280,55127
36.78092,54813
36.78905,54463
36.79717,50786
36.80530,57629
36.81342,52097
36.82153,49714
36.82967,52839
36.83778,53091
36.84592,52093
36.85403,54633
36.86215,53058
36.87028,54457
36.87840,55159
36.88653,56436
36.89465,56492
36.90277,56141
36.91090,56472
36.91902,54279
36.92713,53062
36.93527,59052
36.94338,65431
36.95152,67500
36.95963,67527
36.96775,73569
36.97588,71101
36.98400,71294
36.99213,65000
37.00025,63014
37.00837,65388
37.01650,59246
37.02462,54285
37.03275,54448
37.04087,56902
37.04898,56044
37.05712,56335
37.06523,57374
37.07335,56086
37.08148,56509
37.08960,57489
37.09773,58959
37.10585,53274
37.11397,55894
37.12210,54379
37.13022,56456
37.13835,53041
37.14647,60427
37.15458,54526
37.16272,64213
37.17083,53065
37.17895,57484
37.18708,59281
37.19520,58371
37.20333,56371
37.21145,54882
37.21957,49899
37.22770,58019
37.23582,57531
37.24395,53871
37.25207,58489
37.26018,54734
37.26832,57117
37.27643,57037
37.28457,53200
37.29268,53369
37.30080,56294
37.30893,58936
37.31705,60408
37.32517,73355
37.33330,77175
37.34142,76784
37.34955,84224
37.35767,86243
37.36578,86219
37.37392,83039
37.38203,82153
37.39017,78058
37.39828,78600
37.40640,69445
37.41453,68443
37.42265,66315
37.43078,68477
37.43890,64681
37.44702,69458
37.45515,65874
37.46327,70927
37.47138,65825
37.47952,66048
37.48763,66320
