C:\MassHunter\GCMS\1\data\JTB-E18\JTB-E18-032-10.D Fri Oct 11 16:48:13 2019
Start of data points
2.09513	140611
2.10327	140740
2.11138	136033
2.11952	127926
2.12763	128663
2.13575	126454
2.14388	123786
2.15200	125638
2.16013	120072
2.16825	121759
2.17637	117109
2.18450	113141
2.19262	113747
2.20073	113871
2.20887	107163
2.21698	106727
2.22512	109776
2.23323	108411
2.24135	98495
2.24948	107569
2.25760	97592
2.26573	170236
2.27385	823078
2.28197	1561886
2.29010	1156679
2.29822	597869
2.30633	401091
2.31447	321724
2.32258	275190
2.33072	243465
2.33883	228964
2.34695	210205
2.35508	197943
2.36320	185485
2.37133	177689
2.37945	174065
2.38757	174643
2.39570	164267
2.40382	160026
2.41195	157490
2.42007	157678
2.42818	158348
2.43632	147611
2.44443	151156
2.45255	156058
2.46068	148979
2.46880	140703
2.47693	128927
2.48505	130734
2.49317	144631
2.50130	137699
2.50942	128068
2.51755	129880
2.52567	130277
2.53378	125144
2.54192	125330
2.55003	127311
2.55817	126496
2.56628	118262
2.57440	118906
2.58253	113238
2.59065	119520
2.59877	117907
2.60690	130873
2.61502	171460
2.62315	169416
2.63127	147554
2.63938	144230
2.64752	135418
2.65563	125719
2.66377	125089
2.67188	130292
2.68000	126266
2.68813	120979
2.69625	116738
2.70437	118816
2.71250	114646
2.72062	117811
2.72875	112445
2.73687	117394
2.74498	114057
2.75312	110593
2.76123	102943
2.76937	109509
2.77748	101543
2.78560	105700
2.79373	107944
2.80185	103345
2.80998	108531
2.81810	113207
2.82622	126768
2.83435	154125
2.84247	138686
2.85058	124058
2.85872	118134
2.86683	107438
2.87497	107277
2.88308	108562
2.89120	97853
2.89933	103991
2.90745	101548
2.91558	96311
2.92370	94987
2.93182	97533
2.93995	94363
2.94807	95560
2.95620	101813
2.96432	96686
2.97243	99044
2.98057	96656
2.98868	98367
2.99680	95947
3.00493	96987
3.01305	96059
3.02118	101791
3.02930	125142
3.03742	156266
3.04555	190423
3.05367	402584
3.06180	759806
3.06992	757311
3.07803	444249
3.08617	266178
3.09428	199374
3.10240	182600
3.11053	194495
3.11865	188698
3.12678	153056
3.13490	134385
3.14302	131677
3.15115	127871
3.15927	118803
3.16740	117538
3.17552	109160
3.18363	116248
3.19177	113901
3.19988	106645
3.20802	106011
3.21613	107489
3.22425	103134
3.23238	107295
3.24050	102322
3.24862	100327
3.25675	92950
3.26487	98208
3.27300	108368
3.28112	189334
3.28923	632990
3.29737	1816297
3.30548	3182385
3.31362	3477670
3.32173	2676575
3.32985	1814212
3.33798	1304211
3.34610	1009705
3.35422	850388
3.36235	715307
3.37047	621947
3.37860	567423
3.38672	553501
3.39483	498950
3.40297	495687
3.41108	602772
3.41922	685429
3.42733	617091
3.43545	465571
3.44358	390581
3.45170	352862
3.45983	316999
3.46795	302231
3.47607	293681
3.48420	266849
3.49232	254482
3.50043	250344
3.50857	238224
3.51668	236194
3.52482	221444
3.53293	220434
3.54105	213807
3.54918	203825
3.55730	203380
3.56543	198293
3.57355	192375
3.58167	189223
3.58980	186505
3.59792	185825
3.60605	186075
3.61417	195488
3.62228	229024
3.63042	286859
3.63853	330221
3.64665	296022
3.65478	243462
3.66290	208610
3.67103	192064
3.67915	188914
3.68727	174828
3.69540	174442
3.70352	169573
3.71165	161270
3.71977	166495
3.72788	161888
3.73602	156550
3.74413	160007
3.75225	156133
3.76038	156274
3.76850	155786
3.77663	175666
3.78475	185420
3.79287	178345
3.80100	179758
3.80912	163817
3.81725	163908
3.82537	162284
3.83348	158711
3.84162	156938
3.84973	151152
3.85787	145991
3.86598	150127
3.87410	142196
3.88223	139242
3.89035	138263
3.89847	136251
3.90660	136651
3.91472	143300
3.92285	130229
3.93097	134336
3.93908	129070
3.94722	127353
3.95533	127016
3.96347	124710
3.97158	126135
3.97970	128548
3.98783	125191
3.99595	123278
4.00408	117504
4.01220	122288
4.02032	124188
4.02845	119998
4.03657	122806
4.04468	126391
4.05282	118159
4.06093	117451
4.06907	120576
4.07718	122009
4.08530	125384
4.09343	121868
4.10155	113354
4.10968	121671
4.11780	122581
4.12592	207151
4.13405	791945
4.14217	2570604
4.15028	4888954
4.15842	5579960
4.16653	4162830
4.17467	2476888
4.18278	1429247
4.19090	956899
4.19903	738424
4.20715	761870
4.21528	1938619
4.22340	5775765
4.23152	1.18364E+07
4.23965	1.648593E+07
4.24777	1.677307E+07
4.25590	1.231164E+07
4.26402	7399862
4.27213	4779517
4.28027	3466840
4.28838	2664990
4.29650	2114191
4.30463	1761160
4.31275	1486504
4.32088	1304329
4.32900	1131141
4.33712	1007424
4.34525	922352
4.35337	831163
4.36150	770026
4.36962	708701
4.37773	665981
4.38587	631731
4.39398	577785
4.40210	554052
4.41023	516698
4.41835	497751
4.42648	457943
4.43460	453307
4.44272	429051
4.45085	414755
4.45897	411503
4.46710	385239
4.47522	372537
4.48333	356796
4.49147	340912
4.49958	338826
4.50772	329342
4.51583	316530
4.52395	309633
4.53208	307415
4.54020	303017
4.54832	285499
4.55645	288412
4.56457	266038
4.57270	270311
4.58082	266287
4.58893	253231
4.59707	254257
4.60518	243870
4.61332	239442
4.62143	234729
4.62955	233521
4.63768	223847
4.64580	221511
4.65393	217788
4.66205	211673
4.67017	209267
4.67830	207002
4.68642	204193
4.69453	205818
4.70267	204549
4.71078	204505
4.71892	200656
4.72703	193550
4.73515	180780
4.74328	188546
4.75140	185522
4.75953	178756
4.76765	185940
4.77577	182994
4.78390	173515
4.79202	179071
4.80015	164962
4.80827	168972
4.81638	170519
4.82452	173710
4.83263	168072
4.84075	166903
4.84888	163380
4.85700	166745
4.86513	167529
4.87325	170333
4.88137	158782
4.88950	155016
4.89762	161492
4.90575	157288
4.91387	182821
4.92198	290878
4.93012	526837
4.93823	890530
4.94635	1217068
4.95448	1293623
4.96260	1092651
4.97073	841691
4.97885	666489
4.98697	533491
4.99510	448536
5.00322	398397
5.01135	358607
5.01947	322857
5.02758	312942
5.03572	289282
5.04383	268083
5.05197	258470
5.06008	252121
5.06820	244107
5.07633	227657
5.08445	226333
5.09257	216425
5.10070	214998
5.10882	218968
5.11695	216207
5.12507	209375
5.13318	202940
5.14132	190934
5.14943	194074
5.15757	188248
5.16568	180833
5.17380	199292
5.18193	192584
5.19005	192259
5.19817	189981
5.20630	181541
5.21442	171051
5.22255	170545
5.23067	173669
5.23878	173584
5.24692	183242
5.25503	172119
5.26317	159012
5.27128	156661
5.27940	150985
5.28753	150810
5.29565	143925
5.30378	146830
5.31190	146635
5.32002	141744
5.32815	134584
5.33627	143248
5.34438	141531
5.35252	134602
5.36063	135287
5.36877	138575
5.37688	134691
5.38500	133766
5.39313	134511
5.40125	133983
5.40938	132324
5.41750	128321
5.42562	124379
5.43375	129837
5.44187	124552
5.45000	124612
5.45812	124155
5.46623	123214
5.47437	123692
5.48248	122587
5.49060	121972
5.49873	128109
5.50685	124675
5.51498	114744
5.52310	117583
5.53122	117756
5.53935	112219
5.54747	117654
5.55560	114235
5.56372	116916
5.57183	120799
5.57997	122410
5.58808	120532
5.59620	122809
5.60433	120628
5.61245	118053
5.62058	122884
5.62870	120877
5.63682	120065
5.64495	119301
5.65307	124353
5.66120	116964
5.66932	118201
5.67743	118163
5.68557	119913
5.69368	120826
5.70182	124629
5.70993	125675
5.71805	120976
5.72618	117553
5.73430	118805
5.74242	122099
5.75055	119414
5.75867	118914
5.76680	124188
5.77492	120700
5.78303	117737
5.79117	124299
5.79928	118535
5.80742	137000
5.81553	163968
5.82365	202570
5.83178	231298
5.83990	239691
5.84803	206908
5.85615	184091
5.86427	153699
5.87240	134303
5.88052	124066
5.88863	124111
5.89677	125812
5.90488	119831
5.91302	125437
5.92113	128415
5.92925	134693
5.93738	144283
5.94550	130732
5.95363	119352
5.96175	106098
5.96987	104127
5.97800	101762
5.98612	101155
5.99423	99974
6.00237	97806
6.01048	92168
6.01862	87780
6.02673	90754
6.03485	85170
6.04298	81724
6.05110	83124
6.05923	80310
6.06735	82235
6.07547	82320
6.08360	75282
6.09172	76771
6.09985	84781
6.10797	77864
6.11608	79683
6.12422	82601
6.13233	79685
6.14045	77479
6.14858	80796
6.15670	87290
6.16483	83097
6.17295	88520
6.18107	91971
6.18920	92970
6.19732	104877
6.20545	100795
6.21357	101320
6.22168	107375
6.22982	99218
6.23793	110256
6.24605	108881
6.25418	105481
6.26230	109390
6.27043	112494
6.27855	112808
6.28667	118523
6.29480	125258
6.30292	121206
6.31105	121150
6.31917	121029
6.32728	129635
6.33542	132371
6.34353	140560
6.35167	136574
6.35978	139439
6.36790	140116
6.37603	142521
6.38415	145363
6.39227	144254
6.40040	148789
6.40852	150775
6.41665	151164
6.42477	155081
6.43288	150249
6.44102	155624
6.44913	153913
6.45727	158370
6.46538	159740
6.47350	167336
6.48163	167710
6.48975	168232
6.49788	177045
6.50600	168463
6.51412	175765
6.52225	154690
6.53037	118779
6.53848	99864
6.54662	95960
6.55473	96599
6.56287	91170
6.57098	83265
6.57910	81345
6.58723	86721
6.59535	81442
6.60348	79616
6.61160	75147
6.61972	79252
6.62785	77581
6.63597	76270
6.64408	75561
6.65222	73241
6.66033	70998
6.66847	70403
6.67658	68554
6.68470	69659
6.69283	73783
6.70095	70067
6.70908	73834
6.71720	71468
6.72532	75301
6.73345	75528
6.74157	82809
6.74970	83978
6.75782	78531
6.76593	77471
6.77407	70067
6.78218	70021
6.79030	62735
6.79843	63572
6.80655	64258
6.81468	62504
6.82280	63002
6.83092	64009
6.83905	65331
6.84717	65855
6.85530	67105
6.86342	77905
6.87153	98074
6.87967	125393
6.88778	145759
6.89592	146559
6.90403	126961
6.91215	106484
6.92028	81334
6.92840	68079
6.93652	60088
6.94465	53446
6.95277	57290
6.96090	53154
6.96902	52243
6.97713	51227
6.98527	50447
6.99338	50124
7.00152	46938
7.00963	48334
7.01775	51817
7.02588	65901
7.03400	78121
7.04212	82010
7.05025	90697
7.05837	79318
7.06650	75777
7.07462	64431
7.08273	61474
7.09087	58276
7.09898	56025
7.10712	53397
7.11523	48213
7.12335	53936
7.13148	50633
7.13960	47737
7.14773	46368
7.15585	49489
7.16397	51974
7.17210	50807
7.18022	46856
7.18833	47028
7.19647	45023
7.20458	49405
7.21272	45450
7.22083	46238
7.22895	47746
7.23708	45973
7.24520	44943
7.25333	47825
7.26145	48042
7.26957	50822
7.27770	52441
7.28582	58992
7.29393	55793
7.30207	55350
7.31018	51425
7.31832	50233
7.32643	52626
7.33455	47500
7.34268	49670
7.35080	54008
7.35893	48245
7.36705	49012
7.37517	47622
7.38330	51429
7.39142	51344
7.39955	58827
7.40767	61788
7.41578	60417
7.42392	62791
7.43203	61785
7.44015	50340
7.44828	53286
7.45640	52027
7.46453	48525
7.47265	44627
7.48077	43564
7.48890	45161
7.49702	45267
7.50515	56882
7.51327	56651
7.52138	56906
7.52952	57429
7.53763	52969
7.54577	49531
7.55388	47914
7.56200	44843
7.57013	46494
7.57825	46654
7.58637	46971
7.59450	45081
7.60262	43851
7.61075	42872
7.61887	43243
7.62698	44119
7.63512	40938
7.64323	45595
7.65137	41565
7.65948	44116
7.66760	41152
7.67573	43461
7.68385	42136
7.69197	41709
7.70010	44743
7.70822	40980
7.71635	40685
7.72447	40545
7.73258	38878
7.74072	39385
7.74883	40283
7.75697	40784
7.76508	41153
7.77320	43819
7.78133	38202
7.78945	41945
7.79758	38492
7.80570	40357
7.81382	37813
7.82195	38603
7.83007	37521
7.83818	40625
7.84632	37317
7.85443	40187
7.86257	37616
7.87068	42418
7.87880	38827
7.88693	38194
7.89505	36468
7.90318	41046
7.91130	38398
7.91942	41455
7.92755	39563
7.93567	38643
7.94380	37106
7.95192	41202
7.96003	36894
7.96817	41340
7.97628	42069
7.98440	41436
7.99253	41310
8.00065	40502
8.00878	38691
8.01690	37773
8.02502	38119
8.03315	36437
8.04127	43379
8.04940	36709
8.05752	32975
8.06563	42771
8.07377	41568
8.08188	39033
8.09000	37673
8.09813	36569
8.10625	37158
8.11438	35282
8.12250	36886
8.13062	35951
8.13875	36288
8.14687	38317
8.15500	36526
8.16312	35953
8.17123	42556
8.17937	42199
8.18748	41889
8.19562	44427
8.20373	36053
8.21185	35630
8.21998	34016
8.22810	36723
8.23622	35602
8.24435	37730
8.25247	36278
8.26060	38356
8.26872	35793
8.27683	34008
8.28497	36009
8.29308	37623
8.30122	38060
8.30933	35369
8.31745	34412
8.32558	37653
8.33370	42407
8.34183	45978
8.34995	44691
8.35807	46941
8.36620	45381
8.37432	39914
8.38243	40336
8.39057	39013
8.39868	39079
8.40682	37529
8.41493	36973
8.42305	37519
8.43118	33122
8.43930	34201
8.44743	36387
8.45555	38990
8.46367	37112
8.47180	39868
8.47992	36410
8.48803	37901
8.49617	38721
8.50428	39134
8.51242	38647
8.52053	42389
8.52865	42149
8.53678	40861
8.54490	37325
8.55303	37474
8.56115	38031
8.56927	35987
8.57740	39959
8.58552	40347
8.59365	37348
8.60177	36385
8.60988	37070
8.61802	34426
8.62613	37172
8.63425	34322
8.64238	37046
8.65050	41192
8.65863	37541
8.66675	35944
8.67487	38480
8.68300	35846
8.69112	34476
8.69925	35224
8.70737	36447
8.71548	39780
8.72362	53062
8.73173	81904
8.73985	134558
8.74798	211880
8.75610	273988
8.76423	275318
8.77235	235375
8.78047	183975
8.78860	141352
8.79672	117797
8.80485	109669
8.81297	94785
8.82108	85696
8.82922	77350
8.83733	72001
8.84547	67159
8.85358	66332
8.86170	60736
8.86983	61386
8.87795	59606
8.88607	55368
8.89420	55216
8.90232	51365
8.91045	52836
8.91857	61248
8.92668	51007
8.93482	50709
8.94293	51383
8.95107	52657
8.95918	50016
8.96730	51085
8.97543	48578
8.98355	49514
8.99168	50213
8.99980	47277
9.00792	50193
9.01605	47574
9.02417	53002
9.03228	48302
9.04042	49004
9.04853	47958
9.05667	46810
9.06478	44712
9.07290	45652
9.08103	45618
9.08915	45331
9.09728	48080
9.10540	45563
9.11352	48064
9.12165	42307
9.12977	46362
9.13788	43874
9.14602	45024
9.15413	46855
9.16227	44004
9.17038	39328
9.17850	46020
9.18663	42738
9.19475	43321
9.20288	45801
9.21100	40699
9.21912	42336
9.22725	39655
9.23537	44985
9.24350	41043
9.25162	45186
9.25973	42984
9.26787	38853
9.27598	45543
9.28410	40926
9.29223	39660
9.30035	44652
9.30848	42089
9.31660	38974
9.32472	40204
9.33285	40039
9.34097	40327
9.34910	40415
9.35722	38624
9.36533	35308
9.37347	35178
9.38158	37307
9.38972	38530
9.39783	39834
9.40595	37710
9.41408	37691
9.42220	36325
9.43032	36347
9.43845	34636
9.44657	36977
9.45470	35796
9.46282	36941
9.47093	36357
9.47907	34172
9.48718	35049
9.49532	33200
9.50343	37380
9.51155	37162
9.51968	36232
9.52780	29790
9.53592	31467
9.54405	31873
9.55217	34229
9.56030	31876
9.56842	33720
9.57653	32349
9.58467	31524
9.59278	30598
9.60092	30916
9.60903	31778
9.61715	32189
9.62528	31078
9.63340	29283
9.64153	28925
9.64965	31248
9.65777	30709
9.66590	29210
9.67402	28611
9.68213	28242
9.69027	27889
9.69838	29458
9.70652	30013
9.71463	25683
9.72275	27688
9.73088	26966
9.73900	27713
9.74713	31811
9.75525	27037
9.76337	27831
9.77150	27464
9.77962	26281
9.78773	29766
9.79587	25768
9.80398	25460
9.81212	26466
9.82023	28733
9.82835	26886
9.83648	25544
9.84460	25911
9.85273	27214
9.86085	27130
9.86897	25260
9.87710	24884
9.88522	28050
9.89335	30005
9.90147	25965
9.90958	23259
9.91772	27797
9.92583	25189
9.93395	26058
9.94208	26010
9.95020	24760
9.95833	30753
9.96645	29847
9.97457	33948
9.98270	35647
9.99082	37377
9.99895	34963
10.00707	33165
10.01518	33137
10.02332	33154
10.03143	27848
10.03957	28899
10.04768	26485
10.05580	27182
10.06393	29659
10.07205	29606
10.08017	28704
10.08830	25488
10.09642	24118
10.10455	25818
10.11267	24867
10.12078	24948
10.12892	26347
10.13703	27022
10.14517	26323
10.15328	26551
10.16140	26920
10.16953	24976
10.17765	24915
10.18577	22945
10.19390	23621
10.20202	24735
10.21015	26122
10.21827	26857
10.22638	27278
10.23452	28642
10.24263	26685
10.25077	25706
10.25888	24553
10.26700	28087
10.27513	25360
10.28325	27056
10.29138	27706
10.29950	25067
10.30762	32052
10.31575	27287
10.32387	26464
10.33198	23934
10.34012	25848
10.34823	26234
10.35637	23580
10.36448	25234
10.37260	25239
10.38073	25493
10.38885	28266
10.39698	25053
10.40510	24334
10.41322	28304
10.42135	27494
10.42947	27244
10.43760	22606
10.44572	24992
10.45383	26470
10.46197	27075
10.47008	24488
10.47820	24026
10.48633	26612
10.49445	24909
10.50258	23594
10.51070	25412
10.51882	25825
10.52695	25294
10.53507	25486
10.54320	30376
10.55132	27675
10.55943	26967
10.56757	23197
10.57568	25790
10.58380	25692
10.59193	25388
10.60005	24903
10.60818	24322
10.61630	25030
10.62442	24529
10.63255	25840
10.64067	24210
10.64880	25917
10.65692	22734
10.66503	23734
10.67317	24395
10.68128	23406
10.68942	25603
10.69753	24925
10.70565	25781
10.71378	24590
10.72190	26544
10.73002	23625
10.73815	26097
10.74627	25377
10.75440	26779
10.76252	27190
10.77063	27532
10.77877	24470
10.78688	27067
10.79502	24324
10.80313	25283
10.81125	27118
10.81938	27122
10.82750	23372
10.83562	26559
10.84375	22887
10.85187	24915
10.86000	24560
10.86812	24772
10.87623	27364
10.88437	19436
10.89248	22469
10.90062	24036
10.90873	23867
10.91685	23551
10.92498	24528
10.93310	24310
10.94123	25411
10.94935	23176
10.95747	27659
10.96560	27636
10.97372	24565
10.98183	22001
10.98997	25150
10.99808	25321
11.00622	25812
11.01433	24307
11.02245	25138
11.03058	23242
11.03870	24507
11.04683	24307
11.05495	22727
11.06307	22674
11.07120	23470
11.07932	19949
11.08745	22035
11.09557	26383
11.10368	25881
11.11182	22209
11.11993	21501
11.12805	24629
11.13618	23542
11.14430	24282
11.15243	25771
11.16055	25850
11.16867	25233
11.17680	24016
11.18492	25339
11.19305	24105
11.20117	27563
11.20928	24184
11.21742	25557
11.22553	25696
11.23367	24690
11.24178	24825
11.24990	22987
11.25803	23656
11.26615	28148
11.27427	30343
11.28240	28997
11.29052	30554
11.29865	36988
11.30677	36710
11.31488	40406
11.32302	40985
11.33113	39407
11.33927	36681
11.34738	38847
11.35550	37526
11.36363	31547
11.37175	31756
11.37987	26729
11.38800	25382
11.39612	29068
11.40425	25651
11.41237	24793
11.42048	27034
11.42862	23793
11.43673	23824
11.44487	24674
11.45298	25204
11.46110	22628
11.46923	24171
11.47735	21699
11.48548	21110
11.49360	23218
11.50172	24698
11.50985	21981
11.51797	24046
11.52608	24120
11.53422	24224
11.54233	27724
11.55047	29449
11.55858	24533
11.56670	25941
11.57483	25282
11.58295	25024
11.59108	25270
11.59920	23043
11.60732	25530
11.61545	25210
11.62357	26550
11.63168	25096
11.63982	25007
11.64793	24368
11.65607	20869
11.66418	23533
11.67230	23819
11.68043	23436
11.68855	29426
11.69668	25020
11.70480	30266
11.71292	32240
11.72105	28244
11.72917	29450
11.73730	28852
11.74542	30294
11.75353	29221
11.76167	29600
11.76978	26502
11.77790	30063
11.78603	28720
11.79415	26018
11.80228	24274
11.81040	25881
11.81852	25296
11.82665	24687
11.83477	23068
11.84290	26812
11.85102	23333
11.85913	27481
11.86727	28110
11.87538	26951
11.88352	24434
11.89163	22673
11.89975	24521
11.90788	21873
11.91600	20735
11.92412	23614
11.93225	26661
11.94037	26198
11.94850	28373
11.95662	27231
11.96473	28754
11.97287	28365
11.98098	23257
11.98912	27655
11.99723	25807
12.00535	30080
12.01348	23802
12.02160	29987
12.02972	27988
12.03785	23577
12.04597	23076
12.05410	24672
12.06222	25253
12.07033	28464
12.07847	28416
12.08658	27451
12.09472	28716
12.10283	23507
12.11095	24038
12.11908	21938
12.12720	22715
12.13533	22897
12.14345	22020
12.15157	22700
12.15970	22201
12.16782	25319
12.17593	24541
12.18407	24026
12.19218	22817
12.20032	25117
12.20843	19765
12.21655	22812
12.22468	18679
12.23280	22781
12.24093	23968
12.24905	22374
12.25717	20783
12.26530	19648
12.27342	21903
12.28155	21346
12.28967	22269
12.29778	22248
12.30592	19423
12.31403	21785
12.32215	22779
12.33028	18861
12.33840	21056
12.34653	26973
12.35465	23716
12.36277	19439
12.37090	24687
12.37902	26687
12.38715	40460
12.39527	59452
12.40338	92910
12.41152	117165
12.41963	128267
12.42775	118897
12.43588	90796
12.44400	67186
12.45213	50628
12.46025	45169
12.46837	39604
12.47650	36375
12.48462	34527
12.49275	32080
12.50087	27037
12.50898	28745
12.51712	28306
12.52523	29692
12.53337	24979
12.54148	27971
12.54960	22789
12.55773	27722
12.56585	26918
12.57397	23440
12.58210	26297
12.59022	24144
12.59835	24208
12.60647	21105
12.61458	24063
12.62272	25448
12.63083	22006
12.63897	23845
12.64708	24146
12.65520	22787
12.66333	21529
12.67145	25215
12.67957	21237
12.68770	23628
12.69582	24376
12.70395	23057
12.71207	22060
12.72018	23388
12.72832	23105
12.73643	25841
12.74457	25683
12.75268	25329
12.76080	25601
12.76893	24652
12.77705	24008
12.78518	23212
12.79330	25516
12.80142	23559
12.80955	25186
12.81767	23855
12.82578	21963
12.83392	24357
12.84203	23457
12.85017	25166
12.85828	22844
12.86640	21280
12.87453	21233
12.88265	21341
12.89078	22444
12.89890	18574
12.90702	24476
12.91515	23439
12.92327	19179
12.93140	22259
12.93952	23476
12.94763	23684
12.95577	28670
12.96388	27944
12.97200	32392
12.98013	38081
12.98825	38516
12.99638	38390
13.00450	38989
13.01262	36079
13.02075	34373
13.02887	35622
13.03700	30340
13.04512	29122
13.05323	23288
13.06137	26352
13.06948	27078
13.07760	25744
13.08573	25252
13.09385	24226
13.10198	23423
13.11010	24078
13.11822	23992
13.12635	22349
13.13447	21407
13.14260	25226
13.15072	22462
13.15883	23007
13.16697	22851
13.17508	21357
13.18322	22099
13.19133	24429
13.19945	22682
13.20758	23097
13.21570	24471
13.22382	23455
13.23195	21990
13.24007	21704
13.24820	23696
13.25632	23761
13.26443	24571
13.27257	27625
13.28068	23828
13.28882	27132
13.29693	31740
13.30505	25385
13.31318	23883
13.32130	25951
13.32943	26102
13.33755	24395
13.34567	25091
13.35380	29041
13.36192	28946
13.37003	25436
13.37817	24251
13.38628	24004
13.39442	23754
13.40253	24243
13.41065	23922
13.41878	25013
13.42690	21919
13.43503	23330
13.44315	23512
13.45127	20453
13.45940	22508
13.46752	24250
13.47563	22892
13.48377	23605
13.49188	22333
13.50002	22189
13.50813	22021
13.51625	19764
13.52438	22045
13.53250	24794
13.54063	22928
13.54875	21742
13.55687	24242
13.56500	24429
13.57312	23111
13.58125	24458
13.58937	24973
13.59748	24672
13.60562	25149
13.61373	25608
13.62185	28861
13.62998	27267
13.63810	31628
13.64623	26440
13.65435	29582
13.66247	28896
13.67060	26649
13.67872	33296
13.68685	25669
13.69497	23083
13.70308	22982
13.71122	22799
13.71933	23935
13.72747	22504
13.73558	22569
13.74370	20421
13.75183	22792
13.75995	25295
13.76807	25984
13.77620	23626
13.78432	23191
13.79245	22413
13.80057	23189
13.80868	22242
13.81682	23406
13.82493	22594
13.83307	23534
13.84118	22835
13.84930	20926
13.85743	23298
13.86555	24073
13.87367	26063
13.88180	23739
13.88992	22408
13.89805	22508
13.90617	23980
13.91428	30242
13.92242	26935
13.93053	24411
13.93867	26279
13.94678	25107
13.95490	26579
13.96303	24036
13.97115	24391
13.97928	23691
13.98740	25032
13.99552	24066
14.00365	24354
14.01177	25649
14.01988	24393
14.02802	26175
14.03613	24370
14.04427	22911
14.05238	21688
14.06050	26781
14.06863	23212
14.07675	22955
14.08488	25452
14.09300	21641
14.10112	24084
14.10925	23875
14.11737	27339
14.12548	38328
14.13362	53851
14.14173	72693
14.14987	103921
14.15798	106580
14.16610	106249
14.17423	86979
14.18235	74908
14.19048	58670
14.19860	46774
14.20672	48027
14.21485	41233
14.22297	39606
14.23110	36708
14.23922	35431
14.24733	40554
14.25547	37703
14.26358	34759
14.27170	34901
14.27983	34110
14.28795	31697
14.29608	26826
14.30420	28595
14.31232	28316
14.32045	24218
14.32857	22782
14.33670	24243
14.34482	22769
14.35293	21840
14.36107	21038
14.36918	25735
14.37732	20929
14.38543	22455
14.39355	22107
14.40168	23605
14.40980	19295
14.41792	22882
14.42605	23847
14.43417	22695
14.44230	21722
14.45042	20736
14.45853	21647
14.46667	23122
14.47478	20617
14.48292	22982
14.49103	21306
14.49915	23685
14.50728	20147
14.51540	22523
14.52352	23195
14.53165	23239
14.53977	24480
14.54790	22116
14.55602	22427
14.56413	22629
14.57227	21966
14.58038	20287
14.58852	20143
14.59663	18125
14.60475	19656
14.61288	21815
14.62100	26328
14.62913	20579
14.63725	20159
14.64537	22598
14.65350	21779
14.66162	21074
14.66973	20053
14.67787	20327
14.68598	18206
14.69412	20973
14.70223	19805
14.71035	21460
14.71848	19197
14.72660	23002
14.73473	19811
14.74285	22017
14.75097	23478
14.75910	22601
14.76722	21642
14.77535	19714
14.78347	20376
14.79158	23129
14.79972	18318
14.80783	21680
14.81595	22796
14.82408	21472
14.83220	21854
14.84033	21745
14.84845	19249
14.85657	22330
14.86470	25723
14.87282	23879
14.88095	23805
14.88907	23330
14.89718	24115
14.90532	23071
14.91343	20361
14.92155	22202
14.92968	21648
14.93780	21338
14.94593	19750
14.95405	21245
14.96217	20064
14.97030	22149
14.97842	21607
14.98655	23523
14.99467	21702
15.00278	18704
15.01092	20268
15.01903	23442
15.02717	20607
15.03528	20883
15.04340	22527
15.05153	24815
15.05965	19598
15.06777	19141
15.07590	18265
15.08402	18496
15.09215	21655
15.10027	19850
15.10838	20711
15.11652	22809
15.12463	20578
15.13277	22748
15.14088	18625
15.14900	20442
15.15713	18789
15.16525	19583
15.17337	19579
15.18150	18789
15.18962	21623
15.19775	19823
15.20587	20521
15.21398	19538
15.22212	19194
15.23023	22492
15.23837	21796
15.24648	20871
15.25460	21603
15.26273	21457
15.27085	19618
15.27898	20707
15.28710	21702
15.29522	18678
15.30335	19666
15.31147	20332
15.31958	21519
15.32772	18590
15.33583	20819
15.34397	19353
15.35208	22933
15.36020	19925
15.36833	20693
15.37645	20495
15.38458	21372
15.39270	19420
15.40082	20245
15.40895	19123
15.41707	21191
15.42520	21745
15.43332	21246
15.44143	18416
15.44957	19922
15.45768	20910
15.46580	19646
15.47393	19190
15.48205	19645
15.49018	21552
15.49830	21911
15.50642	22429
15.51455	19208
15.52267	22056
15.53080	21806
15.53892	19720
15.54703	22503
15.55517	20805
15.56328	18532
15.57142	22272
15.57953	19291
15.58765	21528
15.59578	19358
15.60390	17559
15.61202	20718
15.62015	21073
15.62827	19688
15.63640	21257
15.64452	19844
15.65263	20504
15.66077	20119
15.66888	18513
15.67702	22187
15.68513	18509
15.69325	19912
15.70138	20015
15.70950	21187
15.71762	19593
15.72575	18624
15.73387	19108
15.74200	19669
15.75012	18857
15.75823	18947
15.76637	21441
15.77448	20591
15.78262	22828
15.79073	23237
15.79885	21720
15.80698	21911
15.81510	20086
15.82323	23093
15.83135	21585
15.83947	20983
15.84760	20202
15.85572	18852
15.86383	18612
15.87197	20244
15.88008	20643
15.88822	18667
15.89633	20908
15.90445	20911
15.91258	23093
15.92070	17336
15.92883	18989
15.93695	20693
15.94507	21837
15.95320	21166
15.96132	23137
15.96943	20604
15.97757	21767
15.98568	24626
15.99382	25574
16.00193	27670
16.01005	29857
16.01818	29721
16.02630	28763
16.03443	28909
16.04255	24870
16.05067	27723
16.05880	26009
16.06692	25679
16.07505	19810
16.08317	23104
16.09128	23654
16.09942	20562
16.10753	21784
16.11565	21052
16.12378	20115
16.13190	20720
16.14003	20162
16.14815	20233
16.15627	18928
16.16440	20638
16.17252	21523
16.18065	20281
16.18877	20352
16.19688	23339
16.20502	20216
16.21313	18098
16.22127	22033
16.22938	19140
16.23750	21013
16.24563	20076
16.25375	20263
16.26187	18245
16.27000	21299
16.27812	21007
16.28625	22851
16.29437	20731
16.30248	21095
16.31062	19448
16.31873	21583
16.32687	22425
16.33498	22622
16.34310	22856
16.35123	21947
16.35935	24131
16.36747	19894
16.37560	22409
16.38372	21464
16.39185	22755
16.39997	23878
16.40808	20376
16.41622	19674
16.42433	21197
16.43247	19971
16.44058	21729
16.44870	22117
16.45683	19758
16.46495	20543
16.47308	20343
16.48120	19668
16.48932	22159
16.49745	20324
16.50557	20651
16.51368	23828
16.52182	20456
16.52993	19775
16.53807	21450
16.54618	21570
16.55430	20164
16.56243	19208
16.57055	17578
16.57868	20778
16.58680	20369
16.59492	23793
16.60305	21294
16.61117	20143
16.61930	20000
16.62742	18312
16.63553	20369
16.64367	19879
16.65178	20689
16.65990	22166
16.66803	20454
16.67615	19502
16.68428	18056
16.69240	18566
16.70052	21266
16.70865	22367
16.71677	20079
16.72490	19761
16.73302	20277
16.74113	20754
16.74927	22553
16.75738	20049
16.76550	20511
16.77363	21245
16.78175	19533
16.78988	22061
16.79800	21304
16.80612	19135
16.81425	19753
16.82237	21020
16.83050	21278
16.83862	20496
16.84673	19729
16.85487	22955
16.86298	21829
16.87112	21218
16.87923	21928
16.88735	24459
16.89548	22632
16.90360	19033
16.91172	23773
16.91985	18891
16.92797	20987
16.93610	20125
16.94422	22354
16.95233	23773
16.96047	23715
16.96858	23684
16.97672	19870
16.98483	19454
16.99295	21969
17.00108	22238
17.00920	20843
17.01732	19325
17.02545	21958
17.03357	21791
17.04170	19275
17.04982	18661
17.05793	20065
17.06607	20643
17.07418	20166
17.08232	20837
17.09043	20078
17.09855	22879
17.10668	21427
17.11480	21717
17.12293	21669
17.13105	19510
17.13917	20629
17.14730	20854
17.15542	22545
17.16353	20783
17.17167	20452
17.17978	21204
17.18792	24402
17.19603	19325
17.20415	19746
17.21228	18268
17.22040	18776
17.22853	20640
17.23665	19509
17.24477	19439
17.25290	22808
17.26102	19017
17.26915	18786
17.27727	20900
17.28538	20405
17.29352	18844
17.30163	20908
17.30975	20389
17.31788	21415
17.32600	23499
17.33413	22291
17.34225	23073
17.35037	22673
17.35850	24459
17.36662	22724
17.37475	23898
17.38287	22907
17.39098	22276
17.39912	23466
17.40723	23307
17.41535	22249
17.42348	21295
17.43160	25580
17.43973	22512
17.44785	23368
17.45597	21319
17.46410	24182
17.47222	23207
17.48035	21472
17.48847	22102
17.49658	21521
17.50472	21246
17.51283	22699
17.52097	23096
17.52908	23606
17.53720	28175
17.54533	29177
17.55345	29861
17.56157	29198
17.56970	27969
17.57782	32118
17.58595	25360
17.59407	25817
17.60218	24785
17.61032	23084
17.61843	23852
17.62657	25023
17.63468	21433
17.64280	26701
17.65093	22880
17.65905	24558
17.66718	25409
17.67530	20691
17.68342	24236
17.69155	22599
17.69967	23154
17.70778	25160
17.71592	23971
17.72403	21105
17.73217	23233
17.74028	21089
17.74840	22717
17.75653	20479
17.76465	21872
17.77278	19273
17.78090	23092
17.78902	21814
17.79715	19898
17.80527	24690
17.81338	23558
17.82152	25269
17.82963	21674
17.83777	20736
17.84588	26848
17.85400	25922
17.86213	23739
17.87025	23169
17.87838	23098
17.88650	20834
17.89462	20669
17.90275	21340
17.91087	20693
17.91900	23431
17.92712	23431
17.93523	19025
17.94337	18383
17.95148	22412
17.95960	20339
17.96773	22973
17.97585	20550
17.98398	20747
17.99210	23416
18.00022	21430
18.00835	22152
18.01647	23208
18.02460	24605
18.03272	25013
18.04083	23949
18.04897	22106
18.05708	23050
18.06520	23256
18.07333	22688
18.08145	24035
18.08958	21789
18.09770	22745
18.10582	26494
18.11395	24825
18.12207	25042
18.13020	26174
18.13832	23111
18.14643	24246
18.15457	24309
18.16268	21937
18.17082	22207
18.17893	21795
18.18705	22069
18.19518	23223
18.20330	27049
18.21142	23556
18.21955	23053
18.22767	22179
18.23580	22293
18.24392	24529
18.25203	26282
18.26017	29650
18.26828	23568
18.27642	26732
18.28453	24319
18.29265	21938
18.30078	21934
18.30890	20763
18.31703	19878
18.32515	21120
18.33327	22725
18.34140	24040
18.34952	23478
18.35763	21101
18.36577	22335
18.37388	22841
18.38202	20982
18.39013	26891
18.39825	25522
18.40638	24978
18.41450	22231
18.42263	21114
18.43075	23001
18.43887	21410
18.44700	19183
18.45512	22744
18.46323	21456
18.47137	25349
18.47948	21902
18.48762	21424
18.49573	22698
18.50385	22656
18.51198	19586
18.52010	18983
18.52823	22654
18.53635	21102
18.54447	21812
18.55260	22342
18.56072	20227
18.56885	20616
18.57697	21129
18.58508	22035
18.59322	20715
18.60133	21825
18.60945	21960
18.61758	21311
18.62570	23907
18.63383	24354
18.64195	20371
18.65007	21413
18.65820	18269
18.66632	23195
18.67445	22887
18.68257	20797
18.69068	22647
18.69882	17473
18.70693	22819
18.71507	21574
18.72318	21360
18.73130	24363
18.73943	20410
18.74755	24938
18.75567	23781
18.76380	24128
18.77192	23330
18.78005	25735
18.78817	22963
18.79628	25234
18.80442	24941
18.81253	29337
18.82067	25266
18.82878	26131
18.83690	28390
18.84503	27091
18.85315	27941
18.86127	26160
18.86940	26036
18.87752	28021
18.88565	28711
18.89377	32492
18.90188	26875
18.91002	25123
18.91813	30038
18.92627	25527
18.93438	26075
18.94250	29128
18.95063	28079
18.95875	25102
18.96688	25070
18.97500	23363
18.98312	25004
18.99125	25711
18.99937	28806
19.00748	25731
19.01562	28323
19.02373	26738
19.03187	25462
19.03998	22432
19.04810	24871
19.05623	24448
19.06435	27322
19.07248	25959
19.08060	26317
19.08872	26489
19.09685	30720
19.10497	29014
19.11310	30014
19.12122	30772
19.12933	33144
19.13747	30595
19.14558	28321
19.15370	33181
19.16183	35494
19.16995	31029
19.17808	31437
19.18620	30751
19.19432	29074
19.20245	28961
19.21057	26604
19.21870	26310
19.22682	24537
19.23493	25524
19.24307	24819
19.25118	30881
19.25930	29145
19.26743	25091
19.27555	27117
19.28368	25823
19.29180	26086
19.29992	32053
19.30805	29111
19.31617	26001
19.32430	25529
19.33242	25258
19.34053	25575
19.34867	26288
19.35678	27298
19.36492	25644
19.37303	23912
19.38115	25194
19.38928	22788
19.39740	25674
19.40552	29526
19.41365	25960
19.42177	34347
19.42990	46811
19.43802	61937
19.44613	73716
19.45427	81124
19.46238	68922
19.47052	61075
19.47863	48341
19.48675	37646
19.49488	33529
19.50300	26340
19.51112	24876
19.51925	26023
19.52737	28573
19.53550	25247
19.54362	24792
19.55173	26171
19.55987	23953
19.56798	26522
19.57612	24477
19.58423	26879
19.59235	24328
19.60048	22923
19.60860	26035
19.61673	24757
19.62485	32796
19.63297	29194
19.64110	40335
19.64922	42560
19.65733	48807
19.66547	51510
19.67358	45597
19.68172	42745
19.68983	36849
19.69795	32543
19.70608	30860
19.71420	29464
19.72233	27393
19.73045	26750
19.73857	24386
19.74670	26940
19.75482	25467
19.76295	26197
19.77107	26003
19.77918	28599
19.78732	23675
19.79543	23056
19.80355	23811
19.81168	25763
19.81980	25225
19.82793	22072
19.83605	25168
19.84417	24940
19.85230	26118
19.86042	27549
19.86855	25734
19.87667	27482
19.88478	31329
19.89292	29432
19.90103	39903
19.90915	41625
19.91728	40096
19.92540	39286
19.93353	45021
19.94165	41865
19.94977	43782
19.95790	38381
19.96602	38315
19.97415	38306
19.98227	37481
19.99038	37606
19.99852	38540
20.00663	32088
20.01477	39189
20.02288	36456
20.03100	34105
20.03913	34501
20.04725	28928
20.05537	29893
20.06350	27585
20.07162	29575
20.07975	30474
20.08787	27259
20.09598	24091
20.10412	26413
20.11223	24764
20.12037	26815
20.12848	26063
20.13660	25780
20.14473	25584
20.15285	26526
20.16098	25863
20.16910	25590
20.17722	27961
20.18535	25301
20.19347	26538
20.20158	23904
20.20972	24192
20.21783	31469
20.22597	28057
20.23408	31607
20.24220	31381
20.25033	42770
20.25845	40715
20.26658	41838
20.27470	42228
20.28282	36351
20.29095	35399
20.29907	32548
20.30718	31508
20.31532	28896
20.32343	31469
20.33157	30057
20.33968	26908
20.34780	25494
20.35593	28053
20.36405	23685
20.37218	24282
20.38030	25542
20.38842	24532
20.39655	26316
20.40467	27595
20.41280	27457
20.42092	29687
20.42903	29347
20.43717	29371
20.44528	31653
20.45340	25648
20.46153	24375
20.46965	26185
20.47778	25373
20.48590	24792
20.49402	22607
20.50215	24140
20.51027	24899
20.51840	25076
20.52652	22892
20.53463	22993
20.54277	21397
20.55088	22495
20.55900	21342
20.56713	23071
20.57525	25259
20.58338	20956
20.59150	21685
20.59962	23233
20.60775	22659
20.61587	25449
20.62400	23824
20.63212	20661
20.64023	24763
20.64837	20933
20.65648	22109
20.66462	23370
20.67273	20871
20.68085	25083
20.68898	24152
20.69710	23016
20.70522	25195
20.71335	22467
20.72147	26892
20.72960	21488
20.73772	23917
20.74583	24787
20.75397	25753
20.76208	22635
20.77022	26547
20.77833	24909
20.78645	23068
20.79458	25090
20.80270	23088
20.81083	24735
20.81895	22955
20.82707	22609
20.83520	23871
20.84332	25043
20.85143	23204
20.85957	23276
20.86768	24792
20.87582	23665
20.88393	24900
20.89205	24023
20.90018	23763
20.90830	22267
20.91643	17528
20.92455	23447
20.93267	22759
20.94080	21459
20.94892	21648
20.95705	21064
20.96517	20979
20.97328	20124
20.98142	23461
20.98953	21838
20.99765	21672
21.00578	22984
21.01390	22139
21.02203	26408
21.03015	22045
21.03827	22694
21.04640	22006
21.05452	21728
21.06265	21022
21.07077	22152
21.07888	19562
21.08702	18374
21.09513	19850
21.10325	24888
21.11138	22863
21.11950	21612
21.12763	24934
21.13575	20764
21.14387	21798
21.15200	20729
21.16012	20905
21.16825	22583
21.17637	20267
21.18448	21394
21.19262	23958
21.20073	21880
21.20887	23803
21.21698	21507
21.22510	23397
21.23323	23577
21.24135	20927
21.24947	20685
21.25760	21115
21.26572	23271
21.27385	21397
21.28197	23547
21.29008	24732
21.29822	23299
21.30633	23442
21.31447	23175
21.32258	20581
21.33070	21000
21.33883	24885
21.34695	20929
21.35507	19052
21.36320	19600
21.37132	23859
21.37945	23948
21.38757	22749
21.39568	20165
21.40382	23040
21.41193	22798
21.42007	23706
21.42818	22416
21.43630	25495
21.44443	24497
21.45255	25030
21.46068	21200
21.46880	24584
21.47692	24424
21.48505	21775
21.49317	21407
21.50128	23342
21.50942	25152
21.51753	23441
21.52567	22103
21.53378	24166
21.54190	22267
21.55003	22833
21.55815	25072
21.56628	21333
21.57440	24736
21.58252	30991
21.59065	27428
21.59877	28183
21.60690	25957
21.61502	28584
21.62313	27702
21.63127	26245
21.63938	25386
21.64750	24845
21.65563	23958
21.66375	23360
21.67188	24433
21.68000	24426
21.68812	21670
21.69625	24927
21.70437	21840
21.71250	24161
21.72062	21852
21.72873	23428
21.73687	22531
21.74498	26019
21.75310	22951
21.76123	23622
21.76935	23197
21.77748	29370
21.78560	28943
21.79372	26539
21.80185	29474
21.80997	24911
21.81810	25061
21.82622	24258
21.83433	23928
21.84247	25912
21.85058	24945
21.85872	25543
21.86683	22534
21.87495	21874
21.88308	24790
21.89120	21181
21.89932	22148
21.90745	20879
21.91557	23802
21.92370	23334
21.93182	23174
21.93993	21352
21.94807	21666
21.95618	22425
21.96432	23083
21.97243	22609
21.98055	22416
21.98868	23212
21.99680	20929
22.00493	23900
22.01305	23021
22.02117	21011
22.02930	20462
22.03742	21643
22.04553	24197
22.05367	23395
22.06178	23695
22.06992	25290
22.07803	21948
22.08615	22871
22.09428	23959
22.10240	23511
22.11053	20395
22.11865	22502
22.12677	25740
22.13490	22029
22.14302	21701
22.15113	25854
22.15927	23579
22.16738	22635
22.17552	24533
22.18363	22516
22.19175	26367
22.19988	24945
22.20800	21889
22.21613	22813
22.22425	23248
22.23237	21243
22.24050	22457
22.24862	24817
22.25675	20338
22.26487	20505
22.27298	20416
22.28112	22411
22.28923	22709
22.29735	22322
22.30548	22280
22.31360	23330
22.32173	22644
22.32985	26618
22.33797	25678
22.34610	23228
22.35422	24836
22.36235	25294
22.37047	22456
22.37858	22056
22.38672	23318
22.39483	24175
22.40295	24841
22.41108	20573
22.41920	24252
22.42733	23695
22.43545	25256
22.44357	23398
22.45170	22396
22.45982	24643
22.46795	22619
22.47607	26343
22.48418	22748
22.49232	24396
22.50043	23445
22.50857	21245
22.51668	27550
22.52480	22720
22.53293	23013
22.54105	20090
22.54917	19986
22.55730	20442
22.56542	21895
22.57355	19329
22.58167	22098
22.58978	21025
22.59792	21597
22.60603	18175
22.61417	21523
22.62228	22334
22.63040	23117
22.63853	21228
22.64665	21522
22.65478	21870
22.66290	21680
22.67102	24630
22.67915	24423
22.68727	19525
22.69538	22590
22.70352	21412
22.71163	22679
22.71977	21491
22.72788	20948
22.73600	21696
22.74413	22567
22.75225	21380
22.76038	22963
22.76850	21903
22.77662	19791
22.78475	20353
22.79287	19996
22.80098	21802
22.80912	18626
22.81723	19568
22.82537	18828
22.83348	21703
22.84160	20172
22.84973	22301
22.85785	21789
22.86598	22552
22.87410	23291
22.88222	22622
22.89035	25782
22.89847	23869
22.90660	25046
22.91472	28307
22.92283	29210
22.93097	33507
22.93908	30101
22.94720	30421
22.95533	31015
22.96345	32794
22.97158	29598
22.97970	29358
22.98782	28110
22.99595	27889
23.00407	27258
23.01220	26708
23.02032	28285
23.02843	26082
23.03657	26496
23.04468	23729
23.05282	20534
23.06093	24085
23.06905	25022
23.07718	24981
23.08530	23280
23.09342	21130
23.10155	22416
23.10967	20898
23.11780	21852
23.12592	22741
23.13403	20895
23.14217	24365
23.15028	22024
23.15842	20738
23.16653	23719
23.17465	24740
23.18278	22815
23.19090	24265
23.19902	25505
23.20715	22951
23.21527	24504
23.22340	19263
23.23152	20171
23.23963	23418
23.24777	22602
23.25588	25597
23.26402	22225
23.27213	21311
23.28025	24439
23.28838	21738
23.29650	22298
23.30463	21997
23.31275	24561
23.32087	20171
23.32900	22313
23.33712	24658
23.34523	23824
23.35337	22904
23.36148	24207
23.36962	24128
23.37773	22783
23.38585	23106
23.39398	25603
23.40210	23112
23.41023	21847
23.41835	22172
23.42647	25511
23.43460	24034
23.44272	23814
23.45083	19604
23.45897	21342
23.46708	22749
23.47522	23834
23.48333	21098
23.49145	20087
23.49958	23163
23.50770	25423
23.51583	21784
23.52395	22217
23.53207	21598
23.54020	22761
23.54832	24443
23.55645	23774
23.56457	24216
23.57268	22731
23.58082	21386
23.58893	25481
23.59705	24017
23.60518	24161
23.61330	22722
23.62143	23096
23.62955	22867
23.63767	25120
23.64580	25662
23.65392	27304
23.66205	25447
23.67017	25310
23.67828	29227
23.68642	26885
23.69453	26631
23.70267	26998
23.71078	25599
23.71890	26835
23.72703	32667
23.73515	43042
23.74327	85268
23.75140	167258
23.75952	324289
23.76765	599083
23.77577	1004263
23.78388	1328127
23.79202	1423757
23.80013	1253117
23.80827	1052846
23.81638	839309
23.82450	637592
23.83263	494796
23.84075	371969
23.84887	287694
23.85700	253883
23.86512	209658
23.87325	180419
23.88137	160590
23.88948	146515
23.89762	128943
23.90573	122327
23.91387	110263
23.92198	100956
23.93010	91056
23.93823	93676
23.94635	85160
23.95448	78371
23.96260	75305
23.97072	75098
23.97885	69137
23.98697	68162
23.99508	63979
24.00322	59109
24.01133	61502
24.01947	57151
24.02758	59622
24.03570	53872
24.04383	56536
24.05195	53919
24.06008	52869
24.06820	53050
24.07632	53832
24.08445	51244
24.09257	49575
24.10070	48080
24.10882	46821
24.11693	46382
24.12507	45096
24.13318	47264
24.14130	47071
24.14943	43548
24.15755	43475
24.16568	48124
24.17380	43515
24.18192	45399
24.19005	44198
24.19817	42803
24.20630	45382
24.21442	41022
24.22253	41194
24.23067	41245
24.23878	39503
24.24690	37701
24.25503	36171
24.26315	38035
24.27128	37175
24.27940	39384
24.28752	37726
24.29565	40718
24.30377	42700
24.31190	48735
24.32002	60546
24.32813	67254
24.33627	72356
24.34438	72184
24.35252	58839
24.36063	53376
24.36875	39307
24.37688	41878
24.38500	36608
24.39312	31997
24.40125	32852
24.40937	32832
24.41750	31496
24.42562	34918
24.43373	34418
24.44187	38498
24.44998	37378
24.45812	39221
24.46623	30731
24.47435	36268
24.48248	32756
24.49060	34205
24.49873	32815
24.50685	28219
24.51497	32206
24.52310	31069
24.53122	28564
24.53933	30077
24.54747	30343
24.55558	28794
24.56372	29042
24.57183	31439
24.57995	27695
24.58808	32551
24.59620	26476
24.60433	30686
24.61245	30987
24.62057	30351
24.62870	28799
24.63682	27038
24.64493	31602
24.65307	30640
24.66118	29870
24.66932	29226
24.67743	29331
24.68555	26531
24.69368	26870
24.70180	29185
24.70993	26471
24.71805	29958
24.72617	25833
24.73430	26167
24.74242	28019
24.75055	29130
24.75867	28489
24.76678	25533
24.77492	29446
24.78303	29599
24.79115	27442
24.79928	29238
24.80740	26192
24.81553	25183
24.82365	26969
24.83177	25124
24.83990	26396
24.84802	25735
24.85615	26364
24.86427	25719
24.87238	26298
24.88052	26265
24.88863	29091
24.89675	28100
24.90488	27206
24.91300	24954
24.92113	25315
24.92925	26714
24.93737	25305
24.94550	22552
24.95362	24580
24.96175	28175
24.96987	21669
24.97798	25140
24.98612	25139
24.99423	25480
25.00237	25131
25.01048	24398
25.01860	23996
25.02673	23947
25.03485	24694
25.04297	26068
25.05110	25411
25.05922	26164
25.06735	30708
25.07547	26306
25.08358	25026
25.09172	25495
25.09983	30476
25.10797	23491
25.11608	25749
25.12420	27284
25.13233	28661
25.14045	28028
25.14858	30466
25.15670	28537
25.16482	29683
25.17295	28698
25.18107	28793
25.18918	27455
25.19732	25659
25.20543	27500
25.21357	26861
25.22168	25795
25.22980	24288
25.23793	27643
25.24605	22894
25.25418	23286
25.26230	24531
25.27042	23919
25.27855	27555
25.28667	26504
25.29478	30085
25.30292	31411
25.31103	29821
25.31917	29730
25.32728	31465
25.33540	26203
25.34353	28713
25.35165	26064
25.35978	26502
25.36790	24634
25.37602	28683
25.38415	24647
25.39227	25272
25.40040	25647
25.40852	24843
25.41663	24967
25.42477	23823
25.43288	22731
25.44100	23104
25.44913	27005
25.45725	22673
25.46538	25003
25.47350	23439
25.48162	25792
25.48975	26243
25.49787	27099
25.50600	25630
25.51412	24566
25.52223	24533
25.53037	23828
25.53848	26301
25.54662	22790
25.55473	23935
25.56285	25400
25.57098	24005
25.57910	21715
25.58722	19948
25.59535	23920
25.60347	24171
25.61160	21842
25.61972	21994
25.62783	21313
25.63597	23552
25.64408	24949
25.65222	25148
25.66033	24339
25.66845	22711
25.67658	23808
25.68470	19980
25.69282	24084
25.70095	24110
25.70907	26638
25.71720	22278
25.72532	23557
25.73343	23392
25.74157	22149
25.74968	23312
25.75782	23540
25.76593	22348
25.77405	22636
25.78218	23852
25.79030	22091
25.79843	22870
25.80655	24858
25.81467	22942
25.82280	22845
25.83092	22069
25.83903	21904
25.84717	20591
25.85528	24111
25.86342	20736
25.87153	22286
25.87965	21820
25.88778	23210
25.89590	22717
25.90403	22159
25.91215	23158
25.92027	22885
25.92840	21780
25.93652	22535
25.94463	21087
25.95277	21909
25.96088	19092
25.96902	23278
25.97713	23651
25.98525	23148
25.99338	21196
26.00150	20265
26.00963	21062
26.01775	21412
26.02587	20462
26.03400	21489
26.04212	24728
26.05025	20502
26.05837	21718
26.06648	20924
26.07462	22015
26.08273	22896
26.09085	25806
26.09898	23825
26.10710	23280
26.11523	23503
26.12335	23351
26.13147	22779
26.13960	28050
26.14772	24887
26.15585	26005
26.16397	24999
26.17208	24551
26.18022	25922
26.18833	26203
26.19647	24981
26.20458	22627
26.21270	24528
26.22083	20194
26.22895	19745
26.23707	20206
26.24520	22331
26.25332	24579
26.26145	19925
26.26957	23458
26.27768	20367
26.28582	21848
26.29393	23393
26.30207	21579
26.31018	22202
26.31830	23669
26.32643	23402
26.33455	22649
26.34268	21884
26.35080	27949
26.35892	23295
26.36705	22878
26.37517	23555
26.38328	21638
26.39142	21124
26.39953	22535
26.40767	19637
26.41578	20685
26.42390	20053
26.43203	21465
26.44015	20494
26.44828	21229
26.45640	23416
26.46452	20001
26.47265	21580
26.48077	19702
26.48888	22895
26.49702	25058
26.50513	23080
26.51327	22011
26.52138	23143
26.52950	21277
26.53763	21960
26.54575	21196
26.55388	21732
26.56200	22909
26.57012	19018
26.57825	19198
26.58637	21725
26.59450	23768
26.60262	20296
26.61073	22236
26.61887	21128
26.62698	22291
26.63510	21184
26.64323	23585
26.65135	22572
26.65948	20611
26.66760	24119
26.67572	22586
26.68385	23488
26.69197	21335
26.70010	20209
26.70822	22380
26.71633	21249
26.72447	22274
26.73258	22574
26.74070	21384
26.74883	23583
26.75695	21708
26.76508	23235
26.77320	20884
26.78132	28295
26.78945	25388
26.79757	22032
26.80570	24646
26.81382	21951
26.82193	24955
26.83007	24769
26.83818	23209
26.84632	21228
26.85443	21700
26.86255	21538
26.87068	22250
26.87880	20268
26.88692	19511
26.89505	20949
26.90317	20672
26.91130	21417
26.91942	20575
26.92753	22274
26.93567	24862
26.94378	28656
26.95192	41246
26.96003	60211
26.96815	87152
26.97628	131810
26.98440	171574
26.99253	218310
27.00065	240122
27.00877	227060
27.01690	203953
27.02502	188143
27.03313	155429
27.04127	123246
27.04938	96252
27.05752	77592
27.06563	74690
27.07375	63004
27.08188	56710
27.09000	47891
27.09813	48790
27.10625	42932
27.11437	43346
27.12250	39456
27.13062	37905
27.13873	39433
27.14687	32791
27.15498	34382
27.16312	35942
27.17123	35874
27.17935	37702
27.18748	35230
27.19560	34018
27.20373	28454
27.21185	33406
27.21997	31483
27.22810	34841
27.23622	27071
27.24435	26100
27.25247	29106
27.26058	26847
27.26872	27017
27.27683	26213
27.28495	25269
27.29308	29723
27.30120	27462
27.30933	30273
27.31745	28133
27.32557	25679
27.33370	27782
27.34182	28170
27.34995	27190
27.35807	27182
27.36618	26541
27.37432	32099
27.38243	27311
27.39057	25514
27.39868	25436
27.40680	27279
27.41493	28897
27.42305	25223
27.43117	27472
27.43930	25675
27.44742	27498
27.45555	26132
27.46367	25548
27.47178	26098
27.47992	26329
27.48803	25516
27.49617	27130
27.50428	25767
27.51240	24202
27.52053	22764
27.52865	24885
27.53677	23321
27.54490	23287
27.55302	24292
27.56115	23519
27.56927	20826
27.57738	23719
27.58552	21990
27.59363	24245
27.60177	22332
27.60988	22856
27.61800	25415
27.62613	24755
27.63425	23133
27.64238	28014
27.65050	23038
27.65862	22085
27.66675	22872
27.67487	21145
27.68298	23214
27.69112	22841
27.69923	22800
27.70737	23157
27.71548	23665
27.72360	23997
27.73173	22622
27.73985	23630
27.74798	22855
27.75610	25044
27.76422	23952
27.77235	23275
27.78047	23842
27.78858	24629
27.79672	23878
27.80483	22684
27.81297	23895
27.82108	21491
27.82920	25025
27.83733	21874
27.84545	20111
27.85358	22903
27.86170	24432
27.86982	24582
27.87795	27239
27.88607	26413
27.89420	25069
27.90232	23004
27.91043	23713
27.91857	23099
27.92668	19891
27.93480	21686
27.94293	25041
27.95105	20463
27.95918	23920
27.96730	21530
27.97542	23544
27.98355	22444
27.99167	25637
27.99980	26800
28.00792	21543
28.01603	24092
28.02417	25914
28.03228	25249
28.04042	24147
28.04853	21600
28.05665	23427
28.06478	22747
28.07290	22466
28.08102	22900
28.08915	25552
28.09727	24411
28.10540	26807
28.11352	27989
28.12163	26394
28.12977	27461
28.13788	26499
28.14602	24477
28.15413	24020
28.16225	21331
28.17038	25547
28.17850	23784
28.18662	24313
28.19475	21524
28.20287	23117
28.21100	20530
28.21912	24424
28.22723	22716
28.23537	26029
28.24348	24062
28.25162	28248
28.25973	35678
28.26785	44292
28.27598	52413
28.28410	68968
28.29223	74897
28.30035	84552
28.30847	89588
28.31660	102134
28.32472	99494
28.33283	99211
28.34097	91145
28.34908	87264
28.35722	80250
28.36533	75237
28.37345	71246
28.38158	60194
28.38970	58679
28.39783	53387
28.40595	49172
28.41407	43210
28.42220	43642
28.43032	39147
28.43845	40541
28.44657	35762
28.45468	36395
28.46282	35013
28.47093	29594
28.47905	30118
28.48718	32114
28.49530	33485
28.50343	31897
28.51155	28516
28.51967	29201
28.52780	29012
28.53592	35900
28.54405	29731
28.55217	30622
28.56028	29389
28.56842	30201
28.57653	27815
28.58465	29130
28.59278	27699
28.60090	27257
28.60903	23753
28.61715	26449
28.62527	28017
28.63340	29127
28.64152	31182
28.64965	33851
28.65777	32705
28.66588	33247
28.67402	35182
28.68213	35294
28.69027	43233
28.69838	46729
28.70650	44363
28.71463	41491
28.72275	36973
28.73087	33569
28.73900	30672
28.74712	29154
28.75525	26462
28.76337	26532
28.77148	25756
28.77962	28368
28.78773	31677
28.79587	24688
28.80398	24912
28.81210	25590
28.82023	25559
28.82835	24989
28.83648	22865
28.84460	27077
28.85272	26878
28.86085	26556
28.86897	27960
28.87708	25132
28.88522	25521
28.89333	29927
28.90147	21454
28.90958	25881
28.91770	27779
28.92583	27018
28.93395	24932
28.94208	23440
28.95020	23143
28.95832	23216
28.96645	26993
28.97457	27378
28.98268	24793
28.99082	24420
28.99893	25831
29.00707	27507
29.01518	27311
29.02330	27145
29.03143	27300
29.03955	30418
29.04768	29820
29.05580	25440
29.06392	26526
29.07205	24061
29.08017	25598
29.08830	25806
29.09642	22457
29.10453	21101
29.11267	25380
29.12078	25332
29.12890	24001
29.13703	24060
29.14515	24103
29.15328	20396
29.16140	23418
29.16952	23015
29.17765	23075
29.18577	25005
29.19390	22690
29.20202	24882
29.21013	24108
29.21827	25993
29.22638	24855
29.23450	20969
29.24263	25827
29.25075	24021
29.25888	26166
29.26700	28388
29.27512	26764
29.28325	23966
29.29137	27267
29.29950	25437
29.30762	24772
29.31573	24557
29.32387	27646
29.33198	24237
29.34012	23938
29.34823	22362
29.35635	22119
29.36448	23572
29.37260	20897
29.38072	23222
29.38885	24527
29.39697	24383
29.40510	25035
29.41322	25207
29.42133	25040
29.42947	26070
29.43758	24097
29.44572	25092
29.45383	25615
29.46195	25796
29.47008	25725
29.47820	23813
29.48633	26245
29.49445	23343
29.50257	26016
29.51070	23970
29.51882	25004
29.52693	22915
29.53507	28469
29.54318	24668
29.55132	24112
29.55943	28589
29.56755	23471
29.57568	24281
29.58380	25707
29.59193	21298
29.60005	27055
29.60817	24398
29.61630	22338
29.62442	25203
29.63253	24384
29.64067	22904
29.64878	28217
29.65692	21881
29.66503	21622
29.67315	23350
29.68128	21920
29.68940	22664
29.69753	24773
29.70565	21926
29.71377	23756
29.72190	22491
29.73002	22962
29.73815	21515
29.74627	23250
29.75438	22350
29.76252	22938
29.77063	24540
29.77875	25478
29.78688	23255
29.79500	24647
29.80313	22972
29.81125	20381
29.81937	20793
29.82750	20866
29.83562	23135
29.84375	21690
29.85187	22399
29.85998	23756
29.86812	23834
29.87623	26933
29.88437	30670
29.89248	34485
29.90060	40202
29.90873	40548
29.91685	44647
29.92497	53631
29.93310	49485
29.94122	53125
29.94935	54636
29.95747	52986
29.96558	53902
29.97372	56324
29.98183	50970
29.98997	49808
29.99808	44398
30.00620	48801
30.01433	44444
30.02245	42204
30.03057	35600
30.03870	38227
30.04682	37970
30.05495	36991
30.06307	34349
30.07118	32235
30.07932	32300
30.08743	33673
30.09557	32278
30.10368	31049
30.11180	31134
30.11993	32479
30.12805	32026
30.13618	30623
30.14430	32047
30.15242	28516
30.16055	29593
30.16867	32305
30.17678	32994
30.18492	25548
30.19303	26009
30.20117	27417
30.20928	28460
30.21740	29807
30.22553	25618
30.23365	28348
30.24178	26806
30.24990	24909
30.25802	26468
30.26615	25101
30.27427	27916
30.28238	28098
30.29052	25164
30.29863	25373
30.30677	25451
30.31488	26857
30.32300	26896
30.33113	27461
30.33925	25347
30.34738	26983
30.35550	24224
30.36362	26272
30.37175	27449
30.37987	26797
30.38800	25804
30.39612	25180
30.40423	27645
30.41237	25841
30.42048	26539
30.42860	24832
30.43673	26024
30.44485	24524
30.45298	29978
30.46110	24058
30.46922	23660
30.47735	26741
30.48547	26888
30.49360	22978
30.50172	24412
30.50983	24461
30.51797	25870
30.52608	26653
30.53422	24591
30.54233	26159
30.55045	21645
30.55858	23764
30.56670	26636
30.57482	24271
30.58295	26268
30.59107	25127
30.59920	24310
30.60732	24601
30.61543	25453
30.62357	24736
30.63168	24317
30.63982	25531
30.64793	26577
30.65605	24641
30.66418	24719
30.67230	23933
30.68043	23621
30.68855	24420
30.69667	24371
30.70480	23104
30.71292	24988
30.72103	22559
30.72917	24665
30.73728	22567
30.74542	25993
30.75353	24754
30.76165	23742
30.76978	23915
30.77790	24901
30.78603	25821
30.79415	26513
30.80227	25014
30.81040	24880
30.81852	30082
30.82663	28024
30.83477	25361
30.84288	27234
30.85102	25842
30.85913	23163
30.86725	24809
30.87538	26106
30.88350	22464
30.89163	24165
30.89975	30028
30.90787	23452
30.91600	25832
30.92412	24491
30.93225	25297
30.94037	24194
30.94848	25328
30.95662	26557
30.96473	24477
30.97285	24228
30.98098	23751
30.98910	23895
30.99723	24254
31.00535	25429
31.01347	25290
31.02160	25881
31.02972	26867
31.03785	28405
31.04597	21550
31.05408	24023
31.06222	23306
31.07033	25886
31.07845	29257
31.08658	28036
31.09470	25998
31.10283	28741
31.11095	31371
31.11907	25660
31.12720	25017
31.13532	32060
31.14345	23913
31.15157	26258
31.15968	29892
31.16782	35433
31.17593	39752
31.18407	50898
31.19218	74872
31.20030	80580
31.20843	86073
31.21655	89767
31.22467	80254
31.23280	69033
31.24092	55551
31.24905	41829
31.25717	36454
31.26528	31445
31.27342	28834
31.28153	28347
31.28967	26710
31.29778	26213
31.30590	26853
31.31403	27978
31.32215	24962
31.33028	26225
31.33840	25183
31.34652	24458
31.35465	22142
31.36277	27165
31.37088	27321
31.37902	26695
31.38713	24840
31.39527	24750
31.40338	26164
31.41150	27341
31.41963	26206
31.42775	26399
31.43588	23891
31.44400	25280
31.45212	24663
31.46025	24696
31.46837	23364
31.47648	23709
31.48462	26758
31.49273	26028
31.50087	27353
31.50898	24141
31.51710	24926
31.52523	23703
31.53335	26368
31.54148	23264
31.54960	24578
31.55772	26512
31.56585	22268
31.57397	22614
31.58210	26321
31.59022	25730
31.59833	24415
31.60647	21779
31.61458	24436
31.62270	26690
31.63083	26701
31.63895	24435
31.64708	23633
31.65520	22766
31.66332	25766
31.67145	24829
31.67957	25014
31.68770	25306
31.69582	24574
31.70393	23901
31.71207	22327
31.72018	26878
31.72832	25284
31.73643	24189
31.74455	24799
31.75268	25439
31.76080	27705
31.76892	27660
31.77705	31843
31.78517	27084
31.79330	29931
31.80142	30306
31.80953	28121
31.81767	27603
31.82578	32070
31.83392	36830
31.84203	30954
31.85015	36826
31.85828	38780
31.86640	44174
31.87452	45743
31.88265	47344
31.89077	45452
31.89890	41788
31.90702	45559
31.91513	44483
31.92327	43534
31.93138	41775
31.93952	39166
31.94763	35957
31.95575	34661
31.96388	38241
31.97200	35802
31.98013	37624
31.98825	35844
31.99637	31397
32.00450	33905
32.01262	34283
32.02073	33169
32.02887	31170
32.03698	29177
32.04512	30573
32.05323	32817
32.06135	28887
32.06948	28241
32.07760	29576
32.08573	29695
32.09385	26982
32.10197	26423
32.11010	29364
32.11822	30243
32.12633	27951
32.13447	28585
32.14258	25838
32.15072	28320
32.15883	25539
32.16695	26229
32.17508	29205
32.18320	25451
32.19133	29040
32.19945	27822
32.20757	25747
32.21570	27531
32.22382	25910
32.23195	24664
32.24007	26521
32.24818	28119
32.25632	29339
32.26443	27390
32.27255	24378
32.28068	25510
32.28880	25546
32.29693	29160
32.30505	26826
32.31317	22821
32.32130	24876
32.32942	26890
32.33755	28563
32.34567	27286
32.35378	24908
32.36192	25555
32.37003	27830
32.37817	28551
32.38628	26204
32.39440	29707
32.40253	29821
32.41065	27672
32.41877	25109
32.42690	24065
32.43502	24285
32.44315	24928
32.45127	24354
32.45938	28295
32.46752	27177
32.47563	27763
32.48377	28626
32.49188	27695
32.50000	25406
32.50813	23127
32.51625	23651
32.52437	25718
32.53250	25846
32.54062	26764
32.54875	27366
32.55687	27661
32.56498	34277
32.57312	37606
32.58123	39067
32.58937	42630
32.59748	40506
32.60560	39308
32.61373	35948
32.62185	30049
32.62998	27945
32.63810	27349
32.64622	27449
32.65435	25616
32.66247	26915
32.67058	28890
32.67872	27126
32.68683	27087
32.69497	27445
32.70308	27325
32.71120	30956
32.71933	29152
32.72745	31293
32.73558	30683
32.74370	27671
32.75182	28502
32.75995	25821
32.76807	26920
32.77620	27316
32.78432	27321
32.79243	26213
32.80057	27876
32.80868	29583
32.81680	26577
32.82493	27494
32.83305	27030
32.84118	27152
32.84930	28316
32.85742	26800
32.86555	25910
32.87367	28479
32.88180	27053
32.88992	27740
32.89803	24251
32.90617	29840
32.91428	28414
32.92240	30604
32.93053	26898
32.93865	26752
32.94678	25371
32.95490	27418
32.96302	26557
32.97115	30329
32.97927	30658
32.98740	29205
32.99552	25077
33.00363	26486
33.01177	23480
33.01988	29693
33.02802	29043
33.03613	25862
33.04425	25350
33.05238	27784
33.06050	26880
33.06862	25777
33.07675	30911
33.08487	31145
33.09300	32029
33.10112	31638
33.10923	36235
33.11737	32166
33.12548	34947
33.13362	36049
33.14173	32933
33.14985	35042
33.15798	32507
33.16610	27890
33.17422	27550
33.18235	30159
33.19047	25933
33.19860	28713
33.20672	27337
33.21483	25496
33.22297	24100
33.23108	28115
33.23922	24538
33.24733	31622
33.25545	27204
33.26358	27677
33.27170	27663
33.27983	24941
33.28795	27701
33.29607	27427
33.30420	25905
33.31232	32190
33.32043	25430
33.32857	25891
33.33668	31154
33.34482	28254
33.35293	27494
33.36105	25302
33.36918	28900
33.37730	26099
33.38543	26652
33.39355	24686
33.40167	25040
33.40980	31038
33.41792	27726
33.42605	30160
33.43417	25929
33.44228	25844
33.45042	26547
33.45853	27283
33.46665	27657
33.47478	28926
33.48290	32828
33.49103	28129
33.49915	29172
33.50727	28812
33.51540	31714
33.52352	28103
33.53165	26870
33.53977	27953
33.54788	26978
33.55602	26765
33.56413	29545
33.57225	25392
33.58038	28222
33.58850	28421
33.59663	28459
33.60475	32122
33.61287	26538
33.62100	27261
33.62912	29385
33.63725	29091
33.64537	27080
33.65348	28620
33.66162	27328
33.66973	28709
33.67787	32204
33.68598	30918
33.69410	30177
33.70223	31375
33.71035	30400
33.71847	30977
33.72660	30121
33.73472	28162
33.74285	29874
33.75097	31680
33.75908	32314
33.76722	33948
33.77533	39321
33.78347	32961
33.79158	29664
33.79970	31360
33.80783	29611
33.81595	34455
33.82408	32071
33.83220	32808
33.84032	32672
33.84845	34202
33.85657	29524
33.86468	29949
33.87282	29431
33.88093	29521
33.88907	34264
33.89718	32186
33.90530	31605
33.91343	35215
33.92155	32582
33.92968	30294
33.93780	27314
33.94592	28375
33.95405	28765
33.96217	29696
33.97028	28089
33.97842	32901
33.98653	29818
33.99467	33274
34.00278	27471
34.01090	29529
34.01903	27821
34.02715	29565
34.03528	30690
34.04340	29769
34.05152	30734
34.05965	29176
34.06777	30907
34.07590	29148
34.08402	31760
34.09213	27359
34.10027	28723
34.10838	26529
34.11650	30854
34.12463	29371
34.13275	29859
34.14088	29924
34.14900	30878
34.15712	29963
34.16525	29187
34.17337	27845
34.18150	30514
34.18962	31155
34.19773	31854
34.20587	28753
34.21398	29889
34.22212	31740
34.23023	30860
34.23835	31319
34.24648	27846
34.25460	30520
34.26272	28602
34.27085	29750
34.27897	29970
34.28710	28270
34.29522	27744
34.30333	31297
34.31147	29879
34.31958	29829
34.32772	28657
34.33583	29132
34.34395	31884
34.35208	29804
34.36020	32275
34.36832	29833
34.37645	31550
34.38457	28974
34.39270	29659
34.40082	31897
34.40893	30031
34.41707	32932
34.42518	29926
34.43332	33398
34.44143	35271
34.44955	39683
34.45768	45005
34.46580	51266
34.47393	54720
34.48205	55726
34.49017	53193
34.49830	49821
34.50642	54015
34.51453	46899
34.52267	49989
34.53078	46652
34.53892	41852
34.54703	38777
34.55515	41785
34.56328	41561
34.57140	39240
34.57953	39791
34.58765	36209
34.59577	37802
34.60390	38922
34.61202	36487
34.62013	31927
34.62827	35121
34.63638	33941
34.64452	36043
34.65263	33276
34.66075	34698
34.66888	34491
34.67700	35657
34.68513	36177
34.69325	33493
34.70137	34114
34.70950	35341
34.71762	33847
34.72575	33638
34.73387	33184
34.74198	33998
34.75012	35673
34.75823	31668
34.76635	30066
34.77448	31025
34.78260	31792
34.79073	35535
34.79885	32284
34.80697	30614
34.81510	31974
34.82322	29934
34.83135	33454
34.83947	33757
34.84758	31900
34.85572	31512
34.86383	30751
34.87197	34434
34.88008	35855
34.88820	34042
34.89633	34222
34.90445	32618
34.91257	31993
34.92070	33910
34.92882	31680
34.93695	34849
34.94507	34377
34.95318	36686
34.96132	36730
34.96943	34981
34.97757	38308
34.98568	32970
34.99380	32164
35.00193	29836
35.01005	32082
35.01817	31659
35.02630	33739
35.03442	29221
35.04255	33101
35.05067	30505
35.05878	31692
35.06692	37505
35.07503	33566
35.08317	34686
35.09128	29924
35.09940	33182
35.10753	33159
35.11565	30351
35.12378	32700
35.13190	30690
35.14002	31831
35.14815	33806
35.15627	32837
35.16438	32055
35.17252	33913
35.18063	35021
35.18877	33084
35.19688	32917
35.20500	33183
35.21313	33065
35.22125	35978
35.22938	32188
35.23750	30722
35.24562	35055
35.25375	34197
35.26187	32650
35.27000	32103
35.27812	32455
35.28623	32486
35.29437	32582
35.30248	36119
35.31060	35278
35.31873	33006
35.32685	35377
35.33498	33302
35.34310	34767
35.35122	32314
35.35935	34299
35.36747	30985
35.37560	32328
35.38372	30638
35.39183	34476
35.39997	34787
35.40808	36006
35.41620	38068
35.42433	32857
35.43245	36166
35.44058	31382
35.44870	37109
35.45682	37496
35.46495	38099
35.47307	35467
35.48120	36564
35.48932	33832
35.49743	31871
35.50557	34721
35.51368	36716
35.52182	34046
35.52993	34841
35.53805	35828
35.54618	37126
35.55430	35677
35.56242	34442
35.57055	37767
35.57867	38917
35.58680	38658
35.59492	38355
35.60303	32296
35.61117	35830
35.61928	35789
35.62742	38484
35.63553	32672
35.64365	36079
35.65178	35544
35.65990	33812
35.66802	34878
35.67615	36107
35.68427	36862
35.69240	37138
35.70052	36304
35.70863	33268
35.71677	33512
35.72488	36341
35.73302	32770
35.74113	32541
35.74925	35639
35.75738	33678
35.76550	36502
35.77363	35138
35.78175	39295
35.78987	38401
35.79800	33505
35.80612	36985
35.81423	37633
35.82237	36046
35.83048	34041
35.83862	36230
35.84673	37304
35.85485	36197
35.86298	35216
35.87110	31928
35.87923	32623
35.88735	37376
35.89547	34499
35.90360	37067
35.91172	33468
35.91985	38242
35.92797	34783
35.93608	36738
35.94422	38805
35.95233	39374
35.96045	35315
35.96858	37553
35.97670	37988
35.98483	33451
35.99295	35133
36.00107	38103
36.00920	39765
36.01732	38972
36.02545	37605
36.03357	35921
36.04168	37629
36.04982	38425
36.05793	38074
36.06605	41511
36.07418	39731
36.08230	38400
36.09043	35997
36.09855	36202
36.10667	38152
36.11480	38617
36.12292	38535
36.13105	36729
36.13917	37424
36.14728	36753
36.15542	38108
36.16353	35953
36.17167	36614
36.17978	40417
36.18790	39570
36.19603	36330
36.20415	42566
36.21227	45744
36.22040	47241
36.22852	54006
36.23665	50676
36.24477	55228
36.25288	48537
36.26102	46986
36.26913	43137
36.27727	39312
36.28538	41213
36.29350	42898
36.30163	39527
36.30975	37286
36.31788	39751
36.32600	39009
36.33412	38438
36.34225	37997
36.35037	37733
36.35848	39251
36.36662	40661
36.37473	40490
36.38287	41215
36.39098	39509
36.39910	38637
36.40723	42409
36.41535	38795
36.42348	41995
36.43160	40647
36.43972	38554
36.44785	33507
36.45597	37283
36.46408	38881
36.47222	37434
36.48033	34428
36.48847	39124
36.49658	38515
36.50470	37316
36.51283	37052
36.52095	37882
36.52908	39280
36.53720	37268
36.54532	39729
36.55345	39746
36.56157	41374
36.56970	40007
36.57782	37909
36.58593	40628
36.59407	39080
36.60218	38195
36.61030	36449
36.61843	38499
36.62655	40236
36.63468	40850
36.64280	44283
36.65092	40043
36.65905	35575
36.66717	42541
36.67530	38697
36.68342	38667
36.69153	37761
36.69967	39351
36.70778	40228
36.71592	39584
36.72403	36570
36.73215	41636
36.74028	41716
36.74840	38115
36.75652	38053
36.76465	35274
36.77277	40614
36.78090	42456
36.78902	40367
36.79713	40604
36.80527	41435
36.81338	39419
36.82152	41102
36.82963	42150
36.83775	39230
36.84588	41866
36.85400	38347
36.86212	39016
36.87025	39613
36.87837	42684
36.88650	42278
36.89462	39566
36.90273	41093
36.91087	40791
36.91898	44099
36.92712	39902
36.93523	41380
36.94335	41883
36.95148	41024
36.95960	41203
36.96773	37953
36.97585	41807
36.98397	42847
36.99210	46577
37.00022	45174
37.00833	43686
37.01647	44999
37.02458	45677
37.03272	44803
37.04083	48398
37.04895	48309
37.05708	49418
37.06520	44133
37.07333	43411
37.08145	45557
37.08957	46688
37.09770	41572
37.10582	39849
37.11395	41887
37.12207	40532
37.13018	42334
37.13832	43072
37.14643	45715
37.15455	44832
37.16268	45061
37.17080	44878
37.17893	45631
37.18705	41970
37.19517	43608
37.20330	48117
37.21142	42360
37.21955	42430
37.22767	49134
37.23578	46296
37.24392	50819
37.25203	57319
37.26015	60308
37.26828	68604
37.27640	67300
37.28453	66370
37.29265	64665
37.30077	64166
37.30890	59210
37.31702	55648
37.32515	54366
37.33327	56015
37.34138	49047
37.34952	49561
37.35763	50791
37.36577	52842
37.37388	50596
37.38200	49180
37.39013	49817
37.39825	50141
37.40637	46693
37.41450	54530
37.42262	44343
37.43075	48959
37.43887	49198
37.44698	50657
37.45512	48536
37.46323	50892
37.47137	48305
37.47948	45426
37.48760	48515
