C:\MassHunter\GCMS\1\data\JTB-E02\BACandBLUE\JTB-E18-011-13.D Tue Jun 18 15:31:38 2019
Start of data points
2.09530	94749
2.10342	93671
2.11155	94550
2.11967	92362
2.12780	96753
2.13592	95450
2.14403	95591
2.15217	93666
2.16028	91145
2.16840	93976
2.17653	90782
2.18465	94008
2.19278	90751
2.20090	91891
2.20902	84161
2.21715	85892
2.22527	88193
2.23340	85770
2.24152	82905
2.24963	85741
2.25777	83074
2.26588	86312
2.27400	188895
2.28213	966738
2.29025	1324887
2.29838	658869
2.30650	376130
2.31462	289206
2.32275	260534
2.33087	232592
2.33900	214351
2.34712	202024
2.35523	192645
2.36337	174385
2.37148	161274
2.37962	160277
2.38773	160419
2.39585	153345
2.40398	146902
2.41210	149260
2.42022	145728
2.42835	152995
2.43647	151774
2.44460	141769
2.45272	145269
2.46083	143051
2.46897	133579
2.47708	128015
2.48522	131939
2.49333	142446
2.50145	166023
2.50958	149992
2.51770	137734
2.52582	136652
2.53395	136074
2.54207	135635
2.55020	134350
2.55832	167284
2.56643	280387
2.57457	289318
2.58268	202745
2.59082	183454
2.59893	164512
2.60705	194717
2.61518	446702
2.62330	691040
2.63143	497655
2.63955	313580
2.64767	247822
2.65580	211257
2.66392	187466
2.67203	177936
2.68017	169393
2.68828	157445
2.69642	145909
2.70453	145074
2.71265	144672
2.72078	143192
2.72890	143906
2.73703	141025
2.74515	138936
2.75327	132498
2.76140	130382
2.76952	129638
2.77765	143991
2.78577	305645
2.79388	678834
2.80202	659374
2.81013	405313
2.81825	302672
2.82638	285771
2.83450	277107
2.84263	239241
2.85075	215139
2.85887	194147
2.86700	181340
2.87512	169794
2.88325	164202
2.89137	157712
2.89948	155282
2.90762	146358
2.91573	143920
2.92387	143823
2.93198	143257
2.94010	140186
2.94823	141451
2.95635	135673
2.96447	142080
2.97260	143143
2.98072	138013
2.98885	137134
2.99697	139517
3.00508	151986
3.01322	152208
3.02133	158424
3.02947	149874
3.03758	138210
3.04570	133792
3.05383	127429
3.06195	135210
3.07007	131335
3.07820	147477
3.08632	297303
3.09445	1082970
3.10257	2287461
3.11068	3397739
3.11882	4261007
3.12693	3286208
3.13507	2018056
3.14318	1416469
3.15130	1127548
3.15943	916639
3.16755	773233
3.17568	700188
3.18380	675019
3.19192	847052
3.20005	1331300
3.20817	1422110
3.21628	1023391
3.22442	772808
3.23253	646498
3.24067	569038
3.24878	505292
3.25690	462684
3.26503	414426
3.27315	388847
3.28128	364197
3.28940	492620
3.29752	1356360
3.30565	4148950
3.31377	7771100
3.32188	8777631
3.33002	6679763
3.33813	4390142
3.34627	2985093
3.35438	2285143
3.36250	1784319
3.37063	1478627
3.37875	1240122
3.38688	1075851
3.39500	963606
3.40312	861192
3.41125	785990
3.41937	722030
3.42750	665125
3.43562	641628
3.44373	622577
3.45187	580698
3.45998	567600
3.46810	549737
3.47623	575588
3.48435	583149
3.49248	546530
3.50060	503527
3.50872	476280
3.51685	466230
3.52497	452243
3.53310	465299
3.54122	456722
3.54933	460566
3.55747	455202
3.56558	431741
3.57372	429144
3.58183	445342
3.58995	441581
3.59808	415626
3.60620	402953
3.61432	391853
3.62245	392490
3.63057	400389
3.63870	417813
3.64682	432959
3.65493	426310
3.66307	538786
3.67118	1855967
3.67932	6532003
3.68743	1.172709E+07
3.69555	1.081094E+07
3.70368	6508450
3.71180	3945000
3.71992	2927744
3.72805	2388597
3.73617	2076665
3.74430	1828440
3.75242	1637129
3.76053	1476890
3.76867	1342962
3.77678	1252625
3.78492	1178154
3.79303	1103970
3.80115	1101625
3.80928	1291253
3.81740	1898409
3.82553	2384646
3.83365	2063561
3.84177	1557507
3.84990	1242120
3.85802	1083945
3.86613	1013853
3.87427	934158
3.88238	892087
3.89052	833637
3.89863	772950
3.90675	777386
3.91488	735493
3.92300	785446
3.93113	896891
3.93925	962368
3.94737	991265
3.95550	1459861
3.96362	3160809
3.97175	5335831
3.97987	5615274
3.98798	4003946
3.99612	2831432
4.00423	4773460
4.01235	1.201844E+07
4.02048	2.061894E+07
4.02860	2.146408E+07
4.03673	1.457962E+07
4.04485	7767233
4.05297	4557049
4.06110	3183167
4.06922	2428744
4.07735	1995490
4.08547	1691483
4.09358	1472788
4.10172	1314800
4.10983	1184636
4.11795	1079844
4.12608	1015151
4.13420	944221
4.14233	930187
4.15045	959227
4.15857	984374
4.16670	926968
4.17482	855425
4.18295	813532
4.19107	769566
4.19918	733914
4.20732	755029
4.21543	1363145
4.22357	4094161
4.23168	9549071
4.23980	1.440594E+07
4.24793	1.489812E+07
4.25605	1.093689E+07
4.26417	6778022
4.27230	4556640
4.28042	3410630
4.28855	2670439
4.29667	2160995
4.30478	1826333
4.31292	1546407
4.32103	1391834
4.32917	1270487
4.33728	1166337
4.34540	1071746
4.35353	1031832
4.36165	1026620
4.36977	1031425
4.37790	1027928
4.38602	946395
4.39415	866651
4.40227	793657
4.41038	733984
4.41852	706502
4.42663	686588
4.43477	659903
4.44288	635953
4.45100	607608
4.45913	614518
4.46725	591838
4.47538	579744
4.48350	564791
4.49162	549987
4.49975	531071
4.50787	532012
4.51598	517623
4.52412	506307
4.53223	494634
4.54037	495351
4.54848	488564
4.55660	479038
4.56473	481747
4.57285	461590
4.58098	445429
4.58910	429753
4.59722	431327
4.60535	415370
4.61347	414474
4.62160	439747
4.62972	504677
4.63783	672355
4.64597	855277
4.65408	906353
4.66220	778164
4.67033	630825
4.67845	536796
4.68658	509420
4.69470	491394
4.70282	457071
4.71095	426649
4.71907	403198
4.72720	398497
4.73532	386581
4.74343	376922
4.75157	366836
4.75968	362904
4.76780	356581
4.77593	351712
4.78405	359586
4.79218	381402
4.80030	523565
4.80842	725497
4.81655	844515
4.82467	741350
4.83280	606228
4.84092	540879
4.84903	532981
4.85717	513118
4.86528	486455
4.87342	446118
4.88153	417906
4.88965	389736
4.89778	364353
4.90590	362434
4.91402	353803
4.92215	348130
4.93027	375066
4.93840	541338
4.94652	1108846
4.95463	2416637
4.96277	4073421
4.97088	5023942
4.97902	4698477
4.98713	3573452
4.99525	2525559
5.00338	1744019
5.01150	1329016
5.01963	1059362
5.02775	920716
5.03587	887979
5.04400	916733
5.05212	895845
5.06023	820599
5.06837	719674
5.07648	646831
5.08462	598289
5.09273	563161
5.10085	535235
5.10898	532522
5.11710	500865
5.12523	485429
5.13335	472499
5.14147	477345
5.14960	462895
5.15772	512139
5.16583	568190
5.17397	618776
5.18208	618014
5.19022	568911
5.19833	540656
5.20645	547271
5.21458	577574
5.22270	584296
5.23083	558579
5.23895	523324
5.24707	487107
5.25520	475039
5.26332	437240
5.27145	397969
5.27957	381004
5.28768	375994
5.29582	359867
5.30393	358089
5.31205	352057
5.32018	355354
5.32830	354003
5.33643	378367
5.34455	396913
5.35267	403369
5.36080	387741
5.36892	366700
5.37705	350296
5.38517	358300
5.39328	371472
5.40142	404075
5.40953	403853
5.41767	377766
5.42578	353753
5.43390	343006
5.44203	330623
5.45015	340413
5.45827	353510
5.46640	363201
5.47452	355109
5.48265	337302
5.49077	312851
5.49888	293104
5.50702	298715
5.51513	296061
5.52327	309583
5.53138	300670
5.53950	301814
5.54763	296412
5.55575	330734
5.56387	390522
5.57200	515426
5.58012	618170
5.58825	620091
5.59637	533998
5.60448	429969
5.61262	361691
5.62073	330329
5.62887	334456
5.63698	317220
5.64510	326827
5.65323	309004
5.66135	314883
5.66948	298651
5.67760	305299
5.68572	319411
5.69385	351413
5.70197	358447
5.71008	345786
5.71822	330720
5.72633	306048
5.73447	299596
5.74258	281875
5.75070	279192
5.75883	272692
5.76695	269231
5.77508	260731
5.78320	262398
5.79132	254334
5.79945	262537
5.80757	254187
5.81568	253130
5.82382	256726
5.83193	251937
5.84007	251106
5.84818	256320
5.85630	253527
5.86443	245714
5.87255	253456
5.88068	244485
5.88880	262569
5.89692	249078
5.90505	238433
5.91317	217010
5.92130	208345
5.92942	204559
5.93753	198626
5.94567	193611
5.95378	203469
5.96190	220740
5.97003	246957
5.97815	299447
5.98628	366102
5.99440	390438
6.00252	385976
6.01065	340914
6.01877	287910
6.02690	249085
6.03502	233219
6.04313	214976
6.05127	192319
6.05938	191916
6.06752	185595
6.07563	177060
6.08375	182798
6.09188	177268
6.10000	183972
6.10812	196160
6.11625	199509
6.12437	219339
6.13250	269982
6.14062	385760
6.14873	507410
6.15687	546381
6.16498	490018
6.17312	369900
6.18123	301788
6.18935	256650
6.19748	245516
6.20560	234431
6.21372	229527
6.22185	225089
6.22997	221979
6.23810	206519
6.24622	208489
6.25433	216084
6.26247	241670
6.27058	255075
6.27872	244804
6.28683	227663
6.29495	217818
6.30308	205751
6.31120	209343
6.31933	213625
6.32745	224327
6.33557	257872
6.34370	288217
6.35182	287901
6.35993	272489
6.36807	242395
6.37618	226539
6.38432	222301
6.39243	212546
6.40055	219602
6.40868	219488
6.41680	208314
6.42493	208597
6.43305	208101
6.44117	215501
6.44930	207385
6.45742	208436
6.46555	219065
6.47367	213040
6.48178	210721
6.48992	205418
6.49803	210486
6.50615	206912
6.51428	216517
6.52240	215579
6.53053	220025
6.53865	214797
6.54677	218668
6.55490	223567
6.56302	239475
6.57115	310958
6.57927	403783
6.58738	505702
6.59552	503392
6.60363	420427
6.61175	334538
6.61988	286562
6.62800	265682
6.63613	263307
6.64425	282290
6.65237	431820
6.66050	923974
6.66862	1813548
6.67675	2622652
6.68487	2633691
6.69298	1969066
6.70112	1264521
6.70923	824056
6.71737	603684
6.72548	542096
6.73360	468798
6.74173	418900
6.74985	374270
6.75797	347353
6.76610	328219
6.77422	298528
6.78235	280203
6.79047	266086
6.79858	259140
6.80672	245862
6.81483	237146
6.82297	222714
6.83108	216409
6.83920	222629
6.84733	222878
6.85545	238340
6.86357	245363
6.87170	241231
6.87982	225460
6.88795	199319
6.89607	170101
6.90418	149918
6.91232	137976
6.92043	134326
6.92857	132330
6.93668	125066
6.94480	126991
6.95293	121935
6.96105	124812
6.96918	135422
6.97730	152338
6.98542	163210
6.99355	161765
7.00167	153718
7.00978	143520
7.01792	133974
7.02603	148071
7.03417	146084
7.04228	137185
7.05040	142399
7.05853	164157
7.06665	183704
7.07478	196433
7.08290	193849
7.09102	176689
7.09915	164654
7.10727	141513
7.11540	125701
7.12352	124536
7.13163	127322
7.13977	135418
7.14788	181949
7.15600	273354
7.16413	390393
7.17225	441633
7.18038	401052
7.18850	316764
7.19662	246980
7.20475	276090
7.21287	501758
7.22100	1064961
7.22912	1795462
7.23723	2236823
7.24537	1965707
7.25348	1343116
7.26162	836272
7.26973	524172
7.27785	368452
7.28598	252188
7.29410	194244
7.30222	160095
7.31035	143133
7.31847	141105
7.32660	149295
7.33472	151720
7.34283	150672
7.35097	143061
7.35908	135289
7.36722	132391
7.37533	132641
7.38345	129034
7.39158	128915
7.39970	121965
7.40782	128140
7.41595	122563
7.42407	114847
7.43220	117317
7.44032	117250
7.44843	114816
7.45657	121011
7.46468	117791
7.47282	118982
7.48093	113860
7.48905	108672
7.49718	103704
7.50530	107144
7.51343	116750
7.52155	161445
7.52967	279854
7.53780	539258
7.54592	930583
7.55403	1475120
7.56217	1940485
7.57028	2159002
7.57842	2017707
7.58653	1626606
7.59465	1104358
7.60278	728906
7.61090	475015
7.61903	326180
7.62715	256650
7.63527	211678
7.64340	177259
7.65152	164710
7.65963	137297
7.66777	131582
7.67588	125977
7.68402	121568
7.69213	114749
7.70025	110317
7.70838	106562
7.71650	114571
7.72463	115655
7.73275	110236
7.74087	110279
7.74900	114400
7.75712	122557
7.76525	130341
7.77337	140896
7.78148	142777
7.78962	145906
7.79773	157403
7.80585	164740
7.81398	165512
7.82210	164211
7.83023	152074
7.83835	137075
7.84647	123117
7.85460	124175
7.86272	130039
7.87085	141533
7.87897	141711
7.88708	161618
7.89522	180030
7.90333	171863
7.91147	154473
7.91958	135464
7.92770	127466
7.93583	142266
7.94395	157793
7.95207	174846
7.96020	173715
7.96832	157404
7.97645	139152
7.98457	121819
7.99268	105014
8.00082	99735
8.00893	100553
8.01707	91659
8.02518	90854
8.03330	91403
8.04143	97741
8.04955	94672
8.05767	90352
8.06580	88827
8.07392	91864
8.08205	88526
8.09017	89239
8.09828	87516
8.10642	81215
8.11453	79791
8.12267	80485
8.13078	95851
8.13890	98278
8.14703	123000
8.15515	136518
8.16328	142034
8.17140	128843
8.17952	114851
8.18765	98277
8.19577	92380
8.20388	89821
8.21202	87890
8.22013	93649
8.22827	89163
8.23638	90736
8.24450	89851
8.25263	90955
8.26075	84708
8.26888	79986
8.27700	74996
8.28512	78985
8.29325	73373
8.30137	78034
8.30950	86853
8.31762	85531
8.32573	92704
8.33387	92025
8.34198	90183
8.35010	87980
8.35823	84805
8.36635	80125
8.37448	84400
8.38260	86077
8.39072	91982
8.39885	85876
8.40697	84601
8.41510	79375
8.42322	71141
8.43133	76602
8.43947	70101
8.44758	69455
8.45570	76056
8.46383	72710
8.47195	70758
8.48008	73124
8.48820	67169
8.49632	70243
8.50445	70707
8.51257	77792
8.52070	92511
8.52882	152245
8.53693	267219
8.54507	401817
8.55318	483298
8.56132	438982
8.56943	324624
8.57755	211168
8.58568	143531
8.59380	118404
8.60192	126674
8.61005	143200
8.61817	138255
8.62630	127905
8.63442	114168
8.64253	100897
8.65067	90038
8.65878	85118
8.66692	83641
8.67503	77921
8.68315	80049
8.69128	91375
8.69940	86548
8.70752	90982
8.71565	98291
8.72377	96467
8.73190	82183
8.74002	83463
8.74813	97401
8.75627	159170
8.76438	327015
8.77252	671792
8.78063	1168465
8.78875	1585795
8.79688	1689714
8.80500	1401613
8.81313	975161
8.82125	604328
8.82937	400736
8.83750	299497
8.84562	259049
8.85373	242496
8.86187	234637
8.86998	214714
8.87812	200417
8.88623	188135
8.89435	177978
8.90248	171634
8.91060	166713
8.91873	155046
8.92685	163367
8.93497	173132
8.94310	194621
8.95122	200360
8.95935	204088
8.96747	190664
8.97558	179766
8.98372	179901
8.99183	193430
8.99995	181833
9.00808	177878
9.01620	156742
9.02433	150931
9.03245	136286
9.04057	129541
9.04870	123208
9.05682	124479
9.06495	120737
9.07307	120897
9.08118	124133
9.08932	128274
9.09743	134069
9.10555	159946
9.11368	186199
9.12180	219083
9.12993	220192
9.13805	205964
9.14617	174630
9.15430	145334
9.16242	130612
9.17055	124422
9.17867	119018
9.18678	113037
9.19492	114040
9.20303	110734
9.21117	106825
9.21928	106578
9.22740	108408
9.23553	108224
9.24365	116900
9.25177	105642
9.25990	113780
9.26802	113135
9.27615	114012
9.28427	99668
9.29238	106910
9.30052	104295
9.30863	95806
9.31677	93168
9.32488	91492
9.33300	91978
9.34113	92328
9.34925	91611
9.35738	91070
9.36550	87285
9.37362	84089
9.38175	92132
9.38987	92123
9.39798	99976
9.40612	104449
9.41423	117256
9.42237	156698
9.43048	198813
9.43860	229881
9.44673	255936
9.45485	240143
9.46298	210610
9.47110	179183
9.47922	140554
9.48735	119137
9.49547	110872
9.50358	111033
9.51172	128252
9.51983	142421
9.52797	168488
9.53608	169452
9.54420	162324
9.55233	141934
9.56045	128041
9.56858	102518
9.57670	93196
9.58482	86196
9.59295	85276
9.60107	77121
9.60920	76844
9.61732	74884
9.62543	66997
9.63357	68300
9.64168	68212
9.64980	63768
9.65793	67717
9.66605	63679
9.67418	65256
9.68230	63221
9.69042	58550
9.69855	57271
9.70667	57793
9.71480	61111
9.72292	58049
9.73103	56081
9.73917	54802
9.74728	55444
9.75542	51404
9.76353	50921
9.77165	49177
9.77978	49014
9.78790	48892
9.79602	51533
9.80415	51137
9.81227	49338
9.82040	50970
9.82852	53731
9.83663	51153
9.84477	53142
9.85288	51766
9.86102	53524
9.86913	56449
9.87725	61474
9.88538	59543
9.89350	56883
9.90162	55745
9.90975	51951
9.91787	57610
9.92600	60408
9.93412	81287
9.94223	111906
9.95037	174289
9.95848	210380
9.96662	224391
9.97473	203063
9.98285	170493
9.99098	133054
9.99910	109606
10.00723	101314
10.01535	88434
10.02347	84091
10.03160	79702
10.03972	73265
10.04783	66141
10.05597	69039
10.06408	66147
10.07222	70774
10.08033	73792
10.08845	71324
10.09658	70500
10.10470	74291
10.11283	71451
10.12095	67153
10.12907	64453
10.13720	59838
10.14532	60861
10.15343	59738
10.16157	59427
10.16968	62330
10.17782	54974
10.18593	60796
10.19405	54118
10.20218	57400
10.21030	56568
10.21843	60404
10.22655	63467
10.23467	73521
10.24280	77830
10.25092	95165
10.25905	119763
10.26717	226815
10.27528	503919
10.28342	1080463
10.29153	1932868
10.29965	2911786
10.30778	4039601
10.31590	5795895
10.32403	8310798
10.33215	1.102622E+07
10.34027	1.235556E+07
10.34840	1.155085E+07
10.35652	9066542
10.36465	6729352
10.37277	5234085
10.38088	4269926
10.38902	3320345
10.39713	2373302
10.40527	1601648
10.41338	1067726
10.42150	771560
10.42963	655025
10.43775	590043
10.44587	539630
10.45400	546415
10.46212	530071
10.47025	491621
10.47837	465947
10.48648	412066
10.49462	382684
10.50273	352782
10.51087	333757
10.51898	309523
10.52710	296154
10.53523	285334
10.54335	275619
10.55147	269127
10.55960	255419
10.56772	247192
10.57585	231934
10.58397	237749
10.59208	225415
10.60022	207534
10.60833	200733
10.61647	191898
10.62458	186548
10.63270	175968
10.64083	176600
10.64895	167103
10.65708	161980
10.66520	159455
10.67332	159867
10.68145	159335
10.68957	160103
10.69768	154425
10.70582	158762
10.71393	164583
10.72207	162041
10.73018	157134
10.73830	151863
10.74643	140713
10.75455	138358
10.76268	131594
10.77080	133310
10.77892	130848
10.78705	127292
10.79517	125974
10.80330	137389
10.81142	137980
10.81953	143472
10.82767	142661
10.83578	131713
10.84390	122803
10.85203	115880
10.86015	103334
10.86828	107483
10.87640	102772
10.88452	100130
10.89265	98972
10.90077	93338
10.90890	95210
10.91702	96995
10.92513	95265
10.93327	94291
10.94138	91607
10.94950	85278
10.95763	86571
10.96575	90940
10.97388	91404
10.98200	94732
10.99012	94758
10.99825	99743
11.00637	100505
11.01450	106796
11.02262	106347
11.03073	101489
11.03887	95928
11.04698	91065
11.05512	82539
11.06323	83559
11.07135	91715
11.07948	96568
11.08760	103616
11.09572	103938
11.10385	105034
11.11197	101175
11.12010	102423
11.12822	93083
11.13633	86352
11.14447	86992
11.15258	76497
11.16072	77278
11.16883	82582
11.17695	81471
11.18508	80014
11.19320	84648
11.20132	81062
11.20945	73378
11.21757	73779
11.22570	70041
11.23382	64846
11.24193	62180
11.25007	64799
11.25818	60587
11.26632	55647
11.27443	55832
11.28255	55904
11.29068	60250
11.29880	82990
11.30693	153992
11.31505	314086
11.32317	612811
11.33130	1123573
11.33942	1669357
11.34753	2038702
11.35567	2042697
11.36378	1721479
11.37192	1251078
11.38003	833278
11.38815	562212
11.39628	404898
11.40440	347897
11.41253	315430
11.42065	294767
11.42877	267660
11.43690	233628
11.44502	213454
11.45315	192420
11.46127	177261
11.46938	159047
11.47752	156036
11.48563	163652
11.49375	170925
11.50188	175027
11.51000	179320
11.51813	168611
11.52625	157229
11.53437	140170
11.54250	132074
11.55062	122828
11.55875	121675
11.56687	119767
11.57498	119007
11.58312	117828
11.59123	116962
11.59935	132973
11.60748	149838
11.61560	181106
11.62373	196667
11.63185	192801
11.63997	164882
11.64810	140822
11.65622	115980
11.66435	109930
11.67247	105927
11.68058	109603
11.68872	121079
11.69683	132623
11.70497	133441
11.71308	134659
11.72120	137131
11.72933	121443
11.73745	107629
11.74557	91467
11.75370	85439
11.76182	79880
11.76995	82307
11.77807	74346
11.78618	74295
11.79432	72519
11.80243	70240
11.81057	68462
11.81868	67789
11.82680	65046
11.83493	68480
11.84305	75140
11.85118	69020
11.85930	66513
11.86742	65907
11.87555	62902
11.88367	62076
11.89178	56991
11.89992	54709
11.90803	57272
11.91617	61938
11.92428	73010
11.93240	69870
11.94053	75979
11.94865	73607
11.95678	64874
11.96490	65113
11.97302	79511
11.98115	132063
11.98927	259883
11.99738	468890
12.00552	724193
12.01363	898692
12.02177	926454
12.02988	763277
12.03800	539443
12.04613	360392
12.05425	238552
12.06238	180088
12.07050	160333
12.07862	151697
12.08675	152332
12.09487	155929
12.10300	161980
12.11112	189652
12.11923	242616
12.12737	316996
12.13548	383542
12.14360	410313
12.15173	405572
12.15985	318930
12.16798	238666
12.17610	179335
12.18422	134921
12.19235	127138
12.20047	123103
12.20860	121249
12.21672	118851
12.22483	114533
12.23297	110107
12.24108	109188
12.24920	103528
12.25733	103010
12.26545	103018
12.27358	97663
12.28170	101456
12.28982	95593
12.29795	87756
12.30607	88115
12.31420	84518
12.32232	82611
12.33043	77553
12.33857	81153
12.34668	79781
12.35482	79844
12.36293	79275
12.37105	74368
12.37918	78768
12.38730	80278
12.39542	90538
12.40355	103239
12.41167	121507
12.41980	130908
12.42792	141326
12.43603	141400
12.44417	130060
12.45228	118669
12.46042	106547
12.46853	101861
12.47665	100621
12.48478	95151
12.49290	88044
12.50103	86720
12.50915	90811
12.51727	81335
12.52540	87762
12.53352	104521
12.54163	151018
12.54977	239987
12.55788	361417
12.56602	450189
12.57413	495382
12.58225	427263
12.59038	316617
12.59850	218990
12.60663	159939
12.61475	133609
12.62287	124987
12.63100	112742
12.63912	108099
12.64725	97770
12.65537	86423
12.66348	84966
12.67162	81142
12.67973	72857
12.68785	73045
12.69598	70201
12.70410	68390
12.71223	68466
12.72035	68883
12.72847	71284
12.73660	70332
12.74472	78547
12.75285	73739
12.76097	68842
12.76908	64957
12.77722	66805
12.78533	56794
12.79345	59727
12.80158	52904
12.80970	53173
12.81783	51122
12.82595	52499
12.83407	53203
12.84220	43142
12.85032	48814
12.85845	46789
12.86657	47416
12.87468	47515
12.88282	48729
12.89093	46405
12.89907	51435
12.90718	47676
12.91530	42220
12.92343	44785
12.93155	46008
12.93967	50714
12.94780	53988
12.95592	82774
12.96405	146607
12.97217	234576
12.98028	346822
12.98842	406286
12.99653	379159
13.00467	285261
13.01278	201414
13.02090	142929
13.02903	103841
13.03715	87228
13.04527	79205
13.05340	70709
13.06152	65622
13.06965	70533
13.07777	64907
13.08588	62667
13.09402	65414
13.10213	55591
13.11027	55423
13.11838	53473
13.12650	57691
13.13463	53378
13.14275	52476
13.15088	55748
13.15900	51060
13.16712	55306
13.17525	56199
13.18337	62413
13.19148	57215
13.19962	60967
13.20773	60621
13.21587	62105
13.22398	65487
13.23210	62848
13.24023	64142
13.24835	59809
13.25648	59491
13.26460	54614
13.27272	52194
13.28085	56723
13.28897	53472
13.29710	48314
13.30522	49141
13.31333	46098
13.32147	44562
13.32958	49568
13.33770	46469
13.34583	45229
13.35395	44948
13.36208	49019
13.37020	45403
13.37832	44244
13.38645	43305
13.39457	40097
13.40270	44342
13.41082	42229
13.41893	46692
13.42707	46737
13.43518	43484
13.44330	43972
13.45143	45964
13.45955	46743
13.46768	53183
13.47580	51367
13.48392	56222
13.49205	52295
13.50017	50644
13.50830	49997
13.51642	51136
13.52453	50597
13.53267	46544
13.54078	47954
13.54892	46420
13.55703	47601
13.56515	46231
13.57328	51150
13.58140	56082
13.58952	56618
13.59765	57664
13.60577	63212
13.61390	61076
13.62202	65420
13.63013	61472
13.63827	57742
13.64638	52897
13.65452	51325
13.66263	49106
13.67075	39933
13.67888	40403
13.68700	39664
13.69513	40534
13.70325	44245
13.71137	39767
13.71950	45181
13.72762	53060
13.73573	87761
13.74387	194723
13.75198	507755
13.76012	1039172
13.76823	1812256
13.77635	2550712
13.78448	2993962
13.79260	2761636
13.80073	2155626
13.80885	1520526
13.81697	1084755
13.82510	874679
13.83322	821033
13.84133	817355
13.84947	765407
13.85758	686170
13.86572	557445
13.87383	456712
13.88195	378149
13.89008	330556
13.89820	292132
13.90633	253267
13.91445	246799
13.92257	220671
13.93070	223134
13.93882	200459
13.94695	201538
13.95507	209030
13.96318	226145
13.97132	282701
13.97943	302033
13.98755	318253
13.99568	309325
14.00380	273442
14.01193	234751
14.02005	208521
14.02817	179419
14.03630	166534
14.04442	167177
14.05255	163523
14.06067	155935
14.06878	152799
14.07692	154318
14.08503	143974
14.09315	158774
14.10128	139742
14.10940	137371
14.11753	135654
14.12565	140132
14.13377	153541
14.14190	182907
14.15002	212514
14.15815	232719
14.16627	234030
14.17438	244769
14.18252	266427
14.19063	347908
14.19877	461270
14.20688	580867
14.21500	620580
14.22313	566930
14.23125	454619
14.23937	367875
14.24750	300507
14.25562	270336
14.26375	241205
14.27187	218396
14.27998	193880
14.28812	163924
14.29623	149076
14.30437	136069
14.31248	130813
14.32060	125983
14.32873	124957
14.33685	120097
14.34498	113506
14.35310	110602
14.36122	103164
14.36935	99639
14.37747	81499
14.38558	77303
14.39372	69930
14.40183	71305
14.40997	76993
14.41808	79141
14.42620	86845
14.43433	87433
14.44245	80455
14.45058	75842
14.45870	73876
14.46682	75379
14.47495	84006
14.48307	84124
14.49118	86897
14.49932	81321
14.50743	84329
14.51557	90626
14.52368	94323
14.53180	91275
14.53993	92533
14.54805	83562
14.55618	76558
14.56430	72736
14.57242	66535
14.58055	64702
14.58867	57802
14.59680	59141
14.60492	57749
14.61303	52929
14.62117	53591
14.62928	55182
14.63740	57826
14.64553	50732
14.65365	53139
14.66178	50446
14.66990	50933
14.67802	51780
14.68615	48786
14.69427	48416
14.70240	49733
14.71052	49595
14.71863	51872
14.72677	57075
14.73488	59169
14.74302	57971
14.75113	65041
14.75925	65181
14.76738	69329
14.77550	69793
14.78362	81123
14.79175	136933
14.79987	317682
14.80800	793593
14.81612	1801329
14.82423	3182428
14.83237	4504975
14.84048	4956699
14.84862	4486305
14.85673	3408439
14.86485	2248193
14.87298	1370225
14.88110	841996
14.88922	571880
14.89735	441097
14.90547	376553
14.91360	326892
14.92172	288176
14.92983	268525
14.93797	253616
14.94608	255041
14.95422	229216
14.96233	223432
14.97045	215621
14.97858	214301
14.98670	201638
14.99483	188423
15.00295	178064
15.01107	162485
15.01920	158755
15.02732	142640
15.03543	151729
15.04357	139332
15.05168	133342
15.05982	129942
15.06793	124053
15.07605	122146
15.08418	122785
15.09230	100958
15.10043	101488
15.10855	103776
15.11667	97573
15.12480	98234
15.13292	111629
15.14105	115504
15.14917	121987
15.15728	118242
15.16542	103059
15.17353	93059
15.18165	77951
15.18978	77312
15.19790	73153
15.20603	67004
15.21415	61084
15.22227	62306
15.23040	61120
15.23852	56969
15.24665	58341
15.25477	64251
15.26288	53052
15.27102	55279
15.27913	54841
15.28725	56385
15.29538	52030
15.30350	50893
15.31163	51822
15.31975	51109
15.32787	53535
15.33600	54738
15.34412	50713
15.35225	45594
15.36037	47027
15.36848	46098
15.37662	47017
15.38473	49203
15.39287	47775
15.40098	54371
15.40910	57648
15.41723	61246
15.42535	65448
15.43347	58797
15.44160	58525
15.44972	57378
15.45785	56943
15.46597	71746
15.47408	107314
15.48222	164726
15.49033	246896
15.49847	326984
15.50658	401572
15.51470	414973
15.52283	368211
15.53095	306022
15.53907	260673
15.54720	213283
15.55532	177165
15.56345	153690
15.57157	128115
15.57968	112520
15.58782	98572
15.59593	92044
15.60407	80648
15.61218	73281
15.62030	71843
15.62843	66934
15.63655	69908
15.64468	67018
15.65280	65774
15.66092	61484
15.66905	63334
15.67717	61548
15.68528	58091
15.69342	55332
15.70153	56773
15.70967	53454
15.71778	50734
15.72590	52714
15.73403	51226
15.74215	56166
15.75028	59546
15.75840	78991
15.76652	118385
15.77465	190540
15.78277	266869
15.79090	333500
15.79902	352418
15.80713	309180
15.81527	237679
15.82338	175949
15.83150	127658
15.83963	96478
15.84775	89171
15.85588	83013
15.86400	77057
15.87212	78136
15.88025	75141
15.88837	76325
15.89650	78649
15.90462	76288
15.91273	75410
15.92087	67786
15.92898	66200
15.93710	69444
15.94523	73955
15.95335	87652
15.96148	116829
15.96960	151328
15.97772	177049
15.98585	194309
15.99397	185648
16.00210	159832
16.01022	136003
16.01833	112791
16.02647	105557
16.03458	98634
16.04272	89199
16.05083	82797
16.05895	82092
16.06708	74097
16.07520	64406
16.08332	67054
16.09145	67999
16.09957	60862
16.10770	63569
16.11582	62225
16.12393	72196
16.13207	65613
16.14018	72642
16.14832	80276
16.15643	77792
16.16455	82553
16.17268	75033
16.18080	63911
16.18893	64424
16.19705	61932
16.20517	59725
16.21330	56061
16.22142	59074
16.22953	60863
16.23767	57983
16.24578	57660
16.25392	56484
16.26203	52515
16.27015	57360
16.27828	58602
16.28640	67835
16.29453	71835
16.30265	76370
16.31077	77955
16.31890	76878
16.32702	70478
16.33513	68832
16.34327	74870
16.35138	94079
16.35952	125229
16.36763	164453
16.37575	202582
16.38388	228451
16.39200	221339
16.40013	187302
16.40825	148371
16.41637	112501
16.42450	89521
16.43262	84244
16.44075	88440
16.44887	113406
16.45698	197285
16.46512	374551
16.47323	637099
16.48135	911443
16.48948	1073605
16.49760	1000651
16.50573	780513
16.51385	509518
16.52197	328129
16.53010	227435
16.53822	158620
16.54635	133045
16.55447	121880
16.56258	109968
16.57072	101108
16.57883	101049
16.58695	100668
16.59508	108726
16.60320	124985
16.61133	126062
16.61945	131068
16.62757	130173
16.63570	124154
16.64382	106154
16.65195	97005
16.66007	81647
16.66818	79160
16.67632	78922
16.68443	73267
16.69257	69596
16.70068	73251
16.70880	68729
16.71693	64935
16.72505	58486
16.73317	63179
16.74130	62537
16.74942	64158
16.75755	65189
16.76567	66412
16.77378	72674
16.78192	69042
16.79003	68059
16.79817	63409
16.80628	55793
16.81440	53571
16.82253	56391
16.83065	52745
16.83878	53565
16.84690	55208
16.85502	50410
16.86315	50223
16.87127	51959
16.87938	48550
16.88752	49233
16.89563	46324
16.90377	44333
16.91188	45078
16.92000	48946
16.92813	53656
16.93625	51678
16.94438	49984
16.95250	49555
16.96062	43827
16.96875	48322
16.97687	49542
16.98498	49375
16.99312	47336
17.00123	48348
17.00937	45674
17.01748	50040
17.02560	49261
17.03373	49629
17.04185	47752
17.04998	53743
17.05810	54088
17.06622	55725
17.07435	60792
17.08247	61787
17.09060	69381
17.09872	78048
17.10683	84270
17.11497	102719
17.12308	108682
17.13120	101653
17.13933	105049
17.14745	104482
17.15558	94350
17.16370	83597
17.17182	78388
17.17995	77240
17.18807	62834
17.19620	56438
17.20432	56823
17.21243	53658
17.22057	52589
17.22868	55495
17.23682	50066
17.24493	56421
17.25305	51957
17.26118	50877
17.26930	53104
17.27742	48562
17.28555	47157
17.29367	48941
17.30180	49209
17.30992	50970
17.31803	56044
17.32617	68498
17.33428	75197
17.34242	87545
17.35053	96898
17.35865	100740
17.36678	103969
17.37490	95980
17.38302	91202
17.39115	81975
17.39927	82133
17.40740	82283
17.41552	81101
17.42363	83293
17.43177	80014
17.43988	80672
17.44802	76117
17.45613	77057
17.46425	70572
17.47238	65389
17.48050	62896
17.48863	60021
17.49675	54439
17.50487	53081
17.51300	48957
17.52112	55879
17.52923	57208
17.53737	51960
17.54548	52970
17.55362	58927
17.56173	69888
17.56985	93880
17.57798	133891
17.58610	213645
17.59423	331348
17.60235	449147
17.61047	535665
17.61860	569632
17.62672	502860
17.63483	401371
17.64297	326069
17.65108	288202
17.65922	277390
17.66733	282249
17.67545	282646
17.68358	266677
17.69170	221130
17.69983	183049
17.70795	164007
17.71607	131636
17.72420	120256
17.73232	114685
17.74045	108780
17.74857	104382
17.75668	99045
17.76482	98794
17.77293	93962
17.78105	87293
17.78918	88370
17.79730	95130
17.80543	111259
17.81355	148285
17.82167	193174
17.82980	235329
17.83792	248912
17.84605	243969
17.85417	220080
17.86228	189425
17.87042	183102
17.87853	151090
17.88667	131837
17.89478	109364
17.90290	99549
17.91103	90783
17.91915	80558
17.92727	77808
17.93540	74721
17.94352	71943
17.95165	68039
17.95977	66296
17.96788	61740
17.97602	62791
17.98413	59114
17.99227	62830
18.00038	62546
18.00850	65870
18.01663	75797
18.02475	91634
18.03288	110271
18.04100	124197
18.04912	133886
18.05725	168929
18.06537	241129
18.07348	432596
18.08162	731737
18.08973	1089437
18.09787	1353585
18.10598	1394255
18.11410	1231069
18.12223	929058
18.13035	666671
18.13848	500339
18.14660	398368
18.15472	339464
18.16285	290442
18.17097	260920
18.17908	242490
18.18722	221191
18.19533	199706
18.20347	189007
18.21158	172857
18.21970	158105
18.22783	159370
18.23595	145706
18.24408	140416
18.25220	133782
18.26032	123441
18.26845	124894
18.27657	109315
18.28470	90852
18.29282	84285
18.30093	73015
18.30907	67698
18.31718	65560
18.32530	62502
18.33343	56111
18.34155	60620
18.34968	50450
18.35780	56286
18.36592	58175
18.37405	60441
18.38217	69041
18.39030	76832
18.39842	93769
18.40653	127844
18.41467	183202
18.42278	231909
18.43090	273740
18.43903	295187
18.44715	283644
18.45528	264517
18.46340	269909
18.47152	266227
18.47965	274369
18.48777	276144
18.49590	252340
18.50402	225151
18.51213	178931
18.52027	142866
18.52838	120050
18.53652	104629
18.54463	96368
18.55275	85015
18.56088	82244
18.56900	74329
18.57712	71471
18.58525	77053
18.59337	84665
18.60150	82667
18.60962	88997
18.61773	92351
18.62587	95974
18.63398	101651
18.64212	99401
18.65023	98225
18.65835	84383
18.66648	83683
18.67460	73455
18.68273	73972
18.69085	70845
18.69897	80315
18.70710	101712
18.71522	129064
18.72333	144374
18.73147	153673
18.73958	161784
18.74772	164870
18.75583	163551
18.76395	165137
18.77208	169829
18.78020	175041
18.78833	174041
18.79645	175523
18.80457	171668
18.81270	173530
18.82082	176861
18.82893	174021
18.83707	167424
18.84518	178805
18.85332	173109
18.86143	179176
18.86955	172721
18.87768	186260
18.88580	185061
18.89393	184326
18.90205	176363
18.91017	174312
18.91830	176517
18.92642	178417
18.93455	175157
18.94267	185576
18.95078	185676
18.95892	183091
18.96703	187416
18.97515	176240
18.98328	179610
18.99140	180605
18.99953	168971
19.00765	168621
19.01577	162404
19.02390	166241
19.03202	157155
19.04015	153351
19.04827	148717
19.05638	154671
19.06452	163498
19.07263	196627
19.08077	257276
19.08888	344589
19.09700	472768
19.10513	590467
19.11325	630053
19.12137	582250
19.12950	513105
19.13762	402821
19.14575	316854
19.15387	263640
19.16198	227981
19.17012	198859
19.17823	189171
19.18637	179627
19.19448	165913
19.20260	158103
19.21073	160151
19.21885	153676
19.22697	152416
19.23510	136730
19.24322	133430
19.25135	139372
19.25947	132705
19.26758	139959
19.27572	140507
19.28383	136983
19.29197	132683
19.30008	146255
19.30820	144828
19.31633	144783
19.32445	141743
19.33258	134793
19.34070	140754
19.34882	142260
19.35695	164791
19.36507	178643
19.37318	207291
19.38132	213065
19.38943	219824
19.39757	192526
19.40568	171402
19.41380	161929
19.42193	145084
19.43005	139729
19.43818	130781
19.44630	133051
19.45442	137403
19.46255	143257
19.47067	149569
19.47878	161025
19.48692	192558
19.49503	248290
19.50317	319238
19.51128	383215
19.51940	411083
19.52753	368729
19.53565	320020
19.54378	253507
19.55190	202248
19.56002	174966
19.56815	151508
19.57627	138053
19.58440	128926
19.59252	127249
19.60063	122710
19.60877	118639
19.61688	113081
19.62500	114321
19.63313	127812
19.64125	138482
19.64938	174647
19.65750	215393
19.66562	274416
19.67375	333328
19.68187	366464
19.69000	358214
19.69812	340232
19.70623	309917
19.71437	281114
19.72248	249317
19.73062	226353
19.73873	202440
19.74685	189779
19.75498	174145
19.76310	163359
19.77122	159942
19.77935	168587
19.78747	186510
19.79560	206738
19.80372	222359
19.81183	226974
19.81997	215229
19.82808	189883
19.83622	161538
19.84433	149935
19.85245	155552
19.86058	220888
19.86870	403879
19.87682	808527
19.88495	1426384
19.89307	2226651
19.90120	2956755
19.90932	3222178
19.91743	3024142
19.92557	2363145
19.93368	1752525
19.94182	1248148
19.94993	890392
19.95805	715405
19.96618	603724
19.97430	519173
19.98243	483375
19.99055	450241
19.99867	427707
20.00680	406591
20.01492	394760
20.02303	379563
20.03117	348044
20.03928	331190
20.04742	315959
20.05553	292792
20.06365	292021
20.07178	307859
20.07990	336532
20.08803	359081
20.09615	352463
20.10427	338682
20.11240	289153
20.12052	244736
20.12865	215846
20.13677	201349
20.14488	219699
20.15302	278101
20.16113	428673
20.16925	625068
20.17738	956314
20.18550	1296299
20.19363	1584780
20.20175	1734968
20.20987	1697388
20.21800	1510228
20.22612	1243966
20.23425	1011266
20.24237	865781
20.25048	854443
20.25862	929992
20.26673	1124119
20.27485	1260178
20.28298	1321311
20.29110	1286631
20.29923	1161847
20.30735	964457
20.31547	743268
20.32360	561581
20.33172	425706
20.33985	330100
20.34797	252382
20.35608	210295
20.36422	186860
20.37233	158016
20.38047	137744
20.38858	130219
20.39670	128105
20.40483	111353
20.41295	113194
20.42107	115892
20.42920	119896
20.43732	123070
20.44545	131854
20.45357	139963
20.46168	151058
20.46982	160205
20.47793	162240
20.48607	157055
20.49418	147123
20.50230	128077
20.51043	115448
20.51855	102400
20.52668	93210
20.53480	92975
20.54292	89707
20.55105	87034
20.55917	85232
20.56728	88057
20.57542	80558
20.58353	78186
20.59167	81843
20.59978	77232
20.60790	78142
20.61603	77840
20.62415	82026
20.63228	82919
20.64040	80631
20.64852	86320
20.65665	88792
20.66477	87828
20.67288	85890
20.68102	81238
20.68913	76697
20.69727	76483
20.70538	72962
20.71350	72542
20.72163	67626
20.72975	70241
20.73788	69698
20.74600	70658
20.75412	72154
20.76225	75892
20.77037	77725
20.77850	84064
20.78662	119279
20.79473	179586
20.80287	271145
20.81098	384573
20.81910	490828
20.82723	516784
20.83535	477897
20.84348	374003
20.85160	272474
20.85972	186800
20.86785	138187
20.87597	118791
20.88410	98252
20.89222	94477
20.90033	96304
20.90847	104869
20.91658	114427
20.92470	121284
20.93283	140358
20.94095	139339
20.94908	138527
20.95720	130918
20.96532	125175
20.97345	105492
20.98157	93234
20.98970	87341
20.99782	82202
21.00593	85159
21.01407	79898
21.02218	72564
21.03032	79551
21.03843	79229
21.04655	74857
21.05468	81786
21.06280	78277
21.07092	74411
21.07905	82565
21.08717	76794
21.09530	73190
21.10342	73164
21.11153	68874
21.11967	71072
21.12778	69714
21.13592	90943
21.14403	118040
21.15215	152183
21.16028	189561
21.16840	221143
21.17653	216150
21.18465	182539
21.19277	158473
21.20090	131019
21.20902	110202
21.21713	95239
21.22527	91789
21.23338	81538
21.24152	80010
21.24963	77010
21.25775	70881
21.26588	68589
21.27400	68660
21.28213	71611
21.29025	67527
21.29837	65550
21.30650	63833
21.31462	64685
21.32273	62242
21.33087	59808
21.33898	63872
21.34712	64667
21.35523	63214
21.36335	60944
21.37148	66720
21.37960	69586
21.38773	75082
21.39585	87347
21.40397	93116
21.41210	109129
21.42022	112339
21.42835	101839
21.43647	98685
21.44458	84766
21.45272	83693
21.46083	72553
21.46895	72079
21.47708	71268
21.48520	71374
21.49333	71091
21.50145	72735
21.50957	67871
21.51770	70270
21.52582	69901
21.53395	66026
21.54207	64161
21.55018	64027
21.55832	65825
21.56643	62338
21.57457	65950
21.58268	73910
21.59080	79326
21.59893	77558
21.60705	83603
21.61517	87338
21.62330	93118
21.63142	97536
21.63955	108675
21.64767	110312
21.65578	111641
21.66392	119411
21.67203	112540
21.68017	108478
21.68828	111565
21.69640	103697
21.70453	89103
21.71265	84791
21.72077	74697
21.72890	70977
21.73702	70351
21.74515	67553
21.75327	65124
21.76138	68658
21.76952	74109
21.77763	75230
21.78577	81791
21.79388	81025
21.80200	90544
21.81013	97270
21.81825	102366
21.82638	95529
21.83450	101431
21.84262	101962
21.85075	101399
21.85887	97919
21.86698	93206
21.87512	90643
21.88323	81003
21.89137	73293
21.89948	73663
21.90760	73558
21.91573	70572
21.92385	66647
21.93198	68357
21.94010	61155
21.94822	64153
21.95635	59802
21.96447	55384
21.97258	54710
21.98072	54982
21.98883	51325
21.99697	52911
22.00508	58728
22.01320	51984
22.02133	56937
22.02945	58458
22.03758	66972
22.04570	65333
22.05382	57632
22.06195	60021
22.07007	59378
22.07820	58356
22.08632	60689
22.09443	58930
22.10257	58418
22.11068	58458
22.11880	54777
22.12693	56941
22.13505	56962
22.14318	59279
22.15130	54672
22.15942	57641
22.16755	56458
22.17567	49218
22.18380	57695
22.19192	55936
22.20003	54348
22.20817	55669
22.21628	59730
22.22442	59992
22.23253	63539
22.24065	64880
22.24878	60387
22.25690	61118
22.26502	64991
22.27315	70312
22.28127	67812
22.28940	71558
22.29752	77020
22.30563	78779
22.31377	82658
22.32188	76391
22.33002	80827
22.33813	78696
22.34625	71568
22.35438	72549
22.36250	65179
22.37062	61642
22.37875	61051
22.38687	73311
22.39500	85780
22.40312	106619
22.41123	139799
22.41937	158838
22.42748	163150
22.43562	168727
22.44373	149220
22.45185	121873
22.45998	104109
22.46810	94399
22.47623	85076
22.48435	89054
22.49247	96611
22.50060	110860
22.50872	120748
22.51683	126193
22.52497	138513
22.53308	128983
22.54122	113825
22.54933	107908
22.55745	94232
22.56558	87039
22.57370	82057
22.58183	74552
22.58995	73700
22.59807	65606
22.60620	59416
22.61432	59418
22.62245	56050
22.63057	60658
22.63868	61263
22.64682	57909
22.65493	61621
22.66305	64521
22.67118	67269
22.67930	70055
22.68743	68554
22.69555	76774
22.70367	82093
22.71180	88441
22.71992	92511
22.72805	94588
22.73617	94416
22.74428	87013
22.75242	83461
22.76053	75730
22.76865	67339
22.77678	72996
22.78490	72038
22.79303	92332
22.80115	101181
22.80927	105996
22.81740	114977
22.82552	112356
22.83365	99437
22.84177	96760
22.84988	92172
22.85802	91983
22.86613	105912
22.87427	109378
22.88238	132107
22.89050	157242
22.89863	167537
22.90675	186059
22.91487	179431
22.92300	174325
22.93112	160823
22.93925	153240
22.94737	135513
22.95548	115014
22.96362	110931
22.97173	95213
22.97987	82139
22.98798	81811
22.99610	74397
23.00423	75106
23.01235	69426
23.02047	69025
23.02860	65394
23.03672	66734
23.04485	61747
23.05297	67857
23.06108	67218
23.06922	68717
23.07733	76231
23.08547	70497
23.09358	68164
23.10170	68153
23.10983	65238
23.11795	65908
23.12608	65665
23.13420	64897
23.14232	65770
23.15045	64116
23.15857	64739
23.16668	67580
23.17482	72678
23.18293	71157
23.19107	76588
23.19918	72571
23.20730	70334
23.21543	71882
23.22355	71117
23.23168	74326
23.23980	73691
23.24792	72629
23.25605	76784
23.26417	81393
23.27230	83251
23.28042	79462
23.28853	79991
23.29667	73608
23.30478	65282
23.31290	74618
23.32103	76823
23.32915	81530
23.33728	95089
23.34540	116200
23.35352	136811
23.36165	159999
23.36977	178067
23.37790	198254
23.38602	202381
23.39413	201978
23.40227	202953
23.41038	205921
23.41852	198708
23.42663	190595
23.43475	198063
23.44288	185389
23.45100	179509
23.45912	170448
23.46725	166099
23.47537	153654
23.48350	152131
23.49162	142397
23.49973	141806
23.50787	131806
23.51598	125432
23.52412	127096
23.53223	116860
23.54035	118951
23.54848	113706
23.55660	114651
23.56472	123285
23.57285	144476
23.58097	181328
23.58910	226654
23.59722	289070
23.60533	310932
23.61347	317535
23.62158	293764
23.62972	245155
23.63783	207529
23.64595	193090
23.65408	176046
23.66220	186910
23.67033	192767
23.67845	186714
23.68657	164750
23.69470	148662
23.70282	126640
23.71093	117220
23.71907	101053
23.72718	97477
23.73532	92105
23.74343	100426
23.75155	134717
23.75968	251802
23.76780	490757
23.77593	935445
23.78405	1520921
23.79217	2121997
23.80030	2462258
23.80842	2368462
23.81653	2084106
23.82467	1661173
23.83278	1316460
23.84092	1001289
23.84903	786416
23.85715	610074
23.86528	503631
23.87340	427930
23.88153	381712
23.88965	343647
23.89777	315179
23.90590	302029
23.91402	284585
23.92215	262261
23.93027	242116
23.93838	229647
23.94652	216674
23.95463	202096
23.96275	181720
23.97088	179877
23.97900	169937
23.98713	163014
23.99525	175041
24.00337	212355
24.01150	301404
24.01962	497271
24.02775	702167
24.03587	905983
24.04398	983917
24.05212	909035
24.06023	713844
24.06837	483077
24.07648	328685
24.08460	243715
24.09273	190528
24.10085	158036
24.10897	142050
24.11710	140984
24.12522	137681
24.13335	142129
24.14147	151355
24.14958	160191
24.15772	160727
24.16583	160465
24.17397	158784
24.18208	151909
24.19020	152769
24.19833	161944
24.20645	159603
24.21457	155116
24.22270	143483
24.23082	131603
24.23895	123746
24.24707	114761
24.25518	104209
24.26332	106470
24.27143	94779
24.27957	90958
24.28768	91598
24.29580	93611
24.30393	89452
24.31205	90862
24.32018	93430
24.32830	97258
24.33642	93434
24.34455	88727
24.35267	91537
24.36078	91305
24.36892	93151
24.37703	105121
24.38517	138605
24.39328	171602
24.40140	196923
24.40953	216117
24.41765	194430
24.42578	165315
24.43390	126603
24.44202	103487
24.45015	94151
24.45827	88891
24.46640	98447
24.47452	99474
24.48263	105003
24.49077	116569
24.49888	118222
24.50700	120372
24.51513	127458
24.52325	123128
24.53138	122921
24.53950	130570
24.54762	134729
24.55575	149017
24.56387	145376
24.57200	142337
24.58012	129059
24.58823	115719
24.59637	104832
24.60448	89592
24.61260	87108
24.62073	81634
24.62885	84008
24.63698	83536
24.64510	75634
24.65322	75459
24.66135	78651
24.66947	84619
24.67760	85449
24.68572	93488
24.69383	99348
24.70197	101905
24.71008	104610
24.71822	101211
24.72633	100622
24.73445	103362
24.74258	105173
24.75070	106708
24.75882	109486
24.76695	112077
24.77507	112701
24.78320	112324
24.79132	125881
24.79943	120372
24.80757	121406
24.81568	120984
24.82382	128919
24.83193	133438
24.84005	148419
24.84818	174059
24.85630	215553
24.86442	279714
24.87255	358259
24.88067	444757
24.88880	554299
24.89692	601458
24.90503	580600
24.91317	506346
24.92128	397615
24.92942	304553
24.93753	225205
24.94565	179849
24.95378	146660
24.96190	133279
24.97003	120726
24.97815	120245
24.98627	117582
24.99440	111240
25.00252	117436
25.01063	115059
25.01877	116949
25.02688	112165
25.03502	115573
25.04313	116071
25.05125	119378
25.05938	110351
25.06750	122027
25.07563	109893
25.08375	120351
25.09187	132084
25.10000	167241
25.10812	282114
25.11625	529207
25.12437	1015473
25.13248	1762814
25.14062	2539264
25.14873	3029384
25.15685	3110048
25.16498	2709909
25.17310	2029973
25.18123	1348685
25.18935	831732
25.19747	511951
25.20560	342356
25.21372	247529
25.22185	200898
25.22997	179198
25.23808	180463
25.24622	195270
25.25433	207690
25.26245	230310
25.27058	244306
25.27870	247622
25.28683	233730
25.29495	198585
25.30307	170632
25.31120	150210
25.31932	125743
25.32745	112540
25.33557	103296
25.34368	98813
25.35182	90440
25.35993	89497
25.36807	87808
25.37618	77803
25.38430	76502
25.39243	75795
25.40055	73055
25.40867	70776
25.41680	72703
25.42492	72298
25.43305	69041
25.44117	73819
25.44928	68962
25.45742	71622
25.46553	71889
25.47367	71623
25.48178	71787
25.48990	71779
25.49803	75917
25.50615	66830
25.51428	71178
25.52240	66031
25.53052	63396
25.53865	67617
25.54677	65571
25.55488	63071
25.56302	64440
25.57113	64243
25.57927	63303
25.58738	63461
25.59550	67271
25.60363	67890
25.61175	72306
25.61988	64279
25.62800	66266
25.63612	60790
25.64425	67386
25.65237	67016
25.66048	77714
25.66862	97974
25.67673	114866
25.68487	136094
25.69298	151043
25.70110	154139
25.70923	156601
25.71735	163439
25.72548	160661
25.73360	157801
25.74172	166722
25.74985	159322
25.75797	154923
25.76610	157865
25.77422	170715
25.78233	171843
25.79047	166773
25.79858	169840
25.80670	167879
25.81483	170059
25.82295	172566
25.83108	179959
25.83920	184639
25.84732	197927
25.85545	200845
25.86357	205138
25.87170	192540
25.87982	183498
25.88793	172008
25.89607	164807
25.90418	158305
25.91232	157610
25.92043	149384
25.92855	146468
25.93668	149624
25.94480	147131
25.95292	141909
25.96105	146126
25.96917	144407
25.97730	134472
25.98542	133640
25.99353	138870
26.00167	135838
26.00978	132372
26.01792	127720
26.02603	122561
26.03415	125882
26.04228	126126
26.05040	121503
26.05852	123068
26.06665	130254
26.07477	133411
26.08290	128881
26.09102	124397
26.09913	131151
26.10727	126925
26.11538	127932
26.12352	121057
26.13163	130136
26.13975	135186
26.14788	142010
26.15600	142075
26.16413	137373
26.17225	141200
26.18037	129754
26.18850	128325
26.19662	123375
26.20473	118574
26.21287	113956
26.22098	108739
26.22912	108363
26.23723	106008
26.24535	107128
26.25348	109848
26.26160	97694
26.26973	100805
26.27785	97693
26.28597	93698
26.29410	93794
26.30222	94612
26.31033	96014
26.31847	94616
26.32658	91065
26.33472	93698
26.34283	95370
26.35095	107113
26.35908	138959
26.36720	194961
26.37533	280485
26.38345	402384
26.39157	547497
26.39970	639468
26.40782	656611
26.41595	620126
26.42407	531965
26.43218	418075
26.44032	314855
26.44843	220362
26.45655	167869
26.46468	137493
26.47280	116616
26.48093	111398
26.48905	110213
26.49717	103808
26.50530	89556
26.51342	88158
26.52155	84191
26.52967	79477
26.53778	77241
26.54592	75235
26.55403	74961
26.56217	79549
26.57028	74639
26.57840	74535
26.58653	75738
26.59465	79482
26.60277	74851
26.61090	71976
26.61902	70914
26.62715	72262
26.63527	69248
26.64338	70507
26.65152	73455
26.65963	73950
26.66777	74839
26.67588	80111
26.68400	75857
26.69213	76270
26.70025	76138
26.70837	69299
26.71650	63877
26.72462	69332
26.73275	67817
26.74087	63327
26.74898	66940
26.75712	68947
26.76523	66357
26.77337	68072
26.78148	68182
26.78960	68550
26.79773	68203
26.80585	64894
26.81398	67630
26.82210	69827
26.83022	68187
26.83835	65649
26.84647	62846
26.85458	66373
26.86272	62849
26.87083	64724
26.87897	59197
26.88708	63309
26.89520	61487
26.90333	58571
26.91145	60658
26.91958	60985
26.92770	63632
26.93582	61289
26.94395	55998
26.95207	60307
26.96020	62908
26.96832	67912
26.97643	79608
26.98457	115279
26.99268	165006
27.00080	242037
27.00893	342317
27.01705	453383
27.02518	531585
27.03330	564547
27.04142	572744
27.04955	539434
27.05767	480225
27.06580	394213
27.07392	342589
27.08203	279928
27.09017	231610
27.09828	204760
27.10640	187629
27.11453	173629
27.12265	165614
27.13078	155059
27.13890	141707
27.14702	140149
27.15515	139783
27.16327	143816
27.17140	146728
27.17952	152780
27.18763	163893
27.19577	159681
27.20388	154034
27.21202	144243
27.22013	132048
27.22825	120403
27.23638	116693
27.24450	108903
27.25262	108622
27.26075	107329
27.26887	107238
27.27700	98872
27.28512	96762
27.29323	94470
27.30137	89471
27.30948	86881
27.31762	87715
27.32573	89702
27.33385	86111
27.34198	83676
27.35010	95499
27.35822	85197
27.36635	85092
27.37447	83516
27.38260	79871
27.39072	80756
27.39883	85765
27.40697	78587
27.41508	79405
27.42322	78994
27.43133	82538
27.43945	77927
27.44758	80077
27.45570	72393
27.46383	71850
27.47195	73569
27.48007	71945
27.48820	67800
27.49632	66740
27.50443	66585
27.51257	69750
27.52068	68678
27.52882	76571
27.53693	70479
27.54505	68939
27.55318	70942
27.56130	72400
27.56943	65719
27.57755	78483
27.58567	81991
27.59380	94664
27.60192	98907
27.61005	98866
27.61817	102696
27.62628	96456
27.63442	86147
27.64253	82587
27.65065	75577
27.65878	72858
27.66690	74958
27.67503	77633
27.68315	78078
27.69127	76898
27.69940	77972
27.70752	75603
27.71565	73441
27.72377	71114
27.73188	70701
27.74002	63006
27.74813	60901
27.75627	59987
27.76438	59549
27.77250	64304
27.78063	65218
27.78875	61570
27.79687	67765
27.80500	61602
27.81312	64151
27.82125	64590
27.82937	62394
27.83748	62560
27.84562	58558
27.85373	63200
27.86187	61684
27.86998	62532
27.87810	58302
27.88623	54946
27.89435	59696
27.90247	57580
27.91060	56674
27.91872	59142
27.92685	54652
27.93497	58571
27.94308	60196
27.95122	52416
27.95933	53026
27.96747	55069
27.97558	58814
27.98370	54585
27.99183	60971
27.99995	59352
28.00808	58485
28.01620	72147
28.02432	79557
28.03245	89134
28.04057	109098
28.04868	123887
28.05682	126571
28.06493	123786
28.07307	107077
28.08118	98985
28.08930	86291
28.09743	80222
28.10555	74690
28.11368	74030
28.12180	64374
28.12992	64191
28.13805	63535
28.14617	55015
28.15428	58590
28.16242	60538
28.17053	55486
28.17867	54773
28.18678	63040
28.19490	71748
28.20303	78718
28.21115	85565
28.21928	96501
28.22740	99347
28.23552	97754
28.24365	95826
28.25177	79754
28.25990	72995
28.26802	69454
28.27613	63390
28.28427	61453
28.29238	63313
28.30050	71406
28.30863	86444
28.31675	93333
28.32488	98528
28.33300	111834
28.34112	126904
28.34925	134471
28.35737	145178
28.36550	161746
28.37362	172122
28.38173	181947
28.38987	182603
28.39798	191160
28.40612	186421
28.41423	181807
28.42235	172296
28.43048	171457
28.43860	149633
28.44672	144876
28.45485	136530
28.46297	123549
28.47110	121870
28.47922	119566
28.48733	116859
28.49547	117381
28.50358	118158
28.51172	115888
28.51983	112785
28.52795	109972
28.53608	99554
28.54420	87784
28.55232	89670
28.56045	85067
28.56857	71666
28.57670	74341
28.58482	74665
28.59293	75788
28.60107	74551
28.60918	80966
28.61732	79725
28.62543	83181
28.63355	85600
28.64168	88915
28.64980	86616
28.65793	91641
28.66605	89675
28.67417	85787
28.68230	81091
28.69042	77389
28.69853	75049
28.70667	73690
28.71478	65399
28.72292	70954
28.73103	64790
28.73915	67481
28.74728	72497
28.75540	85106
28.76353	93242
28.77165	109486
28.77977	115618
28.78790	120942
28.79602	110012
28.80415	98318
28.81227	83248
28.82038	84764
28.82852	77880
28.83663	72739
28.84475	71639
28.85288	72523
28.86100	71546
28.86913	73863
28.87725	69074
28.88537	75923
28.89350	78918
28.90162	77390
28.90975	79837
28.91787	76490
28.92598	73007
28.93412	73550
28.94223	71323
28.95035	74545
28.95848	69962
28.96660	73131
28.97473	72644
28.98285	66574
28.99097	65902
28.99910	66243
29.00722	64237
29.01535	60791
29.02347	56314
29.03158	56276
29.03972	57549
29.04783	60691
29.05597	60408
29.06408	55608
29.07220	62130
29.08033	64462
29.08845	65389
29.09657	59613
29.10470	57430
29.11282	58628
29.12095	58986
29.12907	60200
29.13718	53406
29.14532	57459
29.15343	56487
29.16157	57189
29.16968	57389
29.17780	57582
29.18593	67047
29.19405	70954
29.20217	75958
29.21030	96034
29.21842	110327
29.22655	140524
29.23467	189620
29.24278	283671
29.25092	446593
29.25903	627991
29.26717	778910
29.27528	811073
29.28340	743015
29.29153	584056
29.29965	382337
29.30778	232354
29.31590	148455
29.32402	95632
29.33215	71845
29.34027	69790
29.34838	61802
29.35652	61083
29.36463	59913
29.37277	58768
29.38088	61442
29.38900	59482
29.39713	61697
29.40525	59835
29.41338	60534
29.42150	62855
29.42962	62424
29.43775	64852
29.44587	59921
29.45400	64540
29.46212	59138
29.47023	58957
29.47837	56507
29.48648	58904
29.49460	58019
29.50273	64064
29.51085	60397
29.51898	59185
29.52710	55483
29.53522	57919
29.54335	53880
29.55147	56634
29.55960	55782
29.56772	56517
29.57583	52722
29.58397	51858
29.59208	52719
29.60020	51572
29.60833	55241
29.61645	51821
29.62458	48565
29.63270	51408
29.64082	49742
29.64895	52243
29.65707	52796
29.66520	50296
29.67332	52333
29.68143	55824
29.68957	55613
29.69768	53887
29.70582	53952
29.71393	57413
29.72205	60500
29.73018	56202
29.73830	63745
29.74642	55066
29.75455	57259
29.76267	55955
29.77080	51357
29.77892	52409
29.78703	49822
29.79517	48846
29.80328	47864
29.81142	48755
29.81953	48658
29.82765	45683
29.83578	53482
29.84390	48857
29.85203	48272
29.86015	47153
29.86827	48702
29.87640	59229
29.88452	63453
29.89263	73440
29.90077	85633
29.90888	84618
29.91702	83403
29.92513	75225
29.93325	68208
29.94138	58011
29.94950	61746
29.95763	63103
29.96575	67344
29.97387	78181
29.98200	89634
29.99012	99434
29.99823	111882
30.00637	118829
30.01448	125507
30.02262	127920
30.03073	123900
30.03885	127099
30.04698	123958
30.05510	121379
30.06323	117654
30.07135	112707
30.07947	110368
30.08760	114537
30.09572	108619
30.10385	102115
30.11197	105036
30.12008	100769
30.12822	99580
30.13633	90834
30.14445	95598
30.15258	88976
30.16070	89150
30.16883	90032
30.17695	85289
30.18507	86888
30.19320	91270
30.20132	91022
30.20945	92648
30.21757	89895
30.22568	89172
30.23382	83274
30.24193	78493
30.25007	70622
30.25818	74819
30.26630	66024
30.27443	60231
30.28255	67955
30.29067	63230
30.29880	62600
30.30692	57735
30.31505	61077
30.32317	61249
30.33128	64250
30.33942	61773
30.34753	62269
30.35567	56210
30.36378	58160
30.37190	62909
30.38003	59726
30.38815	58795
30.39627	54992
30.40440	53664
30.41252	57091
30.42065	58883
30.42877	56724
30.43688	51665
30.44502	53741
30.45313	53000
30.46127	50632
30.46938	52380
30.47750	51374
30.48563	54351
30.49375	54284
30.50188	53381
30.51000	51825
30.51812	49978
30.52625	49006
30.53437	52268
30.54248	48825
30.55062	50941
30.55873	52865
30.56687	52550
30.57498	54824
30.58310	56131
30.59123	57281
30.59935	49822
30.60748	50726
30.61560	51875
30.62372	60269
30.63185	54429
30.63997	50249
30.64808	51269
30.65622	54037
30.66433	45486
30.67247	51823
30.68058	49399
30.68870	55393
30.69683	48731
30.70495	43623
30.71308	50432
30.72120	52471
30.72932	47718
30.73745	49848
30.74557	50907
30.75370	52063
30.76182	47900
30.76993	51963
30.77807	55183
30.78618	66356
30.79430	72330
30.80243	78179
30.81055	94882
30.81868	94235
30.82680	93993
30.83492	84114
30.84305	76518
30.85117	71312
30.85930	70909
30.86742	73409
30.87553	80175
30.88367	77537
30.89178	80390
30.89992	82620
30.90803	86556
30.91615	78447
30.92428	77882
30.93240	73489
30.94052	83142
30.94865	74941
30.95677	75434
30.96490	71508
30.97302	80819
30.98113	76538
30.98927	71829
30.99738	79539
31.00552	73842
31.01363	74904
31.02175	77536
31.02988	79779
31.03800	80213
31.04612	82259
31.05425	81046
31.06237	75056
31.07050	77875
31.07862	83737
31.08673	90825
31.09487	98927
31.10298	102911
31.11112	101319
31.11923	106856
31.12735	94368
31.13548	89664
31.14360	86231
31.15173	78888
31.15985	86414
31.16797	83235
31.17610	88551
31.18422	88749
31.19233	105236
31.20047	116832
31.20858	135139
31.21672	162923
31.22483	171135
31.23295	176830
31.24108	166453
31.24920	144234
31.25733	120764
31.26545	101448
31.27357	91298
31.28170	76613
31.28982	73192
31.29795	74854
31.30607	73354
31.31418	72657
31.32232	68278
31.33043	68005
31.33855	73678
31.34668	72193
31.35480	70176
31.36293	68931
31.37105	76820
31.37917	68662
31.38730	68784
31.39542	72323
31.40355	73482
31.41167	67326
31.41978	65011
31.42792	69092
31.43603	66610
31.44415	66617
31.45228	63697
31.46040	59980
31.46853	63857
31.47665	60694
31.48477	61267
31.49290	66696
31.50102	75047
31.50915	71606
31.51727	76066
31.52538	75906
31.53352	76147
31.54163	76579
31.54977	71947
31.55788	68803
31.56600	65442
31.57413	59745
31.58225	62769
31.59037	63085
31.59850	63624
31.60662	59401
31.61475	59075
31.62287	62085
31.63098	64123
31.63912	61542
31.64723	68728
31.65537	64871
31.66348	65955
31.67160	63780
31.67973	62405
31.68785	66418
31.69597	64431
31.70410	62570
31.71222	64613
31.72035	62576
31.72847	57462
31.73658	54755
31.74472	58763
31.75283	55111
31.76097	60132
31.76908	57607
31.77720	54220
31.78533	58413
31.79345	56996
31.80158	57930
31.80970	61064
31.81782	57464
31.82595	56383
31.83407	59808
31.84218	60589
31.85032	56273
31.85843	62808
31.86657	61209
31.87468	58424
31.88280	62255
31.89093	66790
31.89905	67592
31.90718	71996
31.91530	79168
31.92342	79751
31.93155	81543
31.93967	87793
31.94780	92271
31.95592	96635
31.96403	99028
31.97217	101056
31.98028	103735
31.98840	105548
31.99653	108381
32.00465	113253
32.01278	115121
32.02090	113219
32.02902	101967
32.03715	94218
32.04527	93728
32.05340	90492
32.06152	89939
32.06963	87483
32.07777	88770
32.08588	84429
32.09402	81493
32.10213	82977
32.11025	70826
32.11838	75121
32.12650	72135
32.13462	73267
32.14275	65995
32.15087	69152
32.15900	71250
32.16712	70678
32.17523	63610
32.18337	64973
32.19148	64348
32.19962	62924
32.20773	58332
32.21585	63709
32.22398	64391
32.23210	61013
32.24022	62008
32.24835	61496
32.25647	63992
32.26460	63619
32.27272	67130
32.28083	64442
32.28897	64110
32.29708	61769
32.30522	67525
32.31333	62158
32.32145	58937
32.32958	61859
32.33770	61539
32.34583	57536
32.35395	58370
32.36207	66794
32.37020	62296
32.37832	65543
32.38643	60166
32.39457	67127
32.40268	67450
32.41082	63042
32.41893	57362
32.42705	62619
32.43518	57601
32.44330	58800
32.45143	55529
32.45955	57162
32.46767	56940
32.47580	55536
32.48392	56926
32.49203	61749
32.50017	52308
32.50828	55561
32.51642	54740
32.52453	52723
32.53265	50419
32.54078	55566
32.54890	57662
32.55703	53172
32.56515	54214
32.57327	58279
32.58140	56491
32.58952	57740
32.59765	51940
32.60577	53277
32.61388	49766
32.62202	54923
32.63013	53826
32.63825	54929
32.64638	58799
32.65450	65883
32.66263	72823
32.67075	84221
32.67887	84195
32.68700	76760
32.69512	75337
32.70325	68405
32.71137	71766
32.71948	63853
32.72762	62372
32.73573	59021
32.74387	59992
32.75198	56665
32.76010	53773
32.76823	55748
32.77635	59160
32.78447	53336
32.79260	50597
32.80072	55315
32.80885	62061
32.81697	58950
32.82508	58009
32.83322	56936
32.84133	51242
32.84947	52567
32.85758	58592
32.86570	58772
32.87383	56809
32.88195	64774
32.89007	68236
32.89820	78895
32.90632	77415
32.91445	76285
32.92257	75236
32.93068	72256
32.93882	65946
32.94693	62909
32.95507	58331
32.96318	60606
32.97130	59796
32.97943	61840
32.98755	66938
32.99568	71869
33.00380	78923
33.01192	83771
33.02005	82571
33.02817	77650
33.03628	66193
33.04442	63397
33.05253	61841
33.06067	69030
33.06878	66905
33.07690	75222
33.08503	78400
33.09315	85568
33.10128	93380
33.10940	98940
33.11752	100210
33.12565	98138
33.13377	95682
33.14190	84121
33.15002	71662
33.15813	69962
33.16627	62685
33.17438	61396
33.18250	62659
33.19063	64634
33.19875	62134
33.20688	62069
33.21500	55081
33.22312	60596
33.23125	64320
33.23937	60802
33.24750	63078
33.25562	57242
33.26373	59500
33.27187	54548
33.27998	58616
33.28810	60027
33.29623	53518
33.30435	60465
33.31248	59503
33.32060	56175
33.32872	59363
33.33685	58312
33.34497	62035
33.35310	64374
33.36122	67530
33.36933	65894
33.37747	65756
33.38558	60151
33.39372	61970
33.40183	63312
33.40995	54052
33.41808	58511
33.42620	51580
33.43432	49307
33.44245	55050
33.45057	53666
33.45870	54754
33.46682	49088
33.47493	57020
33.48307	55854
33.49118	56599
33.49932	57801
33.50743	55980
33.51555	60833
33.52368	59579
33.53180	58951
33.53992	61812
33.54805	67090
33.55617	63255
33.56430	65598
33.57242	66880
33.58053	63433
33.58867	64885
33.59678	56430
33.60492	56312
33.61303	56921
33.62115	53685
33.62928	58471
33.63740	59101
33.64553	59671
33.65365	62546
33.66177	65247
33.66990	63047
33.67802	60985
33.68613	59750
33.69427	54858
33.70238	56281
33.71052	51986
33.71863	56670
33.72675	55273
33.73488	54939
33.74300	51383
33.75113	59478
33.75925	56769
33.76737	56082
33.77550	55278
33.78362	51131
33.79175	52597
33.79987	55935
33.80798	53629
33.81612	51266
33.82423	53907
33.83235	53307
33.84048	55236
33.84860	55786
33.85673	60390
33.86485	53530
33.87297	62740
33.88110	56665
33.88922	52966
33.89735	53067
33.90547	54991
33.91358	58512
33.92172	54053
33.92983	55289
33.93795	56355
33.94608	58864
33.95420	56042
33.96233	57067
33.97045	54490
33.97857	54001
33.98670	53317
33.99482	50113
34.00295	55045
34.01107	57971
34.01918	55646
34.02732	54586
34.03543	52283
34.04357	56087
34.05168	58412
34.05980	58728
34.06793	54711
34.07605	57086
34.08417	56197
34.09230	54427
34.10042	59031
34.10855	52294
34.11667	57670
34.12478	55688
34.13292	57714
34.14103	56528
34.14917	57220
34.15728	56105
34.16540	61158
34.17353	55557
34.18165	58305
34.18978	58684
34.19790	57691
34.20602	57159
34.21415	58365
34.22227	56867
34.23038	58308
34.23852	61388
34.24663	56812
34.25477	60923
34.26288	55028
34.27100	55931
34.27913	56461
34.28725	54766
34.29538	59822
34.30350	58650
34.31162	59579
34.31975	57841
34.32787	58288
34.33598	58517
34.34412	58067
34.35223	57617
34.36037	58343
34.36848	57374
34.37660	52661
34.38473	59563
34.39285	55529
34.40098	60014
34.40910	55280
34.41722	57519
34.42535	57681
34.43347	58344
34.44160	54285
34.44972	61019
34.45783	54821
34.46597	55394
34.47408	53003
34.48220	55020
34.49033	55544
34.49845	54465
34.50658	58868
34.51470	68246
34.52282	74226
34.53095	88142
34.53907	95004
34.54720	98861
34.55532	107175
34.56343	114810
34.57157	111939
34.57968	105316
34.58780	100382
34.59593	91852
34.60405	91380
34.61218	81960
34.62030	79022
34.62842	79516
34.63655	77767
34.64467	74978
34.65280	75096
34.66092	74791
34.66903	66545
34.67717	70069
34.68528	64661
34.69342	64215
34.70153	63008
34.70965	66437
34.71778	62155
34.72590	58287
34.73402	64440
34.74215	65915
34.75027	69623
34.75840	62931
34.76652	67302
34.77463	64952
34.78277	69039
34.79088	65830
34.79902	70989
34.80713	72513
34.81525	71135
34.82338	78101
34.83150	72362
34.83963	70769
34.84775	69130
34.85587	72561
34.86400	72334
34.87212	65789
34.88023	68806
34.88837	68232
34.89648	66836
34.90462	66943
34.91273	67198
34.92085	65492
34.92898	66007
34.93710	71095
34.94523	73542
34.95335	71976
34.96147	71762
34.96960	74707
34.97772	72508
34.98583	76245
34.99397	74546
35.00208	73465
35.01022	72056
35.01833	65533
35.02645	69036
35.03458	66356
35.04270	61213
35.05083	64431
35.05895	67315
35.06707	65189
35.07520	62898
35.08332	67148
35.09145	59676
35.09957	62261
35.10768	64040
35.11582	61428
35.12393	63505
35.13205	60237
35.14018	61576
35.14830	62422
35.15643	63079
35.16455	66835
35.17267	67832
35.18080	64767
35.18892	58214
35.19705	61881
35.20517	60203
35.21328	61307
35.22142	58756
35.22953	58981
35.23767	58929
35.24578	60675
35.25390	56759
35.26203	56206
35.27015	59823
35.27827	60670
35.28640	59441
35.29452	59769
35.30265	60815
35.31077	56985
35.31888	58122
35.32702	60377
35.33513	58409
35.34327	57717
35.35138	59717
35.35950	60798
35.36763	60174
35.37575	62842
35.38387	59121
35.39200	59185
35.40012	65234
35.40825	69461
35.41637	72584
35.42448	78744
35.43262	77433
35.44073	81664
35.44887	78284
35.45698	75111
35.46510	73783
35.47323	66420
35.48135	65577
35.48948	69473
35.49760	66833
35.50572	68711
35.51385	71899
35.52197	63079
35.53008	63408
35.53822	62470
35.54633	60307
35.55447	59669
35.56258	57356
35.57070	60432
35.57883	56240
35.58695	63053
35.59508	61534
35.60320	62090
35.61132	63437
35.61945	61963
35.62757	60686
35.63570	57574
35.64382	59625
35.65193	60050
35.66007	62704
35.66818	63356
35.67630	64625
35.68443	66645
35.69255	76313
35.70068	63932
35.70880	62268
35.71692	65401
35.72505	64938
35.73317	67504
35.74130	68161
35.74942	71451
35.75753	80868
35.76567	77346
35.77378	83356
35.78190	75449
35.79003	78999
35.79815	71042
35.80628	70174
35.81440	63177
35.82252	64684
35.83065	67262
35.83877	64677
35.84690	64393
35.85502	63013
35.86313	65991
35.87127	60888
35.87938	62925
35.88752	62758
35.89563	63157
35.90375	57036
35.91188	56462
35.92000	60118
35.92812	61842
35.93625	65529
35.94437	60636
35.95250	61986
35.96062	58762
35.96873	60781
35.97687	61704
35.98498	63590
35.99312	62872
36.00123	66461
36.00935	66574
36.01748	69707
36.02560	68039
36.03372	72800
36.04185	67606
36.04997	66901
36.05810	62768
36.06622	66390
36.07433	63438
36.08247	66525
36.09058	66807
36.09872	69627
36.10683	64132
36.11495	69507
36.12308	67116
36.13120	67302
36.13933	69358
36.14745	69636
36.15557	72023
36.16370	72997
36.17182	73740
36.17993	70095
36.18807	65493
36.19618	66215
36.20432	63764
36.21243	61042
36.22055	64225
36.22868	56964
36.23680	59742
36.24493	65883
36.25305	62713
36.26117	66230
36.26930	65507
36.27742	63441
36.28555	68858
36.29367	74230
36.30178	80180
36.30992	89744
36.31803	91834
36.32615	96586
36.33428	97380
36.34240	94226
36.35053	87081
36.35865	88064
36.36677	82563
36.37490	80543
36.38302	81960
36.39115	82691
36.39927	82744
36.40738	81562
36.41552	83997
36.42363	78707
36.43175	82289
36.43988	79193
36.44800	80911
36.45613	81252
36.46425	80862
36.47237	79228
36.48050	78610
36.48862	76559
36.49675	79607
36.50487	78043
36.51298	82767
36.52112	83345
36.52923	82026
36.53737	78040
36.54548	80087
36.55360	76026
36.56173	74342
36.56985	81256
36.57797	79979
36.58610	77252
36.59422	70938
36.60235	73509
36.61047	78414
36.61858	78390
36.62672	76301
36.63483	72635
36.64297	78012
36.65108	77156
36.65920	76384
36.66733	77600
36.67545	81903
36.68358	82742
36.69170	73919
36.69982	77399
36.70795	78800
36.71607	76758
36.72418	76817
36.73232	73451
36.74043	73019
36.74857	71491
36.75668	76849
36.76480	72153
36.77293	75470
36.78105	75993
36.78918	72608
36.79730	71594
36.80542	77356
36.81355	76281
36.82167	74634
36.82978	73850
36.83792	72706
36.84603	74590
36.85417	75938
36.86228	67830
36.87040	73440
36.87853	74901
36.88665	72787
36.89478	74343
36.90290	72272
36.91102	67919
36.91915	69697
36.92727	72107
36.93540	75054
36.94352	78555
36.95163	83830
36.95977	81650
36.96788	85044
36.97600	88315
36.98413	92888
36.99225	84431
37.00038	82681
37.00850	82417
37.01662	71954
37.02475	69599
37.03287	70518
37.04100	72372
37.04912	79451
37.05723	78705
37.06537	79851
37.07348	78003
37.08160	81385
37.08973	79541
37.09785	82744
37.10598	79385
37.11410	80642
37.12222	75159
37.13035	83217
37.13847	79038
37.14660	73032
37.15472	77250
37.16283	75537
37.17097	71821
37.17908	72101
37.18722	73980
37.19533	74198
37.20345	75419
37.21158	77772
37.21970	78011
37.22782	76536
37.23595	79580
37.24407	74873
37.25220	72293
37.26032	70603
37.26843	69289
37.27657	69036
37.28468	76317
37.29282	75349
37.30093	68127
37.30905	80942
37.31718	85064
37.32530	82661
37.33343	89092
37.34155	95791
37.34967	105335
37.35780	110381
37.36592	102471
37.37403	106273
37.38217	104708
37.39028	102351
37.39842	104716
37.40653	99081
37.41465	94465
37.42278	91322
37.43090	90261
37.43903	90413
37.44715	95248
37.45527	86396
37.46340	86094
37.47152	88307
37.47965	89281
37.48777	84995
