D:\MassHunter\GCMS\1\data\JTB-E02\BACandSTRAW\JTB-E02-207-16.D Wed Mar 13 16:11:23 2019
Start of data points
2.09528	154600
2.10340	147764
2.11152	153304
2.11965	154700
2.12777	151517
2.13588	146377
2.14402	145982
2.15213	148438
2.16027	133804
2.16838	130179
2.17650	136941
2.18463	125687
2.19275	118367
2.20088	112843
2.20900	109241
2.21712	102507
2.22525	106165
2.23337	99817
2.24150	102849
2.24962	97426
2.25773	98767
2.26587	95155
2.27398	96368
2.28210	90608
2.29023	92192
2.29835	89722
2.30648	88328
2.31460	93457
2.32272	93213
2.33085	87161
2.33897	102992
2.34710	91134
2.35522	98286
2.36333	89040
2.37147	86526
2.37958	84830
2.38772	91079
2.39583	170595
2.40395	452332
2.41208	889609
2.42020	858922
2.42832	432524
2.43645	259708
2.44457	239069
2.45270	221310
2.46082	208981
2.46893	199703
2.47707	192084
2.48518	183101
2.49332	176505
2.50143	169646
2.50955	171279
2.51768	167320
2.52580	163012
2.53393	164768
2.54205	168796
2.55017	163900
2.55830	158680
2.56642	163603
2.57453	153386
2.58267	162600
2.59078	162930
2.59892	155618
2.60703	157734
2.61515	155857
2.62328	158899
2.63140	159750
2.63953	156127
2.64765	156064
2.65577	146270
2.66390	152185
2.67202	145475
2.68013	153893
2.68827	148001
2.69638	153481
2.70452	147182
2.71263	139780
2.72075	145997
2.72888	140694
2.73700	139313
2.74513	139347
2.75325	138375
2.76137	143635
2.76950	145009
2.77762	137989
2.78575	138835
2.79387	138127
2.80198	134568
2.81012	134945
2.81823	136215
2.82635	141637
2.83448	134539
2.84260	134340
2.85073	137495
2.85885	134154
2.86697	128686
2.87510	133295
2.88322	132700
2.89135	127459
2.89947	132412
2.90758	130322
2.91572	123763
2.92383	123985
2.93197	126733
2.94008	123472
2.94820	123267
2.95633	127664
2.96445	133896
2.97257	126375
2.98070	127436
2.98882	122351
2.99695	129318
3.00507	120346
3.01318	125256
3.02132	118705
3.02943	123900
3.03757	122590
3.04568	126352
3.05380	125401
3.06193	122547
3.07005	118572
3.07817	120164
3.08630	114638
3.09442	116109
3.10255	118556
3.11067	118762
3.11878	120056
3.12692	114780
3.13503	114939
3.14317	119343
3.15128	120910
3.15940	122086
3.16753	116089
3.17565	111019
3.18378	114957
3.19190	117167
3.20002	112466
3.20815	115723
3.21627	106880
3.22438	108981
3.23252	116961
3.24063	115639
3.24877	110665
3.25688	114134
3.26500	112336
3.27313	112915
3.28125	132794
3.28938	176409
3.29750	211801
3.30562	186246
3.31375	152278
3.32187	146213
3.33000	130370
3.33812	131812
3.34623	122377
3.35437	130587
3.36248	130626
3.37060	169396
3.37873	248277
3.38685	233948
3.39498	180288
3.40310	146734
3.41122	130578
3.41935	132896
3.42747	126389
3.43560	121755
3.44372	118104
3.45183	124896
3.45997	130692
3.46808	161144
3.47620	248652
3.48433	349155
3.49245	361971
3.50058	297702
3.50870	246133
3.51682	222036
3.52495	194308
3.53307	183218
3.54120	168203
3.54932	164816
3.55743	159034
3.56557	145207
3.57368	143102
3.58182	138910
3.58993	135225
3.59805	127539
3.60618	122896
3.61430	121764
3.62242	124618
3.63055	118756
3.63867	121787
3.64680	116025
3.65492	115851
3.66303	112696
3.67117	116861
3.67928	113897
3.68742	113895
3.69553	113990
3.70365	105609
3.71178	106886
3.71990	106626
3.72803	111950
3.73615	112100
3.74427	112000
3.75240	107679
3.76052	107926
3.76863	111815
3.77677	111213
3.78488	110911
3.79302	106842
3.80113	105632
3.80925	109173
3.81738	104699
3.82550	109244
3.83363	102359
3.84175	101406
3.84987	104494
3.85800	103508
3.86612	103861
3.87425	108968
3.88237	141078
3.89048	148590
3.89862	132243
3.90673	119408
3.91485	106615
3.92298	101584
3.93110	106932
3.93923	100071
3.94735	102935
3.95547	101756
3.96360	101478
3.97172	97622
3.97985	100896
3.98797	111180
3.99608	132984
4.00422	162465
4.01233	158407
4.02045	147696
4.02858	122860
4.03670	110999
4.04483	110001
4.05295	106641
4.06107	102116
4.06920	103928
4.07732	102761
4.08545	101123
4.09357	101530
4.10168	100091
4.10982	105259
4.11793	104135
4.12607	100205
4.13418	101393
4.14230	95384
4.15043	98323
4.15855	98340
4.16667	95242
4.17480	99192
4.18292	93151
4.19105	94101
4.19917	94129
4.20728	99185
4.21542	92605
4.22353	96254
4.23167	102301
4.23978	96484
4.24790	93818
4.25603	93744
4.26415	93602
4.27228	100218
4.28040	99139
4.28852	99102
4.29665	93372
4.30477	92014
4.31288	95779
4.32102	91995
4.32913	90952
4.33727	90534
4.34538	96550
4.35350	91350
4.36163	94117
4.36975	99531
4.37788	98100
4.38600	105454
4.39412	121338
4.40225	116993
4.41037	110553
4.41848	95742
4.42662	102203
4.43473	101196
4.44287	97817
4.45098	91625
4.45910	97709
4.46723	95762
4.47535	101643
4.48348	100633
4.49160	101375
4.49972	95080
4.50785	94111
4.51597	91775
4.52410	95771
4.53222	94385
4.54033	96120
4.54847	93616
4.55658	94959
4.56470	94365
4.57283	94887
4.58095	95993
4.58908	97090
4.59720	92372
4.60532	91317
4.61345	91759
4.62157	92389
4.62970	89286
4.63782	90415
4.64593	88339
4.65407	91365
4.66218	92040
4.67032	91327
4.67843	88061
4.68655	90309
4.69468	85763
4.70280	93752
4.71092	90478
4.71905	85510
4.72717	87368
4.73530	88332
4.74342	89391
4.75153	86062
4.75967	101261
4.76778	101375
4.77592	96216
4.78403	105097
4.79215	104524
4.80028	100915
4.80840	102597
4.81653	101550
4.82465	101423
4.83277	103181
4.84090	101713
4.84902	100772
4.85713	98729
4.86527	104266
4.87338	99409
4.88152	94167
4.88963	99787
4.89775	95049
4.90588	95095
4.91400	96683
4.92213	89240
4.93025	89449
4.93837	101437
4.94650	95215
4.95462	93596
4.96273	89945
4.97087	94710
4.97898	89774
4.98712	101498
4.99523	93758
5.00335	93772
5.01148	94026
5.01960	91657
5.02773	94790
5.03585	98239
5.04397	94847
5.05210	91356
5.06022	99096
5.06835	98752
5.07647	93543
5.08458	99216
5.09272	92789
5.10083	96466
5.10895	91500
5.11708	87512
5.12520	91986
5.13333	92328
5.14145	98456
5.14957	121792
5.15770	159203
5.16582	203846
5.17395	225789
5.18207	217873
5.19018	185246
5.19832	172202
5.20643	159581
5.21457	217078
5.22268	401697
5.23080	672789
5.23893	772726
5.24705	594902
5.25517	349729
5.26330	220317
5.27142	152933
5.27955	130516
5.28767	118102
5.29578	112605
5.30392	102642
5.31203	104171
5.32017	94726
5.32828	98248
5.33640	97955
5.34453	99678
5.35265	92294
5.36077	98507
5.36890	96659
5.37702	93632
5.38515	100015
5.39327	94058
5.40138	98888
5.40952	87860
5.41763	81041
5.42577	77726
5.43388	90401
5.44200	93021
5.45013	81103
5.45825	79009
5.46638	78382
5.47450	82550
5.48262	79953
5.49075	80967
5.49887	78532
5.50698	80305
5.51512	73415
5.52323	84120
5.53137	75112
5.53948	76188
5.54760	78403
5.55573	77557
5.56385	72652
5.57198	77444
5.58010	81250
5.58822	78344
5.59635	84547
5.60447	76571
5.61260	76157
5.62072	77922
5.62883	77700
5.63697	80864
5.64508	74422
5.65320	85522
5.66133	90642
5.66945	99529
5.67758	98098
5.68570	93288
5.69382	87530
5.70195	86011
5.71007	67761
5.71820	76911
5.72632	75130
5.73443	78059
5.74257	77276
5.75068	68562
5.75882	70511
5.76693	70463
5.77505	69783
5.78318	71095
5.79130	73236
5.79942	69708
5.80755	71344
5.81567	69078
5.82380	80418
5.83192	87224
5.84003	112078
5.84817	106851
5.85628	100678
5.86442	89624
5.87253	82699
5.88065	74583
5.88878	76737
5.89690	72358
5.90502	79407
5.91315	73478
5.92127	74334
5.92940	74432
5.93752	74110
5.94563	74238
5.95377	78773
5.96188	73864
5.97002	99676
5.97813	106987
5.98625	129573
5.99438	131253
6.00250	137791
6.01063	139894
6.01875	148310
6.02687	139787
6.03500	138595
6.04312	138942
6.05123	148939
6.05937	148359
6.06748	149658
6.07562	146151
6.08373	148870
6.09185	151099
6.09998	152446
6.10810	159915
6.11623	144426
6.12435	154382
6.13247	153886
6.14060	156887
6.14872	151219
6.15685	162365
6.16497	147907
6.17308	159881
6.18122	184615
6.18933	251906
6.19745	322839
6.20558	358219
6.21370	334458
6.22183	251057
6.22995	212272
6.23807	190525
6.24620	167427
6.25432	169686
6.26245	170270
6.27057	200354
6.27868	250626
6.28682	322856
6.29493	341907
6.30305	296051
6.31118	244263
6.31930	201513
6.32743	177632
6.33555	167845
6.34367	165113
6.35180	158335
6.35992	163117
6.36805	163570
6.37617	169501
6.38428	164492
6.39242	165276
6.40053	162310
6.40867	164521
6.41678	166960
6.42490	154909
6.43303	167007
6.44115	160008
6.44927	164112
6.45740	171594
6.46552	170921
6.47365	176832
6.48177	179441
6.48988	182064
6.49802	181486
6.50613	180289
6.51427	182081
6.52238	188218
6.53050	200886
6.53863	189942
6.54675	196281
6.55488	208769
6.56300	204371
6.57112	206887
6.57925	216283
6.58737	204093
6.59548	215864
6.60362	223353
6.61173	219004
6.61987	213329
6.62798	220145
6.63610	213225
6.64423	233499
6.65235	223502
6.66048	233710
6.66860	236834
6.67672	234021
6.68485	237287
6.69297	226665
6.70110	249300
6.70922	247417
6.71733	250623
6.72547	248791
6.73358	255553
6.74170	257557
6.74983	255686
6.75795	264429
6.76608	260541
6.77420	262087
6.78232	273428
6.79045	276070
6.79857	273845
6.80670	284005
6.81482	270747
6.82293	267374
6.83107	269931
6.83918	250607
6.84730	229632
6.85543	220347
6.86355	210174
6.87168	217564
6.87980	220786
6.88792	212192
6.89605	217940
6.90417	210465
6.91230	191953
6.92042	192607
6.92853	189025
6.93667	183739
6.94478	186336
6.95292	188448
6.96103	190947
6.96915	203045
6.97728	212955
6.98540	212297
6.99352	200244
7.00165	197853
7.00977	185603
7.01790	182969
7.02602	182063
7.03413	171253
7.04227	175077
7.05038	175569
7.05852	171204
7.06663	160217
7.07475	179967
7.08288	170975
7.09100	165207
7.09913	164871
7.10725	161027
7.11537	168559
7.12350	164800
7.13162	164790
7.13973	156199
7.14787	157990
7.15598	164189
7.16412	165627
7.17223	168185
7.18035	163591
7.18848	158884
7.19660	171428
7.20473	166528
7.21285	161918
7.22097	157200
7.22910	159934
7.23722	151793
7.24533	161618
7.25347	152752
7.26158	152653
7.26972	152896
7.27783	158614
7.28595	164498
7.29408	170782
7.30220	168955
7.31033	164784
7.31845	168035
7.32657	154930
7.33470	154176
7.34282	152808
7.35095	145347
7.35907	148798
7.36718	150939
7.37532	151609
7.38343	150278
7.39155	151749
7.39968	155138
7.40780	152815
7.41593	140353
7.42405	151837
7.43217	144560
7.44030	157716
7.44842	154025
7.45655	153350
7.46467	150462
7.47278	158685
7.48092	150588
7.48903	145572
7.49717	160164
7.50528	150155
7.51340	148972
7.52153	146437
7.52965	149020
7.53777	142796
7.54590	144964
7.55402	145649
7.56215	144873
7.57027	147617
7.57838	147775
7.58652	145247
7.59463	154278
7.60277	149127
7.61088	143227
7.61900	142609
7.62713	145200
7.63525	144823
7.64337	143983
7.65150	148005
7.65962	144979
7.66775	141530
7.67587	141293
7.68398	140348
7.69212	135871
7.70023	138541
7.70837	138400
7.71648	139088
7.72460	142254
7.73273	136201
7.74085	139620
7.74898	132853
7.75710	114368
7.76522	88953
7.77335	79262
7.78147	75902
7.78958	74865
7.79772	74156
7.80583	72090
7.81397	85338
7.82208	72997
7.83020	73297
7.83833	71712
7.84645	69784
7.85458	70478
7.86270	67709
7.87082	73530
7.87895	71735
7.88707	71688
7.89520	71018
7.90332	66551
7.91143	68192
7.91957	80008
7.92768	68461
7.93580	77872
7.94393	70417
7.95205	69702
7.96018	70921
7.96830	69366
7.97642	72713
7.98455	74731
7.99267	77135
8.00080	65962
8.00892	72625
8.01703	80535
8.02517	69326
8.03328	65432
8.04142	67372
8.04953	67038
8.05765	68355
8.06578	64548
8.07390	68376
8.08202	69400
8.09015	74556
8.09827	67855
8.10640	72105
8.11452	71257
8.12263	65891
8.13077	65233
8.13888	64635
8.14702	66233
8.15513	67222
8.16325	65275
8.17138	66234
8.17950	71130
8.18762	73837
8.19575	90176
8.20387	93158
8.21200	98509
8.22012	110645
8.22823	118789
8.23637	118811
8.24448	112504
8.25262	99084
8.26073	93246
8.26885	69431
8.27698	66195
8.28510	65484
8.29323	66499
8.30135	60999
8.30947	62011
8.31760	67300
8.32572	72248
8.33383	71974
8.34197	76793
8.35008	65048
8.35822	70108
8.36633	68570
8.37445	70713
8.38258	69496
8.39070	67350
8.39883	70969
8.40695	65761
8.41507	67353
8.42320	74532
8.43132	63927
8.43945	65374
8.44757	67179
8.45568	69104
8.46382	69585
8.47193	65685
8.48005	68157
8.48818	65352
8.49630	66420
8.50443	65585
8.51255	65641
8.52067	60848
8.52880	66242
8.53692	63215
8.54505	60017
8.55317	64436
8.56128	68125
8.56942	62736
8.57753	67134
8.58565	68042
8.59378	65339
8.60190	64274
8.61003	73007
8.61815	62861
8.62627	66602
8.63440	61563
8.64252	65091
8.65065	67008
8.65877	62890
8.66688	54404
8.67502	62209
8.68313	61258
8.69127	63283
8.69938	63861
8.70750	59432
8.71563	59356
8.72375	60127
8.73187	62751
8.74000	63482
8.74812	62371
8.75625	61398
8.76437	64557
8.77248	60197
8.78062	69310
8.78873	60511
8.79687	66720
8.80498	70921
8.81310	67774
8.82123	67195
8.82935	71390
8.83748	67129
8.84560	61309
8.85372	59626
8.86185	62827
8.86997	62537
8.87808	59172
8.88622	71109
8.89433	71271
8.90247	61346
8.91058	61654
8.91870	61710
8.92683	56035
8.93495	59144
8.94308	61920
8.95120	62971
8.95932	60324
8.96745	61392
8.97557	60718
8.98368	69439
8.99182	68430
8.99993	61200
9.00807	61058
9.01618	65411
9.02430	74685
9.03243	89639
9.04055	127037
9.04868	136121
9.05680	134422
9.06492	112548
9.07305	102016
9.08117	87472
9.08930	75964
9.09742	82126
9.10553	69774
9.11367	70231
9.12178	69541
9.12990	66563
9.13803	66641
9.14615	63323
9.15428	64222
9.16240	63484
9.17052	65636
9.17865	57816
9.18677	58435
9.19490	67079
9.20302	62945
9.21113	67072
9.21927	60624
9.22738	58327
9.23552	69234
9.24363	74281
9.25175	62518
9.25988	68766
9.26800	65227
9.27612	60547
9.28425	61007
9.29237	60074
9.30050	56756
9.30862	57774
9.31673	66931
9.32487	59334
9.33298	60578
9.34112	61602
9.34923	62831
9.35735	66227
9.36548	55891
9.37360	57638
9.38173	59473
9.38985	67745
9.39797	54271
9.40610	58052
9.41422	61901
9.42233	66447
9.43047	63440
9.43858	63074
9.44672	61709
9.45483	56708
9.46295	62554
9.47108	58207
9.47920	58749
9.48733	57410
9.49545	53056
9.50357	57378
9.51170	56116
9.51982	58826
9.52793	56642
9.53607	54303
9.54418	56250
9.55232	62189
9.56043	61396
9.56855	57809
9.57668	56139
9.58480	57750
9.59293	58769
9.60105	55917
9.60917	57990
9.61730	63104
9.62542	62144
9.63355	59000
9.64167	65693
9.64978	61812
9.65792	60820
9.66603	64359
9.67415	57457
9.68228	59784
9.69040	59384
9.69853	61006
9.70665	58655
9.71477	54714
9.72290	59490
9.73102	58499
9.73915	57531
9.74727	59266
9.75538	59704
9.76352	64027
9.77163	56695
9.77977	63421
9.78788	57035
9.79600	60004
9.80413	53557
9.81225	56478
9.82037	55676
9.82850	52938
9.83662	52847
9.84475	59799
9.85287	50969
9.86098	53480
9.86912	53746
9.87723	54500
9.88537	60904
9.89348	68916
9.90160	73852
9.90973	86619
9.91785	84515
9.92597	78048
9.93410	78766
9.94222	81705
9.95035	80562
9.95847	81887
9.96658	76138
9.97472	73487
9.98283	78473
9.99097	71984
9.99908	93020
10.00720	174982
10.01533	418053
10.02345	885342
10.03158	1542059
10.03970	1960727
10.04782	1907613
10.05595	1416908
10.06407	833444
10.07218	439281
10.08032	245253
10.08843	151935
10.09657	106356
10.10468	87318
10.11280	85651
10.12093	82411
10.12905	82133
10.13718	82064
10.14530	79734
10.15342	80215
10.16155	78244
10.16967	74752
10.17780	74274
10.18592	73294
10.19403	74575
10.20217	80814
10.21028	79073
10.21840	81551
10.22653	74842
10.23465	73069
10.24278	74598
10.25090	74114
10.25902	77488
10.26715	70625
10.27527	80879
10.28340	73144
10.29152	81108
10.29963	76561
10.30777	70234
10.31588	69442
10.32400	75484
10.33213	76256
10.34025	79312
10.34838	76237
10.35650	70728
10.36462	72164
10.37275	71217
10.38087	66605
10.38900	64345
10.39712	66927
10.40523	68876
10.41337	71040
10.42148	65034
10.42962	65819
10.43773	65996
10.44585	65407
10.45398	62556
10.46210	63821
10.47022	66297
10.47835	73216
10.48647	65185
10.49460	66604
10.50272	72150
10.51083	66889
10.51897	73171
10.52708	70445
10.53522	69315
10.54333	66737
10.55145	67460
10.55958	69987
10.56770	70743
10.57583	79628
10.58395	83202
10.59207	89259
10.60020	85351
10.60832	84257
10.61643	80299
10.62457	83048
10.63268	80754
10.64082	81415
10.64893	79276
10.65705	77511
10.66518	79198
10.67330	78544
10.68143	81414
10.68955	79322
10.69767	77046
10.70580	78936
10.71392	83289
10.72205	82042
10.73017	81347
10.73828	85816
10.74642	72310
10.75453	82114
10.76265	75152
10.77078	66487
10.77890	62900
10.78703	60975
10.79515	70655
10.80327	59802
10.81140	58694
10.81952	61279
10.82765	61757
10.83577	66189
10.84388	60469
10.85202	64078
10.86013	63813
10.86825	66227
10.87638	66868
10.88450	65430
10.89263	69304
10.90075	62096
10.90887	62376
10.91700	55794
10.92512	58767
10.93325	60760
10.94137	57091
10.94948	60364
10.95762	63976
10.96573	71042
10.97387	78625
10.98198	94583
10.99010	95877
10.99823	90857
11.00635	80074
11.01447	65599
11.02260	61549
11.03072	58241
11.03885	55686
11.04697	52470
11.05508	57286
11.06322	56324
11.07133	59548
11.07947	53341
11.08758	55010
11.09570	52769
11.10383	53878
11.11195	54233
11.12008	54360
11.12820	55824
11.13632	58379
11.14445	56634
11.15257	57089
11.16068	58640
11.16882	52811
11.17693	53939
11.18507	50680
11.19318	56327
11.20130	59111
11.20943	54090
11.21755	55709
11.22568	52588
11.23380	54004
11.24192	53680
11.25005	54580
11.25817	47681
11.26628	48638
11.27442	42281
11.28253	49235
11.29067	45162
11.29878	46178
11.30690	46143
11.31503	58506
11.32315	58360
11.33128	51898
11.33940	51008
11.34752	47722
11.35565	52129
11.36377	50644
11.37190	46367
11.38002	51841
11.38813	58002
11.39627	52871
11.40438	66117
11.41250	105923
11.42063	172749
11.42875	276814
11.43688	409308
11.44500	579352
11.45312	698813
11.46125	697412
11.46937	607100
11.47750	415104
11.48562	267629
11.49373	142240
11.50187	97635
11.50998	75602
11.51812	63813
11.52623	58982
11.53435	57542
11.54248	70442
11.55060	57861
11.55872	58753
11.56685	57025
11.57497	52368
11.58310	55561
11.59122	56562
11.59933	57837
11.60747	54077
11.61558	51733
11.62372	54148
11.63183	54595
11.63995	51258
11.64808	57875
11.65620	55308
11.66432	50445
11.67245	53756
11.68057	54809
11.68870	46570
11.69682	50736
11.70493	52398
11.71307	51123
11.72118	57119
11.72932	54986
11.73743	55758
11.74555	58319
11.75368	64258
11.76180	66131
11.76993	60762
11.77805	57620
11.78617	52170
11.79430	56717
11.80242	56256
11.81053	53864
11.81867	53854
11.82678	57090
11.83492	59814
11.84303	66109
11.85115	57639
11.85928	61845
11.86740	54172
11.87553	53066
11.88365	53405
11.89177	53119
11.89990	51262
11.90802	54948
11.91615	61688
11.92427	57978
11.93238	58566
11.94052	61124
11.94863	59755
11.95675	57890
11.96488	61216
11.97300	61051
11.98113	53947
11.98925	51783
11.99737	54024
12.00550	50001
12.01362	56601
12.02175	48110
12.02987	53148
12.03798	48480
12.04612	51063
12.05423	47537
12.06237	47830
12.07048	45881
12.07860	46571
12.08673	48237
12.09485	46922
12.10297	45652
12.11110	44153
12.11922	44105
12.12735	49737
12.13547	41803
12.14358	44877
12.15172	50777
12.15983	45022
12.16797	42992
12.17608	43779
12.18420	50487
12.19233	41627
12.20045	52611
12.20857	41176
12.21670	44304
12.22482	43778
12.23295	43157
12.24107	40266
12.24918	40159
12.25732	39002
12.26543	40119
12.27357	41637
12.28168	49526
12.28980	41137
12.29793	43054
12.30605	40738
12.31418	48247
12.32230	41257
12.33042	40597
12.33855	46875
12.34667	42858
12.35478	45157
12.36292	41106
12.37103	43626
12.37917	51884
12.38728	40807
12.39540	43542
12.40353	44885
12.41165	43889
12.41978	53923
12.42790	59133
12.43602	71302
12.44415	87423
12.45227	84678
12.46040	86748
12.46852	74096
12.47663	60083
12.48477	48704
12.49288	45134
12.50100	42014
12.50913	40847
12.51725	45618
12.52538	41814
12.53350	40419
12.54162	44507
12.54975	48677
12.55787	43320
12.56600	41101
12.57412	48489
12.58223	44368
12.59037	42134
12.59848	41160
12.60660	42394
12.61473	51383
12.62285	68987
12.63098	110403
12.63910	181546
12.64722	252485
12.65535	303406
12.66347	286966
12.67160	216189
12.67972	154302
12.68783	96452
12.69597	69857
12.70408	52619
12.71222	45339
12.72033	41864
12.72845	43655
12.73658	41486
12.74470	42276
12.75282	42836
12.76095	45758
12.76907	38077
12.77720	41297
12.78532	41281
12.79343	43616
12.80157	41492
12.80968	41712
12.81782	42016
12.82593	41625
12.83405	41885
12.84218	45676
12.85030	45214
12.85843	43284
12.86655	45792
12.87467	44151
12.88280	42176
12.89092	42834
12.89903	49858
12.90717	45033
12.91528	40469
12.92342	42500
12.93153	41072
12.93965	47155
12.94778	42703
12.95590	41536
12.96403	39297
12.97215	40861
12.98027	41320
12.98840	39881
12.99652	42286
13.00463	48633
13.01277	39302
13.02088	40704
13.02902	45842
13.03713	41266
13.04525	39920
13.05338	48442
13.06150	43618
13.06963	43159
13.07775	42567
13.08587	43230
13.09400	39408
13.10212	40758
13.11025	42565
13.11837	43801
13.12648	45079
13.13462	49215
13.14273	48114
13.15085	45697
13.15898	51168
13.16710	48257
13.17523	55329
13.18335	51106
13.19147	67315
13.19960	61900
13.20772	63989
13.21585	51381
13.22397	44352
13.23208	46868
13.24022	37665
13.24833	40888
13.25647	38314
13.26458	39652
13.27270	43816
13.28083	43162
13.28895	42972
13.29707	38785
13.30520	39865
13.31332	39349
13.32145	40280
13.32957	41643
13.33768	41393
13.34582	40219
13.35393	41505
13.36207	49791
13.37018	39974
13.37830	43837
13.38643	50222
13.39455	45030
13.40268	41902
13.41080	40349
13.41892	39036
13.42705	41772
13.43517	40024
13.44328	44696
13.45142	42750
13.45953	39848
13.46767	38269
13.47578	43105
13.48390	41464
13.49203	49089
13.50015	38015
13.50828	42512
13.51640	40006
13.52452	41828
13.53265	39618
13.54077	43612
13.54888	41043
13.55702	41454
13.56513	38976
13.57327	40865
13.58138	41293
13.58950	41908
13.59763	41361
13.60575	40927
13.61388	45911
13.62200	42492
13.63012	41866
13.63825	41051
13.64637	41468
13.65450	40233
13.66262	42139
13.67073	44338
13.67887	41118
13.68698	40188
13.69510	49368
13.70323	43751
13.71135	43221
13.71948	44958
13.72760	44227
13.73572	41021
13.74385	46491
13.75197	41216
13.76010	41360
13.76822	37360
13.77633	40896
13.78447	41137
13.79258	36597
13.80072	41112
13.80883	42994
13.81695	39339
13.82508	37971
13.83320	47867
13.84132	48675
13.84945	40420
13.85757	45923
13.86570	38129
13.87382	38071
13.88193	40339
13.89007	49550
13.89818	40428
13.90632	40353
13.91443	39054
13.92255	40762
13.93068	39737
13.93880	42091
13.94692	42057
13.95505	40592
13.96317	38575
13.97130	39891
13.97942	44063
13.98753	40481
13.99567	48232
14.00378	39934
14.01192	48754
14.02003	65257
14.02815	72170
14.03628	86807
14.04440	90953
14.05253	82579
14.06065	68439
14.06877	58528
14.07690	47148
14.08502	44718
14.09313	40165
14.10127	40949
14.10938	45950
14.11752	47459
14.12563	48382
14.13375	46768
14.14188	42497
14.15000	42098
14.15813	43236
14.16625	43066
14.17437	41300
14.18250	41133
14.19062	44984
14.19875	48259
14.20687	46848
14.21498	44194
14.22312	42331
14.23123	46962
14.23935	47925
14.24748	42469
14.25560	45515
14.26373	42262
14.27185	40527
14.27997	45087
14.28810	42081
14.29622	42522
14.30435	40824
14.31247	49031
14.32058	43040
14.32872	42419
14.33683	43411
14.34495	39949
14.35308	41498
14.36120	42685
14.36933	50081
14.37745	39603
14.38557	40271
14.39370	39294
14.40182	41876
14.40995	38121
14.41807	39942
14.42618	38158
14.43432	41624
14.44243	39693
14.45057	39449
14.45868	39421
14.46680	43694
14.47493	46277
14.48305	47694
14.49117	50798
14.49930	46702
14.50742	46842
14.51555	43976
14.52367	39571
14.53178	50872
14.53992	42462
14.54803	52723
14.55617	58654
14.56428	67108
14.57240	80945
14.58053	77691
14.58865	73356
14.59678	66151
14.60490	58936
14.61302	55763
14.62115	53212
14.62927	54078
14.63738	51066
14.64552	54716
14.65363	56249
14.66177	53629
14.66988	61273
14.67800	63724
14.68613	58816
14.69425	56759
14.70238	57080
14.71050	50246
14.71862	50443
14.72675	47294
14.73487	51774
14.74300	51317
14.75112	49515
14.75923	49545
14.76737	49545
14.77548	46825
14.78360	46948
14.79173	48639
14.79985	48914
14.80798	45190
14.81610	44783
14.82422	42123
14.83235	43133
14.84047	41048
14.84860	44543
14.85672	42440
14.86483	45417
14.87297	46347
14.88108	47340
14.88920	51756
14.89733	47720
14.90545	55832
14.91358	52017
14.92170	51413
14.92982	53789
14.93795	56110
14.94607	48855
14.95420	59614
14.96232	46725
14.97043	45968
14.97857	52244
14.98668	47820
14.99482	45542
15.00293	44890
15.01105	52314
15.01918	49568
15.02730	51187
15.03542	51881
15.04355	45965
15.05167	43383
15.05980	46215
15.06792	41695
15.07603	46066
15.08417	40005
15.09228	38739
15.10042	41066
15.10853	40518
15.11665	38754
15.12478	51083
15.13290	41530
15.14103	45148
15.14915	42196
15.15727	46909
15.16540	43807
15.17352	40565
15.18163	46441
15.18977	47613
15.19788	44254
15.20602	38106
15.21413	37612
15.22225	41324
15.23038	42546
15.23850	45284
15.24663	40293
15.25475	46960
15.26287	46091
15.27100	49064
15.27912	45546
15.28723	45250
15.29537	41497
15.30348	41804
15.31162	46467
15.31973	43086
15.32785	36412
15.33598	38664
15.34410	44039
15.35223	36311
15.36035	39111
15.36847	42853
15.37660	38238
15.38472	39895
15.39285	39729
15.40097	44321
15.40908	39595
15.41722	43408
15.42533	45508
15.43345	39934
15.44158	42414
15.44970	45500
15.45783	49661
15.46595	44557
15.47407	47782
15.48220	50301
15.49032	48441
15.49845	52791
15.50657	45547
15.51468	48651
15.52282	45732
15.53093	48187
15.53907	41641
15.54718	45955
15.55530	45390
15.56343	42150
15.57155	44407
15.57967	55094
15.58780	40868
15.59592	42794
15.60405	44134
15.61217	45519
15.62028	54262
15.62842	48588
15.63653	44169
15.64467	52367
15.65278	47008
15.66090	44375
15.66903	41611
15.67715	47181
15.68527	44590
15.69340	40714
15.70152	39556
15.70965	40484
15.71777	45143
15.72588	41609
15.73402	44973
15.74213	40516
15.75027	54123
15.75838	44141
15.76650	41220
15.77463	42815
15.78275	44729
15.79088	42169
15.79900	48314
15.80712	44307
15.81525	39903
15.82337	39186
15.83148	39302
15.83962	40821
15.84773	41009
15.85587	41153
15.86398	37121
15.87210	44034
15.88023	41580
15.88835	42239
15.89648	40530
15.90460	38003
15.91272	42357
15.92085	36744
15.92897	39924
15.93710	39040
15.94522	36806
15.95333	39552
15.96147	35588
15.96958	37203
15.97770	37760
15.98583	42154
15.99395	38285
16.00208	40367
16.01020	37333
16.01832	37582
16.02645	37155
16.03457	38647
16.04270	38549
16.05082	39776
16.05893	39805
16.06707	35638
16.07518	37442
16.08332	45279
16.09143	40748
16.09955	36306
16.10768	40858
16.11580	35927
16.12392	37701
16.13205	34968
16.14017	34632
16.14830	39110
16.15642	43494
16.16453	47473
16.17267	36782
16.18078	39578
16.18892	39030
16.19703	45472
16.20515	41783
16.21328	37091
16.22140	38670
16.22952	39177
16.23765	47000
16.24577	41909
16.25390	41042
16.26202	38226
16.27013	45356
16.27827	37580
16.28638	37027
16.29452	37835
16.30263	37404
16.31075	40475
16.31888	40844
16.32700	43797
16.33513	52152
16.34325	60256
16.35137	65690
16.35950	65350
16.36762	67193
16.37573	57240
16.38387	50529
16.39198	44347
16.40012	39958
16.40823	38882
16.41635	41562
16.42448	44755
16.43260	55215
16.44073	61195
16.44885	75518
16.45697	73242
16.46510	70619
16.47322	64729
16.48135	57194
16.48947	50534
16.49758	48129
16.50572	49057
16.51383	40744
16.52195	45774
16.53008	43155
16.53820	39138
16.54633	48112
16.55445	47025
16.56257	40263
16.57070	41482
16.57882	48205
16.58695	40237
16.59507	39791
16.60318	41778
16.61132	41825
16.61943	37409
16.62757	42935
16.63568	41734
16.64380	44818
16.65193	45591
16.66005	45667
16.66817	42199
16.67630	38140
16.68442	41283
16.69255	39098
16.70067	40155
16.70878	37807
16.71692	44028
16.72503	41392
16.73317	41029
16.74128	39883
16.74940	41471
16.75753	45326
16.76565	41253
16.77377	47326
16.78190	41973
16.79002	43787
16.79815	39395
16.80627	49195
16.81438	42356
16.82252	40792
16.83063	41429
16.83877	41027
16.84688	40963
16.85500	39498
16.86313	38447
16.87125	36062
16.87938	34943
16.88750	43569
16.89562	38958
16.90375	38332
16.91187	50594
16.91998	36502
16.92812	39824
16.93623	40496
16.94437	36370
16.95248	46903
16.96060	39370
16.96873	39119
16.97685	38272
16.98498	40427
16.99310	37109
17.00122	36729
17.00935	34925
17.01747	38969
17.02560	37328
17.03372	38284
17.04183	49170
17.04997	37262
17.05808	41168
17.06620	40490
17.07433	45415
17.08245	38695
17.09058	51271
17.09870	44446
17.10682	49032
17.11495	54595
17.12307	48329
17.13120	45462
17.13932	45153
17.14743	44253
17.15557	42061
17.16368	43814
17.17180	51209
17.17993	61436
17.18805	74548
17.19618	73962
17.20430	63273
17.21242	57138
17.22055	51804
17.22867	44163
17.23680	40215
17.24492	39753
17.25303	38807
17.26117	39686
17.26928	44369
17.27742	39678
17.28553	40231
17.29365	39641
17.30178	39105
17.30990	39026
17.31802	36910
17.32615	37593
17.33427	41385
17.34240	36095
17.35052	46099
17.35863	37261
17.36677	41946
17.37488	36439
17.38302	38384
17.39113	38664
17.39925	36189
17.40738	38497
17.41550	41914
17.42363	44408
17.43175	45085
17.43987	40493
17.44800	39316
17.45612	39743
17.46423	38632
17.47237	37950
17.48048	36767
17.48862	36437
17.49673	40022
17.50485	37105
17.51298	37440
17.52110	42054
17.52923	41768
17.53735	53115
17.54547	47515
17.55360	44409
17.56172	44772
17.56985	41680
17.57797	37206
17.58608	37638
17.59422	38234
17.60233	35734
17.61045	35000
17.61858	47150
17.62670	39388
17.63483	37789
17.64295	38234
17.65107	45281
17.65920	38118
17.66732	43748
17.67545	44071
17.68357	41605
17.69168	47977
17.69982	39628
17.70793	41409
17.71605	36170
17.72418	37340
17.73230	38544
17.74043	38650
17.74855	43005
17.75667	40709
17.76480	40972
17.77292	41727
17.78105	51954
17.78917	42352
17.79728	42740
17.80542	40860
17.81353	49454
17.82167	48527
17.82978	49183
17.83790	40938
17.84603	44182
17.85415	37444
17.86227	40268
17.87040	44104
17.87852	38289
17.88665	39692
17.89477	38223
17.90288	38168
17.91102	39260
17.91913	36365
17.92727	39308
17.93538	37809
17.94350	37458
17.95163	41768
17.95975	35454
17.96788	39950
17.97600	40545
17.98412	40406
17.99225	39242
18.00037	44215
18.00848	39657
18.01662	38023
18.02473	38130
18.03287	42831
18.04098	41477
18.04910	37776
18.05723	40837
18.06535	43103
18.07348	42247
18.08160	47421
18.08972	43290
18.09785	42661
18.10597	46361
18.11408	44594
18.12222	45608
18.13033	46400
18.13847	50231
18.14658	49806
18.15470	55562
18.16283	46721
18.17095	47518
18.17908	45254
18.18720	52208
18.19532	46022
18.20345	50068
18.21157	42450
18.21970	48124
18.22782	38934
18.23593	41625
18.24407	39615
18.25218	47090
18.26030	47329
18.26843	41784
18.27655	43407
18.28468	38272
18.29280	40866
18.30092	40486
18.30905	42817
18.31717	43935
18.32530	39354
18.33342	43266
18.34153	44664
18.34967	36431
18.35778	42336
18.36592	37668
18.37403	48831
18.38215	45670
18.39028	48874
18.39840	50880
18.40652	56056
18.41465	47178
18.42277	53680
18.43090	53372
18.43902	40136
18.44713	46240
18.45527	44286
18.46338	40601
18.47152	42953
18.47963	42869
18.48775	39440
18.49588	39745
18.50400	46378
18.51212	45161
18.52025	49171
18.52837	50978
18.53650	49873
18.54462	48809
18.55273	54898
18.56087	51670
18.56898	49636
18.57712	54892
18.58523	54098
18.59335	48590
18.60148	46982
18.60960	46911
18.61773	48214
18.62585	41926
18.63397	44171
18.64210	39593
18.65022	39653
18.65833	50052
18.66647	41772
18.67458	40841
18.68272	40507
18.69083	43966
18.69895	47557
18.70708	54693
18.71520	63415
18.72333	63180
18.73145	64296
18.73957	60392
18.74770	60762
18.75582	60591
18.76395	57549
18.77207	60570
18.78018	56761
18.78832	58994
18.79643	59603
18.80455	56547
18.81268	64433
18.82080	57476
18.82893	57018
18.83705	60495
18.84517	56701
18.85330	53871
18.86142	50926
18.86955	57078
18.87767	59617
18.88578	54121
18.89392	53600
18.90203	55135
18.91017	55616
18.91828	52707
18.92640	54840
18.93453	56905
18.94265	57991
18.95077	53922
18.95890	57337
18.96702	55127
18.97515	62815
18.98327	53202
18.99138	48999
18.99952	51903
19.00763	54957
19.01577	53261
19.02388	59940
19.03200	72052
19.04013	81443
19.04825	87864
19.05637	78562
19.06450	76064
19.07262	60481
19.08075	58353
19.08887	51821
19.09698	56033
19.10512	50774
19.11323	53551
19.12137	50401
19.12948	51252
19.13760	48550
19.14573	49485
19.15385	49596
19.16198	44652
19.17010	46284
19.17822	43892
19.18635	44436
19.19447	56412
19.20258	43953
19.21072	46707
19.21883	47854
19.22697	53422
19.23508	45264
19.24320	43709
19.25133	44154
19.25945	46128
19.26758	42214
19.27570	43917
19.28382	42088
19.29195	48526
19.30007	43983
19.30820	48028
19.31632	44054
19.32443	49302
19.33257	41270
19.34068	41229
19.34880	40179
19.35693	47467
19.36505	50569
19.37318	39389
19.38130	41228
19.38942	42749
19.39755	40958
19.40567	40452
19.41380	39585
19.42192	41760
19.43003	44672
19.43817	42808
19.44628	48541
19.45440	52466
19.46253	59564
19.47065	65794
19.47878	71459
19.48690	66465
19.49502	56424
19.50315	53104
19.51127	49509
19.51940	50656
19.52752	52192
19.53563	45619
19.54377	49713
19.55188	51016
19.56002	45442
19.56813	46757
19.57625	48325
19.58438	43674
19.59250	44928
19.60062	46345
19.60875	44087
19.61687	44495
19.62500	42290
19.63312	41866
19.64123	41509
19.64937	39984
19.65748	42227
19.66562	36991
19.67373	47664
19.68185	40804
19.68998	45322
19.69810	52776
19.70623	51686
19.71435	59023
19.72247	72181
19.73060	72075
19.73872	68833
19.74683	63885
19.75497	61111
19.76308	54655
19.77122	56905
19.77933	49845
19.78745	49839
19.79558	56016
19.80370	63001
19.81183	54247
19.81995	53667
19.82807	48939
19.83620	49853
19.84432	49155
19.85243	43341
19.86057	44405
19.86868	42438
19.87682	39529
19.88493	46114
19.89305	40655
19.90118	46001
19.90930	47994
19.91743	41130
19.92555	41118
19.93367	41047
19.94180	40474
19.94992	41843
19.95805	39047
19.96617	38029
19.97428	43299
19.98242	42442
19.99053	37663
19.99865	37282
20.00678	42003
20.01490	41940
20.02303	45560
20.03115	46701
20.03927	53296
20.04740	59268
20.05552	68578
20.06365	71005
20.07177	69855
20.07988	69359
20.08802	60512
20.09613	59555
20.10427	49790
20.11238	49426
20.12050	48488
20.12863	44412
20.13675	44612
20.14487	45920
20.15300	42942
20.16112	41307
20.16925	41937
20.17737	43079
20.18548	43434
20.19362	43580
20.20173	44330
20.20987	41010
20.21798	44828
20.22610	42003
20.23423	42167
20.24235	39496
20.25048	40910
20.25860	51861
20.26672	43677
20.27485	43248
20.28297	39433
20.29108	50122
20.29922	40129
20.30733	37308
20.31547	44519
20.32358	40042
20.33170	42885
20.33983	46318
20.34795	41224
20.35608	44999
20.36420	43786
20.37232	46997
20.38045	49343
20.38857	41519
20.39668	46564
20.40482	39706
20.41293	42620
20.42107	43885
20.42918	48160
20.43730	47428
20.44543	48508
20.45355	39440
20.46168	49846
20.46980	44353
20.47792	41556
20.48605	48212
20.49417	42142
20.50230	41348
20.51042	41516
20.51853	37731
20.52667	38314
20.53478	45703
20.54290	48327
20.55103	42847
20.55915	46123
20.56728	42461
20.57540	49078
20.58352	42063
20.59165	44112
20.59977	47873
20.60790	52342
20.61602	57672
20.62413	73872
20.63227	63901
20.64038	68896
20.64852	68421
20.65663	56849
20.66475	48173
20.67288	45563
20.68100	44915
20.68912	42694
20.69725	43129
20.70537	42961
20.71350	41107
20.72162	43457
20.72973	40535
20.73787	39656
20.74598	42413
20.75412	40670
20.76223	44466
20.77035	43288
20.77848	43181
20.78660	47551
20.79472	49336
20.80285	50230
20.81097	43886
20.81910	49003
20.82722	53431
20.83533	49314
20.84347	50231
20.85158	54298
20.85972	55829
20.86783	51120
20.87595	47658
20.88408	46723
20.89220	48136
20.90033	47276
20.90845	48017
20.91657	43402
20.92470	52416
20.93282	42303
20.94093	39784
20.94907	39566
20.95718	42935
20.96532	43984
20.97343	45233
20.98155	40098
20.98968	39229
20.99780	40643
21.00593	46780
21.01405	42394
21.02217	49092
21.03030	38024
21.03842	38528
21.04655	40395
21.05467	36292
21.06278	41727
21.07092	37722
21.07903	39525
21.08715	39753
21.09528	40480
21.10340	40469
21.11153	39936
21.11965	43407
21.12777	41799
21.13590	44749
21.14402	46962
21.15215	39564
21.16027	39673
21.16838	40812
21.17652	41820
21.18463	43163
21.19275	42272
21.20088	48744
21.20900	42562
21.21713	41632
21.22525	50389
21.23337	67322
21.24150	113177
21.24962	184172
21.25775	295991
21.26587	391870
21.27398	438798
21.28212	370971
21.29023	273082
21.29837	171158
21.30648	103745
21.31460	72093
21.32273	59955
21.33085	51321
21.33897	50986
21.34710	49336
21.35522	45388
21.36335	44568
21.37147	46423
21.37958	42439
21.38772	45115
21.39583	45928
21.40397	47129
21.41208	47587
21.42020	52865
21.42833	45861
21.43645	47552
21.44458	42295
21.45270	41768
21.46082	45201
21.46895	50199
21.47707	46462
21.48518	43611
21.49332	40461
21.50143	51569
21.50957	47327
21.51768	42203
21.52580	40556
21.53393	41829
21.54205	43068
21.55018	43792
21.55830	42414
21.56642	44831
21.57455	44660
21.58267	46997
21.59080	43212
21.59892	44415
21.60703	44808
21.61517	47513
21.62328	50503
21.63140	47502
21.63953	47943
21.64765	48127
21.65578	54165
21.66390	47434
21.67202	52780
21.68015	41287
21.68827	43181
21.69640	41788
21.70452	41924
21.71263	41726
21.72077	42563
21.72888	42181
21.73700	50851
21.74513	44560
21.75325	40541
21.76138	44383
21.76950	48451
21.77762	41328
21.78575	43416
21.79387	42758
21.80200	43192
21.81012	53045
21.81823	40859
21.82637	39748
21.83448	40345
21.84262	43477
21.85073	42329
21.85885	39553
21.86698	39804
21.87510	42511
21.88322	44580
21.89135	42396
21.89947	40868
21.90760	41588
21.91572	45668
21.92383	50141
21.93197	43896
21.94008	47534
21.94822	47882
21.95633	50996
21.96445	50568
21.97258	51583
21.98070	51478
21.98883	52777
21.99695	46372
22.00507	44390
22.01320	44301
22.02132	41524
22.02943	43876
22.03757	41276
22.04568	48241
22.05382	49511
22.06193	42952
22.07005	43680
22.07818	43539
22.08630	48874
22.09443	44413
22.10255	44248
22.11067	47155
22.11880	43322
22.12692	46217
22.13503	44547
22.14317	48973
22.15128	46421
22.15942	49487
22.16753	56841
22.17565	48654
22.18378	53350
22.19190	50909
22.20003	48437
22.20815	51757
22.21627	42702
22.22440	44431
22.23252	42700
22.24065	49572
22.24877	47625
22.25688	42478
22.26502	45385
22.27313	44707
22.28125	43566
22.28938	41566
22.29750	41738
22.30563	44826
22.31375	43148
22.32187	39834
22.33000	41428
22.33812	41928
22.34625	41366
22.35437	51808
22.36248	51104
22.37062	44098
22.37873	44273
22.38687	40415
22.39498	38280
22.40310	43634
22.41123	39735
22.41935	43318
22.42747	41755
22.43560	43644
22.44372	54741
22.45185	47435
22.45997	49959
22.46808	54829
22.47622	49027
22.48433	46931
22.49247	45299
22.50058	48663
22.50870	47406
22.51683	44420
22.52495	43599
22.53307	40515
22.54120	47160
22.54932	46438
22.55745	49794
22.56557	56522
22.57368	64538
22.58182	76723
22.58993	71233
22.59807	65622
22.60618	53674
22.61430	49801
22.62243	43013
22.63055	48175
22.63868	46331
22.64680	42583
22.65492	44801
22.66305	43852
22.67117	44897
22.67928	43671
22.68742	45987
22.69553	49502
22.70367	43587
22.71178	53906
22.71990	46842
22.72803	48364
22.73615	54327
22.74428	51231
22.75240	49706
22.76052	52515
22.76865	50267
22.77677	48692
22.78490	48031
22.79302	57900
22.80113	51689
22.80927	50876
22.81738	45957
22.82550	53991
22.83363	50146
22.84175	48636
22.84988	50003
22.85800	51871
22.86612	54050
22.87425	48815
22.88237	54574
22.89050	54790
22.89862	54698
22.90673	52925
22.91487	56602
22.92298	52087
22.93112	52933
22.93923	52555
22.94735	52408
22.95548	48900
22.96360	54020
22.97172	52344
22.97985	56749
22.98797	52989
22.99610	64857
23.00422	53162
23.01233	53860
23.02047	50767
23.02858	60342
23.03672	50422
23.04483	52779
23.05295	49290
23.06108	48649
23.06920	49384
23.07732	46118
23.08545	58721
23.09357	56666
23.10170	47797
23.10982	50351
23.11793	47902
23.12607	59297
23.13418	50048
23.14232	49320
23.15043	50594
23.15855	46025
23.16668	48881
23.17480	51555
23.18293	48544
23.19105	48795
23.19917	46528
23.20730	56416
23.21542	54117
23.22353	48897
23.23167	46501
23.23978	42938
23.24792	47763
23.25603	54114
23.26415	45260
23.27228	48644
23.28040	48518
23.28853	49158
23.29665	50820
23.30477	47705
23.31290	50926
23.32102	52384
23.32915	59291
23.33727	61800
23.34538	57939
23.35352	67017
23.36163	64115
23.36975	62484
23.37788	71337
23.38600	63242
23.39413	56563
23.40225	49658
23.41037	46898
23.41850	46724
23.42662	51165
23.43475	51694
23.44287	55210
23.45098	52966
23.45912	61245
23.46723	69255
23.47535	65136
23.48348	76200
23.49160	60416
23.49973	61852
23.50785	58504
23.51597	57128
23.52410	55699
23.53222	54666
23.54035	55217
23.54847	53507
23.55658	53009
23.56472	49465
23.57283	51415
23.58097	48795
23.58908	47975
23.59720	49948
23.60533	47732
23.61345	51160
23.62157	45702
23.62970	52438
23.63782	47282
23.64595	50397
23.65407	49222
23.66218	47466
23.67032	47463
23.67843	46578
23.68657	44864
23.69468	46129
23.70280	46724
23.71093	50226
23.71905	48505
23.72718	46188
23.73530	47395
23.74342	44889
23.75155	45503
23.75967	46289
23.76778	51896
23.77592	48809
23.78403	41232
23.79217	45614
23.80028	42897
23.80840	45690
23.81653	48355
23.82465	50373
23.83278	47997
23.84090	51412
23.84902	47583
23.85715	47901
23.86527	48278
23.87338	43329
23.88152	47189
23.88963	49976
23.89777	47618
23.90588	44992
23.91400	42803
23.92213	42749
23.93025	45277
23.93838	46935
23.94650	45607
23.95462	45509
23.96275	53178
23.97087	50770
23.97900	44418
23.98712	45355
23.99523	43958
24.00337	49448
24.01148	51088
24.01960	54253
24.02773	44297
24.03585	49892
24.04398	43788
24.05210	45456
24.06022	50476
24.06835	51566
24.07647	47698
24.08460	46917
24.09272	51192
24.10083	57307
24.10897	49863
24.11708	53750
24.12522	49647
24.13333	58047
24.14145	56352
24.14958	54856
24.15770	54079
24.16582	55946
24.17395	54613
24.18207	51180
24.19020	50797
24.19832	54906
24.20643	51099
24.21457	51111
24.22268	48777
24.23082	50844
24.23893	58708
24.24705	84201
24.25518	125589
24.26330	189694
24.27143	250300
24.27955	302564
24.28767	292544
24.29580	277250
24.30392	233150
24.31203	202546
24.32017	168900
24.32828	138908
24.33642	126649
24.34453	105821
24.35265	99376
24.36078	80409
24.36890	80157
24.37703	73705
24.38515	79631
24.39327	75326
24.40140	73012
24.40952	72811
24.41763	67441
24.42577	64637
24.43388	59544
24.44202	59346
24.45013	53838
24.45825	66005
24.46638	51500
24.47450	53027
24.48263	52993
24.49075	52986
24.49887	48725
24.50700	50573
24.51512	54535
24.52325	56713
24.53137	57542
24.53948	60075
24.54762	55390
24.55573	64288
24.56385	55087
24.57198	49431
24.58010	58024
24.58823	54193
24.59635	49735
24.60447	48840
24.61260	50823
24.62072	50873
24.62885	49091
24.63697	49271
24.64508	59571
24.65322	56530
24.66133	54344
24.66947	55427
24.67758	56136
24.68570	58952
24.69383	61935
24.70195	62650
24.71007	66777
24.71820	63162
24.72632	69659
24.73445	60793
24.74257	64626
24.75068	63390
24.75882	60657
24.76693	60770
24.77507	60507
24.78318	60802
24.79130	55108
24.79943	54414
24.80755	50228
24.81567	50625
24.82380	47047
24.83192	47586
24.84005	57080
24.84817	49417
24.85628	54724
24.86442	51709
24.87253	46254
24.88067	45813
24.88878	46861
24.89690	42769
24.90503	45010
24.91315	48754
24.92128	48640
24.92940	47598
24.93752	46408
24.94565	50284
24.95377	47011
24.96188	49412
24.97002	54976
24.97813	46187
24.98627	48002
24.99438	47849
25.00250	48290
25.01063	49704
25.01875	47150
25.02688	48642
25.03500	43666
25.04312	47539
25.05125	51801
25.05937	53378
25.06750	45089
25.07562	48902
25.08373	51818
25.09187	44480
25.09998	47161
25.10810	44858
25.11623	46206
25.12435	49104
25.13248	48145
25.14060	52383
25.14872	49076
25.15685	52029
25.16497	49513
25.17310	47180
25.18122	48745
25.18933	45991
25.19747	50031
25.20558	47117
25.21370	47070
25.22183	49000
25.22995	54400
25.23808	45972
25.24620	45858
25.25432	59702
25.26245	54515
25.27057	48397
25.27870	48344
25.28682	51000
25.29493	47772
25.30307	56154
25.31118	52161
25.31932	49584
25.32743	46208
25.33555	47115
25.34368	46073
25.35180	51658
25.35992	49318
25.36805	48581
25.37617	46808
25.38430	47067
25.39242	52055
25.40053	47491
25.40867	45289
25.41678	47983
25.42492	50294
25.43303	51292
25.44115	54158
25.44928	46455
25.45740	46886
25.46553	51019
25.47365	50617
25.48177	50121
25.48990	55104
25.49802	54254
25.50613	45811
25.51427	48449
25.52238	47337
25.53052	45210
25.53863	47191
25.54675	50622
25.55488	45428
25.56300	53950
25.57113	56000
25.57925	50019
25.58737	49887
25.59550	50075
25.60362	50614
25.61175	54400
25.61987	53609
25.62798	56124
25.63612	62778
25.64423	57595
25.65235	57946
25.66048	53693
25.66860	52332
25.67673	54206
25.68485	50948
25.69297	49275
25.70110	46215
25.70922	49581
25.71735	50298
25.72547	46330
25.73358	45720
25.74172	46795
25.74983	51167
25.75795	49922
25.76608	50433
25.77420	55677
25.78233	48396
25.79045	52163
25.79857	56269
25.80670	49163
25.81482	46441
25.82295	46898
25.83107	49769
25.83918	48177
25.84732	46920
25.85543	47339
25.86357	48173
25.87168	46763
25.87980	48532
25.88793	51766
25.89605	51495
25.90417	58151
25.91230	65375
25.92042	73048
25.92855	71103
25.93667	70536
25.94478	71752
25.95292	67399
25.96103	72481
25.96917	62271
25.97728	63782
25.98540	58194
25.99353	60148
26.00165	56776
26.00978	58016
26.01790	51020
26.02602	62079
26.03415	49347
26.04227	50196
26.05038	48907
26.05852	50547
26.06663	51137
26.07477	53983
26.08288	51611
26.09100	50137
26.09913	53415
26.10725	48638
26.11538	49394
26.12350	54562
26.13162	51539
26.13975	50646
26.14787	47319
26.15600	52118
26.16412	46865
26.17223	49130
26.18037	51984
26.18848	50533
26.19660	50918
26.20473	45904
26.21285	46277
26.22098	51204
26.22910	47144
26.23722	50450
26.24535	48990
26.25347	47392
26.26160	55039
26.26972	49852
26.27783	44406
26.28597	49718
26.29408	49561
26.30220	47238
26.31033	57668
26.31845	62761
26.32658	64466
26.33470	68204
26.34282	86540
26.35095	99736
26.35907	108944
26.36720	113148
26.37532	120841
26.38343	102126
26.39157	81378
26.39968	71667
26.40782	68628
26.41593	72543
26.42405	75706
26.43218	80664
26.44030	83728
26.44842	76724
26.45655	77858
26.46467	64567
26.47280	53971
26.48092	52047
26.48903	51844
26.49717	49098
26.50528	51408
26.51342	50767
26.52153	50281
26.52965	46694
26.53778	55434
26.54590	52079
26.55403	50946
26.56215	46723
26.57027	59487
26.57840	55369
26.58652	54168
26.59463	53935
26.60277	54650
26.61088	47947
26.61902	56973
26.62713	50406
26.63525	56570
26.64338	60541
26.65150	54475
26.65963	50430
26.66775	51498
26.67587	50495
26.68400	51561
26.69212	50411
26.70023	52174
26.70837	50132
26.71648	51381
26.72462	48141
26.73273	49597
26.74085	47749
26.74898	53777
26.75710	52147
26.76523	56898
26.77335	50304
26.78147	50258
26.78960	51130
26.79772	53734
26.80585	46425
26.81397	52143
26.82208	58766
26.83022	55636
26.83833	57030
26.84645	57940
26.85458	63058
26.86270	73725
26.87083	71078
26.87895	79130
26.88707	86445
26.89520	71755
26.90332	67715
26.91145	63901
26.91957	61421
26.92768	59671
26.93582	52353
26.94393	52566
26.95207	52905
26.96018	55007
26.96830	58681
26.97643	63468
26.98455	66123
26.99267	69816
27.00080	73871
27.00892	75312
27.01705	69762
27.02517	66763
27.03328	60897
27.04142	64981
27.04953	63674
27.05767	55591
27.06578	58346
27.07390	51789
27.08203	59246
27.09015	57333
27.09828	63604
27.10640	60190
27.11452	53760
27.12265	62057
27.13077	54409
27.13888	58892
27.14702	50324
27.15513	54231
27.16327	50820
27.17138	57774
27.17950	56659
27.18763	49927
27.19575	55641
27.20388	58913
27.21200	57266
27.22012	64401
27.22825	55303
27.23637	55879
27.24448	59365
27.25262	60989
27.26073	60988
27.26887	59603
27.27698	61118
27.28510	59229
27.29323	61086
27.30135	57495
27.30948	58987
27.31760	56428
27.32572	56274
27.33385	58097
27.34197	56340
27.35010	57543
27.35822	54488
27.36633	61988
27.37447	55021
27.38258	55405
27.39070	54570
27.39883	56529
27.40695	58426
27.41508	62241
27.42320	64635
27.43132	76586
27.43945	82244
27.44757	100273
27.45570	96954
27.46382	100070
27.47193	111624
27.48007	89805
27.48818	86428
27.49632	82653
27.50443	83157
27.51255	75686
27.52068	68349
27.52880	65301
27.53692	66870
27.54505	64891
27.55317	66561
27.56130	61154
27.56942	60853
27.57753	59184
27.58567	62862
27.59378	67388
27.60192	59405
27.61003	56290
27.61815	56660
27.62628	56082
27.63440	63195
27.64252	56390
27.65065	57181
27.65877	59242
27.66690	61699
27.67502	68094
27.68313	63280
27.69127	59653
27.69938	64651
27.70752	60226
27.71563	56948
27.72375	56184
27.73188	59509
27.74000	60953
27.74813	58538
27.75625	53423
27.76437	56004
27.77250	55317
27.78062	52603
27.78873	53632
27.79687	56496
27.80498	52674
27.81312	56456
27.82123	54947
27.82935	60904
27.83748	53148
27.84560	51023
27.85373	52894
27.86185	57836
27.86997	63031
27.87810	55093
27.88622	55636
27.89435	56483
27.90247	58369
27.91058	58471
27.91872	59680
27.92683	64323
27.93495	53303
27.94308	51663
27.95120	59571
27.95933	56835
27.96745	56066
27.97557	55306
27.98370	65471
27.99182	52816
27.99995	53062
28.00807	53912
28.01618	53570
28.02432	54298
28.03243	48304
28.04055	57068
28.04868	51101
28.05680	54880
28.06493	55322
28.07305	53854
28.08117	54267
28.08930	55516
28.09742	55453
28.10555	56028
28.11367	56728
28.12178	56597
28.12992	57143
28.13803	57807
28.14617	56846
28.15428	57302
28.16240	58425
28.17053	58375
28.17865	56158
28.18677	58053
28.19490	57493
28.20302	56757
28.21115	60406
28.21927	56786
28.22738	55932
28.23552	59302
28.24363	55581
28.25177	56432
28.25988	56566
28.26800	58540
28.27613	62524
28.28425	60879
28.29238	61685
28.30050	62300
28.30862	64153
28.31675	57175
28.32487	63465
28.33298	57021
28.34112	60078
28.34923	67778
28.35737	58019
28.36548	63320
28.37360	63384
28.38173	62848
28.38985	61474
28.39798	58492
28.40610	64356
28.41422	60801
28.42235	61692
28.43047	58472
28.43860	61115
28.44672	60905
28.45483	70888
28.46297	66820
28.47108	61400
28.47920	60879
28.48733	62516
28.49545	64524
28.50358	64259
28.51170	65802
28.51982	59974
28.52795	59390
28.53607	60595
28.54420	61662
28.55232	62192
28.56043	57183
28.56857	62796
28.57668	65079
28.58480	64983
28.59293	71348
28.60105	74761
28.60918	67175
28.61730	71667
28.62542	67377
28.63355	71296
28.64167	64910
28.64980	66719
28.65792	64559
28.66603	64218
28.67417	59859
28.68228	63275
28.69042	60716
28.69853	65528
28.70665	64387
28.71478	65203
28.72290	70563
28.73102	64372
28.73915	66215
28.74727	70147
28.75540	69101
28.76352	75835
28.77163	73044
28.77977	75911
28.78788	72459
28.79602	75981
28.80413	76836
28.81225	86372
28.82038	80524
28.82850	87365
28.83663	85373
28.84475	78241
28.85287	78312
28.86100	74574
28.86912	74667
28.87723	81174
28.88537	70534
28.89348	71870
28.90162	67176
28.90973	71494
28.91785	68591
28.92598	72327
28.93410	73398
28.94223	63856
28.95035	64926
28.95847	71221
28.96660	63135
28.97472	60953
28.98283	70323
28.99097	62099
28.99908	59426
29.00722	60334
29.01533	63261
29.02345	65861
29.03158	65306
29.03970	64425
29.04783	71336
29.05595	62051
29.06407	66259
29.07220	67534
29.08032	61950
29.08845	63712
29.09657	67741
29.10468	69513
29.11282	59470
29.12093	62862
29.12905	58011
29.13718	57460
29.14530	59746
29.15343	63483
29.16155	59436
29.16967	66882
29.17780	62551
29.18592	59771
29.19405	59413
29.20217	61311
29.21028	59569
29.21842	59954
29.22653	68771
29.23467	59326
29.24278	58341
29.25090	66821
29.25903	59962
29.26715	66627
29.27527	69826
29.28340	63749
29.29152	62111
29.29965	65549
29.30777	58986
29.31588	58255
29.32402	56480
29.33213	57074
29.34027	66806
29.34838	64961
29.35650	63141
29.36463	61786
29.37275	64563
29.38087	66614
29.38900	67709
29.39712	64828
29.40525	67025
29.41337	74047
29.42148	61296
29.42962	60299
29.43773	58780
29.44587	63821
29.45398	62701
29.46210	66414
29.47023	65507
29.47835	71710
29.48648	76349
29.49460	70447
29.50272	67274
29.51085	67653
29.51897	65272
29.52708	65911
29.53522	62832
29.54333	63337
29.55147	67827
29.55958	66852
29.56770	65298
29.57583	65254
29.58395	61699
29.59208	67849
29.60020	63251
29.60832	65084
29.61645	63298
29.62457	59435
29.63270	62870
29.64082	64232
29.64893	67148
29.65707	71159
29.66518	63286
29.67330	67712
29.68143	70115
29.68955	73997
29.69768	70583
29.70580	66960
29.71392	74937
29.72205	63462
29.73017	62742
29.73830	66949
29.74642	61673
29.75453	58417
29.76267	58977
29.77078	64386
29.77892	63888
29.78703	70373
29.79515	66832
29.80328	70428
29.81140	70139
29.81952	69039
29.82765	63769
29.83577	65926
29.84390	62355
29.85202	66700
29.86013	69079
29.86827	64967
29.87638	74318
29.88452	66566
29.89263	72554
29.90075	70010
29.90888	64831
29.91700	62422
29.92512	66673
29.93325	61273
29.94137	66717
29.94950	68874
29.95762	64874
29.96573	64131
29.97387	62505
29.98198	61887
29.99012	58036
29.99823	64898
30.00635	65920
30.01448	74619
30.02260	66436
30.03073	69470
30.03885	68158
30.04697	66622
30.05510	69003
30.06322	69940
30.07133	64020
30.07947	69537
30.08758	68540
30.09572	69847
30.10383	71377
30.11195	65232
30.12008	69863
30.12820	72401
30.13633	70963
30.14445	68020
30.15257	74916
30.16070	71011
30.16882	71670
30.17695	79880
30.18507	71911
30.19318	69257
30.20132	71471
30.20943	70123
30.21755	70217
30.22568	73030
30.23380	73637
30.24193	73995
30.25005	72077
30.25817	76411
30.26630	72763
30.27442	72549
30.28255	73484
30.29067	69120
30.29878	67518
30.30692	63978
30.31503	69770
30.32315	73258
30.33128	75377
30.33940	78968
30.34753	90271
30.35565	82785
30.36377	92549
30.37190	100476
30.38002	101485
30.38815	111238
30.39627	102014
30.40438	103697
30.41252	97004
30.42063	96075
30.42877	98197
30.43688	94408
30.44500	93182
30.45313	99800
30.46125	93026
30.46937	102120
30.47750	90568
30.48562	95839
30.49375	91967
30.50187	87616
30.50998	83151
30.51812	86210
30.52623	84621
30.53437	82994
30.54248	79952
30.55060	78576
30.55873	79197
30.56685	83320
30.57498	78870
30.58310	81912
30.59122	94613
30.59935	93839
30.60747	109733
30.61558	113301
30.62372	122048
30.63183	110631
30.63997	104953
30.64808	104063
30.65620	91613
30.66433	84023
30.67245	78299
30.68058	70791
30.68870	71705
30.69682	81815
30.70495	71549
30.71307	81847
30.72118	78471
30.72932	77886
30.73743	81847
30.74557	82076
30.75368	78243
30.76180	70475
30.76993	73820
30.77805	73826
30.78618	81031
30.79430	74866
30.80242	72834
30.81055	76221
30.81867	73885
30.82680	75935
30.83492	79530
30.84303	79603
30.85117	81418
30.85928	78969
30.86740	77146
30.87553	74633
30.88365	77472
30.89178	80082
30.89990	77131
30.90802	72400
30.91615	79119
30.92427	80863
30.93240	82518
30.94052	77972
30.94863	86922
30.95677	87733
30.96488	85180
30.97302	87285
30.98113	87818
30.98925	87420
30.99738	89668
31.00550	92946
31.01362	91196
31.02175	94455
31.02987	92305
31.03800	92606
31.04612	89527
31.05423	80532
31.06237	90327
31.07048	76999
31.07862	84214
31.08673	74317
31.09485	73271
31.10298	68446
31.11110	67682
31.11923	73088
31.12735	72164
31.13547	73991
31.14360	69899
31.15172	69701
31.15983	73776
31.16797	72722
31.17608	74077
31.18422	73259
31.19233	70756
31.20045	76417
31.20858	72042
31.21670	75546
31.22483	74714
31.23295	71634
31.24107	72679
31.24920	72292
31.25732	74324
31.26543	73407
31.27357	73970
31.28168	71832
31.28982	82083
31.29793	79415
31.30605	70052
31.31418	72269
31.32230	73258
31.33043	73587
31.33855	76637
31.34667	79441
31.35480	80397
31.36292	76675
31.37105	83927
31.37917	87590
31.38728	81768
31.39542	77671
31.40353	81100
31.41165	79324
31.41978	79151
31.42790	79857
31.43603	77897
31.44415	83096
31.45227	86868
31.46040	79889
31.46852	84046
31.47665	91414
31.48477	78875
31.49288	84009
31.50102	84998
31.50913	87811
31.51727	90734
31.52538	91608
31.53350	89569
31.54163	89082
31.54975	89175
31.55787	87319
31.56600	84267
31.57412	84490
31.58225	91580
31.59037	87275
31.59848	116455
31.60662	155494
31.61473	284432
31.62287	586493
31.63098	1196932
31.63910	2263528
31.64723	3318877
31.65535	4000681
31.66347	4014127
31.67160	3441785
31.67972	2422170
31.68785	1482931
31.69597	801529
31.70408	419668
31.71222	242940
31.72033	158466
31.72847	128851
31.73658	118329
31.74470	103118
31.75283	107793
31.76095	99801
31.76908	95893
31.77720	86762
31.78532	97837
31.79345	88212
31.80157	88765
31.80968	87557
31.81782	85731
31.82593	89655
31.83407	92153
31.84218	91847
31.85030	90949
31.85843	87210
31.86655	93678
31.87468	89217
31.88280	86515
31.89092	84998
31.89905	84333
31.90717	88782
31.91530	80592
31.92342	82755
31.93153	81017
31.93967	82926
31.94778	78152
31.95590	79017
31.96403	87617
31.97215	80347
31.98028	83154
31.98840	85421
31.99652	91170
32.00465	91623
32.01277	105550
32.02090	103930
32.02902	99109
32.03713	102724
32.04527	100386
32.05338	100944
32.06150	99697
32.06963	97856
32.07775	106424
32.08588	118616
32.09400	123454
32.10212	131041
32.11025	148201
32.11837	154547
32.12650	149953
32.13462	141390
32.14273	133422
32.15087	121733
32.15898	121090
32.16712	114486
32.17523	119045
32.18335	114564
32.19148	110336
32.19960	105427
32.20772	103648
32.21585	98234
32.22397	84592
32.23210	85723
32.24022	94648
32.24833	84722
32.25647	91620
32.26458	93360
32.27272	90652
32.28083	91774
32.28895	94283
32.29708	93462
32.30520	94132
32.31333	91001
32.32145	91719
32.32957	92822
32.33770	93758
32.34582	94789
32.35393	93817
32.36207	91746
32.37018	104587
32.37832	90605
32.38643	93568
32.39455	90054
32.40268	94583
32.41080	83093
32.41893	90875
32.42705	91762
32.43517	91128
32.44330	85131
32.45142	92562
32.45955	87759
32.46767	82926
32.47578	85689
32.48392	83861
32.49203	91644
32.50015	93771
32.50828	114868
32.51640	140583
32.52453	197724
32.53265	292764
32.54077	423290
32.54890	571874
32.55702	650974
32.56515	661662
32.57327	546217
32.58138	402796
32.58952	292821
32.59763	215810
32.60575	172902
32.61388	138982
32.62200	120284
32.63013	114238
32.63825	106728
32.64637	108068
32.65450	103161
32.66262	100140
32.67075	99526
32.67887	103839
32.68698	99403
32.69512	108692
32.70323	92307
32.71137	97402
32.71948	98284
32.72760	100007
32.73573	87470
32.74385	91077
32.75197	91246
32.76010	94278
32.76822	94094
32.77635	91062
32.78447	91482
32.79258	92414
32.80072	94090
32.80883	98198
32.81697	93495
32.82508	98446
32.83320	98918
32.84133	108487
32.84945	100046
32.85758	95335
32.86570	104001
32.87382	89449
32.88195	89936
32.89007	94671
32.89818	92631
32.90632	92671
32.91443	102557
32.92257	91327
32.93068	106106
32.93880	111106
32.94693	106684
32.95505	111297
32.96318	105692
32.97130	104262
32.97942	103460
32.98755	98482
32.99567	99491
33.00378	99431
33.01192	101694
33.02003	94443
33.02817	94445
33.03628	97892
33.04440	95466
33.05253	99845
33.06065	95704
33.06878	97550
33.07690	97776
33.08502	100146
33.09315	104818
33.10127	95243
33.10940	89394
33.11752	89583
33.12563	93904
33.13377	95997
33.14188	93834
33.15000	92439
33.15813	95485
33.16625	106816
33.17438	94879
33.18250	92038
33.19062	93576
33.19875	100965
33.20687	95685
33.21500	94259
33.22312	87919
33.23123	87125
33.23937	87616
33.24748	92934
33.25562	96724
33.26373	95985
33.27185	89177
33.27998	89431
33.28810	100236
33.29622	95703
33.30435	91670
33.31247	95888
33.32060	95323
33.32872	101960
33.33683	109736
33.34497	117118
33.35308	108517
33.36122	103849
33.36933	106684
33.37745	106241
33.38558	99700
33.39370	104258
33.40182	99010
33.40995	100353
33.41807	93464
33.42620	107712
33.43432	95642
33.44243	94116
33.45057	98296
33.45868	101510
33.46682	100026
33.47493	110416
33.48305	100411
33.49118	104919
33.49930	107659
33.50743	103923
33.51555	106424
33.52367	106465
33.53180	108291
33.53992	115322
33.54803	123587
33.55617	132036
33.56428	152605
33.57242	159352
33.58053	158241
33.58865	163796
33.59678	173368
33.60490	163059
33.61303	150215
33.62115	140085
33.62927	135882
33.63740	130353
33.64552	122849
33.65365	131661
33.66177	120930
33.66988	116477
33.67802	110928
33.68613	119842
33.69425	110575
33.70238	109482
33.71050	113218
33.71863	111597
33.72675	107596
33.73487	110183
33.74300	104083
33.75112	111726
33.75925	106908
33.76737	114962
33.77548	106404
33.78362	105071
33.79173	115844
33.79987	102844
33.80798	112688
33.81610	111585
33.82423	124066
33.83235	115447
33.84047	113275
33.84860	109985
33.85672	105932
33.86485	101041
33.87297	102445
33.88108	97372
33.88922	104275
33.89733	99587
33.90547	95158
33.91358	100831
33.92170	95921
33.92983	96398
33.93795	101634
33.94607	99972
33.95420	100071
33.96232	108742
33.97045	102368
33.97857	97953
33.98668	102551
33.99482	109305
34.00293	109058
34.01107	120952
34.01918	128494
34.02730	134468
34.03543	132097
34.04355	131702
34.05168	134864
34.05980	120428
34.06792	111724
34.07605	113691
34.08417	116933
34.09228	105566
34.10042	101551
34.10853	98347
34.11667	106998
34.12478	109092
34.13290	109838
34.14103	104394
34.14915	99700
34.15728	105948
34.16540	103183
34.17352	102474
34.18165	103315
34.18977	99988
34.19790	111278
34.20602	112602
34.21413	109632
34.22227	103850
34.23038	115193
34.23850	129185
34.24663	118255
34.25475	116235
34.26288	117061
34.27100	114669
34.27912	111809
34.28725	104919
34.29537	104803
34.30350	104466
34.31162	106828
34.31973	106103
34.32787	98331
34.33598	98910
34.34410	108589
34.35223	95071
34.36035	101503
34.36848	105081
34.37660	97269
34.38472	97590
34.39285	102203
34.40097	102111
34.40910	103382
34.41722	102211
34.42533	107578
34.43347	106727
34.44158	109775
34.44972	109452
34.45783	105998
34.46595	104603
34.47408	101764
34.48220	103958
34.49032	113997
34.49845	110969
34.50657	111090
34.51470	109817
34.52282	115327
34.53093	114594
34.53907	123384
34.54718	140967
34.55532	174813
34.56343	220412
34.57155	275067
34.57968	325862
34.58780	332187
34.59593	317179
34.60405	260807
34.61217	211750
34.62030	171889
34.62842	142096
34.63653	133443
34.64467	133239
34.65278	125250
34.66092	126995
34.66903	129800
34.67715	125840
34.68528	132602
34.69340	135555
34.70153	134167
34.70965	131695
34.71777	130456
34.72590	118607
34.73402	115465
34.74213	112441
34.75027	108626
34.75838	109070
34.76652	115762
34.77463	121309
34.78275	111581
34.79088	116376
34.79900	118776
34.80713	123044
34.81525	124762
34.82337	120181
34.83150	120497
34.83962	117649
34.84775	123485
34.85587	121097
34.86398	113111
34.87212	125739
34.88023	121684
34.88835	129130
34.89648	129292
34.90460	123996
34.91273	126504
34.92085	129327
34.92897	123550
34.93710	117516
34.94522	121851
34.95335	117102
34.96147	116293
34.96958	112641
34.97772	119832
34.98583	113062
34.99397	115522
35.00208	112483
35.01020	108832
35.01833	113160
35.02645	113881
35.03457	117619
35.04270	117688
35.05082	122447
35.05895	121329
35.06707	128901
35.07518	121131
35.08332	121555
35.09143	115708
35.09957	108963
35.10768	111247
35.11580	114204
35.12393	112804
35.13205	114475
35.14018	111241
35.14830	122914
35.15642	119738
35.16455	125589
35.17267	128299
35.18078	130272
35.18892	133780
35.19703	127461
35.20517	134454
35.21328	121042
35.22140	118211
35.22953	124051
35.23765	121177
35.24578	130501
35.25390	114356
35.26202	112169
35.27015	118181
35.27827	123648
35.28638	118073
35.29452	131597
35.30263	121197
35.31077	120263
35.31888	116447
35.32700	121796
35.33513	135807
35.34325	130673
35.35138	134403
35.35950	136088
35.36762	133712
35.37575	136522
35.38387	134460
35.39200	126163
35.40012	128695
35.40823	121277
35.41637	113314
35.42448	121778
35.43260	116950
35.44073	117241
35.44885	123082
35.45698	128852
35.46510	123291
35.47322	120872
35.48135	124379
35.48947	126087
35.49760	123002
35.50572	134683
35.51383	136111
35.52197	135582
35.53008	128745
35.53822	132934
35.54633	138626
35.55445	134221
35.56258	135094
35.57070	147062
35.57882	147686
35.58695	159357
35.59507	193212
35.60320	227961
35.61132	293884
35.61943	345076
35.62757	382875
35.63568	418574
35.64382	401719
35.65193	399456
35.66005	395008
35.66818	421459
35.67630	409603
35.68442	384879
35.69255	351540
35.70067	273799
35.70880	220523
35.71692	177014
35.72503	161627
35.73317	149557
35.74128	149276
35.74942	144044
35.75753	150412
35.76565	150597
35.77378	148454
35.78190	164913
35.79003	173270
35.79815	182435
35.80627	200603
35.81440	201129
35.82252	185585
35.83063	172967
35.83877	167835
35.84688	150446
35.85502	138109
35.86313	137897
35.87125	145464
35.87938	142362
35.88750	128911
35.89563	133230
35.90375	131830
35.91187	137145
35.92000	140597
35.92812	132597
35.93625	132872
35.94437	128045
35.95248	134362
35.96062	125776
35.96873	135462
35.97685	133468
35.98498	134784
35.99310	130336
36.00123	136652
36.00935	139166
36.01747	140021
36.02560	132577
36.03372	130410
36.04185	132907
36.04997	130798
36.05808	133325
36.06622	128787
36.07433	131676
36.08245	133573
36.09058	144350
36.09870	148430
36.10683	154745
36.11495	162365
36.12307	164976
36.13120	156833
36.13932	160389
36.14745	153800
36.15557	145944
36.16368	144202
36.17182	139072
36.17993	137360
36.18807	133497
36.19618	135848
36.20430	132479
36.21243	126981
36.22055	124757
36.22867	131414
36.23680	142940
36.24492	135892
36.25305	135852
36.26117	138570
36.26928	137494
36.27742	135079
36.28553	137923
36.29367	139142
36.30178	139494
36.30990	151028
36.31803	139546
36.32615	135579
36.33428	135806
36.34240	136852
36.35052	131703
36.35865	148860
36.36677	139761
36.37488	131954
36.38302	137349
36.39113	136988
36.39927	138147
36.40738	129588
36.41550	137246
36.42363	134907
36.43175	124041
36.43988	137994
36.44800	132733
36.45612	130611
36.46425	136263
36.47237	133244
36.48050	142850
36.48862	133378
36.49673	140468
36.50487	139536
36.51298	147637
36.52110	139437
36.52923	140210
36.53735	139221
36.54548	148107
36.55360	143769
36.56172	144441
36.56985	152055
36.57797	150759
36.58610	149134
36.59422	157988
36.60233	144734
36.61047	148983
36.61858	144926
36.62670	138343
36.63483	145963
36.64295	152445
36.65108	154620
36.65920	151585
36.66732	151665
36.67545	149201
36.68357	154892
36.69170	161459
36.69982	158600
36.70793	164175
36.71607	180827
36.72418	187472
36.73232	203545
36.74043	217477
36.74855	212274
36.75668	207619
36.76480	197043
36.77292	192784
36.78105	191682
36.78917	198035
36.79730	207196
36.80542	230940
36.81353	237767
36.82167	229029
36.82978	228089
36.83792	210273
36.84603	191614
36.85415	184753
36.86228	174680
36.87040	176482
36.87853	179357
36.88665	215716
36.89477	255384
36.90290	328132
36.91102	408306
36.91913	461482
36.92727	470926
36.93538	441969
36.94352	381513
36.95163	333760
36.95975	315859
36.96788	312829
36.97600	358493
36.98413	417367
36.99225	427086
37.00037	415907
37.00850	354231
37.01662	285973
37.02473	238735
37.03287	198311
37.04098	185546
37.04912	166970
37.05723	166203
37.06535	178826
37.07348	184671
37.08160	173290
37.08973	167243
37.09785	176457
37.10597	165139
37.11410	184195
37.12222	173459
37.13035	178945
37.13847	171148
37.14658	170993
37.15472	176305
37.16283	171069
37.17095	166866
37.17908	161816
37.18720	167289
37.19533	171384
37.20345	167910
37.21157	173019
37.21970	156030
37.22782	163679
37.23595	167396
37.24407	160462
37.25218	164671
37.26032	163901
37.26843	156050
37.27657	168586
37.28468	156187
37.29280	162962
37.30093	159555
37.30905	162333
37.31717	159563
37.32530	162980
37.33342	164583
37.34155	163156
37.34967	168418
37.35778	168022
37.36592	184126
37.37403	168644
37.38217	172973
37.39028	169319
37.39840	172799
37.40653	169564
37.41465	160062
37.42277	169323
37.43090	162989
37.43902	161270
37.44715	170941
37.45527	159877
37.46338	166255
37.47152	167849
37.47963	160449
37.48777	165235
