C:\MassHunter\GCMS\1\data\JTB-E02\BACandBLUE\JTB-E18-021-04.D Wed Jul 10 09:02:04 2019
Start of data points
2.09513	39591
2.10327	44994
2.11138	47823
2.11952	50238
2.12763	46268
2.13575	48824
2.14388	50098
2.15200	51467
2.16012	47944
2.16825	45963
2.17637	42593
2.18450	49220
2.19262	46306
2.20073	42829
2.20887	39386
2.21698	39386
2.22512	41017
2.23323	36258
2.24135	35623
2.24948	35940
2.25760	36656
2.26573	43821
2.27385	403804
2.28197	2527245
2.29010	2789185
2.29822	1038440
2.30633	476209
2.31447	334790
2.32258	274800
2.33072	243183
2.33883	215459
2.34695	198876
2.35508	178749
2.36320	159068
2.37133	137742
2.37945	135887
2.38757	131465
2.39570	124143
2.40382	114121
2.41195	117631
2.42007	110860
2.42818	107763
2.43632	107407
2.44443	102924
2.45255	117849
2.46068	116295
2.46880	99863
2.47693	89909
2.48505	90189
2.49317	92907
2.50130	105468
2.50942	97029
2.51755	87726
2.52567	81779
2.53378	82582
2.54192	76559
2.55003	80582
2.55815	81623
2.56628	78664
2.57440	78196
2.58253	75270
2.59065	73028
2.59877	70565
2.60690	75612
2.61502	78389
2.62315	85334
2.63127	81752
2.63938	74832
2.64752	70754
2.65563	68462
2.66377	68149
2.67188	65537
2.68000	69310
2.68813	63224
2.69625	65414
2.70437	63884
2.71250	61798
2.72062	63111
2.72875	60770
2.73687	61771
2.74498	61303
2.75312	57466
2.76123	62360
2.76937	60020
2.77748	55100
2.78560	56971
2.79373	55260
2.80185	60389
2.80997	62007
2.81810	57526
2.82622	54319
2.83435	53651
2.84247	58810
2.85058	55714
2.85872	51748
2.86683	53551
2.87497	57920
2.88308	53362
2.89120	58839
2.89933	54694
2.90745	56302
2.91558	56361
2.92370	54392
2.93182	54630
2.93995	51487
2.94807	51474
2.95618	52169
2.96432	51342
2.97243	51367
2.98057	56667
2.98868	54094
2.99680	55101
3.00493	51273
3.01305	50824
3.02118	53307
3.02930	48836
3.03742	51306
3.04555	50858
3.05367	51872
3.06180	47492
3.06992	51859
3.07803	51901
3.08617	50474
3.09428	54777
3.10240	57286
3.11053	70895
3.11865	82466
3.12678	71461
3.13490	70696
3.14302	64655
3.15115	61238
3.15927	58701
3.16740	57755
3.17552	59779
3.18363	55662
3.19177	52489
3.19988	53942
3.20800	57660
3.21613	55165
3.22425	53821
3.23238	50616
3.24050	52466
3.24862	53012
3.25675	53116
3.26487	53296
3.27300	49293
3.28112	61650
3.28923	217570
3.29737	1136922
3.30548	3947211
3.31362	7597348
3.32173	8652113
3.32985	6946531
3.33798	4895921
3.34610	3569486
3.35422	2751914
3.36235	2293413
3.37047	1890050
3.37860	1637525
3.38672	1444610
3.39483	1274159
3.40297	1131406
3.41108	1017354
3.41922	941426
3.42733	869050
3.43545	823246
3.44358	754135
3.45170	728321
3.45983	678970
3.46795	643676
3.47607	623832
3.48420	600550
3.49232	571384
3.50043	551820
3.50857	541097
3.51668	505135
3.52482	480346
3.53293	469744
3.54105	450303
3.54918	445460
3.55730	429869
3.56543	427500
3.57355	415640
3.58167	401178
3.58980	391874
3.59792	385220
3.60603	374207
3.61417	380901
3.62228	363806
3.63042	359914
3.63853	352826
3.64665	340314
3.65478	343822
3.66290	332973
3.67103	321392
3.67915	316038
3.68727	317600
3.69540	308186
3.70352	303038
3.71165	301726
3.71977	293073
3.72788	288090
3.73602	290120
3.74413	284520
3.75225	281608
3.76038	275069
3.76850	269949
3.77663	270684
3.78475	255632
3.79287	269367
3.80100	255626
3.80912	260179
3.81725	263567
3.82537	254122
3.83348	250519
3.84162	246889
3.84973	248787
3.85787	240421
3.86598	244205
3.87410	240845
3.88223	240078
3.89035	232159
3.89847	235679
3.90660	225701
3.91472	226870
3.92285	228375
3.93097	219825
3.93908	220643
3.94722	217620
3.95533	212529
3.96347	214279
3.97158	213589
3.97970	213963
3.98783	208471
3.99595	212778
4.00407	209263
4.01220	211422
4.02032	206167
4.02845	213090
4.03657	207803
4.04468	208559
4.05282	188954
4.06093	197443
4.06907	194529
4.07718	192780
4.08530	196340
4.09343	190093
4.10155	190348
4.10968	193728
4.11780	191339
4.12592	191190
4.13405	193008
4.14217	202041
4.15028	207752
4.15842	217461
4.16653	207491
4.17467	198998
4.18278	196685
4.19090	184590
4.19903	185953
4.20715	184419
4.21528	176577
4.22340	194935
4.23152	214984
4.23965	227627
4.24777	214107
4.25588	209121
4.26402	201988
4.27213	187544
4.28027	185595
4.28838	189491
4.29650	188421
4.30463	176573
4.31275	180474
4.32088	176512
4.32900	172403
4.33712	175951
4.34525	177305
4.35337	172833
4.36150	169156
4.36962	181291
4.37773	174243
4.38587	172079
4.39398	167778
4.40210	163563
4.41023	160598
4.41835	162537
4.42648	164354
4.43460	159446
4.44272	159937
4.45085	154045
4.45897	156383
4.46710	159292
4.47522	156255
4.48333	153473
4.49147	156535
4.49958	163924
4.50772	159586
4.51583	149734
4.52395	155680
4.53208	156461
4.54020	149657
4.54832	154363
4.55645	144756
4.56457	146432
4.57270	148631
4.58082	152289
4.58893	151529
4.59707	145424
4.60518	143905
4.61332	138226
4.62143	146267
4.62955	146965
4.63768	141848
4.64580	141259
4.65392	138296
4.66205	142333
4.67017	143516
4.67830	128959
4.68642	133425
4.69453	139197
4.70267	137389
4.71078	135586
4.71892	131667
4.72703	135091
4.73515	134700
4.74328	134637
4.75140	137863
4.75953	133325
4.76765	135257
4.77577	135721
4.78390	132916
4.79202	133954
4.80013	130942
4.80827	137510
4.81638	136417
4.82452	128763
4.83263	138256
4.84075	137392
4.84888	125978
4.85700	128900
4.86513	130487
4.87325	133015
4.88137	125425
4.88950	130145
4.89762	130107
4.90575	125907
4.91387	126872
4.92198	150579
4.93012	219649
4.93823	546613
4.94635	1423273
4.95448	2900292
4.96260	4225966
4.97073	4538765
4.97885	3873666
4.98697	2867424
4.99510	2054816
5.00322	1538088
5.01135	1212788
5.01947	1025624
5.02758	858273
5.03572	776353
5.04383	691142
5.05195	626988
5.06008	600335
5.06820	561089
5.07633	522717
5.08445	493797
5.09257	474809
5.10070	445288
5.10882	429227
5.11695	414059
5.12507	394512
5.13318	385300
5.14132	378723
5.14943	373184
5.15757	348365
5.16568	342249
5.17380	349386
5.18193	340713
5.19005	323434
5.19817	328923
5.20630	318574
5.21442	311517
5.22255	305493
5.23067	316284
5.23878	372516
5.24692	352203
5.25503	345325
5.26317	322604
5.27128	295942
5.27940	293983
5.28753	282590
5.29565	269011
5.30377	265357
5.31190	254038
5.32002	253999
5.32815	247988
5.33627	255955
5.34438	248172
5.35252	238578
5.36063	244288
5.36877	250869
5.37688	232535
5.38500	237851
5.39313	237528
5.40125	239181
5.40938	224630
5.41750	231493
5.42562	228413
5.43375	224292
5.44187	215096
5.44998	222174
5.45812	224960
5.46623	214958
5.47437	209830
5.48248	213094
5.49060	210850
5.49873	215994
5.50685	212562
5.51498	210059
5.52310	207888
5.53122	202910
5.53935	197707
5.54747	196740
5.55560	206089
5.56372	203758
5.57183	193659
5.57997	190120
5.58808	195822
5.59620	191731
5.60433	195577
5.61245	192067
5.62058	198490
5.62870	192190
5.63682	193431
5.64495	201650
5.65307	192641
5.66120	192391
5.66932	199087
5.67743	205013
5.68557	222925
5.69368	232650
5.70180	223951
5.70993	215646
5.71805	198007
5.72618	191027
5.73430	182581
5.74242	184505
5.75055	176001
5.75867	169641
5.76680	175999
5.77492	170774
5.78303	174336
5.79117	182453
5.79928	171476
5.80742	172179
5.81553	172283
5.82365	172420
5.83178	168940
5.83990	165570
5.84802	167721
5.85615	163182
5.86427	163000
5.87240	157619
5.88052	172449
5.88863	164563
5.89677	159917
5.90488	157671
5.91302	145197
5.92113	114939
5.92925	110233
5.93738	111409
5.94550	111089
5.95363	108524
5.96175	109876
5.96987	109798
5.97800	108237
5.98612	109923
5.99423	115837
6.00237	114579
6.01048	113482
6.01862	106802
6.02673	111949
6.03485	105603
6.04298	108735
6.05110	112374
6.05923	110150
6.06735	104282
6.07547	105444
6.08360	103637
6.09172	108288
6.09983	104536
6.10797	105425
6.11608	104289
6.12422	105761
6.13233	110690
6.14045	110479
6.14858	114189
6.15670	111224
6.16483	119077
6.17295	116454
6.18107	120029
6.18920	120222
6.19732	121763
6.20545	121010
6.21357	124324
6.22168	119892
6.22982	118101
6.23793	117512
6.24605	123853
6.25418	127207
6.26230	120517
6.27043	126566
6.27855	125189
6.28667	135768
6.29480	132981
6.30292	135451
6.31105	129938
6.31917	133261
6.32728	140337
6.33542	143676
6.34353	137086
6.35165	137565
6.35978	141825
6.36790	138136
6.37603	143028
6.38415	138049
6.39227	142036
6.40040	147555
6.40852	145664
6.41665	143105
6.42477	148200
6.43288	151185
6.44102	151784
6.44913	153715
6.45727	147936
6.46538	158153
6.47350	158622
6.48163	154271
6.48975	165152
6.49787	159748
6.50600	158663
6.51412	160691
6.52225	157047
6.53037	145388
6.53848	131940
6.54662	135971
6.55473	127379
6.56287	123832
6.57098	112996
6.57910	120652
6.58723	122582
6.59535	110983
6.60348	112186
6.61160	108728
6.61972	106614
6.62785	107825
6.63597	102633
6.64408	107740
6.65222	107254
6.66033	100518
6.66847	103278
6.67658	100792
6.68470	104181
6.69283	105276
6.70095	102638
6.70908	96736
6.71720	105999
6.72532	100105
6.73345	94015
6.74157	98547
6.74970	100343
6.75782	92901
6.76593	95839
6.77407	97329
6.78218	96988
6.79030	93025
6.79843	91457
6.80655	91255
6.81468	97067
6.82280	90089
6.83092	95985
6.83905	94768
6.84717	90306
6.85530	80174
6.86342	72262
6.87153	59346
6.87967	53918
6.88778	56281
6.89590	57662
6.90403	55999
6.91215	53795
6.92028	53605
6.92840	52355
6.93652	52544
6.94465	50363
6.95277	50643
6.96090	50192
6.96902	55863
6.97713	52370
6.98527	54068
6.99338	51356
7.00152	51204
7.00963	53084
7.01775	48025
7.02588	54729
7.03400	51044
7.04212	52943
7.05025	49635
7.05837	52124
7.06650	50564
7.07462	50266
7.08273	50037
7.09087	50599
7.09898	49977
7.10712	55497
7.11523	49430
7.12335	50875
7.13148	50966
7.13960	51653
7.14772	50669
7.15585	50699
7.16397	51378
7.17210	50028
7.18022	54272
7.18833	53184
7.19647	51995
7.20458	45664
7.21272	52231
7.22083	51778
7.22895	50384
7.23708	50394
7.24520	50859
7.25333	49689
7.26145	49921
7.26957	49375
7.27770	57050
7.28582	53749
7.29393	45939
7.30207	49115
7.31018	49978
7.31832	50551
7.32643	52930
7.33455	50741
7.34268	52294
7.35080	50440
7.35893	50232
7.36705	49006
7.37517	49040
7.38330	51731
7.39142	50757
7.39955	51186
7.40767	51817
7.41578	51788
7.42392	51618
7.43203	51175
7.44015	50184
7.44828	53700
7.45640	52724
7.46453	52284
7.47265	56297
7.48077	54471
7.48890	52566
7.49702	51857
7.50515	47409
7.51327	50314
7.52138	48995
7.52952	50057
7.53763	48004
7.54575	47345
7.55388	47998
7.56200	50212
7.57013	47097
7.57825	45573
7.58637	48933
7.59450	46002
7.60262	46976
7.61075	51131
7.61887	47765
7.62698	49094
7.63512	49518
7.64323	50241
7.65137	48787
7.65948	47251
7.66760	46702
7.67573	50301
7.68385	45993
7.69197	48736
7.70010	50518
7.70822	48057
7.71635	47748
7.72447	49514
7.73258	47703
7.74072	51240
7.74883	48351
7.75697	45226
7.76508	46542
7.77320	42983
7.78133	47983
7.78945	45680
7.79758	46632
7.80570	49444
7.81382	48486
7.82195	48601
7.83007	47960
7.83818	40676
7.84632	45176
7.85443	47334
7.86257	42774
7.87068	41774
7.87880	43022
7.88693	45643
7.89505	41447
7.90318	45868
7.91130	44643
7.91942	46989
7.92755	43273
7.93567	44827
7.94378	41684
7.95192	45370
7.96003	42845
7.96817	41753
7.97628	44069
7.98440	45414
7.99253	45915
8.00065	44092
8.00878	43551
8.01690	42736
8.02502	42829
8.03315	39342
8.04127	43610
8.04940	40038
8.05752	39252
8.06563	40508
8.07377	42544
8.08188	41075
8.09000	43213
8.09813	44696
8.10625	43292
8.11438	42620
8.12250	40739
8.13062	41870
8.13875	43322
8.14687	39830
8.15500	44518
8.16312	40597
8.17123	42001
8.17937	44394
8.18748	46592
8.19560	46208
8.20373	41173
8.21185	40594
8.21998	41366
8.22810	37439
8.23622	42270
8.24435	41601
8.25247	41732
8.26060	41337
8.26872	47466
8.27683	42805
8.28497	43762
8.29308	43149
8.30122	42772
8.30933	39890
8.31745	42007
8.32558	42573
8.33370	42569
8.34182	44374
8.34995	41691
8.35807	42316
8.36620	44391
8.37432	41006
8.38243	45142
8.39057	43758
8.39868	39584
8.40682	40531
8.41493	41474
8.42305	37207
8.43118	41138
8.43930	42036
8.44743	43166
8.45555	45508
8.46367	41938
8.47180	42693
8.47992	40149
8.48803	38957
8.49617	38619
8.50428	43135
8.51242	44239
8.52053	44785
8.52865	44882
8.53678	41381
8.54490	41337
8.55303	45553
8.56115	41086
8.56927	41477
8.57740	43319
8.58552	43126
8.59363	43723
8.60177	40062
8.60988	42390
8.61802	41314
8.62613	40211
8.63425	42447
8.64238	39902
8.65050	39751
8.65863	39204
8.66675	44823
8.67487	42638
8.68300	42258
8.69112	41485
8.69925	39441
8.70737	40027
8.71548	40882
8.72362	40942
8.73173	39099
8.73985	46266
8.74798	68302
8.75610	129561
8.76423	289778
8.77235	591610
8.78047	973540
8.78860	1250369
8.79672	1218681
8.80485	966534
8.81297	703748
8.82108	517293
8.82922	406032
8.83733	353920
8.84547	296512
8.85358	254377
8.86170	228684
8.86983	212583
8.87795	192362
8.88607	189651
8.89420	176391
8.90232	169305
8.91045	159867
8.91857	160107
8.92668	149147
8.93482	146503
8.94293	138504
8.95107	132490
8.95918	133711
8.96730	135409
8.97543	127936
8.98355	121946
8.99167	122485
8.99980	121930
9.00792	112120
9.01605	114078
9.02417	116563
9.03228	117246
9.04042	176344
9.04853	502723
9.05667	493513
9.06478	316494
9.07290	189458
9.08103	154270
9.08915	140336
9.09728	127565
9.10540	117776
9.11352	115327
9.12165	118235
9.12977	114455
9.13788	109705
9.14602	114992
9.15413	109382
9.16227	106878
9.17038	113295
9.17850	114412
9.18663	107760
9.19475	111712
9.20288	105067
9.21100	108808
9.21912	105747
9.22725	105959
9.23537	102407
9.24350	103961
9.25162	102076
9.25973	101236
9.26787	94653
9.27598	100979
9.28410	96265
9.29223	91660
9.30035	95544
9.30848	87927
9.31660	86971
9.32472	88040
9.33285	86305
9.34097	88032
9.34910	89132
9.35722	83402
9.36533	86998
9.37347	82747
9.38158	80608
9.38970	85283
9.39783	84137
9.40595	86945
9.41408	136422
9.42220	853179
9.43032	2365852
9.43845	2760051
9.44657	1714053
9.45470	1051119
9.46282	757966
9.47093	591017
9.47907	482205
9.48718	403964
9.49532	358595
9.50343	305683
9.51155	270173
9.51968	250852
9.52780	218993
9.53592	208513
9.54405	193267
9.55217	175960
9.56030	159174
9.56842	146915
9.57653	129127
9.58467	129208
9.59278	119244
9.60092	118460
9.60903	109036
9.61715	103899
9.62528	101633
9.63340	104634
9.64152	94100
9.64965	97223
9.65777	92596
9.66590	86941
9.67402	90386
9.68213	82925
9.69027	78545
9.69838	79232
9.70652	80365
9.71463	76607
9.72275	77765
9.73088	78672
9.73900	75116
9.74713	68915
9.75525	71336
9.76337	68154
9.77150	70844
9.77962	67802
9.78773	72380
9.79587	73107
9.80398	66765
9.81212	69451
9.82023	78197
9.82835	84813
9.83648	83524
9.84460	80259
9.85273	72770
9.86085	93004
9.86897	293920
9.87710	1012830
9.88522	1652075
9.89335	1473633
9.90147	968431
9.90958	639429
9.91772	478749
9.92583	393327
9.93395	317490
9.94208	275667
9.95020	243095
9.95833	206815
9.96645	193661
9.97457	173522
9.98270	155236
9.99082	148952
9.99895	136168
10.00707	133920
10.01518	133894
10.02332	126907
10.03143	122959
10.03955	116421
10.04768	112774
10.05580	114789
10.06393	102964
10.07205	96960
10.08017	88149
10.08830	100717
10.09642	89816
10.10455	83124
10.11267	82561
10.12078	80411
10.12892	80142
10.13703	74946
10.14517	73418
10.15328	76240
10.16140	77315
10.16953	72885
10.17765	73379
10.18577	72528
10.19390	69095
10.20202	70211
10.21015	68402
10.21827	68726
10.22638	72796
10.23452	76799
10.24263	71721
10.25077	70044
10.25888	74203
10.26700	65394
10.27513	67706
10.28325	73024
10.29138	66536
10.29950	71016
10.30762	82239
10.31575	86408
10.32387	81601
10.33198	79541
10.34012	75577
10.34823	67545
10.35637	69661
10.36448	81287
10.37260	78209
10.38073	77508
10.38885	70980
10.39698	67768
10.40510	68754
10.41322	67435
10.42135	67237
10.42947	67057
10.43758	65560
10.44572	62354
10.45383	63380
10.46197	61874
10.47008	64449
10.47820	65335
10.48633	59442
10.49445	64207
10.50258	66966
10.51070	57800
10.51882	65782
10.52695	73367
10.53507	76738
10.54320	81933
10.55132	84779
10.55943	93608
10.56757	96441
10.57568	102291
10.58380	106428
10.59193	104729
10.60005	92139
10.60818	82177
10.61630	76091
10.62442	76697
10.63255	76275
10.64067	73139
10.64880	72277
10.65692	70964
10.66503	67032
10.67317	67363
10.68128	64681
10.68940	68072
10.69753	65597
10.70565	66205
10.71378	64389
10.72190	68915
10.73002	62835
10.73815	63047
10.74627	59853
10.75440	63674
10.76252	62218
10.77063	63044
10.77877	64932
10.78688	60744
10.79502	62379
10.80313	60774
10.81125	64121
10.81938	56833
10.82750	59776
10.83562	59378
10.84375	58838
10.85187	55545
10.86000	56513
10.86812	55198
10.87623	56220
10.88437	57034
10.89248	64111
10.90062	60199
10.90873	58255
10.91685	53512
10.92498	55144
10.93310	58070
10.94123	55929
10.94935	54118
10.95747	58317
10.96560	56202
10.97372	55277
10.98183	52517
10.98997	54122
10.99808	55325
11.00622	49748
11.01433	53110
11.02245	52455
11.03058	54816
11.03870	53199
11.04683	54262
11.05495	54298
11.06307	53008
11.07120	53046
11.07932	49973
11.08745	51180
11.09557	55700
11.10368	53460
11.11182	53051
11.11993	50954
11.12805	54966
11.13618	54133
11.14430	54667
11.15243	52013
11.16055	60160
11.16867	60959
11.17680	64693
11.18492	63046
11.19305	67194
11.20117	68123
11.20928	67868
11.21742	65090
11.22553	60551
11.23365	56079
11.24178	54400
11.24990	54225
11.25803	52122
11.26615	50733
11.27427	47850
11.28240	49659
11.29052	47773
11.29865	47221
11.30677	47609
11.31488	53693
11.32302	81095
11.33113	172129
11.33927	319482
11.34738	447441
11.35550	447512
11.36363	346654
11.37175	251094
11.37987	196944
11.38800	156290
11.39612	127814
11.40425	113694
11.41237	103619
11.42048	94567
11.42862	89047
11.43673	81254
11.44487	78955
11.45298	72267
11.46110	70405
11.46923	66950
11.47735	64210
11.48547	64463
11.49360	58202
11.50172	60454
11.50985	59157
11.51797	56221
11.52608	56956
11.53422	54340
11.54233	56008
11.55047	56002
11.55858	55290
11.56670	54266
11.57483	56398
11.58295	52352
11.59108	53428
11.59920	54906
11.60732	52696
11.61545	51655
11.62357	51113
11.63168	53285
11.63982	60258
11.64793	50669
11.65607	51355
11.66418	51930
11.67230	50049
11.68043	49442
11.68855	49778
11.69668	50222
11.70480	48210
11.71292	53432
11.72105	54229
11.72917	53736
11.73730	53952
11.74542	51827
11.75353	52626
11.76167	55774
11.76978	53090
11.77790	51073
11.78603	49827
11.79415	50980
11.80228	48914
11.81040	49538
11.81852	46461
11.82665	47285
11.83477	50088
11.84290	52276
11.85102	49582
11.85913	48158
11.86727	50919
11.87538	49355
11.88350	50740
11.89163	51667
11.89975	49857
11.90788	48796
11.91600	43501
11.92412	47599
11.93225	46023
11.94037	44512
11.94850	44473
11.95662	48712
11.96473	48003
11.97287	46881
11.98098	47308
11.98912	45064
11.99723	50193
12.00535	46537
12.01348	50125
12.02160	49114
12.02972	50557
12.03785	47622
12.04597	47240
12.05410	49474
12.06222	48419
12.07033	48458
12.07847	48847
12.08658	47410
12.09472	53296
12.10283	48348
12.11095	45772
12.11908	48292
12.12720	43985
12.13533	49655
12.14345	49053
12.15157	47023
12.15970	47965
12.16782	46147
12.17593	46281
12.18407	46534
12.19218	46974
12.20032	49969
12.20843	54407
12.21655	46912
12.22468	48663
12.23280	46432
12.24093	50055
12.24905	46691
12.25717	53335
12.26530	49889
12.27342	46574
12.28153	47187
12.28967	46652
12.29778	46621
12.30592	47626
12.31403	48907
12.32215	47932
12.33028	44278
12.33840	48578
12.34653	42041
12.35465	43045
12.36277	43294
12.37090	46747
12.37902	48596
12.38715	45764
12.39527	46528
12.40338	45252
12.41152	43293
12.41963	47099
12.42775	46894
12.43588	50913
12.44400	48570
12.45213	47462
12.46025	48714
12.46837	43844
12.47650	47109
12.48462	45995
12.49275	47479
12.50087	45647
12.50898	45666
12.51712	48661
12.52523	43661
12.53335	46715
12.54148	46153
12.54960	45962
12.55773	50699
12.56585	45554
12.57397	43521
12.58210	46325
12.59022	44929
12.59835	43871
12.60647	45942
12.61458	44856
12.62272	43075
12.63083	45045
12.63897	41807
12.64708	42132
12.65520	42499
12.66333	41903
12.67145	38817
12.67957	39440
12.68770	42823
12.69582	41127
12.70395	42815
12.71207	44735
12.72018	43852
12.72832	44132
12.73643	44447
12.74457	42336
12.75268	43636
12.76080	43088
12.76893	44631
12.77705	47006
12.78518	45485
12.79330	42527
12.80142	43094
12.80955	43463
12.81767	42487
12.82578	43802
12.83392	44140
12.84203	40851
12.85017	45381
12.85828	41379
12.86640	44927
12.87453	40025
12.88265	38393
12.89078	41490
12.89890	47285
12.90702	39215
12.91515	38893
12.92327	41432
12.93138	41862
12.93952	42439
12.94763	42580
12.95577	45793
12.96388	40838
12.97200	40676
12.98013	45434
12.98825	46078
12.99638	43054
13.00450	44687
13.01262	47383
13.02075	41831
13.02887	41514
13.03700	42537
13.04512	40056
13.05323	38523
13.06137	37395
13.06948	39209
13.07760	37421
13.08573	40128
13.09385	38771
13.10198	40795
13.11010	39976
13.11822	45104
13.12635	41164
13.13447	38986
13.14260	39653
13.15072	40903
13.15883	43282
13.16697	40790
13.17508	44816
13.18322	48139
13.19133	49962
13.19945	47979
13.20758	44289
13.21570	42219
13.22382	45100
13.23195	43936
13.24007	41580
13.24820	45674
13.25632	40854
13.26443	43969
13.27257	41570
13.28068	42042
13.28882	41570
13.29693	39701
13.30505	41023
13.31318	39286
13.32130	44251
13.32942	43615
13.33755	39627
13.34567	38209
13.35380	41448
13.36192	42082
13.37003	40934
13.37817	40471
13.38628	41941
13.39442	38893
13.40253	39300
13.41065	43778
13.41878	43038
13.42690	38225
13.43503	42130
13.44315	39009
13.45127	39349
13.45940	38338
13.46752	39483
13.47563	39162
13.48377	37731
13.49188	41006
13.50002	39398
13.50813	40851
13.51625	38365
13.52438	42808
13.53250	41205
13.54063	42131
13.54875	40443
13.55687	38217
13.56500	42893
13.57312	45147
13.58123	43066
13.58937	38924
13.59748	41420
13.60562	40394
13.61373	41546
13.62185	41323
13.62998	41062
13.63810	35437
13.64623	40223
13.65435	40645
13.66247	40682
13.67060	42943
13.67872	38128
13.68685	40614
13.69497	40834
13.70308	38373
13.71122	38701
13.71933	37708
13.72745	36869
13.73558	39343
13.74370	41673
13.75183	46031
13.75995	47157
13.76807	53288
13.77620	57604
13.78432	56460
13.79245	61852
13.80057	60648
13.80868	56808
13.81682	60154
13.82493	62464
13.83307	63730
13.84118	60254
13.84930	60437
13.85743	60939
13.86555	60860
13.87367	58094
13.88180	61558
13.88992	60208
13.89805	56258
13.90617	64466
13.91428	60890
13.92242	62039
13.93053	62892
13.93867	56479
13.94678	63201
13.95490	54692
13.96303	59946
13.97115	56146
13.97927	55219
13.98740	58074
13.99552	59275
14.00365	63252
14.01177	55233
14.01988	52333
14.02802	55454
14.03613	58621
14.04427	61009
14.05238	60016
14.06050	59013
14.06863	57583
14.07675	58723
14.08488	58905
14.09300	56833
14.10112	59599
14.10925	58189
14.11737	55779
14.12548	57394
14.13362	55781
14.14173	61810
14.14987	61003
14.15798	74358
14.16610	104949
14.17423	170975
14.18235	262579
14.19048	368914
14.19860	419046
14.20672	406109
14.21485	338944
14.22297	257231
14.23110	212389
14.23922	174654
14.24733	154038
14.25547	139801
14.26358	125799
14.27170	125870
14.27983	117393
14.28795	107069
14.29608	105104
14.30420	100985
14.31232	99497
14.32045	97933
14.32857	88441
14.33670	84667
14.34482	77769
14.35293	70349
14.36107	63703
14.36918	56546
14.37730	59115
14.38543	53180
14.39355	53707
14.40168	50802
14.40980	55365
14.41792	54492
14.42605	56745
14.43417	52995
14.44230	53815
14.45042	54037
14.45853	54391
14.46667	50488
14.47478	49965
14.48292	53430
14.49103	50801
14.49915	48182
14.50728	49645
14.51540	49101
14.52352	53779
14.53165	51486
14.53977	50750
14.54790	46404
14.55602	51529
14.56413	51582
14.57227	50225
14.58038	49893
14.58852	48226
14.59663	46026
14.60475	48495
14.61288	51103
14.62100	45862
14.62913	48236
14.63725	48118
14.64537	49603
14.65350	46516
14.66162	49867
14.66973	49474
14.67787	49006
14.68598	47215
14.69412	50523
14.70223	48731
14.71035	52068
14.71848	50187
14.72660	48188
14.73473	45618
14.74285	47448
14.75097	46690
14.75910	50231
14.76722	46089
14.77533	51280
14.78347	46433
14.79158	44539
14.79972	47157
14.80783	48518
14.81595	50756
14.82408	54390
14.83220	54324
14.84033	57647
14.84845	55164
14.85657	63131
14.86470	66813
14.87282	79905
14.88095	104359
14.88907	135634
14.89718	154245
14.90532	143667
14.91343	127919
14.92155	105300
14.92968	85323
14.93780	77832
14.94593	67746
14.95405	64727
14.96217	65903
14.97030	58911
14.97842	60908
14.98655	54349
14.99467	56476
15.00278	59634
15.01092	58642
15.01903	55382
15.02715	55332
15.03528	52398
15.04340	53457
15.05153	56562
15.05965	52315
15.06777	53908
15.07590	53519
15.08402	53820
15.09215	51064
15.10027	49978
15.10838	51369
15.11652	50997
15.12463	47471
15.13277	51379
15.14088	49548
15.14900	50338
15.15713	48883
15.16525	47844
15.17337	46849
15.18150	46196
15.18962	46676
15.19775	47866
15.20587	47548
15.21398	48369
15.22212	46433
15.23023	44931
15.23837	44405
15.24648	45576
15.25460	44055
15.26273	44944
15.27085	41247
15.27898	47461
15.28710	46106
15.29522	44848
15.30335	42231
15.31147	44382
15.31958	46259
15.32772	44697
15.33583	47597
15.34397	46642
15.35208	41969
15.36020	45352
15.36833	45740
15.37645	43405
15.38458	45387
15.39270	43325
15.40082	42281
15.40895	42915
15.41707	44458
15.42518	40667
15.43332	45559
15.44143	44376
15.44957	41814
15.45768	43757
15.46580	44268
15.47393	45876
15.48205	46707
15.49018	44213
15.49830	42186
15.50642	46046
15.51455	46469
15.52267	47544
15.53080	41698
15.53892	43840
15.54703	46779
15.55517	40806
15.56328	39440
15.57140	47059
15.57953	45617
15.58765	42031
15.59578	42592
15.60390	43302
15.61202	39439
15.62015	40772
15.62827	39867
15.63640	44569
15.64452	49179
15.65263	42017
15.66077	41756
15.66888	40514
15.67702	40749
15.68513	40807
15.69325	43831
15.70138	40958
15.70950	40165
15.71762	42263
15.72575	41597
15.73387	39530
15.74200	41077
15.75012	36886
15.75823	41212
15.76637	41977
15.77448	43053
15.78262	39419
15.79073	44983
15.79885	42404
15.80698	40310
15.81510	43588
15.82322	43437
15.83135	41911
15.83947	42755
15.84760	42803
15.85572	41279
15.86383	40987
15.87197	42884
15.88008	39143
15.88822	41321
15.89633	43563
15.90445	42145
15.91258	43799
15.92070	43374
15.92883	42814
15.93695	36460
15.94507	38511
15.95320	40021
15.96132	42921
15.96943	41131
15.97757	43642
15.98568	46497
15.99382	44863
16.00193	45157
16.01005	46969
16.01818	42506
16.02630	47786
16.03443	48411
16.04255	49775
16.05067	50185
16.05880	44249
16.06692	48155
16.07503	51320
16.08317	44927
16.09128	45569
16.09942	45298
16.10753	46257
16.11565	45315
16.12378	43611
16.13190	42556
16.14003	47437
16.14815	46508
16.15627	40454
16.16440	42209
16.17252	43422
16.18065	41672
16.18877	41530
16.19688	44959
16.20502	45898
16.21313	46238
16.22125	38860
16.22938	40455
16.23750	43906
16.24563	42603
16.25375	41801
16.26187	43691
16.27000	41177
16.27812	42373
16.28625	44376
16.29437	43072
16.30248	45052
16.31062	41744
16.31873	40120
16.32687	42528
16.33498	40035
16.34310	45268
16.35123	43825
16.35935	40000
16.36747	40682
16.37560	41030
16.38372	45195
16.39185	44067
16.39997	41303
16.40808	56630
16.41622	281037
16.42433	546963
16.43247	307566
16.44058	129809
16.44870	86595
16.45683	69401
16.46495	64523
16.47308	66995
16.48120	64256
16.48932	64008
16.49745	57334
16.50557	56742
16.51368	59437
16.52182	58390
16.52993	52876
16.53807	52594
16.54618	49659
16.55430	51471
16.56243	55235
16.57055	592321
16.57868	3639609
16.58680	3206085
16.59492	1369250
16.60305	831449
16.61117	591375
16.61928	460224
16.62742	370382
16.63553	314580
16.64367	273525
16.65178	244758
16.65990	208963
16.66803	193438
16.67615	182346
16.68428	322075
16.69240	2106511
16.70052	2933014
16.70865	1476645
16.71677	823911
16.72490	582454
16.73302	456362
16.74113	376624
16.74927	322517
16.75738	275384
16.76550	248458
16.77363	225758
16.78175	203690
16.78988	182850
16.79800	168003
16.80612	162704
16.81425	150185
16.82237	144049
16.83050	136081
16.83862	134950
16.84673	127221
16.85487	124633
16.86298	120627
16.87110	118321
16.87923	113680
16.88735	108067
16.89548	104732
16.90360	106861
16.91172	104707
16.91985	105588
16.92797	111094
16.93610	103520
16.94422	96834
16.95233	98434
16.96047	94470
16.96858	113284
16.97672	127763
16.98483	135802
16.99295	151266
17.00108	144941
17.00920	127318
17.01732	114820
17.02545	109315
17.03357	111587
17.04170	112530
17.04982	186015
17.05793	562850
17.06607	870519
17.07418	686461
17.08232	432605
17.09043	308928
17.09855	248671
17.10668	201938
17.11480	177795
17.12293	161566
17.13105	147153
17.13917	141958
17.14730	130728
17.15542	119870
17.16353	112128
17.17167	109105
17.17978	104877
17.18792	95674
17.19603	96876
17.20415	93446
17.21228	95002
17.22040	93288
17.22853	83269
17.23665	89881
17.24477	88819
17.25290	87887
17.26102	87799
17.26913	81859
17.27727	83767
17.28538	80760
17.29352	80283
17.30163	77336
17.30975	74454
17.31788	76968
17.32600	70628
17.33413	73585
17.34225	82766
17.35037	81267
17.35850	86474
17.36662	85334
17.37475	85659
17.38287	83781
17.39098	81756
17.39912	83602
17.40723	78855
17.41535	76469
17.42348	76325
17.43160	77757
17.43973	77747
17.44785	77444
17.45597	74772
17.46410	74254
17.47222	74094
17.48035	76337
17.48847	76639
17.49658	75326
17.50472	72484
17.51283	70202
17.52097	68675
17.52908	73330
17.53720	71551
17.54533	66409
17.55345	69179
17.56157	69120
17.56970	69025
17.57782	70770
17.58595	66482
17.59407	66563
17.60218	68176
17.61032	69155
17.61843	66278
17.62657	65305
17.63468	67628
17.64280	62655
17.65093	62311
17.65905	67405
17.66717	63150
17.67530	66763
17.68342	66468
17.69155	67761
17.69967	70101
17.70778	68134
17.71592	65400
17.72403	66946
17.73217	68621
17.74028	67509
17.74840	68693
17.75653	66570
17.76465	61776
17.77278	62521
17.78090	63250
17.78902	66888
17.79715	60229
17.80527	55949
17.81338	60204
17.82152	55262
17.82963	61392
17.83777	61229
17.84588	58330
17.85400	60621
17.86213	63019
17.87025	58260
17.87838	60171
17.88650	60751
17.89462	59152
17.90275	57973
17.91087	59178
17.91898	57447
17.92712	58422
17.93523	54093
17.94337	52684
17.95148	52321
17.95960	54418
17.96773	56590
17.97585	52096
17.98398	54765
17.99210	54145
18.00022	54734
18.00835	54455
18.01647	55367
18.02460	52409
18.03272	52464
18.04083	55971
18.04897	56435
18.05708	53717
18.06520	59615
18.07333	57714
18.08145	59697
18.08958	60802
18.09770	60109
18.10582	64115
18.11395	70189
18.12207	67000
18.13020	65505
18.13832	63653
18.14643	66878
18.15457	62470
18.16268	61151
18.17082	65481
18.17893	64058
18.18705	63927
18.19518	61380
18.20330	63554
18.21142	62477
18.21955	63066
18.22767	71650
18.23580	110446
18.24392	170968
18.25203	203565
18.26017	182858
18.26828	136458
18.27642	108986
18.28453	93232
18.29265	85756
18.30078	75024
18.30890	72720
18.31702	72016
18.32515	67191
18.33327	69362
18.34140	63285
18.34952	63234
18.35763	58840
18.36577	60751
18.37388	58516
18.38202	59661
18.39013	61654
18.39825	57913
18.40638	54929
18.41450	55362
18.42263	52547
18.43075	54997
18.43887	57532
18.44700	46944
18.45512	52355
18.46323	51657
18.47137	54658
18.47948	57069
18.48762	54837
18.49573	51853
18.50385	56235
18.51198	56523
18.52010	57448
18.52823	52569
18.53635	56312
18.54447	55729
18.55260	51178
18.56072	54454
18.56885	51177
18.57697	48894
18.58508	51386
18.59322	48838
18.60133	49731
18.60945	51862
18.61758	50391
18.62570	51724
18.63383	53593
18.64195	53043
18.65007	51271
18.65820	53285
18.66632	49870
18.67445	49137
18.68257	46591
18.69068	48530
18.69882	48501
18.70693	49073
18.71505	49083
18.72318	49213
18.73130	49523
18.73943	46414
18.74755	51569
18.75567	46941
18.76380	48238
18.77192	49689
18.78005	48285
18.78817	46668
18.79628	50125
18.80442	51040
18.81253	46867
18.82067	47477
18.82878	47728
18.83690	48383
18.84503	46233
18.85315	48007
18.86127	48042
18.86940	46188
18.87752	46721
18.88565	43835
18.89377	51857
18.90188	46420
18.91002	38184
18.91813	41531
18.92627	47966
18.93438	40764
18.94250	40747
18.95063	40765
18.95875	40377
18.96688	43561
18.97500	42934
18.98312	39833
18.99125	42799
18.99937	40888
19.00748	41100
19.01562	40903
19.02373	37920
19.03187	41802
19.03998	50775
19.04810	58793
19.05623	61892
19.06435	63777
19.07248	71059
19.08060	68474
19.08872	75632
19.09685	72549
19.10497	78775
19.11308	77756
19.12122	83986
19.12933	89026
19.13747	90755
19.14558	81062
19.15370	86780
19.16183	84109
19.16995	85428
19.17808	84968
19.18620	86030
19.19432	90002
19.20245	88088
19.21057	85233
19.21870	82018
19.22682	82099
19.23493	87116
19.24307	83461
19.25118	86261
19.25930	87981
19.26743	88592
19.27555	84637
19.28368	89044
19.29180	91869
19.29992	94539
19.30805	94535
19.31617	94640
19.32430	101108
19.33242	90346
19.34053	91169
19.34867	95206
19.35678	86238
19.36490	88419
19.37303	80125
19.38115	84817
19.38928	85034
19.39740	87976
19.40552	84453
19.41365	84870
19.42177	84984
19.42990	82888
19.43802	81250
19.44613	81908
19.45427	91073
19.46238	101003
19.47052	113749
19.47863	156318
19.48675	205381
19.49488	242138
19.50300	267673
19.51112	244050
19.51925	191157
19.52737	146392
19.53550	112884
19.54362	102122
19.55173	88612
19.55987	83218
19.56798	85964
19.57612	77156
19.58423	86186
19.59235	78069
19.60048	80704
19.60860	87917
19.61673	101502
19.62485	113965
19.63297	137570
19.64110	170085
19.64922	195506
19.65733	237392
19.66547	269429
19.67358	297090
19.68172	276575
19.68983	247283
19.69795	212860
19.70608	177156
19.71420	139854
19.72233	129799
19.73045	115483
19.73857	100258
19.74670	91742
19.75482	87974
19.76293	85235
19.77107	79909
19.77918	79749
19.78732	73555
19.79543	70867
19.80355	73561
19.81168	76800
19.81980	74477
19.82793	74774
19.83605	72952
19.84417	73111
19.85230	71145
19.86042	77287
19.86855	74414
19.87667	81913
19.88478	100684
19.89292	118871
19.90103	143281
19.90915	166821
19.91728	188777
19.92540	198823
19.93353	202847
19.94165	204735
19.94977	194181
19.95790	192841
19.96602	190184
19.97415	194413
19.98227	186276
19.99038	202494
19.99852	187088
20.00663	180493
20.01477	175354
20.02288	172447
20.03100	162745
20.03913	144515
20.04725	132830
20.05537	126212
20.06350	110380
20.07162	99337
20.07975	93895
20.08787	96356
20.09598	86339
20.10412	90578
20.11223	92624
20.12037	88494
20.12848	87145
20.13660	83416
20.14473	85698
20.15285	82704
20.16097	83021
20.16910	81667
20.17722	81162
20.18535	78234
20.19347	79739
20.20158	80369
20.20972	90309
20.21783	80583
20.22597	84937
20.23408	87477
20.24220	96435
20.25033	116530
20.25845	147301
20.26658	175235
20.27470	206622
20.28282	225376
20.29095	212177
20.29907	199420
20.30718	166465
20.31532	141604
20.32343	124191
20.33157	106607
20.33968	93579
20.34780	90033
20.35593	83762
20.36405	82100
20.37218	79364
20.38030	73911
20.38842	74816
20.39655	74275
20.40467	78823
20.41278	82210
20.42092	91698
20.42903	96363
20.43717	101020
20.44528	101873
20.45340	103968
20.46153	106538
20.46965	104149
20.47778	102280
20.48590	99243
20.49402	97374
20.50215	94037
20.51027	90319
20.51840	82937
20.52652	76763
20.53463	72806
20.54277	71628
20.55088	69875
20.55900	63994
20.56713	67419
20.57525	68926
20.58338	69706
20.59150	67234
20.59962	66878
20.60775	70188
20.61587	65681
20.62400	64855
20.63212	69183
20.64023	67634
20.64837	65326
20.65648	65430
20.66462	65059
20.67273	64378
20.68085	65405
20.68898	61425
20.69710	60119
20.70522	60590
20.71335	58249
20.72147	62642
20.72960	58203
20.73772	60228
20.74583	57538
20.75397	58648
20.76208	59295
20.77022	55510
20.77833	54850
20.78645	60708
20.79458	55053
20.80270	57074
20.81082	56013
20.81895	60571
20.82707	58751
20.83520	55290
20.84332	56191
20.85143	60197
20.85957	61012
20.86768	70015
20.87582	84078
20.88393	89215
20.89205	88072
20.90018	80742
20.90830	72835
20.91643	67653
20.92455	68885
20.93267	65750
20.94080	52123
20.94892	57640
20.95703	57554
20.96517	55825
20.97328	54870
20.98142	52723
20.98953	55069
20.99765	53333
21.00578	50479
21.01390	50647
21.02203	53137
21.03015	47573
21.03827	51739
21.04640	51448
21.05452	51123
21.06265	50866
21.07077	45010
21.07888	49484
21.08702	49136
21.09513	50122
21.10325	51124
21.11138	49992
21.11950	45834
21.12763	46662
21.13575	49139
21.14387	48025
21.15200	49502
21.16012	49401
21.16825	48743
21.17637	51929
21.18448	52636
21.19262	51713
21.20073	52098
21.20885	48235
21.21698	47677
21.22510	48073
21.23323	45721
21.24135	48685
21.24947	47213
21.25760	49732
21.26572	47911
21.27385	47994
21.28197	50308
21.29008	48695
21.29822	51123
21.30633	47098
21.31447	50725
21.32258	48615
21.33070	48923
21.33883	45415
21.34695	49942
21.35507	44977
21.36320	45225
21.37132	48516
21.37945	43891
21.38757	42718
21.39568	44728
21.40382	45499
21.41193	43138
21.42007	47522
21.42818	47424
21.43630	49913
21.44443	45820
21.45255	46588
21.46067	46124
21.46880	46061
21.47692	42656
21.48505	44286
21.49317	44216
21.50128	43146
21.50942	41961
21.51753	43771
21.52567	43082
21.53378	44965
21.54190	41577
21.55003	42987
21.55815	42930
21.56628	41358
21.57440	46368
21.58252	42045
21.59065	48473
21.59877	53326
21.60688	56321
21.61502	72249
21.62313	87621
21.63127	91784
21.63938	91069
21.64750	82508
21.65563	83816
21.66375	68464
21.67188	61378
21.68000	55236
21.68812	56899
21.69625	53822
21.70437	50475
21.71250	50809
21.72062	49672
21.72873	51666
21.73687	49195
21.74498	50027
21.75310	49743
21.76123	52147
21.76935	50774
21.77748	51927
21.78560	56127
21.79372	49108
21.80185	52681
21.80997	59974
21.81810	67590
21.82622	73999
21.83433	81097
21.84247	77453
21.85058	74843
21.85872	70888
21.86683	60434
21.87495	53067
21.88308	47391
21.89120	50253
21.89932	49374
21.90745	47467
21.91557	46736
21.92370	48786
21.93182	45540
21.93993	47305
21.94807	49749
21.95618	48400
21.96432	44386
21.97243	44791
21.98055	43597
21.98868	42738
21.99680	42815
22.00492	39615
22.01305	41309
22.02117	39285
22.02930	42202
22.03742	42739
22.04553	41592
22.05367	40373
22.06178	44620
22.06992	42965
22.07803	42886
22.08615	37980
22.09428	43106
22.10240	38629
22.11053	44379
22.11865	45100
22.12677	42670
22.13490	41121
22.14302	42994
22.15113	43760
22.15927	42211
22.16738	41135
22.17552	41740
22.18363	38849
22.19175	40422
22.19988	43896
22.20800	43119
22.21613	44178
22.22425	45418
22.23237	46639
22.24050	46682
22.24862	44014
22.25673	37621
22.26487	40756
22.27298	39069
22.28112	41029
22.28923	39442
22.29735	38706
22.30548	45122
22.31360	44590
22.32173	44552
22.32985	43719
22.33797	46313
22.34610	46450
22.35422	46173
22.36235	45984
22.37047	43826
22.37858	43050
22.38672	41392
22.39483	40370
22.40295	39927
22.41108	40383
22.41920	41461
22.42733	42273
22.43545	45505
22.44357	48490
22.45170	48343
22.45982	48030
22.46795	46011
22.47607	47903
22.48418	47936
22.49232	46076
22.50043	47128
22.50857	45451
22.51668	44590
22.52480	43912
22.53293	46175
22.54105	46236
22.54917	46595
22.55730	49364
22.56542	44012
22.57355	44279
22.58167	46560
22.58978	40042
22.59792	41175
22.60603	38808
22.61417	39826
22.62228	42411
22.63040	43473
22.63853	47670
22.64665	42244
22.65477	49109
22.66290	41943
22.67102	47761
22.67915	40357
22.68727	41775
22.69538	40153
22.70352	42482
22.71163	38756
22.71977	37374
22.72788	44099
22.73600	44402
22.74413	39842
22.75225	43972
22.76038	44604
22.76850	46779
22.77662	40660
22.78475	40011
22.79287	40264
22.80098	40520
22.80912	42359
22.81723	42970
22.82537	44110
22.83348	42518
22.84160	42271
22.84973	41716
22.85785	47801
22.86598	50640
22.87410	46823
22.88222	52310
22.89035	45518
22.89847	49905
22.90660	51568
22.91472	57357
22.92283	57970
22.93097	66458
22.93908	71535
22.94720	73029
22.95533	65156
22.96345	66030
22.97158	59770
22.97970	57018
22.98782	52553
22.99595	50812
23.00407	48718
23.01220	45948
23.02032	47008
23.02843	42359
23.03657	44738
23.04468	41202
23.05280	43390
23.06093	45403
23.06905	43439
23.07718	40636
23.08530	45097
23.09342	39111
23.10155	38081
23.10967	41102
23.11780	41004
23.12592	37842
23.13403	36745
23.14217	34540
23.15028	42388
23.15842	36882
23.16653	39040
23.17465	38761
23.18278	37846
23.19090	39744
23.19902	41114
23.20715	43147
23.21527	39380
23.22340	38731
23.23152	36910
23.23963	40834
23.24777	39873
23.25588	39029
23.26402	59983
23.27213	363437
23.28025	622540
23.28838	282080
23.29650	107354
23.30462	68008
23.31275	60207
23.32087	53069
23.32900	47504
23.33712	46635
23.34523	53992
23.35337	70985
23.36148	100318
23.36962	87840
23.37773	81265
23.38585	79024
23.39398	88884
23.40210	98332
23.41023	89924
23.41835	76384
23.42647	73853
23.43460	73036
23.44272	72016
23.45083	66332
23.45897	67092
23.46708	68228
23.47522	61232
23.48333	60277
23.49145	61236
23.49958	64425
23.50770	86765
23.51583	101005
23.52395	81899
23.53207	94185
23.54020	119079
23.54832	105868
23.55645	96338
23.56457	82262
23.57268	79940
23.58082	74233
23.58893	75167
23.59705	74634
23.60518	72745
23.61330	78249
23.62143	74634
23.62955	80744
23.63767	72673
23.64580	79362
23.65392	76042
23.66205	75508
23.67017	76116
23.67828	73283
23.68642	74851
23.69453	73216
23.70265	75218
23.71078	67856
23.71890	69285
23.72703	73369
23.73515	114292
23.74327	220672
23.75140	499519
23.75952	1135595
23.76765	2267339
23.77577	3742449
23.78388	4760922
23.79202	4962935
23.80013	4536380
23.80827	3679103
23.81638	2771246
23.82450	2020504
23.83263	1462307
23.84075	1078385
23.84887	872123
23.85700	717327
23.86512	594934
23.87325	541782
23.88137	527142
23.88948	578918
23.89762	726577
23.90573	881706
23.91387	997409
23.92198	1022048
23.93010	1001674
23.93823	858596
23.94635	720927
23.95448	608862
23.96260	497990
23.97072	399482
23.97885	346936
23.98697	299184
23.99508	274938
24.00322	255795
24.01133	232011
24.01947	220100
24.02758	206471
24.03570	199067
24.04383	196201
24.05195	172784
24.06008	165522
24.06820	165111
24.07632	160721
24.08445	150525
24.09257	152271
24.10068	146997
24.10882	146353
24.11693	148309
24.12507	142931
24.13318	142379
24.14130	143825
24.14943	134129
24.15755	127579
24.16568	125848
24.17380	121693
24.18192	123526
24.19005	128212
24.19817	121272
24.20630	122096
24.21442	123594
24.22253	121667
24.23067	111164
24.23878	108917
24.24690	110205
24.25503	105666
24.26315	105149
24.27128	101789
24.27940	95996
24.28752	94047
24.29565	99805
24.30377	93501
24.31190	95714
24.32002	92458
24.32813	93220
24.33627	97954
24.34438	96102
24.35252	101940
24.36063	117397
24.36875	135020
24.37688	171189
24.38500	205831
24.39312	222220
24.40125	210622
24.40937	188155
24.41750	144910
24.42562	128105
24.43373	113216
24.44187	99269
24.44998	93003
24.45812	90697
24.46623	92869
24.47435	89629
24.48248	98183
24.49060	105095
24.49872	105779
24.50685	101917
24.51497	98690
24.52310	102760
24.53122	98510
24.53933	90440
24.54747	90072
24.55558	95879
24.56372	97204
24.57183	92108
24.57995	91360
24.58808	93351
24.59620	93347
24.60433	96227
24.61245	89439
24.62057	87863
24.62870	84514
24.63682	85359
24.64493	88127
24.65307	85779
24.66118	88283
24.66932	88214
24.67743	92405
24.68555	102609
24.69368	149368
24.70180	236875
24.70993	404343
24.71805	628592
24.72617	821505
24.73430	917691
24.74242	896268
24.75053	769075
24.75867	633425
24.76678	509716
24.77492	398135
24.78303	326847
24.79115	264722
24.79928	222820
24.80740	195168
24.81553	170525
24.82365	156261
24.83177	151893
24.83990	138126
24.84802	127882
24.85615	121075
24.86427	116776
24.87238	114220
24.88052	110898
24.88863	113738
24.89675	112391
24.90488	110760
24.91300	107089
24.92113	101302
24.92925	97916
24.93737	92866
24.94550	94703
24.95362	88535
24.96175	88884
24.96987	83965
24.97798	89212
24.98612	78992
24.99423	78465
25.00237	83854
25.01048	78905
25.01860	78963
25.02673	78206
25.03485	80493
25.04297	75750
25.05110	76034
25.05922	71591
25.06735	72616
25.07547	74196
25.08358	77391
25.09172	76804
25.09983	77486
25.10797	75967
25.11608	85058
25.12420	100530
25.13233	114328
25.14045	127416
25.14857	142170
25.15670	153857
25.16482	149365
25.17295	140080
25.18107	126408
25.18918	112161
25.19732	98960
25.20543	92223
25.21357	84509
25.22168	82260
25.22980	81598
25.23793	82464
25.24605	81313
25.25418	82030
25.26230	81969
25.27042	81821
25.27855	85039
25.28667	83336
25.29478	85770
25.30292	88641
25.31103	89062
25.31917	88253
25.32728	85056
25.33540	81955
25.34353	79478
25.35165	76596
25.35978	75149
25.36790	66363
25.37602	71308
25.38415	65669
25.39227	65521
25.40040	65575
25.40852	68854
25.41663	65866
25.42477	66238
25.43288	69218
25.44100	66242
25.44913	73803
25.45725	71496
25.46538	72549
25.47350	70832
25.48162	68415
25.48975	70390
25.49787	71362
25.50600	70349
25.51412	65850
25.52223	67342
25.53037	66493
25.53848	67629
25.54660	66654
25.55473	66360
25.56285	63367
25.57098	63010
25.57910	64081
25.58722	65882
25.59535	61620
25.60347	60048
25.61160	60434
25.61972	62841
25.62783	62904
25.63597	63754
25.64408	60960
25.65222	60875
25.66033	59954
25.66845	61242
25.67658	58605
25.68470	60932
25.69282	59943
25.70095	56879
25.70907	58575
25.71720	59623
25.72532	53889
25.73343	60823
25.74157	54007
25.74968	56467
25.75782	57520
25.76593	61194
25.77405	59363
25.78218	57249
25.79030	55303
25.79842	57503
25.80655	59647
25.81467	59502
25.82280	60586
25.83092	59216
25.83903	58220
25.84717	62749
25.85528	60700
25.86342	57796
25.87153	53043
25.87965	57443
25.88778	53644
25.89590	55227
25.90403	58173
25.91215	56778
25.92027	51739
25.92840	56193
25.93652	56325
25.94463	53925
25.95277	51689
25.96088	57049
25.96902	55677
25.97713	52641
25.98525	52123
25.99338	56096
26.00150	56962
26.00963	50088
26.01775	53909
26.02587	54156
26.03400	50738
26.04212	51953
26.05025	52250
26.05837	56611
26.06648	49478
26.07462	54986
26.08273	49598
26.09085	59837
26.09898	59778
26.10710	57139
26.11523	60576
26.12335	63019
26.13147	66428
26.13960	64548
26.14772	65663
26.15585	67393
26.16397	66094
26.17208	64313
26.18022	58108
26.18833	58311
26.19645	58587
26.20458	58956
26.21270	57079
26.22083	57801
26.22895	56532
26.23707	58838
26.24520	61244
26.25332	62353
26.26145	60448
26.26957	64329
26.27768	65559
26.28582	62982
26.29393	65421
26.30207	65041
26.31018	67098
26.31830	56884
26.32643	57194
26.33455	61549
26.34267	58516
26.35080	65612
26.35892	62991
26.36705	66464
26.37517	67130
26.38328	69589
26.39142	71578
26.39953	72058
26.40767	72131
26.41578	69962
26.42390	73730
26.43203	71382
26.44015	64465
26.44828	67740
26.45640	64262
26.46452	66436
26.47265	60466
26.48077	65280
26.48888	60691
26.49702	60163
26.50513	61281
26.51327	62019
26.52138	62416
26.52950	57434
26.53763	54967
26.54575	55703
26.55388	56017
26.56200	61232
26.57012	58513
26.57825	56528
26.58637	57120
26.59448	60629
26.60262	55156
26.61073	60168
26.61887	56395
26.62698	56080
26.63510	55069
26.64323	59098
26.65135	57838
26.65948	57556
26.66760	58671
26.67572	55867
26.68385	55521
26.69197	55030
26.70010	55335
26.70822	55844
26.71633	56741
26.72447	57108
26.73258	60100
26.74070	56552
26.74883	54306
26.75695	54418
26.76508	53437
26.77320	54661
26.78132	58587
26.78945	57077
26.79757	59382
26.80570	59360
26.81382	58150
26.82193	60385
26.83007	59947
26.83818	57460
26.84630	56037
26.85443	58222
26.86255	60826
26.87068	59269
26.87880	61575
26.88692	59959
26.89505	55622
26.90317	59895
26.91130	56827
26.91942	57186
26.92753	60341
26.93567	57402
26.94378	62123
26.95192	77807
26.96003	105345
26.96815	167933
26.97628	301865
26.98440	498817
26.99252	861543
27.00065	1417135
27.00877	2099130
27.01690	2671889
27.02502	3005440
27.03313	3021640
27.04127	2813860
27.04938	2463553
27.05752	2165259
27.06563	1769866
27.07375	1476274
27.08188	1162534
27.09000	945164
27.09813	770547
27.10625	633919
27.11437	523171
27.12250	450206
27.13062	397105
27.13873	333809
27.14687	305574
27.15498	272426
27.16312	248851
27.17123	227295
27.17935	229935
27.18748	230485
27.19560	252475
27.20373	275385
27.21185	285671
27.21997	256291
27.22810	251099
27.23622	210546
27.24435	184381
27.25247	174746
27.26058	163974
27.26872	151787
27.27683	152505
27.28495	140879
27.29308	134538
27.30120	131716
27.30933	122886
27.31745	123044
27.32557	123014
27.33370	120729
27.34182	112709
27.34995	115201
27.35807	117790
27.36618	138328
27.37432	160668
27.38243	202801
27.39055	263740
27.39868	328116
27.40680	375609
27.41493	421290
27.42305	432414
27.43117	419617
27.43930	388041
27.44742	369113
27.45555	329836
27.46367	289048
27.47178	260907
27.47992	234136
27.48803	211178
27.49617	181325
27.50428	169059
27.51240	162441
27.52053	150345
27.52865	146511
27.53677	140319
27.54490	122244
27.55302	121849
27.56115	113470
27.56927	115034
27.57738	109371
27.58552	110290
27.59363	110729
27.60177	104159
27.60988	105662
27.61800	101204
27.62613	94097
27.63425	96231
27.64237	95939
27.65050	89013
27.65862	89306
27.66675	88471
27.67487	93876
27.68298	85908
27.69112	93579
27.69923	92668
27.70737	86899
27.71548	84772
27.72360	86733
27.73173	81378
27.73985	79629
27.74798	81315
27.75610	79927
27.76422	73517
27.77235	76525
27.78047	74606
27.78858	75194
27.79672	77942
27.80483	76394
27.81297	75858
27.82108	77414
27.82920	75908
27.83733	73768
27.84545	72986
27.85358	72363
27.86170	70134
27.86982	76458
27.87795	73553
27.88607	69341
27.89420	70846
27.90232	68852
27.91043	68947
27.91857	68474
27.92668	68432
27.93480	69014
27.94293	66229
27.95105	70832
27.95918	66669
27.96730	64161
27.97542	66338
27.98355	65517
27.99167	66651
27.99980	67249
28.00792	67056
28.01603	65069
28.02417	69337
28.03228	67750
28.04040	72185
28.04853	73032
28.05665	75277
28.06478	72428
28.07290	77327
28.08102	71715
28.08915	70061
28.09727	71524
28.10540	67308
28.11352	65423
28.12163	61508
28.12977	62271
28.13788	64016
28.14602	62425
28.15413	60334
28.16225	65057
28.17038	69995
28.17850	71557
28.18662	74848
28.19475	73000
28.20287	74427
28.21100	70134
28.21912	71440
28.22723	64974
28.23537	64239
28.24348	62477
28.25162	62437
28.25973	60981
28.26785	66496
28.27598	76831
28.28410	93872
28.29223	118546
28.30035	167322
28.30847	230353
28.31660	317277
28.32472	443028
28.33283	570173
28.34097	692004
28.34908	858270
28.35722	970227
28.36533	1073037
28.37345	1159378
28.38158	1227403
28.38970	1257117
28.39783	1233410
28.40595	1199577
28.41407	1082158
28.42220	980363
28.43032	886190
28.43843	762649
28.44657	672659
28.45468	589196
28.46282	515833
28.47093	481625
28.47905	416413
28.48718	364502
28.49530	348446
28.50343	302955
28.51155	279748
28.51967	255456
28.52780	245043
28.53592	228771
28.54405	204774
28.55217	207157
28.56028	203565
28.56842	204194
28.57653	210913
28.58465	220491
28.59278	234143
28.60090	240729
28.60903	256556
28.61715	255744
28.62527	266888
28.63340	277785
28.64152	272253
28.64965	279050
28.65777	269493
28.66588	273337
28.67402	261420
28.68213	255124
28.69025	240688
28.69838	245187
28.70650	230426
28.71463	207996
28.72275	205376
28.73087	214621
28.73900	211291
28.74712	208523
28.75525	215104
28.76337	220746
28.77148	203545
28.77962	183871
28.78773	167595
28.79587	156027
28.80398	148927
28.81210	136685
28.82023	133555
28.82835	132079
28.83647	132973
28.84460	133064
28.85272	128051
28.86085	132613
28.86897	123134
28.87708	120117
28.88522	118690
28.89333	111198
28.90147	113210
28.90958	112135
28.91770	107224
28.92583	110822
28.93395	101887
28.94208	102765
28.95020	108179
28.95832	101340
28.96645	95877
28.97457	98009
28.98268	102099
28.99082	97693
28.99893	95544
29.00707	94685
29.01518	91717
29.02330	90127
29.03143	91817
29.03955	92247
29.04768	90210
29.05580	90322
29.06392	87430
29.07205	85389
29.08017	83609
29.08828	85075
29.09642	85002
29.10453	82735
29.11267	81505
29.12078	86376
29.12890	81067
29.13703	81158
29.14515	82390
29.15328	83239
29.16140	83875
29.16952	81226
29.17765	79723
29.18577	83573
29.19390	84417
29.20202	78594
29.21013	79471
29.21827	82590
29.22638	83475
29.23450	84370
29.24263	85098
29.25075	81228
29.25888	92745
29.26700	90145
29.27512	90023
29.28325	89670
29.29137	92418
29.29950	86235
29.30762	83131
29.31573	82947
29.32387	81275
29.33198	78639
29.34012	78811
29.34823	79966
29.35635	77361
29.36448	72810
29.37260	71161
29.38072	71942
29.38885	72189
29.39697	69123
29.40510	70819
29.41322	68936
29.42133	68514
29.42947	64329
29.43758	69358
29.44572	67410
29.45383	71267
29.46195	73001
29.47008	75138
29.47820	72380
29.48632	67560
29.49445	76569
29.50257	75802
29.51070	72127
29.51882	68184
29.52693	66469
29.53507	70832
29.54318	64858
29.55132	64874
29.55943	66565
29.56755	61279
29.57568	61081
29.58380	59025
29.59193	60316
29.60005	60193
29.60817	62908
29.61630	55056
29.62442	62019
29.63253	58290
29.64067	60093
29.64878	54045
29.65692	55194
29.66503	54914
29.67315	54784
29.68128	58843
29.68940	56275
29.69753	57116
29.70565	56496
29.71377	57369
29.72190	58002
29.73002	57400
29.73815	53066
29.74627	54882
29.75438	56980
29.76252	61613
29.77063	55639
29.77875	58301
29.78688	60115
29.79500	56908
29.80313	53407
29.81125	56065
29.81937	56128
29.82750	54760
29.83562	53534
29.84375	56798
29.85187	56945
29.85998	59912
29.86812	54250
29.87623	54527
29.88435	57921
29.89248	64886
29.90060	63225
29.90873	72192
29.91685	79655
29.92497	86668
29.93310	107392
29.94122	128764
29.94935	160502
29.95747	200526
29.96558	235231
29.97372	271399
29.98183	316276
29.98997	354781
29.99808	384478
30.00620	411385
30.01433	439439
30.02245	447664
30.03057	456806
30.03870	459930
30.04682	459844
30.05495	450772
30.06307	444331
30.07118	432986
30.07932	412061
30.08743	399578
30.09557	378830
30.10368	367375
30.11180	350093
30.11993	333091
30.12805	318450
30.13617	316714
30.14430	298894
30.15242	271437
30.16055	266164
30.16867	261530
30.17678	252472
30.18492	245055
30.19303	236110
30.20117	211889
30.20928	213404
30.21740	202077
30.22553	193271
30.23365	184465
30.24178	169105
30.24990	169801
30.25802	156612
30.26615	158418
30.27427	149567
30.28238	145904
30.29052	136362
30.29863	126666
30.30677	127456
30.31488	118845
30.32300	114079
30.33113	116721
30.33925	111681
30.34738	113334
30.35550	103179
30.36362	104645
30.37175	99322
30.37987	100358
30.38800	92131
30.39612	92095
30.40423	92627
30.41237	89885
30.42048	88621
30.42860	80560
30.43673	83808
30.44485	83143
30.45298	78537
30.46110	79342
30.46922	81430
30.47735	78575
30.48547	76926
30.49360	74068
30.50172	75678
30.50983	74176
30.51797	72669
30.52608	73754
30.53420	69868
30.54233	70148
30.55045	74083
30.55858	66519
30.56670	69882
30.57482	68600
30.58295	65839
30.59107	65536
30.59920	66930
30.60732	63338
30.61543	64562
30.62357	64096
30.63168	63340
30.63982	64311
30.64793	66742
30.65605	60594
30.66418	65205
30.67230	66444
30.68042	59818
30.68855	63052
30.69667	62464
30.70480	58808
30.71292	60419
30.72103	63188
30.72917	57939
30.73728	60703
30.74542	58486
30.75353	59866
30.76165	57373
30.76978	60171
30.77790	61848
30.78603	63008
30.79415	61444
30.80227	61489
30.81040	61578
30.81852	63255
30.82663	60417
30.83477	64579
30.84288	61932
30.85102	59976
30.85913	58175
30.86725	56955
30.87538	57100
30.88350	52352
30.89163	57716
30.89975	56075
30.90787	56479
30.91600	54494
30.92412	56295
30.93223	54939
30.94037	54378
30.94848	51291
30.95662	55406
30.96473	54090
30.97285	55326
30.98098	56457
30.98910	52876
30.99723	54003
31.00535	52149
31.01347	53989
31.02160	50601
31.02972	56681
31.03785	54876
31.04597	55305
31.05408	56038
31.06222	55745
31.07033	55389
31.07845	58825
31.08658	59928
31.09470	60292
31.10283	64852
31.11095	63600
31.11907	58973
31.12720	60312
31.13532	61238
31.14345	57432
31.15157	55822
31.15968	54989
31.16782	57510
31.17593	62227
31.18405	74033
31.19218	90149
31.20030	113943
31.20843	135914
31.21655	163444
31.22467	168234
31.23280	164764
31.24092	163468
31.24905	141732
31.25717	121448
31.26528	91882
31.27342	80883
31.28153	74314
31.28967	61341
31.29778	59046
31.30590	55794
31.31403	57727
31.32215	57389
31.33027	50126
31.33840	54992
31.34652	56413
31.35465	51477
31.36277	53357
31.37088	51849
31.37902	52675
31.38713	58278
31.39527	58707
31.40338	56913
31.41150	61742
31.41963	60724
31.42775	62733
31.43588	67362
31.44400	66682
31.45212	66232
31.46025	73091
31.46837	70703
31.47648	67488
31.48462	67779
31.49273	56591
31.50087	62021
31.50898	52316
31.51710	56378
31.52523	55460
31.53335	52180
31.54148	51323
31.54960	52111
31.55772	54858
31.56585	49847
31.57397	51620
31.58208	49012
31.59022	50082
31.59833	51482
31.60647	48603
31.61458	50505
31.62270	47587
31.63083	47641
31.63895	51420
31.64708	45411
31.65520	46956
31.66332	49000
31.67145	46619
31.67957	47313
31.68770	49783
31.69582	41258
31.70393	45671
31.71207	47897
31.72018	42867
31.72830	46066
31.73643	46382
31.74455	45502
31.75268	45387
31.76080	46251
31.76892	47465
31.77705	51009
31.78517	50436
31.79330	49224
31.80142	58177
31.80953	47478
31.81767	48488
31.82578	45060
31.83392	46346
31.84203	47539
31.85015	51187
31.85828	57321
31.86640	60364
31.87452	73230
31.88265	82069
31.89077	102173
31.89890	117364
31.90702	136015
31.91513	166836
31.92327	181195
31.93138	208712
31.93952	232926
31.94763	243067
31.95575	255349
31.96388	275370
31.97200	276493
31.98012	280305
31.98825	265842
31.99637	266796
32.00450	260302
32.01262	257567
32.02073	248624
32.02887	237756
32.03698	221688
32.04512	224694
32.05323	204356
32.06135	205985
32.06948	188990
32.07760	183812
32.08573	171098
32.09385	161372
32.10197	141854
32.11010	137954
32.11822	130174
32.12633	122373
32.13447	116717
32.14258	112668
32.15072	110066
32.15883	110824
32.16695	96007
32.17508	96985
32.18320	89630
32.19133	86931
32.19945	86856
32.20757	81155
32.21570	80442
32.22382	75843
32.23193	76869
32.24007	76105
32.24818	78157
32.25632	71169
32.26443	69744
32.27255	70613
32.28068	68567
32.28880	72012
32.29693	68079
32.30505	68989
32.31317	66645
32.32130	71062
32.32942	76387
32.33755	73694
32.34567	72704
32.35378	76080
32.36192	68342
32.37003	73329
32.37815	67765
32.38628	66067
32.39440	63649
32.40253	64598
32.41065	60541
32.41877	60097
32.42690	56936
32.43502	59793
32.44315	56714
32.45127	56358
32.45938	58247
32.46752	59692
32.47563	55649
32.48377	57681
32.49188	50870
32.50000	59879
32.50813	54563
32.51625	64036
32.52437	56380
32.53250	56354
32.54062	51862
32.54875	55864
32.55687	55158
32.56498	53261
32.57312	58962
32.58123	53103
32.58937	53592
32.59748	51961
32.60560	52457
32.61373	54873
32.62185	60346
32.62998	70051
32.63810	75578
32.64622	85116
32.65435	87179
32.66247	81943
32.67058	79222
32.67872	71340
32.68683	65314
32.69497	63908
32.70308	61055
32.71120	56103
32.71933	57336
32.72745	59634
32.73558	57615
32.74370	55573
32.75182	53535
32.75995	53738
32.76807	51522
32.77618	49859
32.78432	53593
32.79243	52448
32.80057	48040
32.80868	50611
32.81680	45106
32.82493	51146
32.83305	50173
32.84118	49786
32.84930	53035
32.85742	48260
32.86555	46616
32.87367	49120
32.88180	51647
32.88992	50577
32.89803	52310
32.90617	52166
32.91428	54220
32.92240	55064
32.93053	55777
32.93865	52483
32.94678	49831
32.95490	49624
32.96302	50264
32.97115	49497
32.97927	54412
32.98740	52325
32.99552	50939
33.00363	50403
33.01177	54632
33.01988	53319
33.02800	54459
33.03613	57426
33.04425	51436
33.05238	48202
33.06050	47835
33.06862	50350
33.07675	48924
33.08487	47422
33.09300	54500
33.10112	52921
33.10923	56724
33.11737	57452
33.12548	54937
33.13362	56591
33.14173	53153
33.14985	55060
33.15798	51731
33.16610	54527
33.17422	60374
33.18235	54605
33.19047	55176
33.19860	49395
33.20672	52716
33.21483	54218
33.22297	47574
33.23108	45656
33.23922	51523
33.24733	46749
33.25545	46193
33.26358	46856
33.27170	47988
33.27983	47970
33.28795	45686
33.29607	46411
33.30420	49420
33.31232	51574
33.32043	48474
33.32857	45827
33.33668	47440
33.34482	52214
33.35293	48359
33.36105	51352
33.36918	46829
33.37730	46522
33.38543	44728
33.39355	52446
33.40167	48245
33.40980	44481
33.41792	47389
33.42603	43965
33.43417	45253
33.44228	45752
33.45042	49152
33.45853	46826
33.46665	42573
33.47478	45370
33.48290	43983
33.49103	46165
33.49915	41870
33.50727	47932
33.51540	45828
33.52352	41670
33.53165	43996
33.53977	41163
33.54788	46515
33.55602	43926
33.56413	45395
33.57225	49529
33.58038	44667
33.58850	42739
33.59663	47916
33.60475	44139
33.61287	46975
33.62100	44520
33.62912	46629
33.63725	46985
33.64537	48163
33.65348	44111
33.66162	44568
33.66973	45203
33.67787	42504
33.68598	44214
33.69410	45315
33.70223	42751
33.71035	44922
33.71847	42899
33.72660	43604
33.73472	44777
33.74285	47427
33.75097	42904
33.75908	45312
33.76722	42996
33.77533	44625
33.78347	45828
33.79158	43686
33.79970	42108
33.80783	45194
33.81595	44796
33.82407	44697
33.83220	48751
33.84032	49997
33.84845	49214
33.85657	46664
33.86468	45209
33.87282	42996
33.88093	43715
33.88907	44808
33.89718	45925
33.90530	45457
33.91343	49690
33.92155	50499
33.92968	50713
33.93780	49425
33.94592	47076
33.95405	48145
33.96217	47570
33.97028	45648
33.97842	44476
33.98653	38353
33.99467	45424
34.00278	45756
34.01090	45510
34.01903	47948
34.02715	47636
34.03528	47477
34.04340	48093
34.05152	45693
34.05965	43652
34.06777	46670
34.07588	47374
34.08402	45636
34.09213	44122
34.10027	47003
34.10838	46645
34.11650	46528
34.12463	47212
34.13275	44356
34.14088	45640
34.14900	45833
34.15712	44495
34.16525	48501
34.17337	45335
34.18150	44855
34.18962	43845
34.19773	47576
34.20587	48579
34.21398	45628
34.22210	46021
34.23023	42029
34.23835	41813
34.24648	44793
34.25460	42163
34.26272	45205
34.27085	44904
34.27897	42270
34.28710	43151
34.29522	44245
34.30333	46412
34.31147	47193
34.31958	44477
34.32772	47057
34.33583	45264
34.34395	43628
34.35208	44069
34.36020	39660
34.36832	42365
34.37645	46507
34.38457	43583
34.39270	45138
34.40082	45625
34.40893	45294
34.41707	46787
34.42518	45728
34.43332	37812
34.44143	44466
34.44955	42308
34.45768	45311
34.46580	49884
34.47392	51658
34.48205	55203
34.49017	75608
34.49830	94586
34.50642	128720
34.51453	160249
34.52267	188427
34.53078	221647
34.53892	248152
34.54703	253570
34.55515	244982
34.56328	238231
34.57140	220873
34.57953	210256
34.58765	184180
34.59577	180502
34.60390	159334
34.61202	142712
34.62013	124712
34.62827	119366
34.63638	111077
34.64452	99817
34.65263	97601
34.66075	93977
34.66888	89436
34.67700	88054
34.68513	84142
34.69325	85493
34.70137	79935
34.70950	72938
34.71762	75415
34.72575	71260
34.73387	72315
34.74198	68806
34.75012	71978
34.75823	71129
34.76635	71927
34.77448	69228
34.78260	69096
34.79073	66955
34.79885	67902
34.80697	68594
34.81510	65355
34.82322	68337
34.83135	60949
34.83947	62194
34.84758	67872
34.85572	66046
34.86383	66862
34.87195	65830
34.88008	58320
34.88820	62227
34.89633	62635
34.90445	63324
34.91257	63919
34.92070	64362
34.92882	65239
34.93695	64154
34.94507	63141
34.95318	63046
34.96132	61746
34.96943	60964
34.97757	60957
34.98568	59241
34.99380	53600
35.00193	60800
35.01005	58939
35.01817	59907
35.02630	54589
35.03442	54792
35.04255	57326
35.05067	58932
35.05878	54587
35.06692	52805
35.07503	58795
35.08317	52904
35.09128	56200
35.09940	56055
35.10753	58433
35.11565	54746
35.12377	54778
35.13190	56796
35.14002	56626
35.14815	56472
35.15627	56688
35.16438	59281
35.17252	57996
35.18063	53150
35.18877	54834
35.19688	54725
35.20500	52067
35.21313	54388
35.22125	52613
35.22938	52690
35.23750	52988
35.24562	57712
35.25375	51055
35.26187	53373
35.26998	52162
35.27812	50722
35.28623	53550
35.29437	54280
35.30248	52934
35.31060	53408
35.31873	51253
35.32685	49707
35.33498	56226
35.34310	50765
35.35122	51800
35.35935	51966
35.36747	53644
35.37560	51487
35.38372	51718
35.39183	57621
35.39997	54356
35.40808	58148
35.41620	59029
35.42433	60267
35.43245	59890
35.44058	63681
35.44870	65829
35.45682	60668
35.46495	60502
35.47307	59949
35.48120	59389
35.48932	55654
35.49743	53728
35.50557	52392
35.51368	55661
35.52180	49132
35.52993	52663
35.53805	53689
35.54618	51025
35.55430	54559
35.56242	55811
35.57055	50111
35.57867	54035
35.58680	52214
35.59492	52702
35.60303	52001
35.61117	52440
35.61928	58722
35.62742	55390
35.63553	62061
35.64365	56983
35.65178	63037
35.65990	59425
35.66802	59755
35.67615	60768
35.68427	55809
35.69240	54679
35.70052	49778
35.70863	50680
35.71677	53369
35.72488	50938
35.73302	50836
35.74113	52518
35.74925	54869
35.75738	54922
35.76550	50494
35.77363	52777
35.78175	58288
35.78987	50053
35.79800	52103
35.80612	50044
35.81423	46904
35.82237	50312
35.83048	52552
35.83862	47481
35.84673	55218
35.85485	53248
35.86298	47884
35.87110	48824
35.87923	49142
35.88735	53346
35.89547	52086
35.90360	48711
35.91172	47592
35.91983	51727
35.92797	52415
35.93608	55305
35.94422	48726
35.95233	48427
35.96045	48943
35.96858	50306
35.97670	47884
35.98483	50372
35.99295	53165
36.00107	53414
36.00920	58077
36.01732	56709
36.02545	52941
36.03357	52258
36.04168	56699
36.04982	53242
36.05793	51882
36.06605	53928
36.07418	54947
36.08230	49222
36.09043	52589
36.09855	49442
36.10667	52274
36.11480	51520
36.12292	51510
36.13105	54068
36.13917	56535
36.14728	54409
36.15542	50783
36.16353	58009
36.17167	51083
36.17978	53991
36.18790	53279
36.19603	50526
36.20415	51038
36.21227	49058
36.22040	48756
36.22852	50231
36.23665	50255
36.24477	52949
36.25288	54076
36.26102	55961
36.26913	54469
36.27727	68994
36.28538	79201
36.29350	83292
36.30163	83765
36.30975	77778
36.31787	72121
36.32600	71089
36.33412	59943
36.34225	58356
36.35037	55491
36.35848	55237
36.36662	58987
36.37473	56915
36.38287	54286
36.39098	53766
36.39910	52398
36.40723	53613
36.41535	52040
36.42348	51901
36.43160	52498
36.43972	51990
36.44785	54079
36.45597	51757
36.46408	51209
36.47222	50523
36.48033	51163
36.48847	48173
36.49658	51407
36.50470	49912
36.51283	54398
36.52095	50125
36.52908	54051
36.53720	51934
36.54532	50451
36.55345	48837
36.56157	52248
36.56968	50125
36.57782	48476
36.58593	53695
36.59407	51097
36.60218	51856
36.61030	54312
36.61843	52917
36.62655	57146
36.63468	56529
36.64280	56862
36.65092	55804
36.65905	58666
36.66717	62295
36.67530	56768
36.68342	59581
36.69153	63369
36.69967	64234
36.70778	67158
36.71590	63486
36.72403	71918
36.73215	70254
36.74028	74856
36.74840	76437
36.75652	79850
36.76465	78715
36.77277	84262
36.78090	82325
36.78902	83755
36.79713	84457
36.80527	80149
36.81338	78261
36.82152	78738
36.82963	72971
36.83775	72992
36.84588	67330
36.85400	66070
36.86212	62740
36.87025	64383
36.87837	61359
36.88650	59346
36.89462	57291
36.90273	57748
36.91087	58229
36.91898	60434
36.92712	54141
36.93523	54222
36.94335	54723
36.95148	54614
36.95960	58003
36.96772	58184
36.97585	56341
36.98397	56153
36.99210	56841
37.00022	59343
37.00833	54807
37.01647	56664
37.02458	58739
37.03272	57274
37.04083	54672
37.04895	52021
37.05708	55929
37.06520	55199
37.07333	56134
37.08145	54807
37.08957	56676
37.09770	56800
37.10582	55046
37.11393	52572
37.12207	55536
37.13018	54050
37.13832	57061
37.14643	56121
37.15455	58070
37.16268	59243
37.17080	54273
37.17893	59007
37.18705	54879
37.19517	56947
37.20330	52120
37.21142	57228
37.21955	55453
37.22767	62670
37.23578	58649
37.24392	56463
37.25203	53108
37.26015	54054
37.26828	61143
37.27640	59393
37.28453	60923
37.29265	77916
37.30077	94362
37.30890	111625
37.31702	151500
37.32515	172517
37.33327	197618
37.34138	209067
37.34952	201508
37.35763	181183
37.36575	168412
37.37388	152691
37.38200	136657
37.39013	125439
37.39825	116387
37.40637	107407
37.41450	104138
37.42262	99775
37.43075	98662
37.43887	93164
37.44698	99096
37.45512	93700
37.46323	87687
37.47137	90622
37.47948	83843
37.48760	85230
