C:\MassHunter\GCMS\1\data\20191125_ALKANES\JTB-E18-40-08.D Mon Nov 25 14:51:24 2019
Start of data points
2.09525,162172
2.10337,157749
2.11150,155965
2.11962,161947
2.12773,162009
2.13587,152072
2.14398,148138
2.15212,152049
2.16023,149548
2.16835,147611
2.17648,148334
2.18460,147063
2.19273,144196
2.20085,140373
2.20897,139240
2.21710,144410
2.22522,140197
2.23333,131215
2.24147,140272
2.24958,141567
2.25772,136892
2.26583,135084
2.27395,139329
2.28208,129497
2.29020,133339
2.29833,130356
2.30645,136794
2.31457,132847
2.32270,137740
2.33082,129357
2.33893,129094
2.34707,131023
2.35518,133761
2.36332,131262
2.37143,132594
2.37955,127082
2.38768,127107
2.39580,124637
2.40393,126514
2.41205,118550
2.42017,119941
2.42830,126254
2.43642,122329
2.44455,121344
2.45267,117260
2.46078,128091
2.46892,129482
2.47703,122034
2.48515,119017
2.49328,123083
2.50140,124749
2.50953,123010
2.51765,116652
2.52577,119798
2.53390,116554
2.54202,116175
2.55015,119314
2.55827,117533
2.56638,121588
2.57452,119980
2.58263,119861
2.59075,114540
2.59888,116537
2.60700,112308
2.61513,113965
2.62325,115626
2.63137,115227
2.63950,116365
2.64762,112696
2.65575,113971
2.66387,112685
2.67198,113406
2.68012,110877
2.68823,108488
2.69637,107094
2.70448,106867
2.71260,105277
2.72073,106934
2.72885,105798
2.73697,106252
2.74510,112587
2.75322,107302
2.76135,106894
2.76947,106616
2.77758,106101
2.78572,108217
2.79383,110035
2.80197,105408
2.81008,108468
2.81820,111912
2.82633,108352
2.83445,105124
2.84258,109049
2.85070,105417
2.85882,110504
2.86695,101082
2.87507,107169
2.88318,109174
2.89132,106467
2.89943,100952
2.90757,99554
2.91568,102303
2.92380,102779
2.93193,106450
2.94005,104570
2.94818,99564
2.95630,100713
2.96442,99430
2.97255,101966
2.98067,100004
2.98878,107515
2.99692,103533
3.00503,98751
3.01317,97413
3.02128,98320
3.02940,97720
3.03753,99610
3.04565,100153
3.05378,102337
3.06190,101068
3.07002,101907
3.07815,98817
3.08627,97955
3.09440,97725
3.10252,101372
3.11063,99578
3.11877,108133
3.12688,99176
3.13500,97250
3.14313,102031
3.15125,99652
3.15938,100053
3.16750,104719
3.17562,99827
3.18375,98727
3.19187,100089
3.20000,94945
3.20812,101718
3.21623,98868
3.22437,99035
3.23248,96802
3.24062,98459
3.24873,95312
3.25685,99991
3.26498,100252
3.27310,97140
3.28122,97514
3.28935,101508
3.29747,96656
3.30560,97373
3.31372,95958
3.32183,96450
3.32997,97257
3.33808,98894
3.34622,102855
3.35433,95351
3.36245,95327
3.37058,94588
3.37870,95884
3.38682,92023
3.39495,98714
3.40307,92208
3.41120,95051
3.41932,96677
3.42743,95877
3.43557,95352
3.44368,91705
3.45182,91902
3.45993,99606
3.46805,89485
3.47618,93703
3.48430,93310
3.49243,95598
3.50055,91792
3.50867,91904
3.51680,92680
3.52492,92394
3.53303,89208
3.54117,89830
3.54928,90168
3.55742,94751
3.56553,93892
3.57365,87779
3.58178,97503
3.58990,90333
3.59803,91077
3.60615,89721
3.61427,87203
3.62240,94305
3.63052,97349
3.63863,90818
3.64677,101086
3.65488,90591
3.66302,92123
3.67113,87763
3.67925,91592
3.68738,90544
3.69550,91959
3.70363,90661
3.71175,87770
3.71987,93973
3.72800,92322
3.73612,90980
3.74425,87350
3.75237,91897
3.76048,88850
3.76862,87619
3.77673,88908
3.78485,87469
3.79298,88830
3.80110,91919
3.80923,92843
3.81735,86743
3.82547,85384
3.83360,93648
3.84172,89734
3.84985,85306
3.85797,90213
3.86608,89811
3.87422,86291
3.88233,85597
3.89047,98494
3.89858,86230
3.90670,88964
3.91483,84929
3.92295,84702
3.93107,87141
3.93920,86066
3.94732,87970
3.95545,83117
3.96357,82893
3.97168,89634
3.97982,85266
3.98793,86957
3.99607,85135
4.00418,89615
4.01230,84281
4.02043,87839
4.02855,85933
4.03667,90282
4.04480,88723
4.05292,85842
4.06105,87103
4.06917,87699
4.07728,89278
4.08542,83306
4.09353,84871
4.10167,87233
4.10978,81165
4.11790,86781
4.12603,84528
4.13415,83331
4.14228,82591
4.15040,81848
4.15852,89016
4.16665,86772
4.17477,89130
4.18288,91223
4.19102,87639
4.19913,82158
4.20727,82558
4.21538,84093
4.22350,86483
4.23163,83145
4.23975,88051
4.24788,83935
4.25600,83341
4.26412,81842
4.27225,81193
4.28037,85574
4.28850,80920
4.29662,86402
4.30473,86006
4.31287,82690
4.32098,87032
4.32910,84248
4.33723,82665
4.34535,84911
4.35348,81270
4.36160,78937
4.36972,83545
4.37785,86636
4.38597,88221
4.39410,78714
4.40222,81025
4.41033,81468
4.41847,86069
4.42658,84655
4.43470,82010
4.44283,85697
4.45095,91633
4.45908,84686
4.46720,79397
4.47532,84939
4.48345,81615
4.49157,82883
4.49970,82938
4.50782,80779
4.51593,91344
4.52407,75149
4.53218,83984
4.54032,82685
4.54843,82420
4.55655,80485
4.56468,83201
4.57280,83985
4.58092,81921
4.58905,83999
4.59717,77758
4.60530,80050
4.61342,79981
4.62153,82632
4.62967,83196
4.63778,83983
4.64592,79623
4.65403,78901
4.66215,80178
4.67028,81502
4.67840,79358
4.68653,83188
4.69465,81542
4.70277,76037
4.71090,83204
4.71902,77258
4.72713,76452
4.73527,77519
4.74338,78833
4.75152,80956
4.75963,82788
4.76775,82824
4.77588,89188
4.78400,80554
4.79213,81277
4.80025,83177
4.80837,81096
4.81650,95611
4.82462,77504
4.83273,83821
4.84087,80469
4.84898,79268
4.85712,78966
4.86523,80123
4.87335,79304
4.88148,79950
4.88960,83284
4.89773,77990
4.90585,79171
4.91397,77856
4.92210,81116
4.93022,82492
4.93835,80516
4.94647,74058
4.95458,81353
4.96272,78385
4.97083,76799
4.97895,78322
4.98708,78712
4.99520,75260
5.00333,74443
5.01145,81978
5.01957,76311
5.02770,78538
5.03582,77224
5.04395,79930
5.05207,80072
5.06018,79133
5.06832,78902
5.07643,73316
5.08455,70845
5.09268,76705
5.10080,75715
5.10893,80818
5.11705,80040
5.12517,78636
5.13330,71904
5.14142,75803
5.14955,81220
5.15767,73658
5.16578,73971
5.17392,78101
5.18203,76140
5.19017,73391
5.19828,74916
5.20640,75684
5.21453,77182
5.22265,75469
5.23077,74178
5.23890,80270
5.24702,73592
5.25515,73524
5.26327,74832
5.27138,73940
5.27952,68296
5.28763,71043
5.29577,67855
5.30388,71284
5.31200,70625
5.32013,72450
5.32825,66776
5.33638,73133
5.34450,67159
5.35262,67256
5.36075,66804
5.36887,67668
5.37698,66860
5.38512,73909
5.39323,69794
5.40137,62471
5.40948,68129
5.41760,68412
5.42573,64515
5.43385,62959
5.44198,58884
5.45010,58732
5.45822,64498
5.46635,61034
5.47447,59180
5.48258,59510
5.49072,69008
5.49883,63263
5.50697,57354
5.51508,51286
5.52320,47271
5.53133,50221
5.53945,50028
5.54758,50517
5.55570,48752
5.56382,48822
5.57195,48785
5.58007,50346
5.58820,47739
5.59632,45225
5.60443,47559
5.61257,52837
5.62068,45255
5.62880,50040
5.63693,47727
5.64505,50312
5.65318,45570
5.66130,45581
5.66942,47744
5.67755,43364
5.68567,43461
5.69380,48228
5.70192,47500
5.71003,45379
5.71817,46685
5.72628,45196
5.73442,44502
5.74253,48929
5.75065,49235
5.75878,43777
5.76690,48219
5.77502,50996
5.78315,45826
5.79127,47155
5.79940,43975
5.80752,50734
5.81563,45201
5.82377,47255
5.83188,48512
5.84002,46592
5.84813,44362
5.85625,47640
5.86438,44144
5.87250,45078
5.88062,45525
5.88875,48210
5.89687,44168
5.90500,44825
5.91312,38869
5.92123,37333
5.92937,34299
5.93748,34815
5.94562,36592
5.95373,35647
5.96185,36641
5.96998,33880
5.97810,35934
5.98623,36016
5.99435,35849
6.00247,35516
6.01060,37895
6.01872,34021
6.02683,34517
6.03497,35008
6.04308,35297
6.05122,32158
6.05933,34877
6.06745,36574
6.07558,35046
6.08370,35070
6.09183,34495
6.09995,35122
6.10807,37546
6.11620,38001
6.12432,39075
6.13243,32641
6.14057,34830
6.14868,36033
6.15682,34636
6.16493,35302
6.17305,35221
6.18118,32681
6.18930,34009
6.19743,36784
6.20555,34829
6.21367,32736
6.22180,34675
6.22992,33905
6.23805,33167
6.24617,36657
6.25428,33300
6.26242,33601
6.27053,34171
6.27865,31568
6.28678,35426
6.29490,30824
6.30303,35420
6.31115,34654
6.31927,36599
6.32740,34939
6.33552,34118
6.34365,33001
6.35177,34726
6.35988,36356
6.36802,30778
6.37613,32439
6.38427,33991
6.39238,34972
6.40050,30108
6.40863,33226
6.41675,34042
6.42487,35891
6.43300,32895
6.44112,31109
6.44925,32448
6.45737,33332
6.46548,33429
6.47362,32691
6.48173,33071
6.48987,32211
6.49798,35975
6.50610,33912
6.51423,35649
6.52235,32592
6.53047,31132
6.53860,33875
6.54672,32276
6.55485,35633
6.56297,35385
6.57108,31197
6.57922,36617
6.58733,33284
6.59547,35507
6.60358,32385
6.61170,32269
6.61983,34308
6.62795,29519
6.63608,31568
6.64420,30988
6.65232,31060
6.66045,33304
6.66857,33625
6.67668,28899
6.68482,30966
6.69293,32985
6.70107,34645
6.70918,31481
6.71730,29258
6.72543,31932
6.73355,32784
6.74168,34474
6.74980,35528
6.75792,32008
6.76605,31256
6.77417,33583
6.78230,31790
6.79042,31356
6.79853,33822
6.80667,32192
6.81478,32322
6.82290,33301
6.83103,29259
6.83915,29981
6.84728,32423
6.85540,28629
6.86352,37075
6.87165,29489
6.87977,27808
6.88790,28070
6.89602,29246
6.90413,28563
6.91227,29364
6.92038,27686
6.92850,28190
6.93663,29899
6.94475,29828
6.95288,29934
6.96100,25757
6.96912,32730
6.97725,28076
6.98537,31005
6.99350,28647
7.00162,27275
7.00973,26998
7.01787,29234
7.02598,29791
7.03412,26801
7.04223,28749
7.05035,28794
7.05848,27814
7.06660,26285
7.07472,29529
7.08285,28209
7.09097,27520
7.09910,28617
7.10722,28625
7.11533,30395
7.12347,29249
7.13158,30413
7.13972,28650
7.14783,28684
7.15595,28006
7.16408,30059
7.17220,26595
7.18032,28020
7.18845,26600
7.19657,26192
7.20470,30387
7.21282,30036
7.22093,24735
7.22907,27708
7.23718,25723
7.24532,25931
7.25343,29805
7.26155,26545
7.26968,27502
7.27780,28821
7.28593,27576
7.29405,30612
7.30217,27927
7.31030,26816
7.31842,29556
7.32653,32959
7.33467,28319
7.34278,31593
7.35092,28569
7.35903,28947
7.36715,28162
7.37528,28006
7.38340,27070
7.39153,26063
7.39965,26322
7.40777,27595
7.41590,30690
7.42402,28359
7.43215,28325
7.44027,30376
7.44838,28139
7.45652,27349
7.46463,28474
7.47275,30229
7.48088,27052
7.48900,28727
7.49713,27824
7.50525,24226
7.51337,25565
7.52150,23461
7.52962,27551
7.53775,25086
7.54587,28039
7.55398,27930
7.56212,33542
7.57023,29051
7.57837,31906
7.58648,26042
7.59460,27559
7.60273,27911
7.61085,27039
7.61897,26797
7.62710,26389
7.63522,31977
7.64335,27385
7.65147,26085
7.65958,28287
7.66772,26148
7.67583,27505
7.68397,25751
7.69208,25347
7.70020,25172
7.70833,27145
7.71645,26739
7.72457,26318
7.73270,27332
7.74082,29351
7.74895,24987
7.75707,26788
7.76518,24581
7.77332,26247
7.78143,25293
7.78957,26008
7.79768,28477
7.80580,26769
7.81393,28515
7.82205,28485
7.83018,27207
7.83830,25428
7.84642,25982
7.85455,28187
7.86267,27074
7.87078,28630
7.87892,25311
7.88703,32210
7.89517,27254
7.90328,24976
7.91140,25420
7.91953,25925
7.92765,24862
7.93578,26164
7.94390,26295
7.95202,25540
7.96015,28184
7.96827,26030
7.97638,26056
7.98452,25898
7.99263,27538
8.00077,24901
8.00888,26085
8.01700,29543
8.02513,26546
8.03325,23998
8.04138,27543
8.04950,28345
8.05762,26750
8.06575,24469
8.07387,26249
8.08200,27507
8.09012,26570
8.09823,30807
8.10637,24666
8.11448,25326
8.12260,26940
8.13073,25524
8.13885,23681
8.14698,25980
8.15510,25746
8.16322,27565
8.17135,25716
8.17947,26419
8.18760,25411
8.19572,23625
8.20383,25950
8.21197,28339
8.22008,29653
8.22822,26518
8.23633,24242
8.24445,26155
8.25258,25632
8.26070,23127
8.26882,25418
8.27695,23758
8.28507,25080
8.29320,27233
8.30132,26965
8.30943,25076
8.31757,25341
8.32568,26463
8.33382,27101
8.34193,25016
8.35005,23009
8.35818,23991
8.36630,24891
8.37442,25820
8.38255,25715
8.39067,26903
8.39880,29010
8.40692,25271
8.41503,29451
8.42317,28007
8.43128,23523
8.43942,22320
8.44753,24857
8.45565,26972
8.46378,25928
8.47190,24512
8.48003,25430
8.48815,29032
8.49627,31430
8.50440,27357
8.51252,28043
8.52063,26623
8.52877,23346
8.53688,25654
8.54502,25885
8.55313,27449
8.56125,27513
8.56938,24588
8.57750,23908
8.58563,32393
8.59375,25159
8.60187,24541
8.61000,23606
8.61812,24129
8.62625,23352
8.63437,23419
8.64248,23127
8.65062,22521
8.65873,22315
8.66685,24470
8.67498,25548
8.68310,25814
8.69123,26064
8.69935,26430
8.70747,24873
8.71560,24578
8.72372,27333
8.73185,23743
8.73997,21884
8.74808,22700
8.75622,21556
8.76433,23871
8.77245,23765
8.78058,21680
8.78870,24617
8.79683,23720
8.80495,24793
8.81307,24519
8.82120,23847
8.82932,23881
8.83745,24743
8.84557,21140
8.85368,23792
8.86182,23322
8.86993,22101
8.87807,28871
8.88618,24622
8.89430,20540
8.90243,22197
8.91055,24980
8.91867,21591
8.92680,23210
8.93492,21201
8.94305,23142
8.95117,22813
8.95928,24785
8.96742,22986
8.97553,22509
8.98367,22311
8.99178,21581
8.99990,24912
9.00803,24232
9.01615,23817
9.02427,22970
9.03240,21040
9.04052,21823
9.04865,23012
9.05677,22579
9.06488,24568
9.07302,21599
9.08113,20743
9.08927,23342
9.09738,22760
9.10550,23217
9.11363,21925
9.12175,23203
9.12988,24270
9.13800,23904
9.14612,21450
9.15425,24285
9.16237,23226
9.17048,28427
9.17862,18411
9.18673,21694
9.19487,22359
9.20298,20920
9.21110,22003
9.21923,22101
9.22735,21498
9.23548,23402
9.24360,21274
9.25172,23485
9.25985,21599
9.26797,22641
9.27610,20096
9.28422,23476
9.29233,18785
9.30047,22110
9.30858,19042
9.31670,24127
9.32483,23111
9.33295,22099
9.34108,26735
9.34920,20676
9.35732,20302
9.36545,23216
9.37357,23900
9.38170,21590
9.38982,23574
9.39793,23631
9.40607,21839
9.41418,25542
9.42230,20687
9.43043,23216
9.43855,23298
9.44668,21382
9.45480,21065
9.46292,23059
9.47105,22658
9.47917,25582
9.48730,22431
9.49542,20303
9.50353,22314
9.51167,21100
9.51978,21892
9.52792,20532
9.53603,19109
9.54415,21612
9.55228,24365
9.56040,21884
9.56852,19977
9.57665,19518
9.58477,23227
9.59290,20753
9.60102,18927
9.60913,18722
9.61727,20864
9.62538,20582
9.63352,21095
9.64163,21189
9.64975,19478
9.65788,19786
9.66600,20795
9.67413,19692
9.68225,22187
9.69037,18706
9.69850,18886
9.70662,21272
9.71473,21502
9.72287,20638
9.73098,19338
9.73912,17785
9.74723,20332
9.75535,20437
9.76348,20928
9.77160,23362
9.77973,21095
9.78785,20350
9.79597,20847
9.80410,21163
9.81222,21835
9.82033,19709
9.82847,19477
9.83658,20446
9.84472,25742
9.85283,19106
9.86095,20287
9.86908,20809
9.87720,19594
9.88533,20333
9.89345,20239
9.90157,21093
9.90970,23912
9.91782,20742
9.92595,24520
9.93407,20025
9.94218,20736
9.95032,19322
9.95843,22793
9.96655,20226
9.97468,20796
9.98280,21023
9.99093,19895
9.99905,19700
10.00717,20117
10.01530,19995
10.02342,22298
10.03155,27368
10.03967,19625
10.04778,27507
10.05592,19075
10.06403,18013
10.07217,19686
10.08028,21131
10.08840,21951
10.09653,20472
10.10465,21179
10.11277,19845
10.12090,19640
10.12902,21176
10.13715,18639
10.14527,20590
10.15338,22420
10.16152,18141
10.16963,18816
10.17777,21670
10.18588,19513
10.19400,22225
10.20213,19355
10.21025,23197
10.21837,21377
10.22650,20908
10.23462,20524
10.24275,21665
10.25087,18180
10.25898,20137
10.26712,22720
10.27523,19799
10.28337,19536
10.29148,22330
10.29960,20879
10.30773,20883
10.31585,22370
10.32398,17388
10.33210,19495
10.34022,19130
10.34835,20020
10.35647,18945
10.36458,19309
10.37272,19507
10.38083,20788
10.38897,18316
10.39708,20587
10.40520,18321
10.41333,19808
10.42145,18333
10.42958,18752
10.43770,18632
10.44582,20718
10.45395,18959
10.46207,18607
10.47018,21737
10.47832,20843
10.48643,20946
10.49457,21666
10.50268,22168
10.51080,18077
10.51893,21113
10.52705,19522
10.53518,20779
10.54330,27346
10.55142,20530
10.55955,18710
10.56767,22777
10.57580,20413
10.58392,20259
10.59203,20582
10.60017,20082
10.60828,21014
10.61640,22784
10.62453,19157
10.63265,16716
10.64078,21742
10.64890,19149
10.65702,20985
10.66515,21744
10.67327,18251
10.68140,19449
10.68952,21194
10.69763,18282
10.70577,18416
10.71388,19845
10.72202,20494
10.73013,19253
10.73825,21737
10.74638,18070
10.75450,18227
10.76262,18200
10.77075,18544
10.77887,20930
10.78700,19120
10.79512,17720
10.80323,21437
10.81137,21066
10.81948,19967
10.82762,20980
10.83573,21069
10.84385,20918
10.85198,21814
10.86010,22640
10.86822,18615
10.87635,20444
10.88447,19938
10.89260,19406
10.90072,18079
10.90883,23045
10.91697,20765
10.92508,18776
10.93322,19391
10.94133,18187
10.94945,18941
10.95758,19575
10.96570,19843
10.97383,24090
10.98195,19166
10.99007,18298
10.99820,20830
11.00632,18015
11.01443,19560
11.02257,18564
11.03068,22389
11.03882,21541
11.04693,21638
11.05505,20175
11.06318,20184
11.07130,17137
11.07943,19348
11.08755,20420
11.09567,20786
11.10380,19533
11.11192,19654
11.12005,20305
11.12817,21495
11.13628,19484
11.14442,19367
11.15253,18970
11.16065,19891
11.16878,19635
11.17690,18794
11.18503,18380
11.19315,18175
11.20127,19408
11.20940,21258
11.21752,17658
11.22565,19179
11.23377,20692
11.24188,20457
11.25002,20755
11.25813,20566
11.26625,20102
11.27438,19155
11.28250,18619
11.29063,19596
11.29875,19134
11.30687,20407
11.31500,19205
11.32312,19420
11.33125,20475
11.33937,20396
11.34748,17938
11.35562,20674
11.36373,19399
11.37187,17942
11.37998,17225
11.38810,18738
11.39623,17717
11.40435,22251
11.41247,21479
11.42060,20587
11.42872,20725
11.43685,25604
11.44497,20059
11.45308,21127
11.46122,16381
11.46933,18912
11.47747,24386
11.48558,18030
11.49370,17287
11.50183,18536
11.50995,20249
11.51807,19800
11.52620,20464
11.53432,20245
11.54245,16906
11.55057,18765
11.55868,25226
11.56682,18637
11.57493,21334
11.58307,18737
11.59118,18689
11.59930,21354
11.60743,25017
11.61555,18916
11.62368,19397
11.63180,18048
11.63992,21193
11.64805,20980
11.65617,20845
11.66428,18417
11.67242,18908
11.68053,18601
11.68867,18944
11.69678,17458
11.70490,19331
11.71303,17946
11.72115,19919
11.72928,18639
11.73740,21827
11.74552,16294
11.75365,20752
11.76177,20343
11.76990,20098
11.77802,17065
11.78613,17809
11.79427,17514
11.80238,18715
11.81050,20192
11.81863,22302
11.82675,19443
11.83488,19214
11.84300,25653
11.85112,20021
11.85925,19533
11.86737,16965
11.87550,17742
11.88362,20603
11.89173,22003
11.89987,18602
11.90798,19468
11.91612,26154
11.92423,19274
11.93235,19533
11.94048,19293
11.94860,20047
11.95672,24188
11.96485,18319
11.97297,19622
11.98110,20049
11.98922,17998
11.99733,18372
12.00547,20310
12.01358,18909
12.02172,18159
12.02983,19077
12.03795,18548
12.04608,16824
12.05420,15737
12.06232,20635
12.07045,21220
12.07857,17616
12.08670,18629
12.09482,20985
12.10293,20278
12.11107,17574
12.11918,19892
12.12732,17460
12.13543,19318
12.14355,20164
12.15168,17770
12.15980,20630
12.16793,24062
12.17605,18128
12.18417,19999
12.19230,19263
12.20042,19084
12.20853,19613
12.21667,20551
12.22478,19231
12.23292,17992
12.24103,20022
12.24915,19809
12.25728,19236
12.26540,16754
12.27353,18539
12.28165,17558
12.28977,17620
12.29790,19345
12.30602,20868
12.31413,19454
12.32227,16752
12.33038,21398
12.33852,18584
12.34663,21152
12.35475,22480
12.36288,19579
12.37100,19621
12.37913,24865
12.38725,20168
12.39537,15860
12.40350,19606
12.41162,17358
12.41975,18349
12.42787,18627
12.43598,21520
12.44412,19233
12.45223,18057
12.46035,19589
12.46848,20236
12.47660,20285
12.48473,18711
12.49285,18127
12.50097,17950
12.50910,18600
12.51722,17513
12.52535,18364
12.53347,19785
12.54158,18721
12.54972,19172
12.55783,18749
12.56597,21708
12.57408,18028
12.58220,18374
12.59033,16923
12.59845,17116
12.60657,19320
12.61470,19118
12.62282,22402
12.63095,17941
12.63907,18343
12.64718,17376
12.65532,17755
12.66343,19021
12.67157,17546
12.67968,21612
12.68780,18951
12.69593,18143
12.70405,18071
12.71217,17400
12.72030,16873
12.72842,18929
12.73655,19270
12.74467,18564
12.75278,20389
12.76092,17446
12.76903,20890
12.77717,19031
12.78528,18603
12.79340,23960
12.80153,16323
12.80965,17397
12.81778,17887
12.82590,17178
12.83402,17604
12.84215,23387
12.85027,18437
12.85838,20534
12.86652,16827
12.87463,20149
12.88277,16303
12.89088,18575
12.89900,18231
12.90713,18221
12.91525,19762
12.92338,24171
12.93150,20565
12.93962,20133
12.94775,17801
12.95587,18542
12.96400,18969
12.97212,20451
12.98023,20703
12.98837,17966
12.99648,16292
13.00460,20724
13.01273,21197
13.02085,19091
13.02898,20179
13.03710,20117
13.04522,19651
13.05335,20532
13.06147,19685
13.06960,17540
13.07772,18140
13.08583,19852
13.09397,19912
13.10208,20261
13.11020,18875
13.11833,19208
13.12645,19547
13.13458,21209
13.14270,20353
13.15082,21253
13.15895,22868
13.16707,20248
13.17520,18717
13.18332,21288
13.19143,20407
13.19957,16901
13.20768,21674
13.21582,20994
13.22393,19626
13.23205,20763
13.24018,20054
13.24830,22647
13.25642,20843
13.26455,20531
13.27267,21544
13.28080,23478
13.28892,28671
13.29703,22389
13.30517,25824
13.31328,22226
13.32142,22730
13.32953,22760
13.33765,20493
13.34578,20901
13.35390,22078
13.36202,20536
13.37015,22300
13.37827,20220
13.38640,19098
13.39452,21330
13.40263,24043
13.41077,23677
13.41888,22099
13.42702,19879
13.43513,20338
13.44325,20581
13.45138,21371
13.45950,20286
13.46763,19804
13.47575,19884
13.48387,21513
13.49200,23850
13.50012,20145
13.50823,18730
13.51637,19674
13.52448,23055
13.53262,23343
13.54073,20188
13.54885,21198
13.55698,25240
13.56510,21441
13.57323,19946
13.58135,24200
13.58947,20329
13.59760,21030
13.60572,21264
13.61385,20361
13.62197,22332
13.63008,23058
13.63822,19605
13.64633,20336
13.65445,18746
13.66258,26460
13.67070,20753
13.67883,18578
13.68695,21390
13.69507,22324
13.70320,22729
13.71132,18640
13.71945,23888
13.72757,21726
13.73568,22715
13.74382,21425
13.75193,21867
13.76005,19793
13.76818,22186
13.77630,23913
13.78443,17852
13.79255,23019
13.80067,23106
13.80880,23868
13.81692,23777
13.82505,20310
13.83317,21021
13.84128,27863
13.84942,18733
13.85753,20823
13.86567,23367
13.87378,19470
13.88190,22181
13.89003,22061
13.89815,20206
13.90627,21010
13.91440,19617
13.92252,25572
13.93065,28106
13.93877,22428
13.94688,19405
13.95502,19630
13.96313,21266
13.97127,22425
13.97938,22900
13.98750,22333
13.99563,19914
14.00375,21525
14.01188,21609
14.02000,21962
14.02812,20679
14.03625,18951
14.04437,20459
14.05248,25020
14.06062,21407
14.06873,18570
14.07687,23323
14.08498,20206
14.09310,23157
14.10123,22361
14.10935,21379
14.11748,20875
14.12560,20693
14.13372,21007
14.14185,19595
14.14997,20032
14.15808,20133
14.16622,19889
14.17433,19523
14.18247,17237
14.19058,17959
14.19870,20243
14.20683,18659
14.21495,17160
14.22308,20752
14.23120,17196
14.23932,20513
14.24745,18180
14.25557,20834
14.26370,19512
14.27182,20841
14.27993,19732
14.28807,22617
14.29618,17596
14.30430,18852
14.31243,19002
14.32055,17891
14.32868,20021
14.33680,17172
14.34492,21354
14.35305,18375
14.36117,22804
14.36930,19098
14.37742,18285
14.38553,17219
14.39367,17632
14.40178,15663
14.40990,20874
14.41803,19088
14.42615,18592
14.43428,16831
14.44240,16045
14.45052,19426
14.45865,18523
14.46677,17567
14.47490,18960
14.48302,18348
14.49113,23963
14.49927,18522
14.50738,19707
14.51552,18891
14.52363,17563
14.53175,18181
14.53988,17455
14.54800,16870
14.55612,16639
14.56425,19649
14.57237,20893
14.58050,19628
14.58862,17635
14.59673,19126
14.60487,17026
14.61298,17925
14.62112,16551
14.62923,19275
14.63735,18961
14.64548,18590
14.65360,16180
14.66173,18378
14.66985,18310
14.67797,17972
14.68610,16507
14.69422,19155
14.70233,19351
14.71047,18099
14.71858,17886
14.72672,18658
14.73483,18198
14.74295,17297
14.75108,18918
14.75920,19090
14.76733,16577
14.77545,17623
14.78357,16864
14.79170,19883
14.79982,17579
14.80793,18542
14.81607,23148
14.82418,17595
14.83232,18389
14.84043,16228
14.84855,17638
14.85668,18467
14.86480,17960
14.87293,17967
14.88105,17197
14.88917,23026
14.89730,16895
14.90542,16895
14.91355,16913
14.92167,17800
14.92978,17695
14.93792,19775
14.94603,19409
14.95415,19407
14.96228,17126
14.97040,21811
14.97853,17081
14.98665,18156
14.99477,18038
15.00290,16887
15.01102,18580
15.01915,18502
15.02727,16576
15.03538,17420
15.04352,18044
15.05163,16918
15.05977,20007
15.06788,17919
15.07600,16776
15.08413,18490
15.09225,17067
15.10037,18727
15.10850,16261
15.11662,18840
15.12475,18357
15.13287,18189
15.14098,20015
15.14912,18403
15.15723,18742
15.16537,20565
15.17348,18295
15.18160,18829
15.18973,17475
15.19785,17538
15.20597,18194
15.21410,18703
15.22222,16918
15.23035,20266
15.23847,19972
15.24658,18797
15.25472,18563
15.26283,19301
15.27097,19220
15.27908,20606
15.28720,15690
15.29533,18239
15.30345,17804
15.31158,17030
15.31970,18334
15.32782,18579
15.33595,16842
15.34407,16838
15.35218,17948
15.36032,19814
15.36843,18947
15.37657,19922
15.38468,16873
15.39280,16789
15.40093,16280
15.40905,15188
15.41718,17963
15.42530,16754
15.43342,20174
15.44155,16724
15.44967,16158
15.45780,16880
15.46592,18112
15.47403,21212
15.48217,17965
15.49028,16601
15.49840,15212
15.50653,16944
15.51465,19273
15.52278,18453
15.53090,18379
15.53902,17369
15.54715,17383
15.55527,17755
15.56340,19560
15.57152,19418
15.57963,16144
15.58777,17772
15.59588,17874
15.60400,17847
15.61213,17668
15.62025,19610
15.62838,18862
15.63650,19213
15.64462,19304
15.65275,18705
15.66087,16531
15.66900,16285
15.67712,16738
15.68523,20480
15.69337,17610
15.70148,18670
15.70962,17576
15.71773,16640
15.72585,18383
15.73398,17706
15.74210,19445
15.75022,18578
15.75835,16304
15.76647,17055
15.77460,20111
15.78272,18047
15.79083,16949
15.79897,17703
15.80708,17042
15.81522,16954
15.82333,19062
15.83145,19327
15.83958,18672
15.84770,18712
15.85582,16984
15.86395,25834
15.87207,19389
15.88020,22534
15.88832,17504
15.89643,17940
15.90457,17946
15.91268,17639
15.92082,15905
15.92893,23248
15.93705,17112
15.94518,17514
15.95330,18410
15.96143,17563
15.96955,17645
15.97767,18599
15.98580,18053
15.99392,17321
16.00203,17681
16.01017,18962
16.01828,19698
16.02642,19079
16.03453,17251
16.04265,19618
16.05078,18937
16.05890,19955
16.06703,19785
16.07515,18123
16.08327,17660
16.09140,19069
16.09952,20479
16.10765,20551
16.11577,19965
16.12388,16786
16.13202,19629
16.14013,17018
16.14825,16558
16.15638,18806
16.16450,16966
16.17263,18750
16.18075,18154
16.18887,18647
16.19700,19409
16.20512,16298
16.21325,18358
16.22137,19591
16.22948,18961
16.23762,15872
16.24573,21634
16.25385,19735
16.26198,20535
16.27010,19009
16.27823,18174
16.28635,19565
16.29447,17548
16.30260,17516
16.31072,16308
16.31885,15215
16.32697,17770
16.33508,17812
16.34322,17898
16.35133,18921
16.35947,17232
16.36758,17847
16.37570,16756
16.38383,19599
16.39195,22593
16.40007,18202
16.40820,17893
16.41632,18721
16.42445,18994
16.43257,19454
16.44068,17389
16.44882,14933
16.45693,17812
16.46507,20274
16.47318,17712
16.48130,20925
16.48943,17495
16.49755,18004
16.50568,15987
16.51380,19982
16.52192,17955
16.53005,18259
16.53817,18271
16.54628,16815
16.55442,16808
16.56253,17664
16.57067,15470
16.57878,23551
16.58690,20270
16.59503,21142
16.60315,18169
16.61128,24086
16.61940,19407
16.62752,16033
16.63565,19025
16.64377,17587
16.65188,18697
16.66002,18367
16.66813,17169
16.67627,17637
16.68438,18562
16.69250,23228
16.70063,18285
16.70875,24806
16.71688,16631
16.72500,18545
16.73312,18824
16.74125,17899
16.74937,18947
16.75750,16943
16.76562,24091
16.77373,19565
16.78187,16406
16.78998,19257
16.79810,16739
16.80623,19792
16.81435,16638
16.82248,17216
16.83060,19744
16.83872,20304
16.84685,19658
16.85497,19804
16.86310,17260
16.87122,17088
16.87933,18815
16.88747,19349
16.89558,17925
16.90370,17838
16.91183,19011
16.91995,21951
16.92808,19915
16.93620,18064
16.94432,17239
16.95245,16786
16.96057,20022
16.96870,17697
16.97682,20428
16.98493,21413
16.99307,17154
17.00118,18339
17.00932,17503
17.01743,14548
17.02555,17352
17.03368,17453
17.04180,17787
17.04992,19372
17.05805,18512
17.06617,19546
17.07430,17990
17.08242,20067
17.09053,17546
17.09867,16589
17.10678,17777
17.11492,17193
17.12303,18250
17.13115,18192
17.13928,16224
17.14740,22326
17.15553,19646
17.16365,18535
17.17177,17314
17.17990,17668
17.18802,18606
17.19613,19305
17.20427,17912
17.21238,17113
17.22052,18617
17.22863,17794
17.23675,21700
17.24488,19906
17.25300,18924
17.26113,18425
17.26925,16813
17.27737,16810
17.28550,17240
17.29362,19054
17.30175,23503
17.30987,20562
17.31798,18487
17.32612,19575
17.33423,20112
17.34235,18190
17.35048,19645
17.35860,19870
17.36673,19710
17.37485,16822
17.38297,17237
17.39110,26708
17.39922,19463
17.40735,19439
17.41547,19054
17.42358,17032
17.43172,17923
17.43983,18698
17.44795,18688
17.45608,18778
17.46420,17578
17.47233,20311
17.48045,19603
17.48857,18215
17.49670,19640
17.50482,19205
17.51295,16561
17.52107,18910
17.52918,19084
17.53732,19079
17.54543,17472
17.55357,17790
17.56168,16815
17.56980,19093
17.57793,17686
17.58605,16892
17.59417,17789
17.60230,26303
17.61042,20595
17.61855,17528
17.62667,18612
17.63478,18635
17.64292,18038
17.65103,20689
17.65917,19664
17.66728,22597
17.67540,21349
17.68353,19268
17.69165,17160
17.69977,20250
17.70790,20141
17.71602,18431
17.72415,17723
17.73227,16940
17.74038,19658
17.74852,24556
17.75663,16231
17.76477,18702
17.77288,17176
17.78100,18255
17.78913,20646
17.79725,19835
17.80538,17460
17.81350,21335
17.82162,18388
17.82975,19896
17.83787,25500
17.84598,18442
17.85412,23299
17.86223,19018
17.87037,20399
17.87848,23819
17.88660,18935
17.89473,20426
17.90285,17439
17.91098,18577
17.91910,19327
17.92722,20564
17.93535,17569
17.94347,21233
17.95160,18470
17.95972,19672
17.96783,20067
17.97597,18955
17.98408,19379
17.99220,17646
18.00033,19827
18.00845,18535
18.01658,19995
18.02470,19854
18.03282,19150
18.04095,18337
18.04907,17917
18.05720,17742
18.06532,17003
18.07343,25275
18.08157,17602
18.08968,20458
18.09780,18267
18.10593,17134
18.11405,17993
18.12218,20026
18.13030,17972
18.13842,18067
18.14655,19005
18.15467,17983
18.16280,19342
18.17092,17962
18.17903,19793
18.18717,24563
18.19528,21299
18.20342,19680
18.21153,20275
18.21965,17454
18.22778,19139
18.23590,21198
18.24402,18301
18.25215,18837
18.26027,19194
18.26840,18866
18.27652,21585
18.28463,17769
18.29277,19060
18.30088,18180
18.30902,20332
18.31713,18627
18.32525,20557
18.33338,20754
18.34150,18538
18.34963,19552
18.35775,19821
18.36587,20023
18.37400,19118
18.38212,18702
18.39023,18705
18.39837,21087
18.40648,19380
18.41462,20033
18.42273,19237
18.43085,17891
18.43898,18591
18.44710,16889
18.45523,19268
18.46335,21713
18.47147,17450
18.47960,19344
18.48772,19010
18.49583,20095
18.50397,20724
18.51208,20924
18.52022,17514
18.52833,20010
18.53645,18897
18.54458,17287
18.55270,20718
18.56083,21587
18.56895,20582
18.57707,20219
18.58520,18796
18.59332,25584
18.60145,20167
18.60957,20725
18.61768,18363
18.62582,18906
18.63393,18616
18.64205,19493
18.65018,19203
18.65830,20142
18.66643,20048
18.67455,19422
18.68267,20298
18.69080,19679
18.69892,17250
18.70705,17764
18.71517,19189
18.72328,18977
18.73142,19895
18.73953,19036
18.74765,22494
18.75578,20782
18.76390,19005
18.77203,19607
18.78015,21068
18.78827,18870
18.79640,17224
18.80452,18940
18.81265,17086
18.82077,25857
18.82888,20304
18.83702,24253
18.84513,19953
18.85327,21763
18.86138,20212
18.86950,23554
18.87763,21463
18.88575,19070
18.89387,20326
18.90200,18951
18.91012,18260
18.91825,19814
18.92637,23408
18.93448,17298
18.94262,17108
18.95073,17999
18.95887,19548
18.96698,18594
18.97510,19697
18.98323,19694
18.99135,21033
18.99948,19190
19.00760,17435
19.01572,18216
19.02385,18538
19.03197,20887
19.04008,20207
19.04822,20822
19.05633,20094
19.06447,25694
19.07258,21156
19.08070,21841
19.08883,19740
19.09695,25809
19.10508,23123
19.11320,21998
19.12132,21826
19.12945,18924
19.13757,23284
19.14568,20984
19.15382,22517
19.16193,20236
19.17007,18341
19.17818,19504
19.18630,18722
19.19443,21723
19.20255,23735
19.21068,22141
19.21880,21282
19.22692,21770
19.23505,19598
19.24317,22713
19.25130,21168
19.25942,22079
19.26753,21006
19.27567,20781
19.28378,22702
19.29190,22039
19.30003,25073
19.30815,25723
19.31628,26869
19.32440,26564
19.33252,26300
19.34065,29580
19.34877,26551
19.35690,27424
19.36502,26666
19.37313,26568
19.38127,28155
19.38938,29009
19.39752,31605
19.40563,29715
19.41375,26807
19.42188,26112
19.43000,24071
19.43812,22849
19.44625,21471
19.45437,24658
19.46250,20429
19.47062,23394
19.47873,22532
19.48687,23395
19.49498,22415
19.50312,24937
19.51123,23593
19.51935,22812
19.52748,22026
19.53560,20091
19.54372,22162
19.55185,20855
19.55997,22351
19.56810,24275
19.57622,21527
19.58433,22078
19.59247,23033
19.60058,22235
19.60872,20592
19.61683,23883
19.62495,22442
19.63308,22953
19.64120,21315
19.64933,24840
19.65745,21855
19.66557,22264
19.67370,20648
19.68182,23111
19.68993,22757
19.69807,21269
19.70618,21557
19.71432,21867
19.72243,21099
19.73055,21554
19.73868,19699
19.74680,19630
19.75493,20004
19.76305,20413
19.77117,21388
19.77930,19925
19.78742,19080
19.79555,19141
19.80367,19529
19.81178,21505
19.81992,21122
19.82803,18457
19.83615,16902
19.84428,19804
19.85240,18804
19.86053,20559
19.86865,20201
19.87677,21252
19.88490,24324
19.89302,20840
19.90115,21026
19.90927,21983
19.91738,20779
19.92552,21212
19.93363,22865
19.94175,21053
19.94988,22557
19.95800,24584
19.96613,24695
19.97425,23687
19.98237,21830
19.99050,23627
19.99862,24227
20.00675,22988
20.01487,22924
20.02298,24520
20.03112,28467
20.03923,21492
20.04737,24950
20.05548,23432
20.06360,23934
20.07173,26224
20.07985,22839
20.08797,25213
20.09610,24770
20.10422,24897
20.11235,22022
20.12047,29935
20.12858,23468
20.13672,30057
20.14483,25729
20.15297,27119
20.16108,24507
20.16920,27756
20.17733,26066
20.18545,26550
20.19357,29366
20.20170,24548
20.20982,26219
20.21795,26051
20.22607,23519
20.23418,23137
20.24232,23122
20.25043,24223
20.25857,22730
20.26668,24598
20.27480,22351
20.28293,21188
20.29105,21912
20.29918,21691
20.30730,22006
20.31542,19248
20.32355,20897
20.33167,23256
20.33978,24785
20.34792,23532
20.35603,18017
20.36417,21654
20.37228,20862
20.38040,19473
20.38853,18661
20.39665,19205
20.40478,18500
20.41290,20253
20.42102,19945
20.42915,22972
20.43727,20085
20.44540,20290
20.45352,19735
20.46163,20837
20.46977,25944
20.47788,19076
20.48600,20098
20.49413,24719
20.50225,25098
20.51038,22230
20.51850,20045
20.52662,20930
20.53475,21096
20.54287,20522
20.55100,21062
20.55912,21718
20.56723,21094
20.57537,23975
20.58348,26636
20.59160,18015
20.59973,20785
20.60785,20086
20.61598,20937
20.62410,20569
20.63222,20941
20.64035,20241
20.64847,27452
20.65660,20219
20.66472,22459
20.67283,21759
20.68097,23347
20.68908,20425
20.69722,20736
20.70533,24715
20.71345,20733
20.72158,20836
20.72970,20546
20.73782,19245
20.74595,27005
20.75407,21878
20.76220,19119
20.77032,19757
20.77843,21753
20.78657,20934
20.79468,21162
20.80282,20978
20.81093,25511
20.81905,20870
20.82718,21479
20.83530,22853
20.84343,21125
20.85155,17907
20.85967,19276
20.86780,20589
20.87592,20081
20.88403,21057
20.89217,20965
20.90028,17602
20.90842,19043
20.91653,20412
20.92465,19814
20.93278,19955
20.94090,20534
20.94903,21265
20.95715,20537
20.96527,21294
20.97340,20409
20.98152,21221
20.98963,22602
20.99777,20623
21.00588,27273
21.01402,20482
21.02213,25549
21.03025,21038
21.03838,21715
21.04650,20828
21.05463,20995
21.06275,19918
21.07087,19805
21.07900,21447
21.08712,19290
21.09525,21127
21.10337,27084
21.11148,18824
21.11962,20035
21.12773,19862
21.13585,19547
21.14398,22026
21.15210,20280
21.16023,19767
21.16835,19299
21.17647,21353
21.18460,20822
21.19272,20555
21.20085,21321
21.20897,21767
21.21708,18868
21.22522,20551
21.23333,20975
21.24145,21559
21.24958,23622
21.25770,18258
21.26583,20728
21.27395,23257
21.28207,18874
21.29020,19750
21.29832,20256
21.30645,20616
21.31457,16977
21.32268,15860
21.33082,22836
21.33893,20642
21.34707,19537
21.35518,20297
21.36330,19268
21.37143,18506
21.37955,20362
21.38767,18425
21.39580,20290
21.40392,21246
21.41205,20101
21.42017,19073
21.42828,19934
21.43642,19481
21.44453,19038
21.45267,19142
21.46078,19382
21.46890,21535
21.47703,21924
21.48515,20651
21.49328,22367
21.50140,24162
21.50952,23283
21.51765,21161
21.52577,21284
21.53388,21623
21.54202,21986
21.55013,18605
21.55827,19900
21.56638,22293
21.57450,22862
21.58263,20614
21.59075,21554
21.59888,19105
21.60700,21355
21.61512,20004
21.62325,27293
21.63137,20016
21.63948,19871
21.64762,20732
21.65573,21410
21.66387,25918
21.67198,20739
21.68010,21087
21.68823,22814
21.69635,21603
21.70448,27959
21.71260,19458
21.72072,20536
21.72885,22758
21.73697,19122
21.74510,20924
21.75322,23956
21.76133,19549
21.76947,19775
21.77758,22112
21.78570,21350
21.79383,22155
21.80195,22043
21.81008,18691
21.81820,20700
21.82632,20083
21.83445,19929
21.84257,22328
21.85070,18774
21.85882,20735
21.86693,20089
21.87507,18150
21.88318,22598
21.89132,18830
21.89943,24450
21.90755,20227
21.91568,27704
21.92380,24600
21.93192,22776
21.94005,20504
21.94817,20461
21.95630,19563
21.96442,17752
21.97253,20890
21.98067,19056
21.98878,23749
21.99692,22587
22.00503,19727
22.01315,19552
22.02128,21197
22.02940,22567
22.03752,19611
22.04565,20036
22.05377,21299
22.06190,18589
22.07002,17678
22.07813,20761
22.08627,21402
22.09438,20547
22.10252,20588
22.11063,24670
22.11875,20523
22.12688,20367
22.13500,19399
22.14313,17834
22.15125,20469
22.15937,20656
22.16750,18581
22.17562,20042
22.18373,20372
22.19187,23402
22.19998,23539
22.20812,19984
22.21623,20005
22.22435,22116
22.23248,21564
22.24060,19406
22.24873,19472
22.25685,20463
22.26497,22141
22.27310,22619
22.28122,21080
22.28933,19711
22.29747,19712
22.30558,22802
22.31372,21354
22.32183,22088
22.32995,22293
22.33808,20500
22.34620,20179
22.35433,25805
22.36245,22378
22.37057,21967
22.37870,18964
22.38682,19665
22.39495,23983
22.40307,19492
22.41118,20299
22.41932,20836
22.42743,23526
22.43555,22941
22.44368,26978
22.45180,18370
22.45993,21764
22.46805,20053
22.47617,21528
22.48430,26581
22.49242,19808
22.50055,20683
22.50867,17553
22.51678,20626
22.52492,19427
22.53303,19128
22.54117,21976
22.54928,23458
22.55740,20016
22.56553,19761
22.57365,20003
22.58177,23587
22.58990,18972
22.59802,22127
22.60615,20612
22.61427,19868
22.62238,19166
22.63052,19900
22.63863,22114
22.64677,19969
22.65488,19152
22.66300,19184
22.67113,17684
22.67925,21667
22.68738,20882
22.69550,22370
22.70362,23900
22.71175,21049
22.71987,21893
22.72798,20706
22.73612,21321
22.74423,19017
22.75237,18613
22.76048,19561
22.76860,19855
22.77673,20813
22.78485,19084
22.79298,20857
22.80110,19593
22.80922,18102
22.81735,21414
22.82547,20739
22.83358,22491
22.84172,25815
22.84983,23224
22.85797,23802
22.86608,20912
22.87420,23722
22.88233,20484
22.89045,21539
22.89858,19366
22.90670,21452
22.91482,22007
22.92295,23399
22.93107,21319
22.93920,20471
22.94732,25195
22.95543,21638
22.96357,21413
22.97168,20940
22.97980,21535
22.98793,18994
22.99605,19243
23.00418,21474
23.01230,19399
23.02042,17712
23.02855,17005
23.03667,21478
23.04480,23015
23.05292,20041
23.06103,19234
23.06917,18987
23.07728,19106
23.08540,21991
23.09353,19894
23.10165,20742
23.10978,20381
23.11790,19787
23.12602,19510
23.13415,21659
23.14227,17893
23.15040,22407
23.15852,18365
23.16663,20139
23.17477,21554
23.18288,19547
23.19102,17930
23.19913,21152
23.20725,18987
23.21538,20222
23.22350,19451
23.23162,21155
23.23975,23860
23.24787,20624
23.25600,19704
23.26412,18617
23.27223,21298
23.28037,18344
23.28848,19845
23.29662,21202
23.30473,21725
23.31285,21338
23.32098,21830
23.32910,18179
23.33723,20335
23.34535,21172
23.35347,20826
23.36160,21339
23.36972,19637
23.37783,20137
23.38597,20886
23.39408,21983
23.40222,19430
23.41033,19416
23.41845,20952
23.42658,20109
23.43470,21596
23.44283,18913
23.45095,19619
23.45907,20641
23.46720,19499
23.47532,19768
23.48343,21436
23.49157,23533
23.49968,19489
23.50782,25760
23.51593,21440
23.52405,21687
23.53218,22103
23.54030,21578
23.54843,19586
23.55655,23342
23.56467,21317
23.57280,22227
23.58092,20953
23.58905,23937
23.59717,22003
23.60528,25159
23.61342,20147
23.62153,23562
23.62965,20565
23.63778,20733
23.64590,23251
23.65403,23121
23.66215,25561
23.67027,22775
23.67840,23388
23.68652,27875
23.69465,22402
23.70277,23271
23.71088,21680
23.71902,24721
23.72713,22403
23.73527,23088
23.74338,22660
23.75150,22263
23.75963,23532
23.76775,24601
23.77587,21024
23.78400,21308
23.79212,23675
23.80025,26158
23.80837,26666
23.81648,21841
23.82462,21621
23.83273,24487
23.84087,22633
23.84898,23583
23.85710,19866
23.86523,18662
23.87335,22701
23.88147,20231
23.88960,22011
23.89772,22037
23.90585,19574
23.91397,20071
23.92208,24235
23.93022,20469
23.93833,21052
23.94647,21314
23.95458,20061
23.96270,17768
23.97083,22680
23.97895,20487
23.98708,21357
23.99520,20917
24.00332,20481
24.01145,20562
24.01957,22911
24.02768,20165
24.03582,19571
24.04393,20269
24.05207,20501
24.06018,19864
24.06830,21064
24.07643,20407
24.08455,21414
24.09268,21424
24.10080,20578
24.10892,24719
24.11705,21420
24.12517,22043
24.13328,20288
24.14142,19918
24.14953,19181
24.15767,21993
24.16578,20690
24.17390,21274
24.18203,19292
24.19015,23257
24.19828,21441
24.20640,20052
24.21452,19984
24.22265,21652
24.23077,17346
24.23890,21681
24.24702,21247
24.25513,23598
24.26327,23345
24.27138,22684
24.27950,20233
24.28763,25430
24.29575,26009
24.30388,25619
24.31200,27671
24.32012,26512
24.32825,23285
24.33637,22106
24.34450,21132
24.35262,19774
24.36073,18597
24.36887,20660
24.37698,23886
24.38512,20296
24.39323,21605
24.40135,20832
24.40948,20471
24.41760,22887
24.42572,20185
24.43385,24363
24.44197,20608
24.45010,19954
24.45822,19831
24.46633,19249
24.47447,20957
24.48258,21146
24.49072,17814
24.49883,18504
24.50695,15353
24.51508,17336
24.52320,19918
24.53132,19665
24.53945,19955
24.54757,18929
24.55570,16464
24.56382,23396
24.57193,21753
24.58007,18575
24.58818,17496
24.59632,21624
24.60443,20989
24.61255,25955
24.62068,20133
24.62880,21375
24.63693,25864
24.64505,23190
24.65317,19474
24.66130,20708
24.66942,17764
24.67753,20226
24.68567,17627
24.69378,16970
24.70192,19469
24.71003,22235
24.71815,21477
24.72628,18442
24.73440,19762
24.74253,18021
24.75065,19844
24.75877,19850
24.76690,20507
24.77502,21560
24.78315,22024
24.79127,22264
24.79938,23294
24.80752,16852
24.81563,20356
24.82375,20144
24.83188,20645
24.84000,17213
24.84813,19804
24.85625,18613
24.86437,21163
24.87250,19767
24.88062,18497
24.88875,18052
24.89687,19426
24.90498,18067
24.91312,19645
24.92123,19327
24.92935,20090
24.93748,18851
24.94560,18893
24.95373,19896
24.96185,20117
24.96997,19084
24.97810,19302
24.98622,19434
24.99435,21405
25.00247,20789
25.01058,19094
25.01872,21366
25.02683,17814
25.03497,18980
25.04308,20508
25.05120,19561
25.05933,19393
25.06745,19297
25.07557,18784
25.08370,25029
25.09182,19105
25.09995,17456
25.10807,19679
25.11618,19809
25.12432,18152
25.13243,18602
25.14057,13112
25.14868,16218
25.15680,18860
25.16493,18317
25.17305,19731
25.18118,21044
25.18930,18448
25.19742,18968
25.20555,17113
25.21367,20392
25.22178,19029
25.22992,19744
25.23803,16864
25.24617,18050
25.25428,19560
25.26240,20239
25.27053,18421
25.27865,17344
25.28678,19787
25.29490,17557
25.30302,17152
25.31115,19110
25.31927,19830
25.32738,22431
25.33552,17332
25.34363,18121
25.35177,21596
25.35988,18442
25.36800,23898
25.37613,19166
25.38425,17430
25.39238,18610
25.40050,19023
25.40862,18882
25.41675,20036
25.42487,18265
25.43300,20564
25.44112,16141
25.44923,19915
25.45737,17940
25.46548,17612
25.47360,19273
25.48173,18253
25.48985,17455
25.49798,18250
25.50610,18013
25.51422,15565
25.52235,16985
25.53047,19313
25.53860,23591
25.54672,20394
25.55483,16471
25.56297,17969
25.57108,17360
25.57920,19278
25.58733,16487
25.59545,15091
25.60358,18489
25.61170,16141
25.61982,17331
25.62795,19555
25.63607,17242
25.64420,16361
25.65232,16251
25.66043,17348
25.66857,18087
25.67668,16800
25.68482,15634
25.69293,16576
25.70105,17640
25.70918,17325
25.71730,17486
25.72542,17229
25.73355,18227
25.74167,17347
25.74980,17268
25.75792,21081
25.76603,17560
25.77417,17026
25.78228,17303
25.79042,16387
25.79853,16835
25.80665,17898
25.81478,17384
25.82290,18900
25.83103,17233
25.83915,16536
25.84727,18454
25.85540,18580
25.86352,19800
25.87163,18162
25.87977,15914
25.88788,17545
25.89602,17063
25.90413,16906
25.91225,19098
25.92038,17482
25.92850,19141
25.93663,17532
25.94475,19779
25.95287,15860
25.96100,15664
25.96912,17805
25.97723,17524
25.98537,22989
25.99348,16153
26.00162,18431
26.00973,16725
26.01785,17212
26.02598,15545
26.03410,17745
26.04223,19506
26.05035,18274
26.05847,17718
26.06660,23520
26.07472,16510
26.08285,16000
26.09097,17759
26.09908,17576
26.10722,20296
26.11533,17356
26.12345,16965
26.13158,17772
26.13970,17128
26.14783,17633
26.15595,23610
26.16407,18929
26.17220,19065
26.18032,17122
26.18845,17290
26.19657,18536
26.20468,17828
26.21282,19769
26.22093,16881
26.22907,17711
26.23718,18571
26.24530,17744
26.25343,15125
26.26155,17275
26.26967,17285
26.27780,15747
26.28592,17518
26.29405,18311
26.30217,15288
26.31028,19277
26.31842,19039
26.32653,18204
26.33467,19931
26.34278,16767
26.35090,17406
26.35903,15313
26.36715,21432
26.37527,19830
26.38340,19940
26.39152,15220
26.39965,18062
26.40777,18358
26.41588,22712
26.42402,18442
26.43213,16851
26.44027,18085
26.44838,18591
26.45650,18134
26.46463,16359
26.47275,19186
26.48088,16459
26.48900,17910
26.49712,16844
26.50525,18092
26.51337,19430
26.52148,17380
26.52962,14630
26.53773,20849
26.54587,16376
26.55398,16824
26.56210,15604
26.57023,16129
26.57835,16140
26.58648,16272
26.59460,15890
26.60272,14905
26.61085,17095
26.61897,16884
26.62708,20908
26.63522,14707
26.64333,16281
26.65147,21062
26.65958,16760
26.66770,17598
26.67583,18379
26.68395,16907
26.69208,18145
26.70020,17568
26.70832,18223
26.71645,17983
26.72457,18961
26.73270,17545
26.74082,16197
26.74893,17769
26.75707,18266
26.76518,17675
26.77330,16356
26.78143,18766
26.78955,16933
26.79768,20387
26.80580,16037
26.81392,17750
26.82205,15774
26.83017,19063
26.83830,18565
26.84642,19746
26.85453,19266
26.86267,19193
26.87078,16633
26.87892,16965
26.88703,15588
26.89515,22729
26.90328,17190
26.91140,18734
26.91952,20956
26.92765,17453
26.93577,17622
26.94390,18853
26.95202,19162
26.96013,20860
26.96827,17677
26.97638,18657
26.98452,19844
26.99263,21195
27.00075,23307
27.00888,18963
27.01700,18590
27.02513,20928
27.03325,20539
27.04137,22229
27.04950,20467
27.05762,17772
27.06573,19538
27.07387,19110
27.08198,18592
27.09012,18672
27.09823,20720
27.10635,19221
27.11448,19000
27.12260,19615
27.13073,19219
27.13885,17495
27.14697,18659
27.15510,18106
27.16322,19938
27.17133,14973
27.17947,19420
27.18758,20362
27.19572,17925
27.20383,19322
27.21195,17628
27.22008,16904
27.22820,19775
27.23633,16464
27.24445,18249
27.25257,18179
27.26070,19132
27.26882,16846
27.27695,18531
27.28507,19552
27.29318,20333
27.30132,19211
27.30943,19612
27.31755,18241
27.32568,18162
27.33380,17530
27.34193,17309
27.35005,17480
27.35817,17636
27.36630,17829
27.37442,18610
27.38255,17595
27.39067,19054
27.39878,19665
27.40692,18084
27.41503,18514
27.42315,17220
27.43128,23450
27.43940,19880
27.44753,19131
27.45565,19295
27.46377,17864
27.47190,19166
27.48002,23029
27.48815,15681
27.49627,16954
27.50438,19951
27.51252,20113
27.52063,17608
27.52877,19080
27.53688,14452
27.54500,15756
27.55313,19452
27.56125,20316
27.56937,20943
27.57750,18179
27.58562,19612
27.59375,18008
27.60187,18200
27.60998,22193
27.61812,15160
27.62623,17619
27.63437,17650
27.64248,16399
27.65060,16812
27.65873,21415
27.66685,18551
27.67498,19105
27.68310,16576
27.69122,19141
27.69935,18493
27.70747,18805
27.71558,19788
27.72372,20509
27.73183,21541
27.73997,21966
27.74808,18231
27.75620,19084
27.76433,16459
27.77245,18185
27.78058,17329
27.78870,19182
27.79682,18126
27.80495,19190
27.81307,22990
27.82118,17326
27.82932,17661
27.83743,17318
27.84557,17420
27.85368,17800
27.86180,17761
27.86993,19123
27.87805,15854
27.88618,19740
27.89430,20139
27.90242,19858
27.91055,19615
27.91867,17651
27.92680,18474
27.93492,17842
27.94303,16691
27.95117,20595
27.95928,22574
27.96740,19669
27.97553,19139
27.98365,18464
27.99178,17235
27.99990,18839
28.00802,18376
28.01615,17551
28.02427,17548
28.03240,20613
28.04052,17806
28.04863,18694
28.05677,19689
28.06488,20261
28.07302,18474
28.08113,19583
28.08925,17871
28.09738,18428
28.10550,18679
28.11362,16984
28.12175,18483
28.12987,18592
28.13800,19216
28.14612,17707
28.15423,18645
28.16237,18331
28.17048,21215
28.17862,18920
28.18673,18804
28.19485,21364
28.20298,20273
28.21110,16874
28.21922,20955
28.22735,18310
28.23547,18491
28.24360,18019
28.25172,17099
28.25983,19522
28.26797,17656
28.27608,16203
28.28422,18146
28.29233,17422
28.30045,20547
28.30858,17707
28.31670,20676
28.32483,17659
28.33295,19313
28.34107,19893
28.34920,20273
28.35732,20275
28.36543,21229
28.37357,19429
28.38168,20253
28.38982,19784
28.39793,18377
28.40605,18959
28.41418,19377
28.42230,21005
28.43043,18341
28.43855,17805
28.44667,19875
28.45480,18179
28.46292,17898
28.47103,17323
28.47917,20133
28.48728,20385
28.49542,20170
28.50353,17817
28.51165,17892
28.51978,21383
28.52790,18279
28.53603,17705
28.54415,18279
28.55227,19200
28.56040,18018
28.56852,24040
28.57665,21978
28.58477,19139
28.59288,21350
28.60102,21593
28.60913,21603
28.61725,22986
28.62538,19809
28.63350,20217
28.64163,25898
28.64975,21629
28.65787,22567
28.66600,24017
28.67412,26054
28.68225,24162
28.69037,23151
28.69848,23012
28.70662,20551
28.71473,19611
28.72287,18627
28.73098,19882
28.73910,18528
28.74723,19733
28.75535,19745
28.76347,18045
28.77160,20835
28.77972,21952
28.78785,19268
28.79597,20887
28.80408,21463
28.81222,21335
28.82033,18738
28.82847,19801
28.83658,20038
28.84470,20937
28.85283,19589
28.86095,18745
28.86907,20122
28.87720,24625
28.88532,21467
28.89345,23818
28.90157,23749
28.90968,21315
28.91782,21682
28.92593,21137
28.93407,22356
28.94218,21050
28.95030,22214
28.95843,21506
28.96655,23667
28.97468,20679
28.98280,23250
28.99092,21890
28.99905,25089
29.00717,19325
29.01528,25316
29.02342,21318
29.03153,22375
29.03967,21700
29.04778,23044
29.05590,21872
29.06403,22524
29.07215,20699
29.08028,26333
29.08840,17917
29.09652,20540
29.10465,20685
29.11277,21658
29.12090,21579
29.12902,23106
29.13713,22456
29.14527,21571
29.15338,20797
29.16150,27024
29.16963,18517
29.17775,21148
29.18588,20615
29.19400,21817
29.20212,17461
29.21025,20607
29.21837,20240
29.22650,19818
29.23462,19262
29.24273,20919
29.25087,19460
29.25898,21633
29.26710,22047
29.27523,19307
29.28335,18700
29.29148,20295
29.29960,21667
29.30772,21436
29.31585,20009
29.32397,21798
29.33210,20437
29.34022,18391
29.34833,18779
29.35647,19689
29.36458,18921
29.37272,20217
29.38083,19061
29.38895,20093
29.39708,23773
29.40520,19633
29.41332,19776
29.42145,20512
29.42957,22116
29.43770,20580
29.44582,19707
29.45393,20366
29.46207,21748
29.47018,25679
29.47832,21667
29.48643,21424
29.49455,26641
29.50268,22631
29.51080,19563
29.51893,20110
29.52705,20040
29.53517,20565
29.54330,23492
29.55142,20226
29.55953,21957
29.56767,19255
29.57578,17497
29.58392,20116
29.59203,18760
29.60015,26153
29.60828,20960
29.61640,21117
29.62453,18739
29.63265,21689
29.64077,19861
29.64890,18623
29.65702,21532
29.66513,20446
29.67327,21545
29.68138,19638
29.68952,20614
29.69763,20884
29.70575,17801
29.71388,20749
29.72200,20615
29.73013,22874
29.73825,19428
29.74637,20338
29.75450,20690
29.76262,20419
29.77075,17193
29.77887,19150
29.78698,22726
29.79512,21135
29.80323,19996
29.81135,19284
29.81948,21057
29.82760,20316
29.83573,21130
29.84385,22387
29.85197,19079
29.86010,22461
29.86822,22696
29.87635,20980
29.88447,21859
29.89258,22201
29.90072,20536
29.90883,23296
29.91695,22499
29.92508,21424
29.93320,20505
29.94133,21097
29.94945,23071
29.95757,26371
29.96570,22670
29.97382,19860
29.98195,20919
29.99007,29740
29.99818,20911
30.00632,22546
30.01443,22620
30.02257,22997
30.03068,20799
30.03880,21135
30.04693,19607
30.05505,23211
30.06317,20226
30.07130,19617
30.07942,20958
30.08755,21656
30.09567,24692
30.10378,22104
30.11192,20281
30.12003,21091
30.12817,23589
30.13628,20268
30.14440,20929
30.15253,23352
30.16065,18901
30.16878,22563
30.17690,20954
30.18502,18708
30.19315,19245
30.20127,18642
30.20938,21440
30.21752,20154
30.22563,22245
30.23377,22047
30.24188,24075
30.25000,21395
30.25813,27261
30.26625,26934
30.27438,21503
30.28250,20780
30.29062,21950
30.29875,26477
30.30687,21899
30.31498,20992
30.32312,21583
30.33123,21788
30.33937,22701
30.34748,19379
30.35560,20431
30.36373,21128
30.37185,22400
30.37998,21194
30.38810,25900
30.39622,18974
30.40435,19983
30.41247,19796
30.42060,21249
30.42872,25316
30.43683,22408
30.44497,19770
30.45308,21748
30.46120,19372
30.46933,19443
30.47745,22215
30.48558,19732
30.49370,17358
30.50182,20328
30.50995,19809
30.51807,19184
30.52620,20982
30.53432,21434
30.54243,22609
30.55057,19044
30.55868,19209
30.56682,23360
30.57493,22895
30.58305,22772
30.59118,21030
30.59930,19459
30.60742,21488
30.61555,21062
30.62367,20614
30.63180,19071
30.63992,22379
30.64803,19456
30.65617,20914
30.66428,21047
30.67242,23643
30.68053,26786
30.68865,21302
30.69678,22047
30.70490,22015
30.71302,23090
30.72115,20836
30.72927,20448
30.73740,19251
30.74552,20535
30.75363,25720
30.76177,24127
30.76988,19799
30.77802,20282
30.78613,22765
30.79425,21423
30.80238,22078
30.81050,20429
30.81863,21467
30.82675,23052
30.83487,21565
30.84300,23757
30.85112,22396
30.85923,18691
30.86737,21788
30.87548,23238
30.88362,23013
30.89173,20131
30.89985,22332
30.90798,22045
30.91610,21333
30.92423,21797
30.93235,21477
30.94047,23410
30.94860,26323
30.95672,22718
30.96483,25803
30.97297,22017
30.98108,22741
30.98922,25339
30.99733,20464
31.00545,21669
31.01358,22150
31.02170,22826
31.02983,21107
31.03795,22825
31.04607,22740
31.05420,21096
31.06232,22961
31.07045,21962
31.07857,20921
31.08668,20830
31.09482,20903
31.10293,23142
31.11105,22304
31.11918,21944
31.12730,21617
31.13543,22396
31.14355,24504
31.15167,23374
31.15980,24216
31.16792,22209
31.17605,21780
31.18417,22796
31.19228,21602
31.20042,22254
31.20853,21512
31.21667,21463
31.22478,23485
31.23290,22726
31.24103,21445
31.24915,22210
31.25727,23083
31.26540,27369
31.27352,20285
31.28165,24217
31.28977,22961
31.29788,23415
31.30602,19540
31.31413,22566
31.32227,19871
31.33038,23290
31.33850,23090
31.34663,23270
31.35475,24948
31.36288,23864
31.37100,20776
31.37912,22664
31.38725,25041
31.39537,23241
31.40348,22972
31.41162,26888
31.41973,22355
31.42787,24509
31.43598,26545
31.44410,24642
31.45223,23403
31.46035,22175
31.46848,24935
31.47660,24186
31.48472,24044
31.49285,23549
31.50097,24696
31.50908,22022
31.51722,24255
31.52533,24560
31.53347,27893
31.54158,27175
31.54970,27858
31.55783,22744
31.56595,22619
31.57408,26730
31.58220,23754
31.59032,21549
31.59845,20260
31.60657,22755
31.61470,26112
31.62282,21142
31.63093,23374
31.63907,22698
31.64718,22683
31.65530,21185
31.66343,22135
31.67155,23211
31.67968,22897
31.68780,22998
31.69592,26398
31.70405,24657
31.71217,23413
31.72030,27762
31.72842,25878
31.73653,27627
31.74467,24935
31.75278,23654
31.76090,22509
31.76903,25033
31.77715,21039
31.78528,26135
31.79340,27367
31.80152,20295
31.80965,23445
31.81777,21916
31.82590,24570
31.83402,23537
31.84213,22250
31.85027,22438
31.85838,25701
31.86652,21296
31.87463,24389
31.88275,21848
31.89088,24039
31.89900,26432
31.90712,23826
31.91525,26092
31.92337,24959
31.93150,25793
31.93962,26031
31.94773,24363
31.95587,28047
31.96398,23573
31.97212,24559
31.98023,24615
31.98835,23329
31.99648,29421
32.00460,24168
32.01272,25425
32.02085,26712
32.02897,22067
32.03710,24840
32.04522,25474
32.05333,24644
32.06147,22459
32.06958,22016
32.07772,22417
32.08583,25073
32.09395,22537
32.10208,24975
32.11020,24032
32.11833,25050
32.12645,27130
32.13457,26890
32.14270,27192
32.15082,28281
32.15893,24697
32.16707,24905
32.17518,26152
32.18332,26540
32.19143,27777
32.19955,26187
32.20768,26021
32.21580,31621
32.22393,27026
32.23205,28068
32.24017,26622
32.24830,26623
32.25642,27083
32.26455,25153
32.27267,29033
32.28078,31085
32.28892,33998
32.29703,30731
32.30515,27980
32.31328,28211
32.32140,26771
32.32953,30515
32.33765,31333
32.34577,27373
32.35390,29735
32.36202,28313
32.37015,28354
32.37827,26119
32.38638,31390
32.39452,28711
32.40263,26562
32.41077,28009
32.41888,30229
32.42700,27511
32.43513,26284
32.44325,26496
32.45137,23975
32.45950,26841
32.46762,26836
32.47575,22200
32.48387,25535
32.49198,27002
32.50012,25727
32.50823,28842
32.51637,25538
32.52448,24353
32.53260,28547
32.54073,25652
32.54885,30021
32.55697,28280
32.56510,29413
32.57322,28764
32.58135,28244
32.58947,26924
32.59758,27845
32.60572,28744
32.61383,28258
32.62197,27874
32.63008,26524
32.63820,25141
32.64633,26826
32.65445,25745
32.66258,27267
32.67070,26872
32.67882,26408
32.68695,27828
32.69507,24595
32.70318,26744
32.71132,20705
32.71943,26311
32.72757,27024
32.73568,26019
32.74380,24616
32.75193,24666
32.76005,24978
32.76818,27775
32.77630,26768
32.78442,27468
32.79255,26862
32.80067,27864
32.80878,25097
32.81692,24482
32.82503,26813
32.83317,28366
32.84128,26861
32.84940,28508
32.85753,25142
32.86565,27736
32.87378,27222
32.88190,28405
32.89002,27108
32.89815,26156
32.90627,28039
32.91440,28396
32.92252,25745
32.93063,26118
32.93877,29584
32.94688,27813
32.95500,27982
32.96313,27065
32.97125,26601
32.97938,28093
32.98750,24987
32.99562,27248
33.00375,25066
33.01187,30355
33.02000,27034
33.02812,27894
33.03623,25924
33.04437,30040
33.05248,29553
33.06062,28812
33.06873,28275
33.07685,33164
33.08498,33460
33.09310,31610
33.10122,32827
33.10935,30266
33.11747,31527
33.12560,31990
33.13372,27398
33.14183,31113
33.14997,30050
33.15808,28583
33.16622,30167
33.17433,28067
33.18245,31389
33.19058,27786
33.19870,27126
33.20682,28221
33.21495,29621
33.22307,27235
33.23120,30132
33.23932,29210
33.24743,30785
33.25557,28495
33.26368,29938
33.27182,28941
33.27993,26739
33.28805,28542
33.29618,28813
33.30430,27570
33.31243,26657
33.32055,27420
33.32867,28690
33.33680,25946
33.34492,24151
33.35303,29832
33.36117,24833
33.36928,26332
33.37742,23641
33.38553,26829
33.39365,25602
33.40178,30292
33.40990,27656
33.41803,26473
33.42615,25261
33.43427,28071
33.44240,27252
33.45052,28840
33.45865,26968
33.46677,25517
33.47488,28925
33.48302,28678
33.49113,26141
33.49925,29067
33.50738,29139
33.51550,28950
33.52363,29447
33.53175,31123
33.53987,28174
33.54800,30622
33.55612,30600
33.56425,29418
33.57237,36962
33.58048,32455
33.58862,27956
33.59673,27555
33.60485,29382
33.61298,30869
33.62110,30038
33.62923,31816
33.63735,35217
33.64547,30603
33.65360,29474
33.66172,27875
33.66985,28842
33.67797,29897
33.68608,29543
33.69422,29580
33.70233,28793
33.71047,30533
33.71858,31435
33.72670,34164
33.73483,28488
33.74295,30337
33.75107,30007
33.75920,29172
33.76732,29912
33.77545,30218
33.78357,34485
33.79168,29106
33.79982,30070
33.80793,30280
33.81607,35410
33.82418,32499
33.83230,31930
33.84043,32951
33.84855,31843
33.85667,31779
33.86480,29344
33.87292,28968
33.88105,34386
33.88917,31171
33.89728,30229
33.90542,30514
33.91353,31737
33.92167,30571
33.92978,32078
33.93790,26052
33.94603,31914
33.95415,31459
33.96228,30784
33.97040,33672
33.97852,30496
33.98665,31408
33.99477,27542
34.00288,31760
34.01102,29356
34.01913,31212
34.02727,28791
34.03538,29830
34.04350,27197
34.05163,28507
34.05975,29203
34.06788,30793
34.07600,27137
34.08412,33815
34.09225,29074
34.10037,30689
34.10850,29513
34.11662,30570
34.12473,31162
34.13287,26742
34.14098,30936
34.14910,27948
34.15723,31817
34.16535,28815
34.17348,31260
34.18160,27368
34.18972,29960
34.19785,28972
34.20597,26914
34.21410,28832
34.22222,31923
34.23033,29477
34.23847,32219
34.24658,31840
34.25470,32902
34.26283,31192
34.27095,27827
34.27908,32855
34.28720,32914
34.29532,35215
34.30345,33086
34.31157,29424
34.31970,30595
34.32782,31023
34.33593,28575
34.34407,29917
34.35218,27261
34.36032,27314
34.36843,32996
34.37655,36372
34.38468,32020
34.39280,31024
34.40092,31346
34.40905,30978
34.41717,32150
34.42530,29841
34.43342,31252
34.44153,29500
34.44967,32101
34.45778,32919
34.46592,29070
34.47403,30031
34.48215,32618
34.49028,34128
34.49840,35769
34.50653,32967
34.51465,31967
34.52277,31634
34.53090,29715
34.53902,33031
34.54713,34008
34.55527,34709
34.56338,34445
34.57152,34411
34.57963,32229
34.58775,35053
34.59588,32145
34.60400,33656
34.61213,32879
34.62025,31735
34.62837,30947
34.63650,31182
34.64462,32605
34.65273,29856
34.66087,30965
34.66898,35071
34.67712,31943
34.68523,32110
34.69335,31573
34.70148,33794
34.70960,31079
34.71773,31259
34.72585,31674
34.73397,38318
34.74210,31164
34.75022,31979
34.75835,32919
34.76647,34722
34.77458,31729
34.78272,35709
34.79083,31088
34.79895,31369
34.80708,32556
34.81520,32515
34.82333,32678
34.83145,31430
34.83957,34211
34.84770,32249
34.85582,32429
34.86395,34073
34.87207,34259
34.88018,36022
34.88832,36823
34.89643,35701
34.90457,37992
34.91268,33538
34.92080,31349
34.92893,31654
34.93705,37327
34.94517,33037
34.95330,31339
34.96142,34130
34.96955,30972
34.97767,33955
34.98578,32397
34.99392,34221
35.00203,30647
35.01017,32002
35.01828,32754
35.02640,33337
35.03453,35162
35.04265,35790
35.05077,34375
35.05890,31996
35.06702,32246
35.07515,32716
35.08327,31493
35.09138,36185
35.09952,33038
35.10763,38041
35.11577,34235
35.12388,30272
35.13200,33496
35.14013,36986
35.14825,32513
35.15638,37862
35.16450,34676
35.17262,33781
35.18075,34608
35.18887,34739
35.19698,32157
35.20512,33390
35.21323,34181
35.22137,35851
35.22948,32259
35.23760,34161
35.24573,37091
35.25385,35401
35.26198,33891
35.27010,37358
35.27822,34998
35.28635,37254
35.29447,31255
35.30258,34512
35.31072,38210
35.31883,34550
35.32697,31244
35.33508,36444
35.34320,34256
35.35133,33078
35.35945,36054
35.36758,32520
35.37570,34320
35.38382,34573
35.39195,33438
35.40007,38250
35.40820,35840
35.41632,39331
35.42443,37637
35.43257,35795
35.44068,35226
35.44880,36107
35.45693,38687
35.46505,38170
35.47318,31870
35.48130,33952
35.48942,37135
35.49755,35920
35.50567,34469
35.51380,36564
35.52192,37571
35.53003,36157
35.53817,33605
35.54628,37392
35.55442,37336
35.56253,36240
35.57065,39210
35.57878,35646
35.58690,34774
35.59502,37485
35.60315,35967
35.61127,37219
35.61940,35363
35.62752,36974
35.63563,36412
35.64377,38346
35.65188,42023
35.66002,37943
35.66813,39318
35.67625,44513
35.68438,33640
35.69250,34921
35.70062,36688
35.70875,36440
35.71687,40157
35.72500,35877
35.73312,36014
35.74123,37837
35.74937,38033
35.75748,38614
35.76562,35577
35.77373,39455
35.78185,35150
35.78998,38330
35.79810,39506
35.80623,37396
35.81435,33172
35.82247,38854
35.83060,36787
35.83872,37801
35.84683,35030
35.85497,36938
35.86308,38824
35.87122,39023
35.87933,39111
35.88745,35154
35.89558,37728
35.90370,41052
35.91183,36013
35.91995,39143
35.92807,39822
35.93620,39320
35.94432,40154
35.95245,34890
35.96057,38567
35.96868,41119
35.97682,37812
35.98493,34744
35.99305,39980
36.00118,38853
36.00930,42836
36.01743,40672
36.02555,44061
36.03367,41604
36.04180,41405
36.04992,38969
36.05805,41534
36.06617,41018
36.07428,42029
36.08242,40203
36.09053,40304
36.09865,42178
36.10678,39868
36.11490,41420
36.12303,37897
36.13115,37148
36.13927,40774
36.14740,40566
36.15552,42894
36.16365,37123
36.17177,40776
36.17988,42623
36.18802,45433
36.19613,42769
36.20427,43672
36.21238,41316
36.22050,41458
36.22863,43183
36.23675,42888
36.24487,38229
36.25300,39410
36.26112,40783
36.26925,43599
36.27737,41403
36.28548,40791
36.29362,43062
36.30173,47493
36.30987,40714
36.31798,38820
36.32610,41622
36.33423,41226
36.34235,42309
36.35047,46396
36.35860,44657
36.36672,44866
36.37485,44472
36.38297,43516
36.39108,42556
36.39922,40871
36.40733,43987
36.41547,43405
36.42358,45719
36.43170,44688
36.43983,40268
36.44795,42880
36.45608,42359
36.46420,46014
36.47232,40696
36.48045,47480
36.48857,46164
36.49668,48449
36.50482,39998
36.51293,46223
36.52107,45375
36.52918,44583
36.53730,45399
36.54543,47039
36.55355,44351
36.56168,48228
36.56980,46714
36.57792,55943
36.58605,54345
36.59417,54101
36.60230,47594
36.61042,52740
36.61853,51874
36.62667,55429
36.63478,52061
36.64290,56201
36.65103,54705
36.65915,56025
36.66728,57206
36.67540,57362
36.68352,55397
36.69165,54222
36.69977,54159
36.70790,53534
36.71602,57781
36.72413,56979
36.73227,50512
36.74038,52521
36.74852,49850
36.75663,50246
36.76475,48903
36.77288,45483
36.78100,54841
36.78912,47663
36.79725,49185
36.80537,46494
36.81350,49424
36.82162,50509
36.82973,53213
36.83787,54808
36.84598,47624
36.85412,49788
36.86223,48483
36.87035,50226
36.87848,51423
36.88660,47415
36.89472,48816
36.90285,52892
36.91097,51771
36.91910,50727
36.92722,48349
36.93533,50742
36.94347,50722
36.95158,49421
36.95972,48091
36.96783,51411
36.97595,47813
36.98408,49945
36.99220,51384
37.00033,54722
37.00845,51479
37.01657,53624
37.02470,52747
37.03282,52354
37.04093,52640
37.04907,48587
37.05718,49829
37.06532,55139
37.07343,49479
37.08155,52496
37.08968,50383
37.09780,50527
37.10593,52157
37.11405,50753
37.12217,48891
37.13030,48799
37.13842,46750
37.14653,50909
37.15467,53781
37.16278,50116
37.17092,55483
37.17903,53141
37.18715,50646
37.19528,50580
37.20340,49784
37.21153,48799
37.21965,53827
37.22777,55057
37.23590,54192
37.24402,52002
37.25215,53273
37.26027,56618
37.26838,52037
37.27652,50997
37.28463,54084
37.29275,52699
37.30088,52505
37.30900,54343
37.31713,51706
37.32525,54235
37.33337,51790
37.34150,52086
37.34962,55628
37.35775,52142
37.36587,51926
37.37398,50148
37.38212,56023
37.39023,52139
37.39837,50911
37.40648,53314
37.41460,52902
37.42273,51055
37.43085,51444
37.43897,54112
37.44710,50907
37.45522,48892
37.46335,59122
37.47147,50323
37.47958,53035
37.48772,51109
