Z:\data\JTB-E02\BACandBLUE\JTB-E02-204-14.D Sat Mar 09 12:59:21 2019
Start of data points
2.09525,61298
2.10337,64007
2.11150,64487
2.11962,64591
2.12775,67584
2.13587,66580
2.14398,66257
2.15212,62395
2.16023,62987
2.16835,61019
2.17648,57359
2.18460,57660
2.19273,59983
2.20085,60396
2.20897,58215
2.21710,56308
2.22522,67875
2.23335,54569
2.24147,57340
2.24958,52560
2.25772,63505
2.26583,235395
2.27395,1268623
2.28208,1588936
2.29020,756070
2.29833,436942
2.30645,341816
2.31457,292410
2.32270,255288
2.33082,227475
2.33895,213074
2.34707,191068
2.35518,170798
2.36332,159844
2.37143,150471
2.37957,148189
2.38768,145405
2.39580,139571
2.40393,135447
2.41205,135236
2.42017,135465
2.42830,124377
2.43642,115643
2.44455,124573
2.45267,128798
2.46078,122296
2.46892,118551
2.47703,104455
2.48517,114665
2.49328,126039
2.50140,117354
2.50953,112573
2.51765,109904
2.52577,109991
2.53390,106922
2.54202,107031
2.55015,132306
2.55827,268592
2.56638,359459
2.57452,259724
2.58263,208375
2.59077,186378
2.59888,230877
2.60700,672520
2.61513,1108144
2.62325,737227
2.63138,445929
2.63950,318002
2.64762,256372
2.65575,212994
2.66387,191142
2.67198,173198
2.68012,151715
2.68823,147391
2.69637,134757
2.70448,133683
2.71260,126649
2.72073,124461
2.72885,120784
2.73698,114897
2.74510,118692
2.75322,109233
2.76135,110242
2.76947,129949
2.77760,413579
2.78572,1205361
2.79383,1301269
2.80197,761429
2.81008,508868
2.81820,428967
2.82633,355507
2.83445,307829
2.84258,267236
2.85070,233469
2.85882,206862
2.86695,188775
2.87507,179356
2.88320,172015
2.89132,161653
2.89943,153318
2.90757,143691
2.91568,137308
2.92382,132920
2.93193,123774
2.94005,122588
2.94818,122770
2.95630,117283
2.96442,126195
2.97255,126249
2.98067,118414
2.98880,115792
2.99692,119374
3.00503,128361
3.01317,122105
3.02128,120755
3.02942,117478
3.03753,107916
3.04565,100851
3.05378,103837
3.06190,108748
3.07002,108195
3.07815,223680
3.08627,988225
3.09440,2513191
3.10252,4285962
3.11063,6338873
3.11877,5724447
3.12688,3645463
3.13502,2549646
3.14313,1982881
3.15125,1585297
3.15938,1289616
3.16750,1087840
3.17563,963471
3.18375,1053090
3.19187,1648009
3.20000,1929282
3.20812,1524602
3.21623,1138863
3.22437,943739
3.23248,806714
3.24062,680900
3.24873,605395
3.25685,538757
3.26498,483631
3.27310,436266
3.28123,453793
3.28935,722747
3.29747,2018954
3.30560,4690959
3.31372,6600594
3.32183,5882116
3.32997,4042885
3.33808,2691494
3.34622,1946929
3.35433,1525122
3.36245,1245845
3.37058,1066798
3.37870,937475
3.38683,834062
3.39495,739633
3.40307,694306
3.41120,648664
3.41932,582333
3.42745,555044
3.43557,565004
3.44368,541265
3.45182,507110
3.45993,482160
3.46805,504598
3.47618,509002
3.48430,479902
3.49243,460695
3.50055,433309
3.50867,415158
3.51680,412385
3.52492,395220
3.53305,409618
3.54117,412944
3.54928,404617
3.55742,391533
3.56553,380724
3.57367,368299
3.58178,372176
3.58990,369720
3.59803,341813
3.60615,334425
3.61427,343262
3.62240,347209
3.63052,346593
3.63865,341313
3.64677,334270
3.65488,379180
3.66302,1047457
3.67113,4574954
3.67927,1.093645E+07
3.68738,1.303344E+07
3.69550,9246656
3.70363,5587355
3.71175,4038063
3.71987,3313742
3.72800,2815920
3.73612,2433122
3.74425,2196274
3.75237,1932431
3.76048,1778819
3.76862,1607396
3.77673,1514375
3.78487,1403855
3.79298,1336403
3.80110,1492592
3.80923,2435982
3.81735,3755441
3.82548,3986455
3.83360,3016016
3.84172,2226118
3.84985,1835751
3.85797,1598667
3.86608,1445810
3.87422,1326875
3.88233,1226088
3.89047,1137926
3.89858,1049555
3.90670,997903
3.91483,993919
3.92295,1083951
3.93108,1175061
3.93920,1163317
3.94732,1251345
3.95545,2001523
3.96357,3638148
3.97170,4606343
3.97982,3899320
3.98793,2640902
3.99607,2576741
4.00418,5373144
4.01230,1.083209E+07
4.02043,1.421454E+07
4.02855,1.134071E+07
4.03668,6698171
4.04480,3947705
4.05292,2639378
4.06105,1990532
4.06917,1614593
4.07730,1316472
4.08542,1157172
4.09353,1055965
4.10167,930024
4.10978,859191
4.11790,778155
4.12603,733824
4.13415,687492
4.14228,693401
4.15040,711518
4.15852,702218
4.16665,665417
4.17477,658951
4.18290,642598
4.19102,601273
4.19913,561079
4.20727,709201
4.21538,2046387
4.22352,6436052
4.23163,1.32365E+07
4.23975,1.750096E+07
4.24788,1.6483E+07
4.25600,1.148221E+07
4.26412,7191140
4.27225,4981631
4.28037,3602181
4.28850,2742086
4.29662,2136027
4.30473,1712101
4.31287,1416009
4.32098,1207547
4.32912,1048574
4.33723,939711
4.34535,835018
4.35348,783368
4.36160,790572
4.36972,784357
4.37785,760389
4.38597,673746
4.39410,590325
4.40222,538242
4.41033,503638
4.41847,477289
4.42658,447994
4.43472,442764
4.44283,430800
4.45095,409357
4.45908,393505
4.46720,392347
4.47533,374015
4.48345,365653
4.49157,357641
4.49970,351194
4.50782,335249
4.51593,341495
4.52407,334690
4.53218,333649
4.54032,325176
4.54843,338891
4.55655,333909
4.56468,320230
4.57280,303622
4.58093,300502
4.58905,289042
4.59717,288983
4.60530,281291
4.61342,283965
4.62155,319419
4.62967,412042
4.63778,602710
4.64592,764133
4.65403,729971
4.66215,602568
4.67028,473549
4.67840,397677
4.68653,383707
4.69465,340049
4.70277,320155
4.71090,302801
4.71902,304855
4.72715,298797
4.73527,290354
4.74338,284404
4.75152,260114
4.75963,258630
4.76775,245737
4.77588,248584
4.78400,291131
4.79213,553995
4.80025,1233239
4.80837,2082758
4.81650,2312108
4.82462,1798504
4.83275,1279119
4.84087,994768
4.84898,866457
4.85712,774377
4.86523,688778
4.87337,598937
4.88148,537546
4.88960,494931
4.89773,464982
4.90585,426597
4.91397,410331
4.92210,391736
4.93022,394249
4.93835,447178
4.94647,659374
4.95458,1201151
4.96272,1942064
4.97083,2447789
4.97897,2433054
4.98708,1955961
4.99520,1426795
5.00333,1098973
5.01145,897989
5.01958,773668
5.02770,750333
5.03582,788832
5.04395,862802
5.05207,852098
5.06018,758607
5.06832,694975
5.07643,621040
5.08457,588309
5.09268,551727
5.10080,507392
5.10893,497807
5.11705,486636
5.12518,473956
5.13330,456514
5.14142,448919
5.14955,457104
5.15767,495519
5.16578,573321
5.17392,596107
5.18203,575310
5.19017,516014
5.19828,500340
5.20640,525804
5.21453,545055
5.22265,539398
5.23078,493680
5.23890,442096
5.24702,435296
5.25515,405179
5.26327,370569
5.27140,324035
5.27952,309240
5.28763,298485
5.29577,289801
5.30388,281110
5.31200,276320
5.32013,276107
5.32825,294479
5.33638,324010
5.34450,351224
5.35262,366148
5.36075,332064
5.36887,298854
5.37700,289004
5.38512,272020
5.39323,286111
5.40137,300916
5.40948,288186
5.41760,286097
5.42573,266850
5.43385,255505
5.44198,240410
5.45010,248280
5.45822,252377
5.46635,256891
5.47447,240107
5.48260,227369
5.49072,233915
5.49883,220354
5.50697,218327
5.51508,224057
5.52322,233328
5.53133,224580
5.53945,227473
5.54758,231158
5.55570,253171
5.56382,323543
5.57195,454380
5.58007,543282
5.58820,569710
5.59632,492247
5.60443,388169
5.61257,323006
5.62068,279240
5.62882,265886
5.63693,240641
5.64505,245805
5.65318,227817
5.66130,231139
5.66943,219614
5.67755,235811
5.68567,263900
5.69380,310617
5.70192,341652
5.71003,332270
5.71817,290970
5.72628,248296
5.73442,222256
5.74253,205813
5.75065,209853
5.75878,199913
5.76690,200100
5.77503,187039
5.78315,186155
5.79127,190822
5.79940,179970
5.80752,180269
5.81563,162219
5.82377,176346
5.83188,172742
5.84002,177232
5.84813,174369
5.85625,159993
5.86438,170036
5.87250,162822
5.88063,161675
5.88875,163197
5.89687,154186
5.90500,160948
5.91312,150158
5.92125,153135
5.92937,165750
5.93748,155369
5.94562,148216
5.95373,161033
5.96185,185717
5.96998,226660
5.97810,291820
5.98623,350744
5.99435,408099
6.00247,401379
6.01060,338478
6.01872,267143
6.02685,220090
6.03497,199056
6.04308,173552
6.05122,157710
6.05933,147925
6.06747,144448
6.07558,144097
6.08370,157395
6.09183,142842
6.09995,148694
6.10807,159894
6.11620,187372
6.12432,221558
6.13245,271669
6.14057,394450
6.14868,511843
6.15682,545400
6.16493,475423
6.17307,365433
6.18118,274179
6.18930,233306
6.19743,211416
6.20555,213893
6.21367,205342
6.22180,207471
6.22992,192369
6.23805,193432
6.24617,194274
6.25428,194496
6.26242,204395
6.27053,207232
6.27867,200937
6.28678,193386
6.29490,181682
6.30303,183179
6.31115,184469
6.31928,191921
6.32740,213527
6.33552,236399
6.34365,266119
6.35177,282251
6.35988,248604
6.36802,228026
6.37613,204461
6.38427,194794
6.39238,197160
6.40050,200562
6.40863,194628
6.41675,195696
6.42488,192450
6.43300,190901
6.44112,189003
6.44925,195981
6.45737,197254
6.46550,201767
6.47362,204948
6.48173,211567
6.48987,202511
6.49798,204498
6.50610,205302
6.51423,202197
6.52235,204026
6.53048,198437
6.53860,206628
6.54672,203382
6.55485,205098
6.56297,225645
6.57110,264302
6.57922,335934
6.58733,392446
6.59547,408535
6.60358,357233
6.61170,289911
6.61983,255733
6.62795,232994
6.63608,235215
6.64420,249260
6.65232,408864
6.66045,848380
6.66857,1678452
6.67670,2359617
6.68482,2336207
6.69293,1732025
6.70107,1099374
6.70918,708478
6.71732,548004
6.72543,474187
6.73355,410334
6.74168,397275
6.74980,362751
6.75792,351275
6.76605,331144
6.77417,316163
6.78230,302191
6.79042,301049
6.79853,285388
6.80667,284898
6.81478,284895
6.82292,280977
6.83103,265781
6.83915,278266
6.84728,286768
6.85540,291266
6.86352,295758
6.87165,282598
6.87977,270308
6.88790,266695
6.89602,251764
6.90413,255574
6.91227,249540
6.92038,252880
6.92852,253144
6.93663,255105
6.94475,253757
6.95288,262073
6.96100,272363
6.96913,290054
6.97725,328900
6.98537,334685
6.99350,325737
7.00162,301664
7.00973,293080
7.01787,295111
7.02598,285958
7.03412,284924
7.04223,252590
7.05035,219472
7.05848,189094
7.06660,168297
7.07473,160706
7.08285,152519
7.09097,147894
7.09910,139140
7.10722,131100
7.11535,128003
7.12347,126756
7.13158,130717
7.13972,137065
7.14783,163996
7.15595,201412
7.16408,235454
7.17220,240354
7.18033,211075
7.18845,182689
7.19657,151762
7.20470,140199
7.21282,130246
7.22095,119203
7.22907,122537
7.23718,126373
7.24532,134652
7.25343,128535
7.26155,141904
7.26968,140963
7.27780,141938
7.28593,147638
7.29405,209739
7.30217,420585
7.31030,975535
7.31842,1767523
7.32655,2351885
7.33467,2447962
7.34278,1874268
7.35092,1196696
7.35903,726333
7.36717,457444
7.37528,330652
7.38340,256500
7.39153,213347
7.39965,186193
7.40777,169618
7.41590,156269
7.42402,163444
7.43215,166097
7.44027,183623
7.44838,195080
7.45652,180896
7.46463,217866
7.47277,309541
7.48088,492208
7.48900,780718
7.49713,1055812
7.50525,1175053
7.51338,1125610
7.52150,908449
7.52962,667498
7.53775,446585
7.54587,306190
7.55398,217813
7.56212,170134
7.57023,140076
7.57837,134511
7.58648,121584
7.59460,120346
7.60273,118434
7.61085,112458
7.61898,103206
7.62710,95513
7.63522,101602
7.64335,104344
7.65147,98853
7.65958,100628
7.66772,107081
7.67583,109663
7.68397,106671
7.69208,98269
7.70020,98143
7.70833,86169
7.71645,88483
7.72458,89311
7.73270,89896
7.74082,89755
7.74895,84303
7.75707,81141
7.76520,89228
7.77332,94119
7.78143,101403
7.78957,119125
7.79768,115227
7.80580,126876
7.81393,118737
7.82205,111736
7.83018,110088
7.83830,126251
7.84642,148794
7.85455,164850
7.86267,177143
7.87080,151023
7.87892,139696
7.88703,116598
7.89517,112574
7.90328,95733
7.91140,94593
7.91953,96876
7.92765,116933
7.93578,170645
7.94390,273705
7.95202,366445
7.96015,415422
7.96827,390213
7.97640,292666
7.98452,211961
7.99263,165952
8.00077,134919
8.00888,128217
8.01702,119140
8.02513,99619
8.03325,95163
8.04138,92978
8.04950,92211
8.05762,82647
8.06575,80100
8.07387,81230
8.08200,85596
8.09012,83868
8.09823,84277
8.10637,80824
8.11448,88658
8.12262,76910
8.13073,80543
8.13885,87117
8.14698,98623
8.15510,116972
8.16323,114615
8.17135,116773
8.17947,98447
8.18760,90242
8.19572,83428
8.20383,84509
8.21197,76354
8.22008,80029
8.22822,76654
8.23633,78168
8.24445,77445
8.25258,90352
8.26070,81877
8.26883,88651
8.27695,88106
8.28507,84982
8.29320,88097
8.30132,80565
8.30945,69683
8.31757,75329
8.32568,70793
8.33382,67670
8.34193,69291
8.35005,71837
8.35818,74169
8.36630,75398
8.37443,79537
8.38255,81037
8.39067,81417
8.39880,72302
8.40692,75257
8.41505,71599
8.42317,68549
8.43128,70504
8.43942,66918
8.44753,65208
8.45565,66164
8.46378,65504
8.47190,66020
8.48003,65938
8.48815,60973
8.49627,58686
8.50440,66405
8.51252,69544
8.52065,65703
8.52877,65322
8.53688,72339
8.54502,73169
8.55313,71182
8.56127,75671
8.56938,76436
8.57750,96616
8.58563,166618
8.59375,380673
8.60187,820954
8.61000,1310584
8.61812,1585143
8.62625,1488188
8.63437,1168336
8.64248,781019
8.65062,559623
8.65873,365517
8.66687,245924
8.67498,161196
8.68310,121085
8.69123,110271
8.69935,110099
8.70747,104432
8.71560,95457
8.72372,94051
8.73185,103708
8.73997,109488
8.74808,150641
8.75622,237309
8.76433,353059
8.77247,469661
8.78058,510869
8.78870,456353
8.79683,368354
8.80495,296479
8.81308,236447
8.82120,195205
8.82932,179982
8.83745,164161
8.84557,145326
8.85368,131014
8.86182,114817
8.86993,106640
8.87807,120987
8.88618,124380
8.89430,147315
8.90243,149688
8.91055,157551
8.91868,145646
8.92680,140533
8.93492,134823
8.94305,134413
8.95117,141986
8.95930,146411
8.96742,156806
8.97553,173244
8.98367,188605
8.99178,201036
8.99990,203962
9.00803,182571
9.01615,149876
9.02428,138518
9.03240,123528
9.04052,116613
9.04865,112881
9.05677,114751
9.06490,115922
9.07302,118746
9.08113,125152
9.08927,144449
9.09738,160688
9.10550,172913
9.11363,181316
9.12175,159855
9.12988,137076
9.13800,123282
9.14612,121804
9.15425,104937
9.16237,101880
9.17050,99792
9.17862,100403
9.18673,101199
9.19487,93094
9.20298,93759
9.21112,89177
9.21923,94633
9.22735,89532
9.23548,91107
9.24360,82538
9.25172,93013
9.25985,82121
9.26797,91225
9.27610,84487
9.28422,85042
9.29233,88447
9.30047,87078
9.30858,98644
9.31672,88518
9.32483,86919
9.33295,89005
9.34108,92261
9.34920,87175
9.35733,86160
9.36545,90101
9.37357,93642
9.38170,115638
9.38982,126105
9.39793,144902
9.40607,156383
9.41418,153078
9.42232,141583
9.43043,127676
9.43855,109454
9.44668,97688
9.45480,98515
9.46293,90856
9.47105,88384
9.47917,87412
9.48730,92703
9.49542,93947
9.50353,110703
9.51167,108512
9.51978,111885
9.52792,106044
9.53603,108071
9.54415,93723
9.55228,100819
9.56040,114559
9.56853,125768
9.57665,129377
9.58477,117656
9.59290,100929
9.60102,88236
9.60915,82646
9.61727,74093
9.62538,74900
9.63352,72203
9.64163,71313
9.64975,69930
9.65788,66817
9.66600,64233
9.67413,56418
9.68225,57322
9.69037,51976
9.69850,51880
9.70662,51752
9.71475,54638
9.72287,55091
9.73098,52830
9.73912,53896
9.74723,53644
9.75535,58991
9.76348,65443
9.77160,57404
9.77973,61138
9.78785,56387
9.79597,57888
9.80410,54957
9.81222,62332
9.82035,57420
9.82847,54191
9.83658,53697
9.84472,54751
9.85283,57530
9.86097,63023
9.86908,70890
9.87720,85206
9.88533,103785
9.89345,106860
9.90157,105100
9.90970,104258
9.91782,92946
9.92595,83612
9.93407,75981
9.94218,71253
9.95032,68927
9.95843,74673
9.96657,78676
9.97468,90205
9.98280,99025
9.99093,102117
9.99905,92842
10.00718,88537
10.01530,82208
10.02342,72105
10.03155,66409
10.03967,65276
10.04778,62660
10.05592,63208
10.06403,61501
10.07217,62909
10.08028,62422
10.08840,60552
10.09653,68922
10.10465,63574
10.11278,58379
10.12090,58865
10.12902,62867
10.13715,59880
10.14527,57471
10.15338,57165
10.16152,58961
10.16963,57095
10.17777,55885
10.18588,54327
10.19400,56403
10.20213,52286
10.21025,54491
10.21838,54927
10.22650,57007
10.23462,62769
10.24275,65430
10.25087,84770
10.25900,122838
10.26712,161530
10.27523,230176
10.28337,311443
10.29148,410259
10.29960,618083
10.30773,1170172
10.31585,2249921
10.32398,3817935
10.33210,5590054
10.34022,7546870
10.34835,1.071096E+07
10.35647,1.578259E+07
10.36460,2.31228E+07
10.37272,3.002483E+07
10.38083,3.321963E+07
10.38897,2.989935E+07
10.39708,1.987268E+07
10.40522,9090037
10.41333,3443006
10.42145,1382718
10.42958,794168
10.43770,592332
10.44582,499000
10.45395,441764
10.46207,401195
10.47020,378564
10.47832,355805
10.48643,333999
10.49457,308436
10.50268,301280
10.51082,295126
10.51893,305991
10.52705,318950
10.53518,336735
10.54330,356414
10.55142,349923
10.55955,315480
10.56767,287486
10.57580,252359
10.58392,228531
10.59203,211836
10.60017,195980
10.60828,188338
10.61642,176979
10.62453,173142
10.63265,161354
10.64078,160400
10.64890,156658
10.65703,151056
10.66515,153141
10.67327,150574
10.68140,152450
10.68952,147381
10.69763,141289
10.70577,132857
10.71388,135813
10.72202,126829
10.73013,125933
10.73825,128261
10.74638,117370
10.75450,117879
10.76263,115927
10.77075,123937
10.77887,115413
10.78700,119022
10.79512,118088
10.80325,115543
10.81137,114708
10.81948,108129
10.82762,106666
10.83573,101259
10.84385,89022
10.85198,93266
10.86010,96435
10.86823,90670
10.87635,83555
10.88447,84512
10.89260,89233
10.90072,86641
10.90885,78539
10.91697,88905
10.92508,84750
10.93322,77302
10.94133,87698
10.94945,81207
10.95758,84888
10.96570,87875
10.97383,84951
10.98195,85079
10.99007,82334
10.99820,77513
11.00632,76927
11.01445,75478
11.02257,70425
11.03068,72258
11.03882,75959
11.04693,76311
11.05507,74973
11.06318,82545
11.07130,75176
11.07943,77503
11.08755,77235
11.09567,75400
11.10380,73879
11.11192,68882
11.12005,66556
11.12817,64889
11.13628,64282
11.14442,59571
11.15253,62914
11.16067,66301
11.16878,69564
11.17690,61191
11.18503,60904
11.19315,61002
11.20127,62722
11.20940,60983
11.21752,57710
11.22565,56906
11.23377,54801
11.24188,51017
11.25002,51500
11.25813,49774
11.26627,53694
11.27438,69689
11.28250,104259
11.29063,160274
11.29875,283159
11.30688,445723
11.31500,659501
11.32312,733729
11.33125,723049
11.33937,625938
11.34748,461035
11.35562,325855
11.36373,217484
11.37187,153443
11.37998,114580
11.38810,99038
11.39623,75158
11.40435,76956
11.41248,75010
11.42060,84589
11.42872,89465
11.43685,94525
11.44497,102695
11.45310,106055
11.46122,108571
11.46933,112515
11.47747,119615
11.48558,120303
11.49370,135163
11.50183,151595
11.50995,171068
11.51808,178065
11.52620,177188
11.53432,155471
11.54245,139491
11.55057,124303
11.55870,127905
11.56682,130468
11.57493,128253
11.58307,118032
11.59118,102463
11.59930,84143
11.60743,79512
11.61555,84442
11.62368,105115
11.63180,134797
11.63992,172654
11.64805,189874
11.65617,184139
11.66430,169139
11.67242,133200
11.68053,104320
11.68867,92712
11.69678,79791
11.70492,73330
11.71303,72620
11.72115,64557
11.72928,62471
11.73740,58876
11.74552,66652
11.75365,61476
11.76177,59480
11.76990,63020
11.77802,59202
11.78613,62168
11.79427,66526
11.80238,60698
11.81052,58698
11.81863,58467
11.82675,62086
11.83488,57780
11.84300,58484
11.85113,53234
11.85925,52599
11.86737,50634
11.87550,49385
11.88362,51770
11.89173,50628
11.89987,49688
11.90798,51392
11.91612,49745
11.92423,49510
11.93235,61057
11.94048,58812
11.94860,60931
11.95673,61265
11.96485,59943
11.97297,53314
11.98110,52715
11.98922,47132
11.99733,51403
12.00547,54229
12.01358,63687
12.02172,80776
12.02983,91782
12.03795,94986
12.04608,90999
12.05420,81627
12.06233,73133
12.07045,81471
12.07857,78052
12.08670,102945
12.09482,131967
12.10295,162035
12.11107,166630
12.11918,162463
12.12732,133121
12.13543,106899
12.14355,80519
12.15168,68209
12.15980,57833
12.16793,50016
12.17605,50283
12.18417,50375
12.19230,51001
12.20042,46842
12.20855,52886
12.21667,54356
12.22478,52523
12.23292,54777
12.24103,59605
12.24915,59641
12.25728,63102
12.26540,56304
12.27353,54805
12.28165,59109
12.28977,56208
12.29790,52919
12.30602,51937
12.31415,50971
12.32227,51543
12.33038,47974
12.33852,50324
12.34663,52908
12.35477,50407
12.36288,51467
12.37100,53119
12.37913,49894
12.38725,48390
12.39537,47973
12.40350,51512
12.41162,53536
12.41975,55273
12.42787,68806
12.43598,76066
12.44412,79930
12.45223,84259
12.46037,80548
12.46848,74639
12.47660,66252
12.48473,66935
12.49285,56052
12.50098,53038
12.50910,55752
12.51722,53863
12.52535,51997
12.53347,50915
12.54158,48839
12.54972,50940
12.55783,57368
12.56597,63912
12.57408,87320
12.58220,134055
12.59033,198027
12.59845,257034
12.60658,265499
12.61470,245192
12.62282,182802
12.63095,121450
12.63907,87880
12.64718,73156
12.65532,60604
12.66343,61643
12.67157,60429
12.67968,53321
12.68780,59065
12.69593,58730
12.70405,58414
12.71218,62264
12.72030,65784
12.72842,66126
12.73655,74789
12.74467,66844
12.75280,61806
12.76092,57602
12.76903,53909
12.77717,54895
12.78528,51241
12.79340,46883
12.80153,45394
12.80965,46064
12.81778,45494
12.82590,47125
12.83402,43415
12.84215,43962
12.85027,43518
12.85840,44776
12.86652,45007
12.87463,42840
12.88277,38045
12.89088,40248
12.89902,39399
12.90713,47297
12.91525,43742
12.92338,40295
12.93150,38129
12.93962,40466
12.94775,39916
12.95587,40604
12.96400,41044
12.97212,42701
12.98023,48220
12.98837,40473
12.99648,44073
13.00462,45435
13.01273,40877
13.02085,43956
13.02898,48748
13.03710,41521
13.04522,45624
13.05335,36764
13.06147,46746
13.06960,41421
13.07772,39633
13.08583,39456
13.09397,45633
13.10208,41530
13.11022,50421
13.11833,46653
13.12645,40877
13.13458,41862
13.14270,46421
13.15083,43780
13.15895,39427
13.16707,40933
13.17520,42294
13.18332,48350
13.19143,43967
13.19957,44589
13.20768,48638
13.21582,54181
13.22393,48052
13.23205,50622
13.24018,48035
13.24830,48318
13.25643,42673
13.26455,43479
13.27267,45881
13.28080,42032
13.28892,44996
13.29703,42392
13.30517,40975
13.31328,42050
13.32142,41463
13.32953,40428
13.33765,40303
13.34578,40795
13.35390,40110
13.36203,41322
13.37015,44806
13.37827,37782
13.38640,39453
13.39452,40486
13.40265,35943
13.41077,40281
13.41888,36565
13.42702,35778
13.43513,39846
13.44325,40395
13.45138,41378
13.45950,34223
13.46763,39533
13.47575,41566
13.48387,38195
13.49200,35702
13.50012,39728
13.50825,35666
13.51637,34918
13.52448,34892
13.53262,38984
13.54073,44417
13.54887,41655
13.55698,49633
13.56510,48571
13.57323,47662
13.58135,52642
13.58947,48933
13.59760,43001
13.60572,43679
13.61385,47971
13.62197,49402
13.63008,51676
13.63822,57364
13.64633,60551
13.65447,59247
13.66258,53670
13.67070,43201
13.67883,43472
13.68695,40499
13.69508,38267
13.70320,39233
13.71132,39961
13.71945,40886
13.72757,43197
13.73568,43103
13.74382,46682
13.75193,41031
13.76007,51271
13.76818,69902
13.77630,104836
13.78443,146861
13.79255,211031
13.80068,259075
13.80880,305947
13.81692,328909
13.82505,373080
13.83317,361672
13.84128,329937
13.84942,261171
13.85753,203549
13.86567,157438
13.87378,117095
13.88190,92400
13.89003,93204
13.89815,78997
13.90628,76949
13.91440,73285
13.92252,69243
13.93065,62970
13.93877,60331
13.94690,60754
13.95502,64273
13.96313,66712
13.97127,78095
13.97938,97719
13.98750,145274
13.99563,172583
14.00375,190248
14.01188,184245
14.02000,165097
14.02812,134782
14.03625,109371
14.04437,88478
14.05250,77868
14.06062,68939
14.06873,68121
14.07687,65736
14.08498,67216
14.09310,63979
14.10123,61349
14.10935,59499
14.11748,58191
14.12560,57256
14.13372,56262
14.14185,58279
14.14997,62891
14.15810,60896
14.16622,65825
14.17433,61447
14.18247,59297
14.19058,60959
14.19872,82206
14.20683,95758
14.21495,115246
14.22308,146352
14.23120,171622
14.23932,171118
14.24745,184237
14.25557,186338
14.26370,173041
14.27182,149726
14.27993,126200
14.28807,105115
14.29618,100752
14.30432,93221
14.31243,82111
14.32055,83947
14.32868,80269
14.33680,78997
14.34493,72349
14.35305,71563
14.36117,71592
14.36930,65860
14.37742,59949
14.38553,54873
14.39367,54009
14.40178,49369
14.40992,59534
14.41803,52507
14.42615,65940
14.43428,68250
14.44240,72958
14.45053,71527
14.45865,71021
14.46677,64676
14.47490,56382
14.48302,55893
14.49113,54369
14.49927,51746
14.50738,46682
14.51552,48442
14.52363,51370
14.53175,52123
14.53988,52538
14.54800,54515
14.55613,52557
14.56425,49092
14.57237,53108
14.58050,45938
14.58862,42874
14.59675,42997
14.60487,43874
14.61298,41630
14.62112,41795
14.62923,43801
14.63735,39313
14.64548,42022
14.65360,45087
14.66173,37738
14.66985,42259
14.67797,37193
14.68610,39857
14.69422,40077
14.70235,42312
14.71047,37972
14.71858,41794
14.72672,41069
14.73483,40444
14.74297,43638
14.75108,42134
14.75920,40702
14.76733,48199
14.77545,46751
14.78357,44684
14.79170,51909
14.79982,74655
14.80795,173028
14.81607,451899
14.82418,1132161
14.83232,2239469
14.84043,3607060
14.84857,4557112
14.85668,4445784
14.86480,3588987
14.87293,2384991
14.88105,1466351
14.88917,890861
14.89730,589421
14.90542,445550
14.91355,368966
14.92167,327190
14.92978,295879
14.93792,259463
14.94603,233288
14.95417,219063
14.96228,208631
14.97040,192532
14.97853,183428
14.98665,172264
14.99478,158079
15.00290,161283
15.01102,145245
15.01915,145751
15.02727,143458
15.03538,128513
15.04352,126542
15.05163,120933
15.05977,116459
15.06788,121255
15.07600,105641
15.08413,103033
15.09225,107947
15.10038,101252
15.10850,98964
15.11662,102336
15.12475,95009
15.13287,96448
15.14098,101248
15.14912,108132
15.15723,107445
15.16537,116441
15.17348,100273
15.18160,90161
15.18973,75499
15.19785,68727
15.20598,61626
15.21410,58536
15.22222,54008
15.23035,54250
15.23847,55137
15.24660,51454
15.25472,55897
15.26283,52588
15.27097,51353
15.27908,48865
15.28720,48432
15.29533,49463
15.30345,47787
15.31158,44987
15.31970,46983
15.32782,45333
15.33595,43292
15.34407,41030
15.35220,41798
15.36032,45378
15.36843,44733
15.37657,50504
15.38468,49503
15.39282,44013
15.40093,48351
15.40905,47345
15.41718,45566
15.42530,46876
15.43342,48186
15.44155,44205
15.44967,48533
15.45780,56297
15.46592,65630
15.47403,83517
15.48217,100048
15.49028,119012
15.49842,137470
15.50653,130177
15.51465,116559
15.52278,111369
15.53090,120133
15.53902,119133
15.54715,123861
15.55527,113225
15.56340,92177
15.57152,76036
15.57963,70286
15.58777,59225
15.59588,65214
15.60402,49762
15.61213,49095
15.62025,51325
15.62838,53042
15.63650,50088
15.64463,47477
15.65275,46054
15.66087,46703
15.66900,47624
15.67712,48007
15.68523,49825
15.69337,46207
15.70148,42916
15.70962,44179
15.71773,42517
15.72585,47632
15.73398,42635
15.74210,42368
15.75023,45275
15.75835,53158
15.76647,63441
15.77460,89724
15.78272,143423
15.79085,211414
15.79897,286679
15.80708,333517
15.81522,312628
15.82333,258909
15.83145,188338
15.83958,129056
15.84770,101309
15.85583,85545
15.86395,78713
15.87207,70937
15.88020,67459
15.88832,64190
15.89645,69624
15.90457,63675
15.91268,63112
15.92082,56916
15.92893,57618
15.93705,57886
15.94518,56371
15.95330,62400
15.96143,60446
15.96955,64751
15.97767,71592
15.98580,87324
15.99392,95915
16.00205,92610
16.01017,93821
16.01828,100570
16.02642,95020
16.03453,88677
16.04267,86959
16.05078,74327
16.05890,63363
16.06703,58996
16.07515,56338
16.08327,52035
16.09140,53948
16.09952,54344
16.10765,50043
16.11577,55806
16.12388,52559
16.13202,59216
16.14013,56791
16.14827,57109
16.15638,57574
16.16450,62867
16.17263,54613
16.18075,51956
16.18888,52074
16.19700,50728
16.20512,51026
16.21325,49863
16.22137,48367
16.22948,46437
16.23762,50054
16.24573,53180
16.25387,51982
16.26198,50323
16.27010,49998
16.27823,53839
16.28635,53690
16.29448,52676
16.30260,56108
16.31072,54525
16.31885,48913
16.32697,54455
16.33508,51323
16.34322,50102
16.35133,51916
16.35947,51210
16.36758,66206
16.37570,74530
16.38383,96838
16.39195,96374
16.40008,101273
16.40820,90184
16.41632,78054
16.42445,65778
16.43257,57381
16.44070,56896
16.44882,72384
16.45693,81803
16.46507,133353
16.47318,248071
16.48130,446134
16.48943,666721
16.49755,791577
16.50568,750710
16.51380,584977
16.52192,416641
16.53005,271164
16.53817,178855
16.54630,144007
16.55442,116518
16.56253,100563
16.57067,92363
16.57878,85681
16.58690,92776
16.59503,82363
16.60315,89485
16.61128,93202
16.61940,94754
16.62752,86805
16.63565,86535
16.64377,82372
16.65190,76601
16.66002,71142
16.66813,67093
16.67627,64850
16.68438,62412
16.69252,64664
16.70063,58644
16.70875,57503
16.71688,56600
16.72500,51698
16.73312,55779
16.74125,49090
16.74937,50641
16.75750,51435
16.76562,56917
16.77373,61901
16.78187,67316
16.78998,63786
16.79812,56315
16.80623,51868
16.81435,48399
16.82248,47824
16.83060,47939
16.83873,42353
16.84685,46872
16.85497,41087
16.86310,46217
16.87122,43094
16.87933,40499
16.88747,43323
16.89558,41641
16.90372,39913
16.91183,40805
16.91995,39038
16.92808,41330
16.93620,45087
16.94433,42106
16.95245,42169
16.96057,42756
16.96870,38437
16.97682,40557
16.98493,42061
16.99307,46165
17.00118,42157
17.00932,39185
17.01743,42538
17.02555,40827
17.03368,43624
17.04180,44906
17.04993,50044
17.05805,52035
17.06617,54427
17.07430,47971
17.08242,51150
17.09055,49762
17.09867,51084
17.10678,54957
17.11492,49441
17.12303,52128
17.13115,49044
17.13928,48497
17.14740,47220
17.15553,49885
17.16365,49203
17.17177,48066
17.17990,43738
17.18802,45147
17.19615,45877
17.20427,43566
17.21238,44535
17.22052,43139
17.22863,40514
17.23677,44836
17.24488,43680
17.25300,43435
17.26113,40387
17.26925,43659
17.27737,44148
17.28550,41529
17.29362,43464
17.30175,42667
17.30987,46770
17.31798,46749
17.32612,48405
17.33423,46819
17.34237,56563
17.35048,57398
17.35860,55930
17.36673,54039
17.37485,51885
17.38297,50562
17.39110,53474
17.39922,55327
17.40735,54063
17.41547,57284
17.42358,55838
17.43172,49020
17.43983,50236
17.44797,47698
17.45608,48844
17.46420,46515
17.47233,42589
17.48045,42580
17.48858,46287
17.49670,48436
17.50482,46190
17.51295,43360
17.52107,43408
17.52918,46227
17.53732,43952
17.54543,43192
17.55357,49015
17.56168,55162
17.56980,63117
17.57793,96181
17.58605,145024
17.59418,225229
17.60230,349502
17.61042,488329
17.61855,561902
17.62667,561730
17.63478,486091
17.64292,393719
17.65103,311019
17.65917,286872
17.66728,282393
17.67540,293372
17.68353,302963
17.69165,266233
17.69978,222900
17.70790,172058
17.71602,147132
17.72415,117225
17.73227,99559
17.74040,95204
17.74852,89417
17.75663,82392
17.76477,79102
17.77288,70226
17.78100,66331
17.78913,66056
17.79725,68248
17.80538,65183
17.81350,72683
17.82162,69096
17.82975,70031
17.83787,74172
17.84600,72077
17.85412,79781
17.86223,80510
17.87037,79514
17.87848,88827
17.88662,84075
17.89473,81187
17.90285,69310
17.91098,70190
17.91910,52551
17.92722,54400
17.93535,51303
17.94347,47119
17.95160,49087
17.95972,50835
17.96783,48836
17.97597,48333
17.98408,46647
17.99222,48512
18.00033,44754
18.00845,48150
18.01658,50167
18.02470,55460
18.03282,67246
18.04095,81854
18.04907,88015
18.05720,94476
18.06532,90667
18.07343,92169
18.08157,110071
18.08968,128231
18.09782,164483
18.10593,196651
18.11405,199859
18.12218,190728
18.13030,169711
18.13843,160970
18.14655,144264
18.15467,137092
18.16280,123726
18.17092,115353
18.17903,111773
18.18717,109904
18.19528,101667
18.20342,102438
18.21153,89180
18.21965,92514
18.22778,82380
18.23590,80204
18.24403,70928
18.25215,72958
18.26027,72304
18.26840,73079
18.27652,72760
18.28465,64961
18.29277,61826
18.30088,54534
18.30902,49034
18.31713,53208
18.32525,48020
18.33338,46390
18.34150,46984
18.34963,44522
18.35775,48394
18.36587,43450
18.37400,45764
18.38212,43452
18.39025,42300
18.39837,46676
18.40648,44324
18.41462,47920
18.42273,51177
18.43085,54759
18.43898,54666
18.44710,61886
18.45523,66018
18.46335,87709
18.47147,118870
18.47960,148869
18.48772,182787
18.49585,204736
18.50397,193495
18.51208,173166
18.52022,132227
18.52833,103648
18.53647,88962
18.54458,76392
18.55270,62565
18.56083,59535
18.56895,56296
18.57707,55138
18.58520,58457
18.59332,53275
18.60145,53916
18.60957,58275
18.61768,58319
18.62582,58148
18.63393,62658
18.64207,58165
18.65018,55694
18.65830,56955
18.66643,57926
18.67455,85757
18.68267,124664
18.69080,173848
18.69892,203426
18.70705,216373
18.71517,230213
18.72328,229384
18.73142,229442
18.73953,244299
18.74767,244757
18.75578,240717
18.76390,247150
18.77203,245260
18.78015,254458
18.78828,247626
18.79640,245526
18.80452,249296
18.81265,251563
18.82077,251874
18.82888,243964
18.83702,252201
18.84513,247700
18.85327,251000
18.86138,256240
18.86950,248280
18.87763,234031
18.88575,236165
18.89388,237797
18.90200,239773
18.91012,243913
18.91825,238311
18.92637,236050
18.93450,237012
18.94262,242611
18.95073,245664
18.95887,245431
18.96698,252971
18.97510,250755
18.98323,245664
18.99135,242423
18.99948,231371
19.00760,234060
19.01572,224548
19.02385,225632
19.03197,213191
19.04010,212997
19.04822,217711
19.05633,211299
19.06447,212290
19.07258,217621
19.08072,218510
19.08883,222532
19.09695,241277
19.10508,261869
19.11320,277787
19.12132,279952
19.12945,272982
19.13757,262405
19.14570,253486
19.15382,237480
19.16193,237458
19.17007,229800
19.17818,221421
19.18632,227177
19.19443,223966
19.20255,225353
19.21068,223861
19.21880,217109
19.22692,205154
19.23505,205270
19.24317,195530
19.25130,187090
19.25942,183276
19.26753,190481
19.27567,197792
19.28378,208671
19.29192,210304
19.30003,212308
19.30815,209091
19.31628,198883
19.32440,194488
19.33253,184348
19.34065,191275
19.34877,186291
19.35690,199158
19.36502,208358
19.37313,214150
19.38127,232484
19.38938,236075
19.39752,225380
19.40563,215665
19.41375,205564
19.42188,186307
19.43000,172693
19.43813,163480
19.44625,165889
19.45437,162972
19.46250,164387
19.47062,163247
19.47873,155835
19.48687,162419
19.49498,161363
19.50312,177328
19.51123,189673
19.51935,209902
19.52748,232509
19.53560,240879
19.54373,241518
19.55185,222323
19.55997,203505
19.56810,170548
19.57622,166571
19.58435,155315
19.59247,160817
19.60058,146930
19.60872,140636
19.61683,139411
19.62495,143288
19.63308,144489
19.64120,153200
19.64933,188722
19.65745,251425
19.66557,342215
19.67370,448454
19.68182,548655
19.68995,564888
19.69807,555865
19.70618,490505
19.71432,387145
19.72243,329062
19.73057,281042
19.73868,249618
19.74680,219040
19.75493,199573
19.76305,192188
19.77117,176939
19.77930,172311
19.78742,184784
19.79555,182602
19.80367,185856
19.81178,181862
19.81992,184363
19.82803,170120
19.83617,158023
19.84428,148533
19.85240,147210
19.86053,163016
19.86865,215881
19.87677,343049
19.88490,571647
19.89302,972791
19.90115,1466874
19.90927,1970063
19.91738,2301362
19.92552,2474756
19.93363,2465495
19.94177,2384784
19.94988,2285383
19.95800,2109747
19.96613,2010353
19.97425,1906621
19.98238,1809854
19.99050,1687689
19.99862,1634375
20.00675,1522546
20.01487,1470869
20.02298,1412397
20.03112,1321778
20.03923,1262765
20.04737,1107896
20.05548,992419
20.06360,805997
20.07173,675703
20.07985,542136
20.08798,436253
20.09610,364826
20.10422,326587
20.11235,313864
20.12047,302222
20.12860,287530
20.13672,279560
20.14483,282947
20.15297,282534
20.16108,293618
20.16920,318779
20.17733,339892
20.18545,352546
20.19358,341245
20.20170,342277
20.20982,322620
20.21795,305114
20.22607,296828
20.23420,289414
20.24232,276582
20.25043,290872
20.25857,327898
20.26668,365630
20.27480,461211
20.28293,544340
20.29105,623197
20.29918,670598
20.30730,625014
20.31542,549710
20.32355,444921
20.33167,358442
20.33980,305520
20.34792,257366
20.35603,215137
20.36417,182281
20.37228,156635
20.38042,142568
20.38853,124693
20.39665,121286
20.40478,119259
20.41290,117240
20.42102,118283
20.42915,123175
20.43727,135397
20.44540,147375
20.45352,162475
20.46163,163435
20.46977,161578
20.47788,151930
20.48602,140639
20.49413,138363
20.50225,120504
20.51038,114133
20.51850,105680
20.52662,102990
20.53475,98767
20.54287,93762
20.55100,101010
20.55912,98470
20.56723,95907
20.57537,100440
20.58348,99507
20.59162,93070
20.59973,93434
20.60785,94091
20.61598,94773
20.62410,92657
20.63223,92803
20.64035,84305
20.64847,85536
20.65660,91006
20.66472,84694
20.67283,87300
20.68097,91709
20.68908,87575
20.69722,90834
20.70533,86340
20.71345,84735
20.72158,79298
20.72970,85898
20.73783,82769
20.74595,88074
20.75407,80924
20.76220,80768
20.77032,90127
20.77845,88330
20.78657,97794
20.79468,119347
20.80282,153442
20.81093,196144
20.81905,256893
20.82718,298291
20.83530,306129
20.84343,268795
20.85155,224053
20.85967,171460
20.86780,138170
20.87592,117318
20.88405,104312
20.89217,93797
20.90028,96803
20.90842,90338
20.91653,87144
20.92465,89807
20.93278,88300
20.94090,86219
20.94903,84904
20.95715,77740
20.96527,80087
20.97340,77698
20.98152,84107
20.98965,72301
20.99777,81187
21.00588,72559
21.01402,80029
21.02213,73478
21.03027,79962
21.03838,84895
21.04650,85207
21.05463,75744
21.06275,76002
21.07087,80067
21.07900,87276
21.08712,79308
21.09525,72409
21.10337,73221
21.11148,74170
21.11962,75686
21.12773,72918
21.13587,87726
21.14398,90485
21.15210,106701
21.16023,118274
21.16835,133209
21.17648,141465
21.18460,130411
21.19272,113453
21.20085,103953
21.20897,103047
21.21708,88475
21.22522,83862
21.23333,84876
21.24147,81689
21.24958,80638
21.25770,76258
21.26583,76103
21.27395,78105
21.28208,74239
21.29020,75233
21.29832,76181
21.30645,80731
21.31457,71463
21.32268,68500
21.33082,71495
21.33893,71387
21.34707,68950
21.35518,68921
21.36330,70564
21.37143,69196
21.37955,66896
21.38768,67277
21.39580,69813
21.40392,71718
21.41205,71186
21.42017,79217
21.42830,89380
21.43642,95820
21.44453,88315
21.45267,96997
21.46078,89377
21.46890,86919
21.47703,85795
21.48515,77217
21.49328,69750
21.50140,70618
21.50952,70449
21.51765,68467
21.52577,65667
21.53390,68339
21.54202,65926
21.55013,65555
21.55827,69277
21.56638,69396
21.57450,72255
21.58263,70916
21.59075,77274
21.59888,84328
21.60700,74692
21.61512,77629
21.62325,69027
21.63137,80996
21.63950,85628
21.64762,93699
21.65573,101478
21.66387,110771
21.67198,110121
21.68012,106628
21.68823,102328
21.69635,92830
21.70448,85492
21.71260,85326
21.72072,74650
21.72885,66188
21.73697,65978
21.74510,61383
21.75322,62984
21.76133,56283
21.76947,55213
21.77758,57204
21.78572,56283
21.79383,58696
21.80195,58867
21.81008,55238
21.81820,62389
21.82633,64190
21.83445,68961
21.84257,85401
21.85070,90776
21.85882,100912
21.86693,106978
21.87507,100072
21.88318,96444
21.89132,75375
21.89943,73614
21.90755,65632
21.91568,67846
21.92380,60982
21.93193,54843
21.94005,49085
21.94817,52228
21.95630,53706
21.96442,46594
21.97253,51816
21.98067,48950
21.98878,48353
21.99692,48494
22.00503,44611
22.01315,48829
22.02128,46717
22.02940,52304
22.03753,47830
22.04565,49538
22.05377,47680
22.06190,49788
22.07002,50202
22.07815,52897
22.08627,48433
22.09438,55195
22.10252,53261
22.11063,51219
22.11875,50659
22.12688,48209
22.13500,52222
22.14313,50287
22.15125,46145
22.15937,47601
22.16750,52622
22.17562,51385
22.18375,50937
22.19187,49345
22.19998,43538
22.20812,48379
22.21623,47501
22.22437,52127
22.23248,52170
22.24060,53327
22.24873,55624
22.25685,53748
22.26497,53067
22.27310,57322
22.28122,54067
22.28935,58477
22.29747,55154
22.30558,70088
22.31372,92912
22.32183,126858
22.32997,170809
22.33808,220832
22.34620,239284
22.35433,244945
22.36245,220415
22.37057,188958
22.37870,168713
22.38682,155666
22.39495,149073
22.40307,146370
22.41118,168748
22.41932,181778
22.42743,199545
22.43557,187770
22.44368,187185
22.45180,161736
22.45993,155531
22.46805,134654
22.47618,123380
22.48430,123587
22.49242,125700
22.50055,123412
22.50867,126842
22.51678,139631
22.52492,131033
22.53303,125815
22.54117,116331
22.54928,128537
22.55740,115759
22.56553,117265
22.57365,105917
22.58178,105188
22.58990,105814
22.59802,103528
22.60615,100964
22.61427,97824
22.62240,99428
22.63052,96500
22.63863,102213
22.64677,96998
22.65488,89116
22.66300,93500
22.67113,105646
22.67925,103400
22.68738,112457
22.69550,117667
22.70362,122013
22.71175,120212
22.71987,121368
22.72800,121760
22.73612,118913
22.74423,113269
22.75237,108529
22.76048,99114
22.76860,101787
22.77673,97671
22.78485,93876
22.79298,86953
22.80110,95795
22.80922,93315
22.81735,100460
22.82547,101387
22.83360,88899
22.84172,88305
22.84983,80230
22.85797,76160
22.86608,76501
22.87422,78511
22.88233,81572
22.89045,88813
22.89858,103636
22.90670,98265
22.91482,115598
22.92295,118819
22.93107,136180
22.93920,149420
22.94732,166959
22.95543,160263
22.96357,153604
22.97168,129622
22.97982,116686
22.98793,117561
22.99605,99756
23.00418,90639
23.01230,90345
23.02042,87914
23.02855,75385
23.03667,71961
23.04480,70479
23.05292,73719
23.06103,75738
23.06917,100374
23.07728,114504
23.08542,121605
23.09353,127694
23.10165,129207
23.10978,134814
23.11790,131733
23.12603,132673
23.13415,133846
23.14227,137596
23.15040,133330
23.15852,142862
23.16663,133891
23.17477,143410
23.18288,139612
23.19102,138773
23.19913,139716
23.20725,138282
23.21538,133436
23.22350,136657
23.23163,140430
23.23975,144674
23.24787,149867
23.25600,166748
23.26412,180680
23.27225,177714
23.28037,188623
23.28848,179144
23.29662,162787
23.30473,154635
23.31285,142556
23.32098,151598
23.32910,143651
23.33723,148041
23.34535,157867
23.35347,167571
23.36160,187233
23.36972,211764
23.37785,226327
23.38597,245544
23.39408,262301
23.40222,276611
23.41033,288756
23.41845,285675
23.42658,300643
23.43470,303589
23.44283,301930
23.45095,297387
23.45907,283030
23.46720,278429
23.47532,268285
23.48345,243741
23.49157,242298
23.49968,225891
23.50782,215801
23.51593,205953
23.52407,198278
23.53218,193663
23.54030,183857
23.54843,176725
23.55655,175478
23.56467,173689
23.57280,182774
23.58092,179702
23.58905,191808
23.59717,222796
23.60528,225524
23.61342,237421
23.62153,242597
23.62967,237186
23.63778,254504
23.64590,328879
23.65403,452919
23.66215,619208
23.67028,761395
23.67840,852441
23.68652,822531
23.69465,689560
23.70277,514071
23.71088,391553
23.71902,308560
23.72713,247394
23.73527,212266
23.74338,191518
23.75150,183267
23.75963,207320
23.76775,334258
23.77588,680927
23.78400,1335434
23.79212,2185019
23.80025,3081359
23.80837,3623482
23.81648,3508883
23.82462,3025673
23.83273,2343308
23.84087,1741078
23.84898,1291416
23.85710,978542
23.86523,756776
23.87335,621432
23.88148,521669
23.88960,469718
23.89772,409737
23.90585,387704
23.91397,359610
23.92210,333594
23.93022,322053
23.93833,304566
23.94647,276625
23.95458,271104
23.96270,247484
23.97083,239830
23.97895,225052
23.98708,212210
23.99520,210347
24.00332,209425
24.01145,218493
24.01957,231170
24.02770,274787
24.03582,349350
24.04393,413921
24.05207,435385
24.06018,400052
24.06830,340936
24.07643,277661
24.08455,222127
24.09268,197361
24.10080,178578
24.10892,165875
24.11705,157990
24.12517,152072
24.13330,149776
24.14142,157545
24.14953,159112
24.15767,167386
24.16578,160006
24.17392,169199
24.18203,156394
24.19015,158951
24.19828,154211
24.20640,148524
24.21452,157182
24.22265,147681
24.23077,147248
24.23890,141613
24.24702,123753
24.25513,123204
24.26327,120595
24.27138,107322
24.27952,104726
24.28763,102851
24.29575,99832
24.30388,101252
24.31200,96514
24.32013,104200
24.32825,98106
24.33637,95647
24.34450,88779
24.35262,92228
24.36073,86363
24.36887,86273
24.37698,84889
24.38512,88293
24.39323,88924
24.40135,99221
24.40948,102434
24.41760,116193
24.42573,121347
24.43385,119825
24.44197,101314
24.45010,101831
24.45822,84934
24.46635,78449
24.47447,82285
24.48258,80972
24.49072,78550
24.49883,83669
24.50695,85994
24.51508,86859
24.52320,92518
24.53133,101195
24.53945,110468
24.54757,113366
24.55570,117215
24.56382,112757
24.57195,118132
24.58007,97148
24.58818,109061
24.59632,90864
24.60443,85229
24.61255,86340
24.62068,84875
24.62880,83980
24.63693,80999
24.64505,78751
24.65317,79493
24.66130,72645
24.66942,70273
24.67755,69690
24.68567,75709
24.69378,72530
24.70192,70074
24.71003,69413
24.71817,68021
24.72628,66608
24.73440,65385
24.74253,68335
24.75065,71305
24.75877,87521
24.76690,115560
24.77502,147615
24.78315,185187
24.79127,193469
24.79938,198165
24.80752,208106
24.81563,212276
24.82377,217531
24.83188,225699
24.84000,237198
24.84813,265208
24.85625,289074
24.86437,321027
24.87250,377530
24.88062,464686
24.88875,563220
24.89687,649990
24.90498,677280
24.91312,660360
24.92123,586356
24.92937,486228
24.93748,404960
24.94560,339303
24.95373,293016
24.96185,271091
24.96998,251703
24.97810,247836
24.98622,240136
24.99435,232569
25.00247,238629
25.01058,232518
25.01872,231926
25.02683,235109
25.03497,231663
25.04308,218042
25.05120,220811
25.05933,217921
25.06745,210980
25.07558,211819
25.08370,220904
25.09182,222190
25.09995,226096
25.10807,271437
25.11620,372181
25.12432,599374
25.13243,1026407
25.14057,1664094
25.14868,2316997
25.15680,2676575
25.16493,2657748
25.17305,2279848
25.18118,1727397
25.18930,1182521
25.19742,789762
25.20555,546571
25.21367,400780
25.22180,316529
25.22992,281318
25.23803,259258
25.24617,258820
25.25428,268627
25.26240,301109
25.27053,309201
25.27865,312488
25.28678,301111
25.29490,285712
25.30302,224897
25.31115,186811
25.31927,153109
25.32740,131164
25.33552,118193
25.34363,112870
25.35177,106179
25.35988,94500
25.36802,92933
25.37613,91133
25.38425,87670
25.39238,80195
25.40050,78908
25.40862,75436
25.41675,76941
25.42487,76635
25.43300,79107
25.44112,73565
25.44923,74994
25.45737,73375
25.46548,80227
25.47362,71130
25.48173,72929
25.48985,77189
25.49798,76426
25.50610,73242
25.51423,69608
25.52235,66483
25.53047,65266
25.53860,64890
25.54672,65084
25.55483,63853
25.56297,68259
25.57108,63426
25.57922,65549
25.58733,61615
25.59545,64888
25.60358,59115
25.61170,61354
25.61983,63016
25.62795,69870
25.63607,75744
25.64420,72762
25.65232,88298
25.66043,86493
25.66857,88507
25.67668,87702
25.68482,84868
25.69293,97039
25.70105,117015
25.70918,166034
25.71730,224960
25.72543,274763
25.73355,303601
25.74167,320023
25.74980,330532
25.75792,345996
25.76605,337848
25.77417,330907
25.78228,337561
25.79042,335941
25.79853,329606
25.80665,338280
25.81478,345513
25.82290,333742
25.83103,336600
25.83915,342644
25.84727,334674
25.85540,334210
25.86352,325162
25.87165,338592
25.87977,313899
25.88788,302402
25.89602,305607
25.90413,305601
25.91225,300976
25.92038,304281
25.92850,298159
25.93663,306476
25.94475,287604
25.95287,298170
25.96100,287457
25.96912,305180
25.97725,293546
25.98537,283106
25.99348,274548
26.00162,270461
26.00973,257077
26.01787,282624
26.02598,265910
26.03410,266940
26.04223,259007
26.05035,260077
26.05847,258053
26.06660,263527
26.07472,258593
26.08285,265627
26.09097,252260
26.09908,253461
26.10722,252938
26.11533,243270
26.12347,250130
26.13158,248322
26.13970,241508
26.14783,240942
26.15595,249794
26.16408,248985
26.17220,249140
26.18032,244968
26.18845,238797
26.19657,236960
26.20468,232837
26.21282,224575
26.22093,228333
26.22907,216994
26.23718,217442
26.24530,216441
26.25343,212072
26.26155,205008
26.26968,201873
26.27780,196760
26.28592,196974
26.29405,208154
26.30217,191529
26.31028,199685
26.31842,195151
26.32653,197785
26.33467,199902
26.34278,184979
26.35090,201105
26.35903,188287
26.36715,194823
26.37528,197330
26.38340,217557
26.39152,222196
26.39965,237097
26.40777,243143
26.41590,229395
26.42402,225361
26.43213,212444
26.44027,200565
26.44838,194936
26.45650,177393
26.46463,174318
26.47275,176518
26.48088,169954
26.48900,168725
26.49712,174624
26.50525,156748
26.51337,156290
26.52150,154847
26.52962,150121
26.53773,150328
26.54587,148745
26.55398,138263
26.56212,140923
26.57023,141268
26.57835,141007
26.58648,138665
26.59460,133149
26.60272,133669
26.61085,134076
26.61897,142761
26.62710,139002
26.63522,130117
26.64333,131419
26.65147,138956
26.65958,134193
26.66772,139179
26.67583,139896
26.68395,140571
26.69208,139823
26.70020,139227
26.70832,131947
26.71645,130250
26.72457,124125
26.73270,127319
26.74082,121058
26.74893,123975
26.75707,118258
26.76518,119879
26.77332,127654
26.78143,117554
26.78955,122759
26.79768,118329
26.80580,117691
26.81393,120835
26.82205,127541
26.83017,124319
26.83830,124526
26.84642,122763
26.85453,120768
26.86267,111498
26.87078,110047
26.87892,107318
26.88703,115933
26.89515,105086
26.90328,112170
26.91140,109946
26.91953,96823
26.92765,95503
26.93577,100176
26.94390,97926
26.95202,101464
26.96013,102271
26.96827,105853
26.97638,113064
26.98452,118452
26.99263,157924
27.00075,219585
27.00888,328665
27.01700,483795
27.02513,620097
27.03325,762738
27.04137,806018
27.04950,774334
27.05762,695303
27.06575,555538
27.07387,458632
27.08198,364333
27.09012,307693
27.09823,266467
27.10635,234824
27.11448,211322
27.12260,199264
27.13073,185341
27.13885,182797
27.14697,173413
27.15510,163721
27.16322,155321
27.17135,159410
27.17947,157903
27.18758,159977
27.19572,160893
27.20383,157181
27.21197,143367
27.22008,145833
27.22820,131863
27.23633,124541
27.24445,118902
27.25257,119566
27.26070,110738
27.26882,106219
27.27695,109965
27.28507,100713
27.29318,97319
27.30132,102860
27.30943,94776
27.31757,98091
27.32568,95912
27.33380,91827
27.34193,93688
27.35005,93287
27.35817,93086
27.36630,92860
27.37442,95519
27.38255,89341
27.39067,93065
27.39878,89859
27.40692,88871
27.41503,88530
27.42317,86139
27.43128,82136
27.43940,82902
27.44753,83922
27.45565,80052
27.46378,79123
27.47190,78110
27.48002,81892
27.48815,78834
27.49627,78854
27.50438,76002
27.51252,77910
27.52063,78475
27.52877,78999
27.53688,82559
27.54500,78563
27.55313,79762
27.56125,75691
27.56938,80012
27.57750,78446
27.58562,83480
27.59375,87377
27.60187,100171
27.61000,100327
27.61812,96777
27.62623,90336
27.63437,86940
27.64248,83629
27.65060,82072
27.65873,72314
27.66685,71064
27.67498,66775
27.68310,71084
27.69122,73121
27.69935,69626
27.70747,70731
27.71560,70785
27.72372,68814
27.73183,65378
27.73997,65170
27.74808,61823
27.75620,62936
27.76433,64156
27.77245,64702
27.78058,65422
27.78870,64853
27.79682,70145
27.80495,71632
27.81307,70920
27.82120,68128
27.82932,70091
27.83743,68055
27.84557,70826
27.85368,74542
27.86182,62243
27.86993,67884
27.87805,68566
27.88618,64652
27.89430,61324
27.90242,64026
27.91055,60116
27.91867,58627
27.92680,59487
27.93492,54417
27.94303,58898
27.95117,56827
27.95928,57735
27.96742,56170
27.97553,56946
27.98365,57804
27.99178,57163
27.99990,60989
28.00803,62239
28.01615,59421
28.02427,65863
28.03240,68925
28.04052,67897
28.04863,70719
28.05677,71259
28.06488,69437
28.07302,67683
28.08113,69838
28.08925,65415
28.09738,59958
28.10550,61016
28.11363,57099
28.12175,55939
28.12987,57446
28.13800,56861
28.14612,56019
28.15423,54991
28.16237,58606
28.17048,51226
28.17862,55894
28.18673,55918
28.19485,63255
28.20298,66147
28.21110,67069
28.21923,86899
28.22735,91478
28.23547,92313
28.24360,94362
28.25172,84893
28.25985,82873
28.26797,68138
28.27608,71108
28.28422,58992
28.29233,61424
28.30045,61894
28.30858,58289
28.31670,59466
28.32483,60551
28.33295,66204
28.34107,72403
28.34920,85503
28.35732,95172
28.36545,118117
28.37357,127554
28.38168,136310
28.38982,144227
28.39793,152044
28.40605,152310
28.41418,145626
28.42230,141333
28.43043,144156
28.43855,126244
28.44667,116012
28.45480,104638
28.46292,97939
28.47105,91897
28.47917,92346
28.48728,88700
28.49542,88302
28.50353,86386
28.51167,81334
28.51978,83589
28.52790,77480
28.53603,75822
28.54415,76135
28.55227,76379
28.56040,69267
28.56852,66814
28.57665,67434
28.58477,65426
28.59288,70902
28.60102,65955
28.60913,67435
28.61727,67625
28.62538,66158
28.63350,71344
28.64163,63672
28.64975,72585
28.65788,70608
28.66600,68060
28.67412,72588
28.68225,73378
28.69037,73762
28.69848,67737
28.70662,66410
28.71473,69622
28.72287,61931
28.73098,63376
28.73910,66732
28.74723,59330
28.75535,57066
28.76348,60071
28.77160,58849
28.77972,63149
28.78785,70324
28.79597,76045
28.80408,71988
28.81222,78216
28.82033,74145
28.82847,72792
28.83658,68255
28.84470,64473
28.85283,67928
28.86095,61670
28.86908,65396
28.87720,59318
28.88532,63301
28.89345,63086
28.90157,72868
28.90970,74250
28.91782,69409
28.92593,71554
28.93407,70228
28.94218,67112
28.95030,67880
28.95843,77153
28.96655,74638
28.97468,77994
28.98280,83336
28.99092,69839
28.99905,74058
29.00717,61953
29.01530,65601
29.02342,54042
29.03153,59075
29.03967,57398
29.04778,58023
29.05592,56560
29.06403,58897
29.07215,59351
29.08028,57259
29.08840,62508
29.09652,61524
29.10465,61485
29.11277,63714
29.12090,59332
29.12902,60658
29.13713,58080
29.14527,57159
29.15338,65689
29.16152,64110
29.16963,59110
29.17775,57153
29.18588,59683
29.19400,66026
29.20212,82679
29.21025,87809
29.21837,91855
29.22650,100800
29.23462,104423
29.24273,99017
29.25087,90145
29.25898,78712
29.26712,70313
29.27523,65639
29.28335,63126
29.29148,63422
29.29960,56846
29.30773,57692
29.31585,53001
29.32397,53924
29.33210,49728
29.34022,50774
29.34833,52815
29.35647,49642
29.36458,52212
29.37272,54059
29.38083,47178
29.38895,52649
29.39708,56307
29.40520,52992
29.41333,54723
29.42145,53529
29.42957,68668
29.43770,59180
29.44582,60322
29.45393,56273
29.46207,53550
29.47018,55724
29.47832,52733
29.48643,54489
29.49455,51706
29.50268,53460
29.51080,61411
29.51893,54959
29.52705,60224
29.53517,57051
29.54330,56430
29.55142,53623
29.55955,54784
29.56767,53189
29.57578,50861
29.58392,51893
29.59203,49777
29.60015,52417
29.60828,49370
29.61640,53557
29.62453,48662
29.63265,52503
29.64077,50790
29.64890,54269
29.65702,54923
29.66515,54176
29.67327,49544
29.68138,50845
29.68952,51638
29.69763,53250
29.70577,57973
29.71388,52326
29.72200,54490
29.73013,55315
29.73825,51559
29.74637,52636
29.75450,50767
29.76262,49178
29.77075,49059
29.77887,50920
29.78698,49926
29.79512,51952
29.80323,42401
29.81137,45851
29.81948,48968
29.82760,47850
29.83573,43668
29.84385,47508
29.85198,54459
29.86010,64281
29.86822,91441
29.87635,145791
29.88447,291870
29.89258,522770
29.90072,810389
29.90883,1116600
29.91697,1167871
29.92508,1037565
29.93320,729674
29.94133,483451
29.94945,285557
29.95758,163487
29.96570,112045
29.97382,94559
29.98195,85088
29.99007,83476
29.99818,83211
30.00632,90209
30.01443,93396
30.02257,101873
30.03068,103182
30.03880,103947
30.04693,103383
30.05505,101718
30.06318,101871
30.07130,105164
30.07942,102167
30.08755,97056
30.09567,96181
30.10380,95060
30.11192,90338
30.12003,92616
30.12817,90853
30.13628,80445
30.14440,84135
30.15253,80269
30.16065,72110
30.16878,79181
30.17690,78906
30.18502,77067
30.19315,72004
30.20127,70433
30.20940,70234
30.21752,71358
30.22563,75974
30.23377,70556
30.24188,69198
30.25000,60403
30.25813,63168
30.26625,64141
30.27438,59352
30.28250,59870
30.29062,60828
30.29875,56144
30.30687,54406
30.31500,62252
30.32312,60304
30.33123,56427
30.33937,58970
30.34748,58761
30.35562,57469
30.36373,57624
30.37185,59100
30.37998,57549
30.38810,59201
30.39622,56097
30.40435,53554
30.41247,56264
30.42060,57582
30.42872,50884
30.43683,49819
30.44497,49342
30.45308,49274
30.46122,53896
30.46933,51438
30.47745,49994
30.48558,50625
30.49370,53475
30.50183,51987
30.50995,57754
30.51807,58388
30.52620,54892
30.53432,60851
30.54243,54624
30.55057,54260
30.55868,55165
30.56682,53993
30.57493,54664
30.58305,58928
30.59118,59247
30.59930,57875
30.60743,56958
30.61555,57280
30.62367,61231
30.63180,57845
30.63992,57534
30.64803,56269
30.65617,56969
30.66428,56524
30.67242,56418
30.68053,55692
30.68865,59865
30.69678,60036
30.70490,55037
30.71303,57038
30.72115,60828
30.72927,56381
30.73740,58720
30.74552,55773
30.75365,56234
30.76177,57928
30.76988,58476
30.77802,60381
30.78613,68932
30.79425,93292
30.80238,117573
30.81050,140791
30.81863,163672
30.82675,163604
30.83487,156674
30.84300,123152
30.85112,100610
30.85925,86839
30.86737,71053
30.87548,67167
30.88362,60352
30.89173,62084
30.89987,55339
30.90798,50828
30.91610,58848
30.92423,58673
30.93235,57623
30.94047,57694
30.94860,53391
30.95672,55846
30.96485,56209
30.97297,57679
30.98108,53662
30.98922,55058
30.99733,51664
31.00547,54052
31.01358,54724
31.02170,58970
31.02983,56312
31.03795,64535
31.04607,66633
31.05420,68470
31.06232,63923
31.07045,66640
31.07857,71273
31.08668,83063
31.09482,107791
31.10293,154019
31.11107,192218
31.11918,214560
31.12730,216202
31.13543,192397
31.14355,150942
31.15168,117582
31.15980,92781
31.16792,76377
31.17605,68666
31.18417,61471
31.19228,61737
31.20042,70123
31.20853,79204
31.21667,85336
31.22478,91059
31.23290,94749
31.24103,99306
31.24915,90247
31.25728,86469
31.26540,71769
31.27352,64989
31.28165,59088
31.28977,52807
31.29788,52614
31.30602,52420
31.31413,54111
31.32227,49702
31.33038,50748
31.33850,50337
31.34663,55148
31.35475,52525
31.36288,57480
31.37100,59290
31.37912,65404
31.38725,74381
31.39537,74177
31.40350,74636
31.41162,79890
31.41973,77701
31.42787,74230
31.43598,73282
31.44410,73120
31.45223,72702
31.46035,75746
31.46848,75748
31.47660,76265
31.48472,75856
31.49285,83987
31.50097,77400
31.50910,74128
31.51722,79169
31.52533,81247
31.53347,81397
31.54158,85314
31.54972,79938
31.55783,83110
31.56595,80156
31.57408,80466
31.58220,77637
31.59032,78087
31.59845,79503
31.60657,74156
31.61470,77840
31.62282,80384
31.63093,81337
31.63907,79904
31.64718,76045
31.65532,72798
31.66343,83945
31.67155,79836
31.67968,80567
31.68780,77299
31.69592,79257
31.70405,80547
31.71217,77612
31.72030,77381
31.72842,76087
31.73653,72335
31.74467,74116
31.75278,75374
31.76092,65807
31.76903,71027
31.77715,71486
31.78528,69324
31.79340,74611
31.80153,75560
31.80965,69272
31.81777,71479
31.82590,71549
31.83402,71216
31.84213,70206
31.85027,67773
31.85838,74595
31.86652,80309
31.87463,75778
31.88275,80240
31.89088,78814
31.89900,80691
31.90713,82662
31.91525,84452
31.92337,86889
31.93150,90599
31.93962,88523
31.94775,92011
31.95587,87396
31.96398,93645
31.97212,91190
31.98023,92598
31.98835,96262
31.99648,100544
32.00460,101640
32.01273,95256
32.02085,98520
32.02897,95194
32.03710,94947
32.04522,88018
32.05335,84084
32.06147,82976
32.06958,81991
32.07772,76729
32.08583,79178
32.09395,75730
32.10208,72330
32.11020,68750
32.11833,74316
32.12645,69114
32.13457,67875
32.14270,67922
32.15082,63897
32.15895,63726
32.16707,63691
32.17518,62824
32.18332,66023
32.19143,57165
32.19957,61336
32.20768,64668
32.21580,63391
32.22393,63422
32.23205,58919
32.24017,68201
32.24830,63726
32.25642,58285
32.26455,64363
32.27267,62373
32.28078,61213
32.28892,68537
32.29703,65719
32.30517,64424
32.31328,62184
32.32140,64414
32.32953,61445
32.33765,62090
32.34577,61092
32.35390,59482
32.36202,65359
32.37015,63461
32.37827,63897
32.38638,62803
32.39452,56889
32.40263,54503
32.41077,55360
32.41888,58077
32.42700,54695
32.43513,53645
32.44325,57569
32.45138,53118
32.45950,53229
32.46762,53688
32.47575,54126
32.48387,54878
32.49198,53458
32.50012,49872
32.50823,52448
32.51637,53610
32.52448,49964
32.53260,50311
32.54073,50646
32.54885,50987
32.55698,50513
32.56510,52648
32.57322,51468
32.58135,51241
32.58947,54305
32.59760,57085
32.60572,53480
32.61383,53008
32.62197,47928
32.63008,51675
32.63820,50360
32.64633,50643
32.65445,50911
32.66258,48551
32.67070,55679
32.67882,57550
32.68695,61215
32.69507,64666
32.70320,65401
32.71132,62549
32.71943,62761
32.72757,55651
32.73568,56878
32.74380,52403
32.75193,53747
32.76005,53432
32.76818,46185
32.77630,50887
32.78442,47741
32.79255,48720
32.80067,51671
32.80880,48187
32.81692,46030
32.82503,46285
32.83317,50740
32.84128,48197
32.84942,47978
32.85753,48846
32.86565,48378
32.87378,51382
32.88190,50720
32.89002,51854
32.89815,54074
32.90627,49058
32.91440,52166
32.92252,50839
32.93063,51571
32.93877,53584
32.94688,50463
32.95502,44558
32.96313,49360
32.97125,49585
32.97938,54496
32.98750,54897
32.99563,61958
33.00375,63682
33.01187,72323
33.02000,71204
33.02812,67323
33.03623,66572
33.04437,60982
33.05248,56035
33.06062,60327
33.06873,58225
33.07685,59967
33.08498,67502
33.09310,72032
33.10123,74921
33.10935,88552
33.11747,96634
33.12560,110600
33.13372,114297
33.14183,115007
33.14997,99124
33.15808,82795
33.16622,73329
33.17433,58299
33.18245,57646
33.19058,53976
33.19870,53332
33.20683,50280
33.21495,52788
33.22307,53066
33.23120,54498
33.23932,55236
33.24745,54209
33.25557,58251
33.26368,51652
33.27182,53119
33.27993,57595
33.28805,54673
33.29618,53777
33.30430,48886
33.31243,53601
33.32055,50555
33.32867,48021
33.33680,50531
33.34492,52571
33.35305,51786
33.36117,50874
33.36928,53085
33.37742,55482
33.38553,54790
33.39367,52174
33.40178,52569
33.40990,50514
33.41803,49430
33.42615,43451
33.43427,47774
33.44240,45288
33.45052,46291
33.45865,46040
33.46677,46740
33.47488,51274
33.48302,48816
33.49113,49655
33.49927,49737
33.50738,52358
33.51550,47084
33.52363,48194
33.53175,50136
33.53987,48032
33.54800,47789
33.55612,53314
33.56425,60416
33.57237,59733
33.58048,59735
33.58862,53406
33.59673,45642
33.60487,49446
33.61298,50247
33.62110,47821
33.62923,47222
33.63735,51245
33.64548,48625
33.65360,56260
33.66172,59759
33.66985,50899
33.67797,56193
33.68608,51038
33.69422,49485
33.70233,51251
33.71047,48324
33.71858,44948
33.72670,48149
33.73483,45631
33.74295,48852
33.75108,49048
33.75920,49291
33.76732,48461
33.77545,48814
33.78357,49615
33.79168,46805
33.79982,49477
33.80793,52261
33.81607,45888
33.82418,50115
33.83230,49108
33.84043,45252
33.84855,50522
33.85668,53499
33.86480,52557
33.87292,53016
33.88105,50361
33.88917,52418
33.89730,49438
33.90542,49215
33.91353,57493
33.92167,49142
33.92978,47425
33.93790,48365
33.94603,49345
33.95415,51319
33.96228,49626
33.97040,48993
33.97852,49302
33.98665,47533
33.99477,45209
34.00290,47136
34.01102,47207
34.01913,48575
34.02727,52105
34.03538,48603
34.04352,50441
34.05163,49898
34.05975,52770
34.06788,49302
34.07600,51258
34.08412,51005
34.09225,46847
34.10037,52366
34.10850,50994
34.11662,53743
34.12473,48507
34.13287,51280
34.14098,50433
34.14912,52811
34.15723,59301
34.16535,50439
34.17348,52386
34.18160,46150
34.18972,53654
34.19785,44123
34.20597,51297
34.21410,47458
34.22222,47807
34.23033,44855
34.23847,51490
34.24658,44842
34.25472,46512
34.26283,45003
34.27095,50961
34.27908,46600
34.28720,45511
34.29533,48189
34.30345,52784
34.31157,50874
34.31970,47995
34.32782,49297
34.33593,49454
34.34407,43085
34.35218,48274
34.36032,48325
34.36843,49521
34.37655,48004
34.38468,47389
34.39280,47140
34.40093,43845
34.40905,45512
34.41717,45531
34.42530,48517
34.43342,48280
34.44155,48214
34.44967,44573
34.45778,50761
34.46592,45027
34.47403,44813
34.48215,45892
34.49028,47418
34.49840,44768
34.50653,49299
34.51465,50994
34.52277,47978
34.53090,50508
34.53902,52156
34.54715,54101
34.55527,62172
34.56338,62682
34.57152,71304
34.57963,69006
34.58775,72988
34.59588,68686
34.60400,66215
34.61213,61953
34.62025,55042
34.62837,60998
34.63650,59214
34.64462,59832
34.65275,57497
34.66087,56002
34.66898,56887
34.67712,55145
34.68523,51097
34.69337,55003
34.70148,50109
34.70960,49975
34.71773,49930
34.72585,52187
34.73397,50858
34.74210,57302
34.75022,55864
34.75835,54020
34.76647,52422
34.77458,52043
34.78272,50981
34.79083,52887
34.79897,51653
34.80708,52320
34.81520,53440
34.82333,52109
34.83145,54957
34.83957,54046
34.84770,51736
34.85582,48247
34.86395,53628
34.87207,47996
34.88018,52220
34.88832,53279
34.89643,50157
34.90457,50699
34.91268,56623
34.92080,53572
34.92893,50888
34.93705,55149
34.94518,67515
34.95330,82421
34.96142,131899
34.96955,203736
34.97767,298865
34.98578,377089
34.99392,420508
35.00203,360416
35.01017,266189
35.01828,175773
35.02640,128170
35.03453,92785
35.04265,74630
35.05078,70384
35.05890,64877
35.06702,58558
35.07515,63547
35.08327,62178
35.09140,58483
35.09952,55110
35.10763,60035
35.11577,59335
35.12388,54478
35.13200,51268
35.14013,54425
35.14825,58237
35.15638,60151
35.16450,56945
35.17262,57700
35.18075,55397
35.18887,53285
35.19700,55793
35.20512,53097
35.21323,55392
35.22137,52327
35.22948,55477
35.23762,51853
35.24573,56471
35.25385,57627
35.26198,54610
35.27010,54615
35.27822,59938
35.28635,58408
35.29447,60557
35.30260,57186
35.31072,53781
35.31883,57209
35.32697,55975
35.33508,54564
35.34322,53272
35.35133,50024
35.35945,50202
35.36758,50998
35.37570,48874
35.38382,49785
35.39195,52256
35.40007,52391
35.40820,47551
35.41632,54157
35.42443,54461
35.43257,50604
35.44068,60274
35.44882,56916
35.45693,54004
35.46505,61883
35.47318,59839
35.48130,61294
35.48943,62220
35.49755,59603
35.50567,60530
35.51380,57335
35.52192,61835
35.53003,55734
35.53817,55587
35.54628,53382
35.55442,57932
35.56253,53027
35.57065,52449
35.57878,56653
35.58690,59201
35.59503,56662
35.60315,56551
35.61127,53061
35.61940,51977
35.62752,52809
35.63563,52585
35.64377,53689
35.65188,52159
35.66002,51644
35.66813,49697
35.67625,53880
35.68438,55016
35.69250,58881
35.70063,56202
35.70875,58424
35.71687,52757
35.72500,58357
35.73312,51578
35.74125,54052
35.74937,58737
35.75748,59850
35.76562,62757
35.77373,66092
35.78185,60844
35.78998,57246
35.79810,64365
35.80623,59378
35.81435,54072
35.82247,52720
35.83060,53503
35.83872,52860
35.84685,54585
35.85497,56223
35.86308,51776
35.87122,52815
35.87933,57903
35.88747,53516
35.89558,55485
35.90370,56177
35.91183,54097
35.91995,51981
35.92807,49063
35.93620,50483
35.94432,46006
35.95245,51904
35.96057,59738
35.96868,51799
35.97682,55577
35.98493,52721
35.99307,54815
36.00118,53900
36.00930,58979
36.01743,58090
36.02555,56931
36.03367,59052
36.04180,56752
36.04992,54940
36.05805,59856
36.06617,54312
36.07428,54427
36.08242,62476
36.09053,52002
36.09867,51622
36.10678,55933
36.11490,54154
36.12303,52561
36.13115,52538
36.13928,54757
36.14740,57180
36.15552,59009
36.16365,58372
36.17177,58160
36.17988,60978
36.18802,56279
36.19613,54641
36.20427,54449
36.21238,52462
36.22050,55446
36.22863,55195
36.23675,57935
36.24488,55182
36.25300,50709
36.26112,55566
36.26925,52993
36.27737,54599
36.28550,52213
36.29362,51938
36.30173,54328
36.30987,56318
36.31798,58073
36.32610,63556
36.33423,65684
36.34235,59487
36.35048,62446
36.35860,60726
36.36672,57990
36.37485,52965
36.38297,55041
36.39110,57114
36.39922,60330
36.40733,53855
36.41547,58385
36.42358,60798
36.43170,63665
36.43983,56923
36.44795,58510
36.45608,56877
36.46420,54832
36.47232,57979
36.48045,51090
36.48857,54635
36.49670,60520
36.50482,52540
36.51293,52953
36.52107,54649
36.52918,56066
36.53732,59382
36.54543,60194
36.55355,55262
36.56168,49727
36.56980,54476
36.57792,56244
36.58605,56987
36.59417,57150
36.60230,51861
36.61042,54055
36.61853,53927
36.62667,54770
36.63478,53198
36.64292,54764
36.65103,53826
36.65915,52106
36.66728,51576
36.67540,54095
36.68352,54230
36.69165,56955
36.69977,54985
36.70790,58154
36.71602,57877
36.72413,55820
36.73227,56919
36.74038,58179
36.74852,55798
36.75663,58214
36.76475,56177
36.77288,55144
36.78100,61417
36.78913,55803
36.79725,52543
36.80537,53459
36.81350,55336
36.82162,57320
36.82973,55583
36.83787,55869
36.84598,56993
36.85412,57006
36.86223,56288
36.87035,60386
36.87848,60753
36.88660,65499
36.89473,68879
36.90285,68590
36.91097,64902
36.91910,63544
36.92722,74867
36.93535,68391
36.94347,74797
36.95158,74006
36.95972,86017
36.96783,88497
36.97595,90085
36.98408,90120
36.99220,90556
37.00033,84412
37.00845,80327
37.01657,72870
37.02470,77359
37.03282,76295
37.04095,76673
37.04907,73955
37.05718,72097
37.06532,77774
37.07343,71164
37.08155,73226
37.08968,73713
37.09780,81201
37.10593,75307
37.11405,77222
37.12217,70229
37.13030,74242
37.13842,71630
37.14655,67374
37.15467,75213
37.16278,70291
37.17092,67252
37.17903,73112
37.18717,73814
37.19528,72242
37.20340,75338
37.21153,74290
37.21965,83125
37.22777,76255
37.23590,72192
37.24402,71154
37.25215,70927
37.26027,68385
37.26838,74063
37.27652,71078
37.28463,73561
37.29277,68447
37.30088,73082
37.30900,69872
37.31713,67986
37.32525,69174
37.33338,71900
37.34150,84522
37.34962,76658
37.35775,70695
37.36587,72482
37.37398,75623
37.38212,74465
37.39023,76911
37.39837,80571
37.40648,72675
37.41460,75828
37.42273,75361
37.43085,74577
37.43898,73833
37.44710,72077
37.45522,73626
37.46335,76203
37.47147,75961
37.47958,73594
37.48772,71717
