Z:\data\JTB-E02\BACandBLUE\JTB-E02-189-05.D Mon Dec 10 10:41:30 2018
Start of data points
2.09515	160805
2.10327	177056
2.11140	182737
2.11952	191778
2.12763	202382
2.13577	204316
2.14388	211518
2.15202	225328
2.16013	216829
2.16825	215914
2.17638	215330
2.18450	212937
2.19262	195652
2.20075	188755
2.20887	189473
2.21700	170842
2.22512	166375
2.23323	156721
2.24137	148187
2.24948	143628
2.25762	146237
2.26573	340589
2.27385	1491884
2.28198	2377360
2.29010	2537661
2.29822	1481706
2.30635	837975
2.31447	615216
2.32260	517513
2.33072	467691
2.33883	436395
2.34697	401419
2.35508	365104
2.36322	325574
2.37133	312032
2.37945	291465
2.38758	296422
2.39570	279099
2.40383	293764
2.41195	341824
2.42007	414321
2.42820	564387
2.43632	525763
2.44443	413821
2.45257	353480
2.46068	315561
2.46882	290095
2.47693	267711
2.48505	259536
2.49318	243348
2.50130	235009
2.50943	223912
2.51755	227176
2.52567	216578
2.53380	214887
2.54192	212530
2.55005	213113
2.55817	233591
2.56628	277718
2.57442	273519
2.58253	230039
2.59065	219545
2.59878	202238
2.60690	199578
2.61503	216532
2.62315	229667
2.63127	223867
2.63940	201808
2.64752	206439
2.65565	193114
2.66377	192885
2.67188	184532
2.68002	187029
2.68813	181605
2.69625	176734
2.70438	183385
2.71250	176070
2.72063	170113
2.72875	166072
2.73687	173862
2.74500	169139
2.75312	172763
2.76125	162322
2.76937	163665
2.77748	164763
2.78562	169649
2.79373	166046
2.80187	167340
2.80998	169513
2.81810	168704
2.82623	169146
2.83435	165554
2.84247	158750
2.85060	155683
2.85872	160278
2.86685	160866
2.87497	163914
2.88308	158680
2.89122	154414
2.89933	156766
2.90747	156351
2.91558	158413
2.92370	154922
2.93183	150286
2.93995	160804
2.94808	158421
2.95620	144292
2.96432	153496
2.97245	152114
2.98057	158454
2.98868	151578
2.99682	157500
3.00493	150965
3.01307	158247
3.02118	152263
3.02930	156978
3.03743	150185
3.04555	148633
3.05368	146864
3.06180	140551
3.06992	152598
3.07805	152750
3.08617	144770
3.09428	149308
3.10242	150198
3.11053	170646
3.11867	178776
3.12678	179840
3.13490	172500
3.14303	163726
3.15115	161219
3.15928	151867
3.16740	151053
3.17552	155343
3.18365	149070
3.19177	146701
3.19990	152308
3.20802	143694
3.21613	141736
3.22427	144478
3.23238	147331
3.24050	140791
3.24863	142330
3.25675	143685
3.26488	139595
3.27300	137518
3.28112	149203
3.28925	268268
3.29737	1053608
3.30550	3808606
3.31362	8620999
3.32173	1.212374E+07
3.32987	1.148818E+07
3.33798	8551519
3.34610	5922003
3.35423	4236413
3.36235	3251266
3.37048	2593352
3.37860	2165509
3.38672	1835882
3.39485	1618349
3.40297	1455686
3.41110	1311673
3.41922	1191117
3.42733	1105929
3.43547	1031594
3.44358	963651
3.45172	888470
3.45983	833256
3.46795	807536
3.47608	760157
3.48420	725867
3.49232	708871
3.50045	678521
3.50857	654848
3.51670	631828
3.52482	589466
3.53293	591805
3.54107	562578
3.54918	537248
3.55732	523196
3.56543	514655
3.57355	509394
3.58168	497581
3.58980	494589
3.59793	488484
3.60605	472453
3.61417	451648
3.62230	455476
3.63042	452541
3.63853	440589
3.64667	428129
3.65478	412743
3.66292	407426
3.67103	409179
3.67915	392698
3.68728	400638
3.69540	419252
3.70353	433949
3.71165	420179
3.71977	406347
3.72790	399821
3.73602	405905
3.74413	391352
3.75227	392694
3.76038	382344
3.76852	385708
3.77663	373486
3.78475	377259
3.79288	372827
3.80100	360269
3.80913	356444
3.81725	355061
3.82537	350900
3.83350	358934
3.84162	351456
3.84975	347380
3.85787	336650
3.86598	335438
3.87412	331245
3.88223	326582
3.89035	324409
3.89848	323496
3.90660	323557
3.91473	311751
3.92285	306938
3.93097	311560
3.93910	318166
3.94722	304566
3.95535	302508
3.96347	301452
3.97158	306362
3.97972	304599
3.98783	302691
3.99597	300383
4.00408	302496
4.01220	296525
4.02033	288924
4.02845	306608
4.03657	295684
4.04470	284463
4.05282	287161
4.06095	283733
4.06907	275784
4.07718	284176
4.08532	270318
4.09343	269766
4.10157	273225
4.10968	271034
4.11780	265679
4.12593	273717
4.13405	274998
4.14217	277481
4.15030	297476
4.15842	304615
4.16655	316006
4.17467	303848
4.18278	280896
4.19092	282635
4.19903	267920
4.20717	265111
4.21528	261863
4.22340	278646
4.23153	303896
4.23965	342318
4.24778	373032
4.25590	356860
4.26402	329743
4.27215	300028
4.28027	287829
4.28838	282332
4.29652	270088
4.30463	264195
4.31277	260491
4.32088	262776
4.32900	268842
4.33713	275917
4.34525	263194
4.35338	257980
4.36150	266664
4.36962	269050
4.37775	270858
4.38587	257200
4.39400	263435
4.40212	262026
4.41023	255297
4.41837	248030
4.42648	244911
4.43460	238369
4.44273	251166
4.45085	236702
4.45898	242310
4.46710	233565
4.47522	237711
4.48335	236267
4.49147	239619
4.49960	235317
4.50772	237209
4.51583	231303
4.52397	229470
4.53208	233997
4.54020	241480
4.54833	229857
4.55645	235513
4.56458	227163
4.57270	236341
4.58082	229782
4.58895	227795
4.59707	230590
4.60520	224021
4.61332	226355
4.62143	223074
4.62957	224411
4.63768	221762
4.64582	229598
4.65393	224893
4.66205	219912
4.67018	220865
4.67830	221927
4.68642	220745
4.69455	222434
4.70267	216144
4.71080	216243
4.71892	219253
4.72703	215698
4.73517	211241
4.74328	219837
4.75142	210776
4.75953	213421
4.76765	211661
4.77578	208596
4.78390	210827
4.79202	213760
4.80015	213422
4.80827	213542
4.81640	210513
4.82452	216428
4.83263	205585
4.84077	198203
4.84888	205154
4.85702	206714
4.86513	212264
4.87325	213564
4.88138	215442
4.88950	214842
4.89763	210591
4.90575	212587
4.91387	206059
4.92200	206404
4.93012	207137
4.93823	243659
4.94637	429835
4.95448	1078208
4.96262	2462239
4.97073	4277596
4.97885	5415934
4.98698	5180355
4.99510	4164432
5.00323	2961626
5.01135	2136559
5.01947	1648337
5.02760	1342221
5.03572	1126761
5.04385	1011719
5.05197	909532
5.06008	837476
5.06822	790430
5.07633	738048
5.08445	704492
5.09258	668227
5.10070	635347
5.10883	596945
5.11695	582128
5.12507	553586
5.13320	557065
5.14132	523430
5.14945	517517
5.15757	512984
5.16568	493661
5.17382	477074
5.18193	467807
5.19005	456696
5.19818	454366
5.20630	451309
5.21443	421141
5.22255	431189
5.23067	454207
5.23880	509338
5.24692	580381
5.25505	757344
5.26317	590007
5.27128	589306
5.27942	455157
5.28753	406757
5.29567	385011
5.30378	375770
5.31190	377951
5.32003	364372
5.32815	354531
5.33627	355292
5.34440	351713
5.35252	343684
5.36065	355249
5.36877	335425
5.37688	329315
5.38502	330844
5.39313	340039
5.40127	327254
5.40938	315009
5.41750	319593
5.42563	315656
5.43375	315245
5.44188	317498
5.45000	299259
5.45812	309974
5.46625	306830
5.47437	302136
5.48248	306098
5.49062	291608
5.49873	289986
5.50687	294336
5.51498	295686
5.52310	293979
5.53123	288515
5.53935	282191
5.54748	281516
5.55560	280552
5.56372	280365
5.57185	280707
5.57997	282520
5.58808	284168
5.59622	277057
5.60433	276090
5.61247	271798
5.62058	273042
5.62870	282846
5.63683	288668
5.64495	299681
5.65308	277282
5.66120	279261
5.66932	274258
5.67745	293839
5.68557	293043
5.69370	320909
5.70182	350670
5.70993	364759
5.71807	353186
5.72618	317755
5.73430	290766
5.74243	291853
5.75055	266326
5.75868	263193
5.76680	256526
5.77492	260776
5.78305	257428
5.79117	251176
5.79930	245102
5.80742	250532
5.81553	249671
5.82367	258209
5.83178	246094
5.83990	250085
5.84803	246255
5.85615	241425
5.86428	241741
5.87240	249027
5.88052	247564
5.88865	237935
5.89677	239400
5.90490	227789
5.91302	230799
5.92113	200304
5.92927	184471
5.93738	186934
5.94552	186835
5.95363	186740
5.96175	194040
5.96988	197756
5.97800	188258
5.98612	198292
5.99425	208910
6.00237	208102
6.01050	201530
6.01862	198318
6.02673	191830
6.03487	196172
6.04298	190187
6.05112	191163
6.05923	187539
6.06735	178650
6.07548	183528
6.08360	186359
6.09173	185392
6.09985	179825
6.10797	174986
6.11610	172061
6.12422	177173
6.13233	182018
6.14047	182509
6.14858	191822
6.15672	188426
6.16483	191549
6.17295	194690
6.18108	194135
6.18920	207551
6.19733	205237
6.20545	200943
6.21357	200544
6.22170	197313
6.22982	210215
6.23795	212694
6.24607	210304
6.25418	211873
6.26232	215037
6.27043	223266
6.27855	230367
6.28668	229219
6.29480	239230
6.30293	245237
6.31105	234399
6.31917	240935
6.32730	251089
6.33542	251293
6.34355	244312
6.35167	255727
6.35978	263250
6.36792	258873
6.37603	264959
6.38415	276486
6.39228	264481
6.40040	216213
6.40853	203999
6.41665	206135
6.42477	194914
6.43290	196071
6.44102	195731
6.44915	196293
6.45727	181167
6.46538	177802
6.47352	181026
6.48163	176845
6.48977	176735
6.49788	188155
6.50600	187749
6.51413	190682
6.52225	180244
6.53037	190587
6.53850	179599
6.54662	176775
6.55475	174699
6.56287	177843
6.57098	171606
6.57912	169487
6.58723	160470
6.59537	171277
6.60348	163877
6.61160	165326
6.61973	161400
6.62785	166456
6.63597	160748
6.64410	163029
6.65222	163760
6.66035	161924
6.66847	156104
6.67658	161348
6.68472	160851
6.69283	161516
6.70097	163456
6.70908	159831
6.71720	165212
6.72533	162427
6.73345	159575
6.74158	150715
6.74970	146704
6.75782	150579
6.76595	150080
6.77407	150986
6.78218	152927
6.79032	147091
6.79843	153250
6.80657	153540
6.81468	152537
6.82280	145422
6.83093	154123
6.83905	152352
6.84718	147269
6.85530	155134
6.86342	131817
6.87155	122747
6.87967	112343
6.88780	125897
6.89592	122688
6.90403	119688
6.91217	130297
6.92028	127492
6.92840	118939
6.93653	119150
6.94465	113517
6.95278	111180
6.96090	110702
6.96902	108591
6.97715	111066
6.98527	109248
6.99340	113762
7.00152	109325
7.00963	108303
7.01777	107986
7.02588	106039
7.03400	110616
7.04213	111442
7.05025	107659
7.05838	103521
7.06650	102220
7.07462	95529
7.08275	106156
7.09087	98966
7.09900	99172
7.10712	100731
7.11523	97865
7.12337	104909
7.13148	107282
7.13962	107438
7.14773	112765
7.15585	118749
7.16398	114474
7.17210	112610
7.18022	108383
7.18835	101213
7.19647	109880
7.20460	106855
7.21272	108657
7.22083	100735
7.22897	100811
7.23708	102845
7.24522	99138
7.25333	104437
7.26145	100662
7.26958	104314
7.27770	104566
7.28583	100212
7.29395	97846
7.30207	101981
7.31020	99730
7.31832	102953
7.32643	96550
7.33457	95888
7.34268	102330
7.35082	96949
7.35893	94321
7.36705	99904
7.37518	100221
7.38330	98460
7.39143	97455
7.39955	99809
7.40767	100974
7.41580	99464
7.42392	97499
7.43203	101627
7.44017	94306
7.44828	104407
7.45642	98614
7.46453	99254
7.47265	102220
7.48078	107277
7.48890	104999
7.49703	104368
7.50515	107952
7.51327	109377
7.52140	104110
7.52952	101071
7.53765	100763
7.54577	99795
7.55388	101761
7.56202	103277
7.57013	91575
7.57825	92830
7.58638	98325
7.59450	91500
7.60263	105077
7.61075	92617
7.61887	97408
7.62700	97523
7.63512	97384
7.64325	93914
7.65137	94268
7.65948	99000
7.66762	96578
7.67573	92370
7.68385	92864
7.69198	96410
7.70010	93557
7.70823	94456
7.71635	95031
7.72447	100998
7.73260	92429
7.74072	95671
7.74885	91899
7.75697	96331
7.76508	93355
7.77322	95252
7.78133	92302
7.78947	94900
7.79758	90110
7.80570	95448
7.81383	92150
7.82195	93034
7.83007	83520
7.83820	85587
7.84632	86940
7.85445	90556
7.86257	85797
7.87068	86533
7.87882	82682
7.88693	82192
7.89507	81927
7.90318	82178
7.91130	84365
7.91943	81443
7.92755	81799
7.93568	82459
7.94380	83491
7.95192	80366
7.96005	82032
7.96817	83750
7.97628	82755
7.98442	87226
7.99253	85775
8.00067	89143
8.00878	83661
8.01690	89028
8.02503	90119
8.03315	91671
8.04128	84378
8.04940	83111
8.05752	81838
8.06565	87129
8.07377	84132
8.08188	79921
8.09002	85467
8.09813	76795
8.10627	82930
8.11438	79156
8.12250	81591
8.13063	80226
8.13875	86604
8.14688	82773
8.15500	90185
8.16312	90763
8.17125	89813
8.17937	89308
8.18750	87056
8.19562	94368
8.20373	92657
8.21187	95060
8.21998	87784
8.22810	87497
8.23623	83768
8.24435	88119
8.25248	83179
8.26060	82807
8.26872	80701
8.27685	85140
8.28497	89600
8.29310	89196
8.30122	86670
8.30933	83484
8.31747	82732
8.32558	82934
8.33372	87183
8.34183	79059
8.34995	89246
8.35808	86651
8.36620	89507
8.37432	91121
8.38245	90431
8.39057	87305
8.39870	92283
8.40682	86160
8.41493	86235
8.42307	86895
8.43118	84782
8.43932	88067
8.44743	85090
8.45555	78629
8.46368	79995
8.47180	79018
8.47992	81219
8.48805	76919
8.49617	83389
8.50430	90872
8.51242	87062
8.52053	84003
8.52867	94047
8.53678	86969
8.54492	84023
8.55303	78830
8.56115	79791
8.56928	81472
8.57740	80288
8.58553	81418
8.59365	77628
8.60177	81187
8.60990	75932
8.61802	76095
8.62613	76896
8.63427	77731
8.64238	75728
8.65052	76878
8.65863	79238
8.66675	80269
8.67488	77616
8.68300	77235
8.69113	78634
8.69925	81738
8.70737	71527
8.71550	73815
8.72362	70237
8.73175	73656
8.73987	82676
8.74798	74427
8.75612	74459
8.76423	77340
8.77235	84207
8.78048	105493
8.78860	184651
8.79673	394484
8.80485	734796
8.81297	1172968
8.82110	1482955
8.82922	1538249
8.83735	1330335
8.84547	1021675
8.85358	759191
8.86172	592637
8.86983	480926
8.87795	421779
8.88608	373352
8.89420	334902
8.90233	311054
8.91045	295060
8.91857	284203
8.92670	268784
8.93482	266038
8.94295	252840
8.95107	248848
8.95918	232992
8.96732	235199
8.97543	223531
8.98357	226570
8.99168	219597
8.99980	216783
9.00793	219787
9.01605	217073
9.02417	219461
9.03230	208556
9.04042	206252
9.04855	206360
9.05667	207966
9.06478	199268
9.07292	192016
9.08103	195145
9.08917	187504
9.09728	191663
9.10540	185881
9.11353	189426
9.12165	186339
9.12977	178836
9.13790	178864
9.14602	178345
9.15415	182665
9.16227	181911
9.17038	174553
9.17852	180318
9.18663	172963
9.19477	170443
9.20288	181837
9.21100	178715
9.21913	175508
9.22725	177066
9.23538	174325
9.24350	177037
9.25162	170081
9.25975	166403
9.26787	159844
9.27598	164036
9.28412	155330
9.29223	152277
9.30037	150022
9.30848	149078
9.31660	152055
9.32473	147242
9.33285	140453
9.34098	143410
9.34910	145123
9.35722	143879
9.36535	145487
9.37347	135400
9.38160	134981
9.38972	132903
9.39783	136461
9.40597	128969
9.41408	134293
9.42220	130660
9.43033	130375
9.43845	135068
9.44658	133275
9.45470	134395
9.46282	132590
9.47095	132471
9.47907	125397
9.48720	128405
9.49532	126881
9.50343	124687
9.51157	122672
9.51968	120992
9.52780	128520
9.53593	125918
9.54405	131042
9.55218	133648
9.56030	126314
9.56842	127395
9.57655	122988
9.58467	106141
9.59280	105414
9.60092	107638
9.60903	102788
9.61717	103063
9.62528	101301
9.63342	102054
9.64153	97952
9.64965	92745
9.65778	90873
9.66590	90709
9.67402	89466
9.68215	81165
9.69027	86894
9.69840	83735
9.70652	86676
9.71463	84346
9.72277	85598
9.73088	84912
9.73902	79233
9.74713	84684
9.75525	84077
9.76338	81616
9.77150	83389
9.77963	79732
9.78775	91256
9.79587	81075
9.80400	78614
9.81212	78235
9.82023	82641
9.82837	84286
9.83648	91524
9.84462	91778
9.85273	92706
9.86085	89708
9.86898	85553
9.87710	81589
9.88523	84748
9.89335	82277
9.90147	78719
9.90960	83061
9.91772	80151
9.92583	79344
9.93397	83024
9.94208	82863
9.95022	79805
9.95833	82744
9.96645	87939
9.97458	83021
9.98270	82339
9.99083	85916
9.99895	85455
10.00707	85048
10.01520	95392
10.02332	105316
10.03145	131792
10.03957	146518
10.04768	166706
10.05582	188125
10.06393	187035
10.07205	177723
10.08018	158635
10.08830	153067
10.09643	136222
10.10455	128880
10.11267	128894
10.12080	114561
10.12892	115950
10.13705	119914
10.14517	107012
10.15328	111791
10.16142	102225
10.16953	109693
10.17765	105774
10.18578	105321
10.19390	107025
10.20203	103101
10.21015	104451
10.21827	105346
10.22640	100036
10.23452	108509
10.24265	111728
10.25077	127652
10.25888	136379
10.26702	124628
10.27513	127868
10.28327	130565
10.29138	124644
10.29950	139110
10.30763	149707
10.31575	179191
10.32387	205487
10.33200	227645
10.34012	232061
10.34825	226284
10.35637	205662
10.36448	192345
10.37262	186683
10.38073	172127
10.38887	169376
10.39698	166565
10.40510	163805
10.41323	165632
10.42135	155358
10.42948	148189
10.43760	148636
10.44572	136922
10.45385	137850
10.46197	134112
10.47008	137262
10.47822	132793
10.48633	139658
10.49447	135938
10.50258	131732
10.51070	133238
10.51883	134134
10.52695	128685
10.53508	125738
10.54320	125904
10.55132	127176
10.55945	127344
10.56757	133733
10.57570	136589
10.58382	139322
10.59193	137035
10.60007	139429
10.60818	136997
10.61630	134958
10.62443	138948
10.63255	130824
10.64068	131225
10.64880	126427
10.65692	125792
10.66505	124260
10.67317	122261
10.68130	126509
10.68942	121319
10.69753	121327
10.70567	122972
10.71378	118949
10.72190	119756
10.73003	119750
10.73815	118572
10.74628	116044
10.75440	119618
10.76252	113242
10.77065	115478
10.77877	112528
10.78690	117246
10.79502	122750
10.80313	113909
10.81127	115310
10.81938	112443
10.82752	110798
10.83563	119901
10.84375	114448
10.85188	111009
10.86000	114128
10.86812	115660
10.87625	107861
10.88437	105034
10.89250	108697
10.90062	106714
10.90873	107745
10.91687	100985
10.92498	104141
10.93312	96870
10.94123	99641
10.94935	102703
10.95748	107649
10.96560	106350
10.97372	105859
10.98185	108369
10.98997	106797
10.99810	102836
11.00622	101342
11.01433	104319
11.02247	102376
11.03058	102381
11.03872	99258
11.04683	97174
11.05495	92332
11.06308	97063
11.07120	92180
11.07933	91303
11.08745	94587
11.09557	94587
11.10370	93351
11.11182	88702
11.11993	94294
11.12807	89663
11.13618	89784
11.14432	90820
11.15243	88719
11.16055	81046
11.16868	82976
11.17680	83721
11.18493	92792
11.19305	99394
11.20117	112242
11.20930	135492
11.21742	153957
11.22555	175210
11.23367	168339
11.24178	157131
11.24992	133714
11.25803	113173
11.26615	102550
11.27428	93893
11.28240	85531
11.29053	88863
11.29865	89143
11.30677	79035
11.31490	75885
11.32302	86850
11.33115	79952
11.33927	85093
11.34738	86863
11.35552	87841
11.36363	85691
11.37175	86094
11.37988	86674
11.38800	84696
11.39613	90117
11.40425	87831
11.41237	90193
11.42050	83543
11.42862	88342
11.43675	88992
11.44487	86667
11.45298	87765
11.46112	84173
11.46923	80311
11.47737	76411
11.48548	81260
11.49360	78910
11.50173	83438
11.50985	72891
11.51797	81860
11.52610	77492
11.53422	81759
11.54235	79534
11.55047	83094
11.55858	85658
11.56672	83583
11.57483	82791
11.58297	79616
11.59108	78396
11.59920	82036
11.60733	82537
11.61545	80716
11.62358	79494
11.63170	79391
11.63982	82270
11.64795	87657
11.65607	80454
11.66418	80803
11.67232	80097
11.68043	84407
11.68857	75476
11.69668	79083
11.70480	82196
11.71293	79240
11.72105	75484
11.72918	81831
11.73730	85578
11.74542	84913
11.75355	90921
11.76167	89717
11.76978	88802
11.77792	91344
11.78603	90939
11.79417	89501
11.80228	94484
11.81040	89820
11.81853	93198
11.82665	83611
11.83478	79125
11.84290	76862
11.85102	81641
11.85915	86551
11.86727	81463
11.87540	77383
11.88352	80374
11.89163	74070
11.89977	77256
11.90788	75139
11.91600	78771
11.92413	76046
11.93225	75887
11.94038	73866
11.94850	76173
11.95662	78640
11.96475	74807
11.97287	74289
11.98100	73687
11.98912	78468
11.99723	81652
12.00537	74961
12.01348	75959
12.02160	73625
12.02973	75498
12.03785	70540
12.04598	72443
12.05410	77428
12.06222	71344
12.07035	74527
12.07847	74039
12.08660	72596
12.09472	77851
12.10283	73724
12.11097	72388
12.11908	73297
12.12722	71385
12.13533	67932
12.14345	71645
12.15158	69734
12.15970	74332
12.16782	79380
12.17595	91549
12.18407	100834
12.19220	105509
12.20032	103390
12.20843	106884
12.21657	112157
12.22468	105309
12.23282	109822
12.24093	100881
12.24905	110105
12.25718	100086
12.26530	102070
12.27343	107113
12.28155	95744
12.28967	98638
12.29780	104150
12.30592	99288
12.31403	96921
12.32217	101833
12.33028	95172
12.33842	98840
12.34653	97293
12.35465	94295
12.36278	92683
12.37090	96849
12.37903	93268
12.38715	94871
12.39527	89588
12.40340	93608
12.41152	96108
12.41963	96767
12.42777	101446
12.43588	100469
12.44402	104354
12.45213	100691
12.46025	98011
12.46838	97077
12.47650	93333
12.48463	99279
12.49275	98313
12.50087	93097
12.50900	97478
12.51712	88791
12.52525	88510
12.53337	91008
12.54148	83710
12.54962	87300
12.55773	91398
12.56585	84946
12.57398	89368
12.58210	88232
12.59023	83853
12.59835	86736
12.60647	91612
12.61460	86133
12.62272	91534
12.63085	78701
12.63897	86113
12.64708	83695
12.65522	84126
12.66333	92096
12.67147	85271
12.67958	83371
12.68770	81443
12.69583	80845
12.70395	83791
12.71207	84055
12.72020	87504
12.72832	93660
12.73645	89093
12.74457	95896
12.75268	96866
12.76082	112632
12.76893	109079
12.77707	117152
12.78518	106732
12.79330	97201
12.80143	94863
12.80955	84693
12.81767	86233
12.82580	76617
12.83392	78689
12.84205	79602
12.85017	77648
12.85828	73215
12.86642	69614
12.87453	71945
12.88267	72671
12.89078	72522
12.89890	72923
12.90703	71427
12.91515	67614
12.92328	66148
12.93140	66834
12.93952	68720
12.94765	65445
12.95577	66702
12.96388	64266
12.97202	72182
12.98013	67356
12.98827	74200
12.99638	71435
13.00450	65823
13.01263	67135
13.02075	64549
13.02888	64915
13.03700	65618
13.04512	69452
13.05325	64886
13.06137	62099
13.06950	66296
13.07762	68643
13.08573	61001
13.09387	66938
13.10198	65598
13.11010	65133
13.11823	64407
13.12635	65329
13.13448	67002
13.14260	69828
13.15072	66381
13.15885	63870
13.16697	65830
13.17510	66956
13.18322	64011
13.19133	66437
13.19947	71938
13.20758	79870
13.21570	94290
13.22383	107031
13.23195	101201
13.24008	102883
13.24820	93515
13.25632	87037
13.26445	85052
13.27257	73068
13.28070	74845
13.28882	68703
13.29693	71047
13.30507	69851
13.31318	70713
13.32132	70633
13.32943	72027
13.33755	70685
13.34568	66012
13.35380	71399
13.36192	71373
13.37005	64220
13.37817	65478
13.38630	68688
13.39442	66121
13.40253	67923
13.41067	68674
13.41878	69078
13.42692	69667
13.43503	71106
13.44315	65707
13.45128	66764
13.45940	66045
13.46752	64891
13.47565	65399
13.48377	64347
13.49190	65176
13.50002	66704
13.50813	67156
13.51627	62193
13.52438	64103
13.53252	67070
13.54063	63265
13.54875	66983
13.55688	63465
13.56500	63145
13.57313	63249
13.58125	61315
13.58937	63972
13.59750	64474
13.60562	66755
13.61373	62371
13.62187	66131
13.62998	59685
13.63812	61435
13.64623	61362
13.65435	63486
13.66248	62613
13.67060	58770
13.67873	60825
13.68685	63628
13.69497	66469
13.70310	59380
13.71122	57459
13.71935	57442
13.72747	61965
13.73558	61488
13.74372	61836
13.75183	58817
13.75995	58940
13.76808	63961
13.77620	59380
13.78433	63062
13.79245	60217
13.80057	63899
13.80870	69972
13.81682	65982
13.82495	70112
13.83307	74136
13.84118	76766
13.84932	69293
13.85743	75119
13.86555	74942
13.87368	68720
13.88180	73315
13.88993	71006
13.89805	69295
13.90617	71422
13.91430	69437
13.92242	76509
13.93055	76622
13.93867	87473
13.94678	85522
13.95492	87710
13.96303	97826
13.97117	95275
13.97928	82202
13.98740	84082
13.99553	71816
14.00365	68218
14.01177	73980
14.01990	72180
14.02802	72388
14.03615	70965
14.04427	66588
14.05238	69338
14.06052	66178
14.06863	73476
14.07677	79385
14.08488	83740
14.09300	87392
14.10113	85155
14.10925	86595
14.11738	85502
14.12550	81804
14.13362	80131
14.14175	75781
14.14987	70604
14.15798	70072
14.16612	72258
14.17423	69149
14.18237	75799
14.19048	80595
14.19860	105254
14.20673	161564
14.21485	273412
14.22298	419505
14.23110	549488
14.23922	606082
14.24735	584612
14.25547	489909
14.26358	420789
14.27172	354292
14.27983	320357
14.28797	275958
14.29608	264072
14.30420	242927
14.31233	224183
14.32045	214649
14.32858	194748
14.33670	183819
14.34482	180978
14.35295	164366
14.36107	150493
14.36920	149031
14.37732	137439
14.38543	118535
14.39357	114693
14.40168	104297
14.40980	94794
14.41793	95412
14.42605	85618
14.43418	87592
14.44230	88929
14.45042	87707
14.45855	86323
14.46667	88027
14.47480	88304
14.48292	90365
14.49103	86825
14.49917	80493
14.50728	80410
14.51540	80750
14.52353	80315
14.53165	84130
14.53978	85258
14.54790	78020
14.55602	87255
14.56415	89995
14.57227	81706
14.58040	87017
14.58852	88672
14.59663	81926
14.60477	79338
14.61288	75873
14.62102	72054
14.62913	74296
14.63725	74529
14.64538	71197
14.65350	79026
14.66162	73666
14.66975	71967
14.67787	68275
14.68600	71745
14.69412	65997
14.70223	69787
14.71037	68543
14.71848	66911
14.72662	71035
14.73473	73419
14.74285	68991
14.75098	69067
14.75910	69328
14.76723	67800
14.77535	68018
14.78347	70513
14.79160	68915
14.79972	74533
14.80783	80174
14.81597	98491
14.82408	148677
14.83222	229960
14.84033	348477
14.84845	479544
14.85658	613375
14.86470	664009
14.87283	688232
14.88095	664861
14.88907	631778
14.89720	606561
14.90532	562327
14.91345	525767
14.92157	491759
14.92968	463570
14.93782	455962
14.94593	425560
14.95405	409004
14.96218	390941
14.97030	390430
14.97843	353271
14.98655	347209
14.99467	338001
15.00280	332381
15.01092	322007
15.01905	310188
15.02717	311071
15.03528	308343
15.04342	289563
15.05153	287556
15.05965	267866
15.06778	267452
15.07590	254973
15.08403	254643
15.09215	253445
15.10027	241374
15.10840	235602
15.11652	231719
15.12465	227561
15.13277	217118
15.14088	217236
15.14902	205729
15.15713	197963
15.16527	174527
15.17338	155464
15.18150	126886
15.18963	115173
15.19775	105000
15.20587	105680
15.21400	102861
15.22212	97211
15.23025	95091
15.23837	94447
15.24648	93432
15.25462	98856
15.26273	93345
15.27087	87021
15.27898	88523
15.28710	84702
15.29523	88155
15.30335	85120
15.31147	87470
15.31960	90613
15.32772	87182
15.33585	85343
15.34397	84094
15.35208	82082
15.36022	84828
15.36833	82200
15.37647	80275
15.38458	80372
15.39270	82464
15.40083	84724
15.40895	78314
15.41708	80665
15.42520	82017
15.43332	81839
15.44145	80793
15.44957	80961
15.45768	78383
15.46582	78502
15.47393	78135
15.48207	77868
15.49018	76408
15.49830	81459
15.50643	80929
15.51455	83958
15.52268	83970
15.53080	86862
15.53892	87189
15.54705	90041
15.55517	84597
15.56330	77773
15.57142	74712
15.57953	77001
15.58767	70839
15.59578	68365
15.60390	70881
15.61203	72960
15.62015	74341
15.62828	68541
15.63640	70298
15.64452	68242
15.65265	63951
15.66077	70554
15.66890	76908
15.67702	69496
15.68513	71433
15.69327	62886
15.70138	65480
15.70950	66666
15.71763	70012
15.72575	63225
15.73388	66186
15.74200	68235
15.75012	65728
15.75825	68950
15.76637	70188
15.77450	72677
15.78262	76506
15.79073	81890
15.79887	103607
15.80698	112739
15.81512	123102
15.82323	131654
15.83135	125695
15.83948	119128
15.84760	116621
15.85572	119905
15.86385	116987
15.87197	105820
15.88010	102673
15.88822	98613
15.89633	101266
15.90447	99235
15.91258	105058
15.92072	92506
15.92883	94055
15.93695	94737
15.94508	91536
15.95320	92682
15.96133	87473
15.96945	94773
15.97757	81716
15.98570	82833
15.99382	88915
16.00193	93148
16.01007	85386
16.01818	94421
16.02632	110403
16.03443	122186
16.04255	142162
16.05068	155418
16.05880	168046
16.06693	151114
16.07505	135310
16.08317	117262
16.09130	104416
16.09942	88987
16.10753	87259
16.11567	86162
16.12378	76460
16.13192	76921
16.14003	80561
16.14815	83948
16.15628	78045
16.16440	83603
16.17253	72792
16.18065	76089
16.18877	76683
16.19690	71911
16.20502	76451
16.21315	73085
16.22127	74427
16.22938	73405
16.23752	71751
16.24563	74930
16.25375	75375
16.26188	70938
16.27000	70447
16.27813	76054
16.28625	79119
16.29437	77175
16.30250	77089
16.31062	80093
16.31875	79340
16.32687	72448
16.33498	77687
16.34312	74332
16.35123	75490
16.35935	76074
16.36748	77865
16.37560	75793
16.38373	72486
16.39185	70014
16.39997	70494
16.40810	71238
16.41622	71290
16.42435	70525
16.43247	69651
16.44058	67643
16.44872	69540
16.45683	70051
16.46497	69415
16.47308	76185
16.48120	101546
16.48933	124947
16.49745	159203
16.50557	188126
16.51370	211655
16.52182	221571
16.52995	228136
16.53807	203707
16.54618	186240
16.55432	178587
16.56243	167906
16.57057	163274
16.57868	166488
16.58680	142004
16.59493	148446
16.60305	138225
16.61118	138271
16.61930	129756
16.62742	128048
16.63555	123093
16.64367	122417
16.65178	121687
16.65992	123140
16.66803	110350
16.67617	116519
16.68428	109752
16.69240	107179
16.70053	102705
16.70865	103407
16.71678	103325
16.72490	93427
16.73302	90882
16.74115	79412
16.74927	75629
16.75738	72802
16.76552	69296
16.77363	78813
16.78177	77756
16.78988	70785
16.79800	75639
16.80613	74355
16.81425	71109
16.82238	68613
16.83050	71205
16.83862	71570
16.84675	72664
16.85487	66939
16.86300	70797
16.87112	66664
16.87923	67913
16.88737	67999
16.89548	74089
16.90360	68087
16.91173	65721
16.91985	67942
16.92798	69631
16.93610	67325
16.94422	66774
16.95235	72464
16.96047	66943
16.96860	63920
16.97672	68523
16.98483	63949
16.99297	61031
17.00108	65854
17.00922	61557
17.01733	61192
17.02545	65894
17.03358	62048
17.04170	67543
17.04982	67712
17.05795	68576
17.06607	66501
17.07420	68862
17.08232	65669
17.09043	65854
17.09857	66185
17.10668	70586
17.11482	67012
17.12293	66358
17.13105	69588
17.13918	69669
17.14730	66704
17.15542	75482
17.16355	65551
17.17167	71467
17.17980	65712
17.18792	69859
17.19603	64320
17.20417	67572
17.21228	67002
17.22042	69919
17.22853	64124
17.23665	64019
17.24478	67991
17.25290	62413
17.26103	67470
17.26915	62347
17.27727	62208
17.28540	64411
17.29352	66484
17.30163	64878
17.30977	64464
17.31788	67941
17.32602	61786
17.33413	66545
17.34225	73500
17.35038	80982
17.35850	84873
17.36663	109686
17.37475	124309
17.38287	144673
17.39100	154487
17.39912	159963
17.40725	158919
17.41537	145935
17.42348	136673
17.43162	134474
17.43973	136281
17.44785	125388
17.45598	123701
17.46410	122330
17.47223	112204
17.48035	111250
17.48847	114034
17.49660	108019
17.50472	113986
17.51285	110384
17.52097	105302
17.52908	105852
17.53722	109345
17.54533	108835
17.55345	105944
17.56158	105331
17.56970	97587
17.57783	103564
17.58595	97844
17.59407	94600
17.60220	96134
17.61032	102196
17.61845	104629
17.62657	113515
17.63468	117501
17.64282	121203
17.65093	110869
17.65907	102058
17.66718	104360
17.67530	105496
17.68343	102971
17.69155	105692
17.69967	101667
17.70780	101526
17.71592	95541
17.72405	93092
17.73217	96533
17.74028	95726
17.74842	93087
17.75653	98225
17.76467	94643
17.77278	87083
17.78090	90833
17.78903	90262
17.79715	87309
17.80527	84539
17.81340	83088
17.82152	78641
17.82965	80867
17.83777	77961
17.84588	80545
17.85402	83367
17.86213	77986
17.87027	84434
17.87838	78619
17.88650	85569
17.89463	80486
17.90275	85693
17.91088	79928
17.91900	71698
17.92712	73628
17.93525	79015
17.94337	73350
17.95148	68877
17.95962	73238
17.96773	67462
17.97587	67795
17.98398	67829
17.99210	67120
18.00023	68212
18.00835	64265
18.01648	69093
18.02460	67278
18.03272	65465
18.04085	71321
18.04897	74634
18.05710	81488
18.06522	91766
18.07333	108877
18.08147	159047
18.08958	254255
18.09770	425530
18.10583	669643
18.11395	889252
18.12208	1075336
18.13020	1167229
18.13832	1198690
18.14645	1119574
18.15457	1036520
18.16270	951349
18.17082	889559
18.17893	826617
18.18707	750609
18.19518	709254
18.20330	649159
18.21143	619534
18.21955	573605
18.22768	555101
18.23580	541760
18.24392	512280
18.25205	477213
18.26017	450439
18.26830	439215
18.27642	402304
18.28453	354631
18.29267	319697
18.30078	254743
18.30892	204133
18.31703	166994
18.32515	141360
18.33328	125902
18.34140	126065
18.34952	118626
18.35765	112320
18.36577	115696
18.37390	110154
18.38202	98153
18.39013	101586
18.39827	105034
18.40638	95786
18.41452	91480
18.42263	98248
18.43075	100235
18.43888	95183
18.44700	103556
18.45513	95046
18.46325	99199
18.47137	99917
18.47950	100988
18.48762	99746
18.49573	105724
18.50387	112119
18.51198	112540
18.52012	105966
18.52823	93918
18.53635	93693
18.54448	81531
18.55260	87462
18.56073	78672
18.56885	78541
18.57697	75546
18.58510	79767
18.59322	70357
18.60133	72494
18.60947	76441
18.61758	74327
18.62572	80990
18.63383	76279
18.64195	82375
18.65008	84372
18.65820	72320
18.66633	84649
18.67445	71728
18.68257	69757
18.69070	71103
18.69882	72731
18.70695	68521
18.71507	69998
18.72318	61612
18.73132	66488
18.73943	65544
18.74755	69663
18.75568	63319
18.76380	66284
18.77193	69897
18.78005	66927
18.78817	66111
18.79630	69444
18.80442	67534
18.81255	75440
18.82067	71268
18.82878	67359
18.83692	70723
18.84503	67876
18.85315	66584
18.86128	68358
18.86940	68530
18.87753	68927
18.88565	63058
18.89377	65999
18.90190	67627
18.91002	69168
18.91815	77849
18.92627	78508
18.93438	73160
18.94252	68918
18.95063	69457
18.95877	72153
18.96688	74238
18.97500	75242
18.98313	83726
18.99125	75924
18.99937	69330
19.00750	71110
19.01562	68759
19.02375	69093
19.03187	69523
19.03998	65371
19.04812	67513
19.05623	62757
19.06437	71963
19.07248	62412
19.08060	65476
19.08873	70899
19.09685	68715
19.10498	73163
19.11310	83030
19.12122	92176
19.12935	93985
19.13747	95903
19.14558	90575
19.15372	91617
19.16183	83948
19.16997	83537
19.17808	76182
19.18620	69545
19.19433	79839
19.20245	77022
19.21058	73740
19.21870	75254
19.22682	75175
19.23495	73401
19.24307	71760
19.25118	72686
19.25932	68675
19.26743	68501
19.27557	77571
19.28368	81954
19.29180	94399
19.29993	128257
19.30805	149886
19.31618	173005
19.32430	172822
19.33242	163627
19.34055	146072
19.34867	121393
19.35680	113742
19.36492	98213
19.37303	101662
19.38117	105017
19.38928	117864
19.39740	127114
19.40553	136652
19.41365	145385
19.42178	137712
19.42990	135855
19.43802	131462
19.44615	130394
19.45427	114747
19.46240	108152
19.47052	111096
19.47863	110485
19.48677	110197
19.49488	106031
19.50302	119808
19.51113	140696
19.51925	192700
19.52738	256725
19.53550	346806
19.54362	394231
19.55175	371131
19.55987	314565
19.56800	227782
19.57612	162729
19.58423	125830
19.59237	110744
19.60048	107280
19.60862	94122
19.61673	93232
19.62485	82672
19.63298	89938
19.64110	102430
19.64922	141095
19.65735	227983
19.66547	409313
19.67360	695813
19.68172	1024061
19.68983	1280542
19.69797	1358629
19.70608	1205807
19.71422	923455
19.72233	680076
19.73045	488312
19.73858	367513
19.74670	283190
19.75483	242538
19.76295	196955
19.77107	175216
19.77920	149928
19.78732	139182
19.79543	129779
19.80357	125504
19.81168	115466
19.81982	124359
19.82793	113531
19.83605	112299
19.84418	106886
19.85230	109757
19.86043	106363
19.86855	97659
19.87667	93833
19.88480	105881
19.89292	123854
19.90103	140320
19.90917	173028
19.91728	222850
19.92542	269871
19.93353	308004
19.94165	309378
19.94978	306768
19.95790	289669
19.96603	280851
19.97415	264640
19.98227	244469
19.99040	231385
19.99852	228489
20.00665	214882
20.01477	217429
20.02288	199067
20.03102	201656
20.03913	193588
20.04725	185852
20.05538	171660
20.06350	154014
20.07163	141709
20.07975	130589
20.08787	119358
20.09600	108570
20.10412	104727
20.11225	99687
20.12037	102451
20.12848	102371
20.13662	105156
20.14473	103006
20.15287	102931
20.16098	99966
20.16910	95652
20.17723	98172
20.18535	101142
20.19347	100288
20.20160	102459
20.20972	109383
20.21785	108463
20.22597	105792
20.23408	105409
20.24222	111327
20.25033	110739
20.25847	123438
20.26658	180074
20.27470	297858
20.28283	489372
20.29095	749842
20.29908	1031290
20.30720	1257799
20.31532	1229797
20.32345	1072277
20.33157	816278
20.33968	584838
20.34782	407596
20.35593	295269
20.36407	229920
20.37218	176550
20.38030	154266
20.38843	137299
20.39655	127001
20.40468	124153
20.41280	121876
20.42092	115511
20.42905	132144
20.43717	157452
20.44528	211047
20.45342	287654
20.46153	358084
20.46967	400129
20.47778	390616
20.48590	369130
20.49403	309266
20.50215	248246
20.51028	200163
20.51840	173889
20.52652	143445
20.53465	132214
20.54277	122876
20.55090	111815
20.55902	106131
20.56713	110577
20.57527	101947
20.58338	102713
20.59150	100089
20.59963	99694
20.60775	91775
20.61588	93773
20.62400	87578
20.63212	93391
20.64025	88051
20.64837	88802
20.65650	93326
20.66462	88981
20.67273	88436
20.68087	92300
20.68898	99914
20.69710	95995
20.70523	104174
20.71335	110454
20.72148	112524
20.72960	121221
20.73772	111694
20.74585	116653
20.75397	114807
20.76210	122055
20.77022	113681
20.77833	113598
20.78647	114738
20.79458	117166
20.80272	118709
20.81083	128643
20.81895	131686
20.82708	149572
20.83520	161294
20.84332	185171
20.85145	177406
20.85957	189790
20.86770	177657
20.87582	163989
20.88393	157618
20.89207	149173
20.90018	144185
20.90832	129309
20.91643	131461
20.92455	119006
20.93268	119361
20.94080	112379
20.94893	115188
20.95705	118420
20.96517	114166
20.97330	118832
20.98142	115924
20.98953	114263
20.99767	112314
21.00578	110752
21.01392	105177
21.02203	105712
21.03015	110264
21.03828	106874
21.04640	107701
21.05453	108929
21.06265	102098
21.07077	98237
21.07890	100076
21.08702	102723
21.09513	100659
21.10327	100833
21.11138	98090
21.11952	98927
21.12763	98125
21.13575	99318
21.14388	99375
21.15200	106739
21.16013	120924
21.16825	129071
21.17637	140381
21.18450	159282
21.19262	163344
21.20075	166210
21.20887	164291
21.21698	156319
21.22512	160327
21.23323	146548
21.24135	139933
21.24948	142385
21.25760	128186
21.26573	124844
21.27385	116626
21.28197	115839
21.29010	110736
21.29822	112082
21.30635	114294
21.31447	110298
21.32258	103040
21.33072	110174
21.33883	103056
21.34697	107205
21.35508	106718
21.36320	101324
21.37133	104227
21.37945	94074
21.38757	100742
21.39570	94418
21.40382	107885
21.41195	109256
21.42007	120194
21.42818	129433
21.43632	144083
21.44443	162919
21.45257	155543
21.46068	162115
21.46880	141230
21.47693	144018
21.48505	138246
21.49317	134785
21.50130	123568
21.50942	124035
21.51755	112836
21.52567	108433
21.53378	103935
21.54192	107182
21.55003	103513
21.55817	101000
21.56628	98405
21.57440	101981
21.58253	107792
21.59065	101468
21.59878	105708
21.60690	113507
21.61502	116369
21.62315	132618
21.63127	156425
21.63938	195261
21.64752	287335
21.65563	397800
21.66377	516686
21.67188	589574
21.68000	582851
21.68813	525345
21.69625	409017
21.70438	309838
21.71250	237292
21.72062	176960
21.72875	157780
21.73687	139058
21.74498	125659
21.75312	124542
21.76123	121083
21.76937	114923
21.77748	119246
21.78560	116449
21.79373	122201
21.80185	113181
21.80998	119305
21.81810	111958
21.82622	128534
21.83435	161365
21.84247	211828
21.85060	294479
21.85872	390061
21.86683	468654
21.87497	479041
21.88308	433763
21.89120	340636
21.89933	256982
21.90745	203860
21.91558	150120
21.92370	125567
21.93182	117817
21.93995	114900
21.94807	113453
21.95620	113654
21.96432	104109
21.97243	108385
21.98057	108197
21.98868	102974
21.99682	99580
22.00493	105609
22.01305	94066
22.02118	92904
22.02930	90187
22.03742	96989
22.04555	94048
22.05367	91261
22.06180	87602
22.06992	88953
22.07803	94510
22.08617	91007
22.09428	90616
22.10242	92525
22.11053	93525
22.11865	94668
22.12678	104133
22.13490	91932
22.14302	94937
22.15115	94391
22.15927	98548
22.16740	96513
22.17552	104278
22.18363	108268
22.19177	107676
22.19988	114102
22.20802	104316
22.21613	101386
22.22425	105935
22.23238	118737
22.24050	134999
22.24863	147587
22.25675	176114
22.26487	171713
22.27300	172332
22.28112	156400
22.28923	146412
22.29737	116681
22.30548	110097
22.31362	99475
22.32173	100888
22.32985	98950
22.33798	97510
22.34610	96369
22.35423	97833
22.36235	98355
22.37047	89297
22.37860	92027
22.38672	94336
22.39485	90157
22.40297	91297
22.41108	95333
22.41922	98129
22.42733	106057
22.43545	118428
22.44358	130537
22.45170	132861
22.45983	139059
22.46795	142283
22.47607	139431
22.48420	135409
22.49232	134215
22.50045	125776
22.50857	121015
22.51668	118467
22.52482	119535
22.53293	119967
22.54105	119851
22.54918	118711
22.55730	116267
22.56543	114386
22.57355	116673
22.58167	113229
22.58980	107855
22.59792	108418
22.60605	104512
22.61417	97480
22.62228	97499
22.63042	92997
22.63853	88875
22.64667	90477
22.65478	80381
22.66290	89551
22.67103	89094
22.67915	89835
22.68727	91485
22.69540	90501
22.70352	97636
22.71165	103437
22.71977	108649
22.72788	117383
22.73602	129427
22.74413	138756
22.75227	140983
22.76038	150125
22.76850	137954
22.77663	129273
22.78475	124212
22.79287	126489
22.80100	121133
22.80912	127567
22.81725	145258
22.82537	162532
22.83348	182255
22.84162	198978
22.84973	201327
22.85787	203163
22.86598	195851
22.87410	180720
22.88223	176436
22.89035	164510
22.89848	152692
22.90660	152481
22.91472	148980
22.92285	149173
22.93097	151276
22.93908	160092
22.94722	173670
22.95533	190067
22.96347	197476
22.97158	187466
22.97970	176075
22.98783	171524
22.99595	154470
23.00408	133976
23.01220	129121
23.02032	115736
23.02845	115722
23.03657	100076
23.04470	99474
23.05282	94469
23.06093	92993
23.06907	89068
23.07718	88343
23.08530	82369
23.09343	84885
23.10155	93106
23.10968	86614
23.11780	81779
23.12592	88510
23.13405	91742
23.14217	83880
23.15030	88483
23.15842	80137
23.16653	84456
23.17467	80843
23.18278	79370
23.19090	78493
23.19903	74699
23.20715	75809
23.21528	77567
23.22340	77377
23.23152	75900
23.23965	74571
23.24777	77533
23.25590	77549
23.26402	75327
23.27213	78757
23.28027	83234
23.28838	78136
23.29652	82022
23.30463	82792
23.31275	84815
23.32088	82032
23.32900	78067
23.33712	81908
23.34525	76993
23.35337	77012
23.36150	79137
23.36962	87126
23.37773	87870
23.38587	86686
23.39398	95334
23.40212	96634
23.41023	97232
23.41835	95805
23.42648	94146
23.43460	99229
23.44273	92111
23.45085	88893
23.45897	84703
23.46710	86861
23.47522	80828
23.48333	81897
23.49147	78593
23.49958	83004
23.50772	81446
23.51583	75809
23.52395	79341
23.53208	76999
23.54020	74989
23.54833	77020
23.55645	87201
23.56457	78425
23.57270	80949
23.58082	89445
23.58893	97947
23.59707	95410
23.60518	97908
23.61332	105671
23.62143	95680
23.62955	94597
23.63768	94799
23.64580	92916
23.65393	88771
23.66205	91281
23.67017	82786
23.67830	96036
23.68642	98105
23.69455	100662
23.70267	102693
23.71078	102171
23.71892	97964
23.72703	99647
23.73515	93344
23.74328	93611
23.75140	109793
23.75953	190362
23.76765	435391
23.77577	994637
23.78390	2043310
23.79202	3504678
23.80015	4932778
23.80827	5714155
23.81638	5668892
23.82452	4745068
23.83263	3657683
23.84077	2582595
23.84888	1798776
23.85700	1329920
23.86513	963154
23.87325	746033
23.88137	603349
23.88950	519220
23.89762	458625
23.90575	429962
23.91387	379109
23.92198	347359
23.93012	331018
23.93823	326051
23.94637	309060
23.95448	290218
23.96260	275633
23.97073	265024
23.97885	248280
23.98697	228006
23.99510	230087
24.00322	219993
24.01135	212566
24.01947	208659
24.02758	199366
24.03572	199329
24.04383	197979
24.05197	186725
24.06008	184822
24.06820	181341
24.07633	167326
24.08445	169069
24.09258	168477
24.10070	162295
24.10882	159031
24.11695	151424
24.12507	153200
24.13318	156182
24.14132	165845
24.14943	180590
24.15757	204806
24.16568	237658
24.17380	259700
24.18193	262252
24.19005	251128
24.19818	236788
24.20630	204183
24.21442	204257
24.22255	199946
24.23067	210993
24.23878	236830
24.24692	271325
24.25503	293427
24.26317	276444
24.27128	259423
24.27940	221632
24.28753	192767
24.29565	164396
24.30378	154970
24.31190	145076
24.32002	136620
24.32815	136609
24.33627	135525
24.34440	135483
24.35252	132144
24.36063	125951
24.36877	132958
24.37688	121722
24.38500	122354
24.39313	129321
24.40125	144203
24.40938	165592
24.41750	210157
24.42562	272637
24.43375	297766
24.44187	309677
24.45000	283908
24.45812	223977
24.46623	186593
24.47437	153090
24.48248	135233
24.49062	135015
24.49873	132087
24.50685	141095
24.51498	152177
24.52310	183772
24.53122	227170
24.53935	261522
24.54747	296862
24.55560	318657
24.56372	293633
24.57183	262872
24.57997	237766
24.58808	214410
24.59622	198597
24.60433	172635
24.61245	177754
24.62058	169911
24.62870	166936
24.63682	163204
24.64495	155722
24.65307	152958
24.66120	151207
24.66932	155149
24.67743	155631
24.68557	167139
24.69368	166021
24.70182	160218
24.70993	144948
24.71805	134840
24.72618	126744
24.73430	123779
24.74243	115191
24.75055	108172
24.75867	114243
24.76680	112554
24.77492	114699
24.78303	108906
24.79117	107662
24.79928	109512
24.80742	111723
24.81553	107022
24.82365	103672
24.83178	109574
24.83990	107608
24.84803	111123
24.85615	123763
24.86427	136725
24.87240	144119
24.88052	163361
24.88865	177239
24.89677	202375
24.90488	205029
24.91302	214234
24.92113	219429
24.92925	204565
24.93738	187116
24.94550	168847
24.95363	144499
24.96175	128445
24.96987	117631
24.97800	110346
24.98612	101388
24.99425	99808
25.00237	97534
25.01048	97863
25.01862	94954
25.02673	94542
25.03485	100872
25.04298	97753
25.05110	92139
25.05923	91177
25.06735	95749
25.07547	99208
25.08360	96195
25.09172	99428
25.09985	97929
25.10797	98942
25.11608	110502
25.12422	149737
25.13233	248758
25.14047	436242
25.14858	775469
25.15670	1240278
25.16483	1710874
25.17295	1987978
25.18107	2019149
25.18920	1758528
25.19732	1405151
25.20545	1037603
25.21357	695154
25.22168	442272
25.22982	304570
25.23793	221086
25.24607	174366
25.25418	151155
25.26230	141484
25.27043	138035
25.27855	137518
25.28668	137981
25.29480	129397
25.30292	136041
25.31105	137620
25.31917	138174
25.32728	132519
25.33542	139088
25.34353	139836
25.35167	134596
25.35978	127946
25.36790	118809
25.37603	115591
25.38415	105575
25.39228	99126
25.40040	102787
25.40852	101089
25.41665	99552
25.42477	94383
25.43288	96164
25.44102	96092
25.44913	97223
25.45727	92907
25.46538	96055
25.47350	99953
25.48163	107124
25.48975	115858
25.49788	145581
25.50600	152384
25.51412	165712
25.52225	167912
25.53037	160487
25.53850	152417
25.54662	134961
25.55473	125745
25.56287	119144
25.57098	113821
25.57910	111597
25.58723	107244
25.59535	104917
25.60348	109444
25.61160	101159
25.61972	100420
25.62785	98522
25.63597	93456
25.64410	89352
25.65222	94299
25.66033	90251
25.66847	91361
25.67658	89364
25.68472	87693
25.69283	88023
25.70095	90684
25.70908	90903
25.71720	95550
25.72532	105194
25.73345	100218
25.74157	106524
25.74970	103332
25.75782	101089
25.76593	97257
25.77407	96682
25.78218	90061
25.79032	97028
25.79843	93063
25.80655	89508
25.81468	94196
25.82280	91326
25.83092	94660
25.83905	98062
25.84717	95841
25.85530	94946
25.86342	94216
25.87153	90147
25.87967	95138
25.88778	89899
25.89592	88089
25.90403	90396
25.91215	86171
25.92028	85742
25.92840	86563
25.93653	91369
25.94465	93925
25.95277	91419
25.96090	88497
25.96902	92231
25.97713	95155
25.98527	95737
25.99338	91404
26.00152	91213
26.00963	94061
26.01775	86644
26.02588	83322
26.03400	85285
26.04213	83156
26.05025	83625
26.05837	78818
26.06650	86611
26.07462	90109
26.08273	90932
26.09087	93987
26.09898	101190
26.10712	109954
26.11523	113212
26.12335	115513
26.13148	116129
26.13960	121080
26.14773	125352
26.15585	130849
26.16397	136800
26.17210	135871
26.18022	136004
26.18835	127196
26.19647	122030
26.20458	116143
26.21272	112004
26.22083	100428
26.22895	99695
26.23708	93579
26.24520	90975
26.25333	94634
26.26145	93998
26.26957	93753
26.27770	91950
26.28582	95817
26.29395	102133
26.30207	103669
26.31018	103923
26.31832	106340
26.32643	99176
26.33457	99978
26.34268	96792
26.35080	92484
26.35893	95611
26.36705	98466
26.37517	102329
26.38330	120618
26.39142	143509
26.39955	184136
26.40767	225814
26.41578	276505
26.42392	308571
26.43203	310941
26.44017	299877
26.44828	269172
26.45640	227755
26.46453	185681
26.47265	155253
26.48077	135608
26.48890	116670
26.49702	105373
26.50515	104135
26.51327	100803
26.52138	95791
26.52952	90498
26.53763	83262
26.54577	84869
26.55388	84265
26.56200	85633
26.57013	80993
26.57825	85858
26.58638	78934
26.59450	83524
26.60262	92811
26.61075	89584
26.61887	87383
26.62698	88735
26.63512	85122
26.64323	83782
26.65137	84651
26.65948	88687
26.66760	81649
26.67573	90508
26.68385	90459
26.69198	90038
26.70010	92737
26.70822	93184
26.71635	81266
26.72447	86633
26.73260	87392
26.74072	82803
26.74883	88951
26.75697	86091
26.76508	82856
26.77320	92968
26.78133	90402
26.78945	91705
26.79758	94031
26.80570	86023
26.81382	90237
26.82195	92547
26.83007	92598
26.83820	94100
26.84632	93204
26.85443	93490
26.86257	96851
26.87068	101452
26.87880	99618
26.88693	110903
26.89505	111579
26.90318	115311
26.91130	113929
26.91942	111662
26.92755	107046
26.93567	102453
26.94380	99867
26.95192	101790
26.96003	108570
26.96817	150397
26.97628	281185
26.98442	646336
26.99253	1428917
27.00065	3096984
27.00878	5618981
27.01690	8125727
27.02502	9790999
27.03315	9955905
27.04127	9123231
27.04940	7464423
27.05752	5523996
27.06563	3949071
27.07377	2777193
27.08188	1993967
27.09002	1522001
27.09813	1181344
27.10625	990019
27.11438	847305
27.12250	728930
27.13062	652566
27.13875	606845
27.14687	575909
27.15500	516199
27.16312	491971
27.17123	454405
27.17937	437369
27.18748	434944
27.19562	425590
27.20373	408681
27.21185	416911
27.21998	414883
27.22810	404624
27.23623	400922
27.24435	387593
27.25247	348913
27.26060	329904
27.26872	311752
27.27683	296276
27.28497	282634
27.29308	268067
27.30122	263944
27.30933	252459
27.31745	243671
27.32558	237416
27.33370	242358
27.34183	233907
27.34995	231994
27.35807	233586
27.36620	232828
27.37432	221959
27.38245	228457
27.39057	227371
27.39868	212881
27.40682	212723
27.41493	207855
27.42305	199382
27.43118	199023
27.43930	192180
27.44743	195556
27.45555	198033
27.46367	194837
27.47180	199236
27.47992	201430
27.48805	191506
27.49617	188319
27.50428	173548
27.51242	181634
27.52053	180187
27.52865	178266
27.53678	176572
27.54490	179126
27.55303	185226
27.56115	190462
27.56927	195018
27.57740	202849
27.58552	194529
27.59365	188387
27.60177	184618
27.60988	180054
27.61802	182976
27.62613	191643
27.63427	195199
27.64238	196787
27.65050	207582
27.65863	206349
27.66675	193693
27.67487	176525
27.68300	189120
27.69112	178419
27.69925	177709
27.70737	174020
27.71548	169225
27.72362	176714
27.73173	171957
27.73987	170175
27.74798	167480
27.75610	169469
27.76423	163325
27.77235	165824
27.78048	158067
27.78860	166175
27.79672	167743
27.80485	164316
27.81297	162171
27.82108	160076
27.82922	157901
27.83733	160320
27.84547	163436
27.85358	152419
27.86170	164759
27.86983	157563
27.87795	154994
27.88608	150727
27.89420	150778
27.90232	149888
27.91045	148162
27.91857	146240
27.92668	148356
27.93482	142660
27.94293	141675
27.95107	141001
27.95918	138450
27.96730	144374
27.97543	143674
27.98355	135756
27.99168	137125
27.99980	138033
28.00792	144111
28.01605	141730
28.02417	146873
28.03230	137610
28.04042	146142
28.04853	149858
28.05667	162022
28.06478	178839
28.07290	175645
28.08103	183533
28.08915	179676
28.09728	169400
28.10540	167259
28.11352	151892
28.12165	143469
28.12977	137101
28.13790	135952
28.14602	127488
28.15413	124043
28.16227	127727
28.17038	123988
28.17852	125593
28.18663	123473
28.19475	127089
28.20288	121004
28.21100	130268
28.21912	146017
28.22725	149735
28.23537	175481
28.24350	193517
28.25162	198357
28.25973	204229
28.26787	173004
28.27598	165097
28.28412	159219
28.29223	159004
28.30035	178961
28.30848	230638
28.31660	333361
28.32472	564897
28.33285	896155
28.34097	1336307
28.34910	1811450
28.35722	2331572
28.36533	2763982
28.37347	3111270
28.38158	3226549
28.38972	3157411
28.39783	2935753
28.40595	2627764
28.41408	2347344
28.42220	2005956
28.43033	1681998
28.43845	1402610
28.44657	1218854
28.45470	1028028
28.46282	876962
28.47093	768378
28.47907	671073
28.48718	608691
28.49532	537613
28.50343	497383
28.51155	460387
28.51968	428934
28.52780	393397
28.53593	382460
28.54405	352732
28.55217	338644
28.56030	330892
28.56842	312068
28.57653	304619
28.58467	287059
28.59278	292418
28.60092	291916
28.60903	267410
28.61715	259682
28.62528	252232
28.63340	244577
28.64153	253593
28.64965	244607
28.65777	255686
28.66590	262274
28.67402	259236
28.68215	272102
28.69027	258728
28.69838	257132
28.70652	240758
28.71463	227776
28.72275	215855
28.73088	210223
28.73900	220236
28.74713	200540
28.75525	200720
28.76337	205738
28.77150	206763
28.77962	217176
28.78775	232141
28.79587	247712
28.80398	266724
28.81212	291361
28.82023	286412
28.82837	264980
28.83648	240039
28.84460	228768
28.85273	195540
28.86085	184506
28.86897	186797
28.87710	187463
28.88522	188313
28.89335	195700
28.90147	195406
28.90958	202748
28.91772	203603
28.92583	207303
28.93397	212329
28.94208	204893
28.95020	208629
28.95833	185414
28.96645	191503
28.97457	181675
28.98270	190770
28.99082	185784
28.99895	181374
29.00707	182843
29.01518	172813
29.02332	172994
29.03143	173347
29.03957	171277
29.04768	166162
29.05580	163700
29.06393	166918
29.07205	170251
29.08018	161336
29.08830	163147
29.09642	167664
29.10455	159130
29.11267	172304
29.12078	164261
29.12892	161066
29.13703	169466
29.14517	160543
29.15328	167323
29.16140	159131
29.16953	159329
29.17765	168226
29.18578	160401
29.19390	165305
29.20202	159614
29.21015	172564
29.21827	172503
29.22640	184190
29.23452	202948
29.24263	206643
29.25077	206862
29.25888	188768
29.26700	196804
29.27513	182678
29.28325	180420
29.29138	172072
29.29950	173348
29.30762	164472
29.31575	157647
29.32387	155049
29.33200	155159
29.34012	150795
29.34823	155568
29.35637	155802
29.36448	158598
29.37260	146354
29.38073	155915
29.38885	160860
29.39698	152997
29.40510	149114
29.41322	150914
29.42135	150367
29.42947	157205
29.43760	155565
29.44572	152790
29.45383	152538
29.46197	154369
29.47008	153195
29.47822	148176
29.48633	145422
29.49445	148027
29.50258	153667
29.51070	160703
29.51882	178948
29.52695	183484
29.53507	184156
29.54320	176313
29.55132	173577
29.55943	159953
29.56757	155591
29.57568	144307
29.58382	141394
29.59193	138743
29.60005	141282
29.60818	134467
29.61630	133042
29.62442	133104
29.63255	135134
29.64067	133735
29.64880	138214
29.65692	133365
29.66503	126806
29.67317	137272
29.68128	133154
29.68942	133693
29.69753	137093
29.70565	134579
29.71378	143373
29.72190	140671
29.73003	144309
29.73815	137570
29.74627	136306
29.75440	130932
29.76252	132711
29.77063	130023
29.77877	124588
29.78688	125740
29.79502	125141
29.80313	126705
29.81125	128603
29.81938	125861
29.82750	125469
29.83563	122711
29.84375	121187
29.85187	123241
29.86000	121492
29.86812	126315
29.87625	126566
29.88437	127448
29.89248	129290
29.90062	140621
29.90873	152783
29.91685	167565
29.92498	172572
29.93310	183181
29.94123	177644
29.94935	187815
29.95747	211482
29.96560	251954
29.97372	319608
29.98185	429839
29.98997	558903
29.99808	715663
30.00622	893580
30.01433	1065348
30.02247	1179804
30.03058	1282852
30.03870	1427283
30.04683	1493669
30.05495	1479860
30.06307	1460093
30.07120	1364292
30.07932	1304552
30.08745	1202674
30.09557	1085590
30.10368	969866
30.11182	919195
30.11993	822305
30.12807	727858
30.13618	633930
30.14430	582490
30.15243	531879
30.16055	496832
30.16867	450014
30.17680	419763
30.18492	389420
30.19305	372325
30.20117	349521
30.20928	330881
30.21742	302702
30.22553	285870
30.23367	278798
30.24178	273044
30.24990	259485
30.25803	256053
30.26615	235882
30.27428	223672
30.28240	218495
30.29052	205951
30.29865	207675
30.30677	204052
30.31488	194658
30.32302	199961
30.33113	192572
30.33927	190328
30.34738	188073
30.35550	182356
30.36363	183216
30.37175	190091
30.37988	185007
30.38800	178459
30.39612	173051
30.40425	175280
30.41237	176356
30.42048	166596
30.42862	167705
30.43673	167759
30.44487	157401
30.45298	156704
30.46110	166691
30.46923	159037
30.47735	153552
30.48548	153884
30.49360	157031
30.50172	156729
30.50985	159747
30.51797	153073
30.52610	152268
30.53422	151880
30.54233	155346
30.55047	151455
30.55858	155767
30.56670	152644
30.57483	146181
30.58295	149373
30.59108	147453
30.59920	155430
30.60732	145974
30.61545	151385
30.62357	152398
30.63170	153594
30.63982	145035
30.64793	140504
30.65607	146282
30.66418	143196
30.67232	141247
30.68043	146505
30.68855	139853
30.69668	135681
30.70480	138703
30.71292	141134
30.72105	144623
30.72917	145784
30.73730	139571
30.74542	139094
30.75353	141417
30.76167	141601
30.76978	142290
30.77792	144014
30.78603	141876
30.79415	147356
30.80228	161967
30.81040	180709
30.81852	215064
30.82665	245828
30.83477	252327
30.84290	243024
30.85102	226883
30.85913	205145
30.86727	174957
30.87538	161582
30.88352	151046
30.89163	144308
30.89975	144567
30.90788	141581
30.91600	139724
30.92413	132912
30.93225	137361
30.94037	133563
30.94850	133039
30.95662	136046
30.96473	139717
30.97287	137298
30.98098	134939
30.98912	140512
30.99723	141114
31.00535	142664
31.01348	138391
31.02160	137930
31.02973	135912
31.03785	146385
31.04597	149594
31.05410	145244
31.06222	141688
31.07035	140587
31.07847	139098
31.08658	136377
31.09472	149908
31.10283	156502
31.11095	170411
31.11908	179005
31.12720	194590
31.13533	191666
31.14345	187471
31.15157	172949
31.15970	166797
31.16782	158992
31.17595	152947
31.18407	156703
31.19218	157703
31.20032	165481
31.20843	169707
31.21655	179368
31.22468	206095
31.23280	218334
31.24093	220895
31.24905	225232
31.25717	206488
31.26530	191886
31.27342	177234
31.28155	155817
31.28967	153810
31.29778	148200
31.30592	144482
31.31403	142888
31.32217	144583
31.33028	142798
31.33840	141776
31.34653	144321
31.35465	139489
31.36277	137195
31.37090	135279
31.37902	138857
31.38715	133802
31.39527	134292
31.40338	129261
31.41152	128757
31.41963	127599
31.42777	130528
31.43588	126631
31.44400	139331
31.45213	139426
31.46025	151661
31.46837	153349
31.47650	146288
31.48462	146088
31.49275	141584
31.50087	137305
31.50898	136414
31.51712	140933
31.52523	143885
31.53337	137549
31.54148	138416
31.54960	133192
31.55773	144102
31.56585	132504
31.57398	138340
31.58210	134703
31.59022	135911
31.59835	137833
31.60647	132338
31.61458	133347
31.62272	132236
31.63083	130541
31.63897	138018
31.64708	128785
31.65520	138137
31.66333	138866
31.67145	148153
31.67958	143545
31.68770	150615
31.69582	145988
31.70395	155827
31.71207	138536
31.72020	144370
31.72832	131159
31.73643	132822
31.74457	125793
31.75268	125709
31.76080	124700
31.76893	126683
31.77705	118060
31.78518	123306
31.79330	122761
31.80142	127317
31.80955	131692
31.81767	134121
31.82580	135645
31.83392	134736
31.84203	140779
31.85017	131040
31.85828	137295
31.86640	126711
31.87453	136856
31.88265	130239
31.89078	138039
31.89890	144367
31.90702	147710
31.91515	163950
31.92327	192909
31.93140	244279
31.93952	311423
31.94763	405015
31.95577	500834
31.96388	613177
31.97202	700968
31.98013	801122
31.98825	886007
31.99638	887027
32.00450	899072
32.01262	865802
32.02075	815799
32.02887	764484
32.03700	707605
32.04512	634618
32.05323	553681
32.06137	505773
32.06948	453308
32.07762	404434
32.08573	370399
32.09385	350358
32.10198	334750
32.11010	333873
32.11823	322441
32.12635	309156
32.13447	291879
32.14260	274382
32.15072	249575
32.15883	240741
32.16697	217550
32.17508	211192
32.18322	193151
32.19133	183352
32.19945	189444
32.20758	184097
32.21570	186441
32.22383	176432
32.23195	172895
32.24007	178528
32.24820	173209
32.25632	164429
32.26443	166631
32.27257	165861
32.28068	162305
32.28882	164947
32.29693	164267
32.30505	152337
32.31318	159981
32.32130	157102
32.32943	159729
32.33755	157297
32.34567	152986
32.35380	156913
32.36192	166873
32.37005	160324
32.37817	164077
32.38628	159740
32.39442	158333
32.40253	160316
32.41065	156521
32.41878	162778
32.42690	146731
32.43503	151083
32.44315	155230
32.45127	149044
32.45940	148127
32.46752	144592
32.47565	149465
32.48377	148863
32.49188	146460
32.50002	146180
32.50813	143606
32.51627	142838
32.52438	139790
32.53250	144394
32.54063	140433
32.54875	141290
32.55687	145224
32.56500	131655
32.57312	139714
32.58125	144827
32.58937	144145
32.59748	140317
32.60562	139128
32.61373	146790
32.62187	139207
32.62998	135901
32.63810	146264
32.64623	138200
32.65435	144054
32.66247	143177
32.67060	155635
32.67872	153257
32.68685	172601
32.69497	191998
32.70308	200148
32.71122	219994
32.71933	211769
32.72747	204395
32.73558	189489
32.74370	176928
32.75183	177955
32.75995	166551
32.76808	162436
32.77620	156361
32.78432	153498
32.79245	146012
32.80057	140926
32.80868	148201
32.81682	142317
32.82493	144964
32.83307	140472
32.84118	140483
32.84930	151162
32.85743	146413
32.86555	145689
32.87368	148883
32.88180	142525
32.88992	150427
32.89805	148778
32.90617	147073
32.91428	151958
32.92242	165031
32.93053	156156
32.93867	156199
32.94678	157761
32.95490	149389
32.96303	152824
32.97115	143967
32.97928	148145
32.98740	150586
32.99552	160918
33.00365	171650
33.01177	175428
33.01990	193908
33.02802	198864
33.03613	196791
33.04427	183377
33.05238	171828
33.06050	165941
33.06863	149338
33.07675	147158
33.08488	145928
33.09300	157034
33.10112	162209
33.10925	165339
33.11737	179644
33.12550	194217
33.13362	204736
33.14173	202689
33.14987	194279
33.15798	178104
33.16612	173858
33.17423	162970
33.18235	155906
33.19048	149206
33.19860	149790
33.20672	149578
33.21485	142837
33.22297	155585
33.23110	152481
33.23922	166415
33.24733	161987
33.25547	175818
33.26358	171884
33.27172	164092
33.27983	152698
33.28795	152302
33.29608	150533
33.30420	152604
33.31232	144252
33.32045	158115
33.32857	150150
33.33670	149304
33.34482	151808
33.35293	141299
33.36107	148137
33.36918	152508
33.37732	153354
33.38543	148396
33.39355	146062
33.40168	146550
33.40980	137247
33.41793	145488
33.42605	142755
33.43417	146819
33.44230	140870
33.45042	142889
33.45853	138604
33.46667	137156
33.47478	148889
33.48292	137056
33.49103	145786
33.49915	144937
33.50728	146292
33.51540	147988
33.52353	153542
33.53165	157271
33.53977	157201
33.54790	160874
33.55602	168785
33.56415	162462
33.57227	159094
33.58038	166804
33.58852	165080
33.59663	165098
33.60475	152195
33.61288	148127
33.62100	153232
33.62913	146283
33.63725	142314
33.64537	143295
33.65350	147358
33.66162	145452
33.66975	150330
33.67787	144942
33.68598	148592
33.69412	147991
33.70223	145173
33.71035	143597
33.71848	144540
33.72660	148121
33.73473	132879
33.74285	140949
33.75097	140682
33.75910	141646
33.76722	141279
33.77535	143249
33.78347	139461
33.79158	140482
33.79972	147246
33.80783	141804
33.81597	135202
33.82408	138410
33.83220	141190
33.84033	134190
33.84845	140719
33.85657	139717
33.86470	151163
33.87282	154398
33.88095	149322
33.88907	157759
33.89718	159625
33.90532	159329
33.91343	160196
33.92157	148431
33.92968	149217
33.93780	151922
33.94593	147122
33.95405	144425
33.96217	146542
33.97030	151058
33.97842	150640
33.98655	150384
33.99467	155566
34.00278	150989
34.01092	152465
34.01903	152876
34.02717	146308
34.03528	147553
34.04340	146930
34.05153	146914
34.05965	146703
34.06778	140566
34.07590	139683
34.08402	146815
34.09215	144714
34.10027	149731
34.10838	147162
34.11652	137606
34.12463	143744
34.13277	148143
34.14088	144101
34.14900	135118
34.15713	144345
34.16525	141724
34.17338	148168
34.18150	144376
34.18962	140854
34.19775	144702
34.20587	151253
34.21400	144963
34.22212	143081
34.23023	148609
34.23837	149341
34.24648	147394
34.25460	141117
34.26273	138090
34.27085	143764
34.27898	147870
34.28710	143090
34.29522	144056
34.30335	145250
34.31147	141012
34.31960	142414
34.32772	144569
34.33583	149054
34.34397	144673
34.35208	148589
34.36020	150931
34.36833	147799
34.37645	148287
34.38458	145798
34.39270	144953
34.40082	157299
34.40895	145269
34.41707	140958
34.42520	147872
34.43332	147947
34.44143	146049
34.44957	144949
34.45768	140479
34.46582	143604
34.47393	145924
34.48205	138891
34.49018	145768
34.49830	150884
34.50642	148133
34.51455	150740
34.52267	151526
34.53080	170824
34.53892	202055
34.54703	249457
34.55517	320936
34.56328	427650
34.57142	551437
34.57953	649042
34.58765	714662
34.59578	749962
34.60390	722683
34.61203	653541
34.62015	560919
34.62827	474897
34.63640	410984
34.64452	353748
34.65263	326882
34.66077	298197
34.66888	279350
34.67702	269349
34.68513	247375
34.69325	243939
34.70138	226550
34.70950	235155
34.71763	217367
34.72575	220825
34.73387	210090
34.74200	208273
34.75012	211455
34.75823	205484
34.76637	209113
34.77448	201871
34.78262	211758
34.79073	203577
34.79885	201234
34.80698	202285
34.81510	194386
34.82323	193326
34.83135	186536
34.83947	189606
34.84760	190344
34.85572	189103
34.86385	181520
34.87197	187237
34.88008	183213
34.88822	177461
34.89633	184850
34.90445	174052
34.91258	176277
34.92070	182188
34.92883	186694
34.93695	186558
34.94507	177410
34.95320	185936
34.96132	185361
34.96945	188618
34.97757	192849
34.98568	191192
34.99382	203004
35.00193	192249
35.01005	191735
35.01818	199138
35.02630	182755
35.03443	179929
35.04255	180997
35.05067	184897
35.05880	169302
35.06692	181598
35.07505	179815
35.08317	172692
35.09128	172664
35.09942	178258
35.10753	179053
35.11567	178372
35.12378	173635
35.13190	183510
35.14003	184280
35.14815	190407
35.15627	190520
35.16440	205736
35.17252	204268
35.18065	212926
35.18877	219776
35.19688	213459
35.20502	210187
35.21313	199702
35.22127	197491
35.22938	186139
35.23750	179703
35.24563	179814
35.25375	190343
35.26188	185849
35.27000	183419
35.27812	190155
35.28625	185115
35.29437	183401
35.30248	180189
35.31062	181933
35.31873	179437
35.32687	184908
35.33498	170242
35.34310	177609
35.35123	176021
35.35935	173595
35.36748	174806
35.37560	170237
35.38372	170186
35.39185	178919
35.39997	178544
35.40810	177307
35.41622	176340
35.42433	183759
35.43247	182726
35.44058	185441
35.44870	191924
35.45683	187754
35.46495	186925
35.47308	196945
35.48120	192404
35.48932	193020
35.49745	191079
35.50557	193721
35.51370	188374
35.52182	183958
35.52993	184064
35.53807	196251
35.54618	180347
35.55430	181902
35.56243	187426
35.57055	174333
35.57868	187164
35.58680	180702
35.59492	183710
35.60305	182170
35.61117	183739
35.61930	186757
35.62742	179504
35.63553	186240
35.64367	188652
35.65178	182262
35.65992	180790
35.66803	182865
35.67615	189065
35.68428	180992
35.69240	187987
35.70052	201238
35.70865	204627
35.71677	215701
35.72490	216294
35.73302	226179
35.74113	220379
35.74927	217343
35.75738	210841
35.76552	219026
35.77363	212036
35.78175	226322
35.78988	230326
35.79800	239310
35.80612	223095
35.81425	214139
35.82237	202185
35.83050	205959
35.83862	190163
35.84673	194571
35.85487	196640
35.86298	201386
35.87112	194916
35.87923	195894
35.88735	190754
35.89548	193665
35.90360	187116
35.91173	194412
35.91985	192366
35.92797	189204
35.93610	181014
35.94422	192053
35.95233	190160
35.96047	185237
35.96858	182072
35.97672	182757
35.98483	183823
35.99295	185696
36.00108	186308
36.00920	187805
36.01733	188578
36.02545	187017
36.03357	202572
36.04170	201086
36.04982	207352
36.05795	207735
36.06607	199000
36.07418	199796
36.08232	206200
36.09043	193817
36.09855	194691
36.10668	190374
36.11480	195059
36.12293	202054
36.13105	193962
36.13917	189739
36.14730	199977
36.15542	207636
36.16355	203512
36.17167	206744
36.17978	202412
36.18792	210688
36.19603	214034
36.20415	211916
36.21228	199061
36.22040	206434
36.22853	194604
36.23665	192574
36.24477	192998
36.25290	197293
36.26102	194971
36.26915	198107
36.27727	191215
36.28538	190962
36.29352	193358
36.30163	195275
36.30977	199184
36.31788	200270
36.32600	212921
36.33413	223869
36.34225	242144
36.35037	254841
36.35850	265945
36.36662	269687
36.37475	259058
36.38287	261034
36.39098	248033
36.39912	241697
36.40723	253122
36.41537	248197
36.42348	258981
36.43160	241662
36.43973	238950
36.44785	226088
36.45598	219391
36.46410	218291
36.47222	212185
36.48035	199432
36.48847	206431
36.49658	209270
36.50472	195544
36.51283	194599
36.52097	191507
36.52908	189545
36.53720	191750
36.54533	199768
36.55345	197057
36.56158	199456
36.56970	201669
36.57782	189617
36.58595	202049
36.59407	202796
36.60218	191800
36.61032	203771
36.61843	194432
36.62657	194073
36.63468	203257
36.64280	202908
36.65093	196484
36.65905	199485
36.66718	198334
36.67530	200024
36.68342	210052
36.69155	210437
36.69967	215886
36.70780	215893
36.71592	210617
36.72403	220842
36.73217	227134
36.74028	224020
36.74840	218024
36.75653	221180
36.76465	222004
36.77278	211003
36.78090	216232
36.78902	217162
36.79715	209085
36.80527	204174
36.81340	203436
36.82152	212792
36.82963	204380
36.83777	209324
36.84588	205448
36.85400	209770
36.86213	209863
36.87025	205309
36.87838	199612
36.88650	200722
36.89462	206937
36.90275	206761
36.91087	209415
36.91900	198901
36.92712	205243
36.93523	201221
36.94337	205231
36.95148	224012
36.95962	209114
36.96773	217366
36.97585	220683
36.98398	229863
36.99210	230332
37.00022	226127
37.00835	231463
37.01647	218286
37.02460	218181
37.03272	214589
37.04083	209028
37.04897	210847
37.05708	207472
37.06522	214095
37.07333	220087
37.08145	225996
37.08958	230891
37.09770	226488
37.10583	224021
37.11395	236535
37.12207	230531
37.13020	223148
37.13832	232804
37.14643	224648
37.15457	214612
37.16268	222463
37.17082	223668
37.17893	218514
37.18705	214852
37.19518	209509
37.20330	209498
37.21143	222254
37.21955	227265
37.22767	220472
37.23580	215231
37.24392	232698
37.25203	231427
37.26017	234679
37.26828	225348
37.27642	233857
37.28453	244182
37.29265	227364
37.30078	230481
37.30890	225266
37.31703	221197
37.32515	217597
37.33327	219538
37.34140	236502
37.34952	240389
37.35765	269019
37.36577	309209
37.37388	379824
37.38202	451514
37.39013	528934
37.39825	574745
37.40638	584127
37.41450	551999
37.42263	512343
37.43075	466213
37.43887	414346
37.44700	386577
37.45512	361462
37.46325	335828
37.47137	330159
37.47948	315130
37.48762	322752
