Z:\data\JTB-E02\BACandBLUE\JTB-E02-198-07.D Fri Feb 22 10:35:09 2019
Start of data points
2.09525,70496
2.10338,74576
2.11150,69555
2.11962,68888
2.12775,70301
2.13587,64291
2.14400,68097
2.15212,66590
2.16023,66016
2.16837,60564
2.17648,66397
2.18462,67622
2.19273,58771
2.20085,58692
2.20898,57309
2.21710,56962
2.22522,53688
2.23335,59154
2.24147,57942
2.24960,63607
2.25772,173742
2.26583,1123476
2.27397,2123927
2.28208,1825815
2.29022,1060098
2.29833,722140
2.30645,557103
2.31458,558183
2.32270,484184
2.33082,436365
2.33895,356924
2.34707,309199
2.35520,267678
2.36332,244950
2.37143,253444
2.37957,263823
2.38768,239788
2.39582,221199
2.40393,229698
2.41205,237323
2.42018,250338
2.42830,212182
2.43643,203836
2.44455,187719
2.45267,171095
2.46080,152217
2.46892,148515
2.47703,145268
2.48517,141713
2.49328,144586
2.50142,133190
2.50953,139177
2.51765,145827
2.52578,130671
2.53390,141596
2.54203,151544
2.55015,157113
2.55827,151048
2.56640,145842
2.57452,123963
2.58265,124517
2.59077,115969
2.59888,121259
2.60702,127207
2.61513,133876
2.62325,125849
2.63138,122178
2.63950,112602
2.64763,114148
2.65575,116666
2.66387,111081
2.67200,113943
2.68012,106794
2.68825,107443
2.69637,114618
2.70448,108157
2.71262,109495
2.72073,100055
2.72885,100701
2.73698,97336
2.74510,100891
2.75323,98516
2.76135,94961
2.76947,98433
2.77760,92781
2.78572,103225
2.79385,102181
2.80197,112839
2.81008,106859
2.81822,106939
2.82633,105337
2.83447,101629
2.84258,100231
2.85070,100912
2.85883,109494
2.86695,105255
2.87507,105082
2.88320,99750
2.89132,105681
2.89945,100255
2.90757,89843
2.91568,98815
2.92382,91244
2.93193,89316
2.94007,87098
2.94818,90834
2.95630,86834
2.96443,88735
2.97255,92810
2.98068,89391
2.98880,92025
2.99692,100256
3.00505,111370
3.01317,109055
3.02128,94645
3.02942,93436
3.03753,90571
3.04567,84199
3.05378,86038
3.06190,85240
3.07003,85938
3.07815,87745
3.08628,96363
3.09440,98590
3.10252,110699
3.11065,118161
3.11877,130860
3.12688,132313
3.13502,123019
3.14313,112606
3.15127,107486
3.15938,99907
3.16750,92702
3.17563,92283
3.18375,90564
3.19188,93462
3.20000,83526
3.20812,88882
3.21625,81034
3.22437,84349
3.23250,81747
3.24062,78285
3.24873,81784
3.25687,78417
3.26498,79446
3.27310,86124
3.28123,109066
3.28935,298549
3.29748,1146793
3.30560,3012389
3.31372,5078852
3.32185,5591880
3.32997,4737119
3.33810,3529272
3.34622,2676457
3.35433,2051785
3.36247,1699338
3.37058,1425172
3.37870,1235149
3.38683,1074601
3.39495,975122
3.40308,876030
3.41120,792704
3.41932,712881
3.42745,655999
3.43557,610214
3.44370,579760
3.45182,541916
3.45993,512696
3.46807,492114
3.47618,469731
3.48432,455116
3.49243,443101
3.50055,436957
3.50868,406414
3.51680,393616
3.52492,393732
3.53305,381230
3.54117,351962
3.54930,353234
3.55742,338635
3.56553,327468
3.57367,318736
3.58178,309518
3.58992,301878
3.59803,291797
3.60615,291588
3.61428,285321
3.62240,291966
3.63053,275582
3.63865,273201
3.64677,261905
3.65490,254848
3.66302,258000
3.67113,261808
3.67927,261206
3.68738,265080
3.69552,256998
3.70363,261194
3.71175,250464
3.71988,248389
3.72800,239348
3.73613,232246
3.74425,233338
3.75237,231848
3.76050,221913
3.76862,214908
3.77673,221115
3.78487,222645
3.79298,234526
3.80112,243688
3.80923,220699
3.81735,216603
3.82548,217782
3.83360,216079
3.84173,204713
3.84985,197613
3.85797,197030
3.86610,184442
3.87422,188935
3.88235,194995
3.89047,187059
3.89858,182729
3.90672,180575
3.91483,184392
3.92295,184202
3.93108,183941
3.93920,174855
3.94733,175608
3.95545,174290
3.96357,176994
3.97170,174893
3.97982,169039
3.98795,167600
3.99607,173010
4.00418,178508
4.01232,171847
4.02043,172119
4.02857,178611
4.03668,170648
4.04480,176890
4.05293,173304
4.06105,171074
4.06917,163502
4.07730,163317
4.08542,163412
4.09355,157194
4.10167,165592
4.10978,166672
4.11792,168424
4.12603,164832
4.13417,173220
4.14228,174405
4.15040,189939
4.15853,206646
4.16665,205802
4.17477,184819
4.18290,169189
4.19102,164572
4.19915,158892
4.20727,153195
4.21538,153030
4.22352,164895
4.23163,177832
4.23977,178820
4.24788,171753
4.25600,164383
4.26413,146715
4.27225,146509
4.28038,150429
4.28850,140633
4.29662,143073
4.30475,136193
4.31287,142819
4.32098,147395
4.32912,145259
4.33723,156077
4.34537,156545
4.35348,155736
4.36160,146584
4.36973,147285
4.37785,145075
4.38598,151172
4.39410,144386
4.40222,141391
4.41035,142780
4.41847,146127
4.42658,142492
4.43472,136610
4.44283,140293
4.45097,138885
4.45908,140488
4.46720,132515
4.47533,131306
4.48345,136843
4.49158,134387
4.49970,141451
4.50782,144682
4.51595,140631
4.52407,141896
4.53220,138039
4.54032,136468
4.54843,139589
4.55657,137791
4.56468,128797
4.57280,142580
4.58093,132910
4.58905,131040
4.59718,133180
4.60530,134917
4.61342,128655
4.62155,136055
4.62967,129596
4.63780,126645
4.64592,127745
4.65403,129522
4.66217,131563
4.67028,130035
4.67842,131525
4.68653,129141
4.69465,125625
4.70278,126148
4.71090,120718
4.71902,126149
4.72715,126641
4.73527,119783
4.74340,113016
4.75152,117325
4.75963,117265
4.76777,120612
4.77588,117050
4.78402,118052
4.79213,116417
4.80025,117670
4.80838,116928
4.81650,116870
4.82463,121293
4.83275,120271
4.84087,122852
4.84900,124056
4.85712,122051
4.86523,119895
4.87337,133289
4.88148,125522
4.88962,125075
4.89773,127997
4.90585,128292
4.91398,121571
4.92210,116019
4.93023,113339
4.93835,129870
4.94647,194619
4.95460,430255
4.96272,903371
4.97083,1580365
4.97897,2092246
4.98708,2178051
4.99522,1868759
5.00333,1464393
5.01145,1116431
5.01958,921795
5.02770,754635
5.03583,647049
5.04395,573300
5.05207,516767
5.06020,474696
5.06832,439099
5.07645,418777
5.08457,385084
5.09268,375416
5.10082,372497
5.10893,352476
5.11705,328122
5.12518,335424
5.13330,317891
5.14143,308174
5.14955,316539
5.15767,303426
5.16580,301422
5.17392,292039
5.18205,300141
5.19017,312776
5.19828,316303
5.20642,302740
5.21453,286205
5.22265,273224
5.23078,266963
5.23890,247606
5.24703,263717
5.25515,275806
5.26327,267133
5.27140,245771
5.27952,239309
5.28765,226873
5.29577,222152
5.30388,218709
5.31202,215452
5.32013,215788
5.32827,208787
5.33638,212754
5.34450,226852
5.35263,206784
5.36075,215211
5.36887,209404
5.37700,201199
5.38512,208468
5.39325,201463
5.40137,200274
5.40948,192614
5.41762,191387
5.42573,190745
5.43387,188607
5.44198,185755
5.45010,186264
5.45823,179899
5.46635,184975
5.47448,192562
5.48260,188896
5.49072,181267
5.49885,177692
5.50697,181950
5.51508,181201
5.52322,175817
5.53133,178702
5.53947,169865
5.54758,168887
5.55570,168993
5.56383,164653
5.57195,171576
5.58008,168928
5.58820,172340
5.59632,166632
5.60445,175474
5.61257,184008
5.62068,189545
5.62882,195104
5.63693,203624
5.64507,216674
5.65318,203779
5.66130,189792
5.66943,186052
5.67755,180655
5.68568,180650
5.69380,183997
5.70192,201908
5.71005,210009
5.71817,187445
5.72630,176943
5.73442,166060
5.74253,174546
5.75067,160288
5.75878,159485
5.76690,154707
5.77503,154679
5.78315,157484
5.79128,156740
5.79940,154486
5.80752,146815
5.81565,153194
5.82377,146363
5.83190,149758
5.84002,145306
5.84813,146642
5.85627,156833
5.86438,147004
5.87252,143770
5.88063,143453
5.88875,138154
5.89688,144158
5.90500,140366
5.91312,137395
5.92125,119847
5.92937,113010
5.93750,112137
5.94562,108727
5.95373,110316
5.96187,109683
5.96998,116222
5.97812,128707
5.98623,138381
5.99435,146048
6.00248,148001
6.01060,138732
6.01872,124185
6.02685,116546
6.03497,115763
6.04310,110123
6.05122,110071
6.05933,116233
6.06747,109364
6.07558,112834
6.08372,114304
6.09183,111498
6.09995,105279
6.10808,105681
6.11620,110034
6.12433,107197
6.13245,106871
6.14057,113009
6.14870,111134
6.15682,111892
6.16493,113494
6.17307,119871
6.18118,121070
6.18932,125786
6.19743,128958
6.20555,123762
6.21368,124382
6.22180,125116
6.22993,130579
6.23805,135822
6.24617,135118
6.25430,140858
6.26242,150807
6.27053,145241
6.27867,143663
6.28678,152272
6.29492,155975
6.30303,157206
6.31115,157627
6.31928,154891
6.32740,151708
6.33553,156714
6.34365,157645
6.35177,171340
6.35990,156369
6.36802,163392
6.37615,169351
6.38427,173664
6.39238,172523
6.40052,174261
6.40863,185615
6.41675,180414
6.42488,188931
6.43300,191892
6.44113,184858
6.44925,183240
6.45737,200980
6.46550,207460
6.47362,207935
6.48175,204549
6.48987,207449
6.49798,206393
6.50612,212197
6.51423,201889
6.52237,200539
6.53048,201019
6.53860,200967
6.54673,158514
6.55485,150862
6.56297,134511
6.57110,129834
6.57922,131024
6.58735,125038
6.59547,123746
6.60358,122339
6.61172,120516
6.61983,118350
6.62797,112200
6.63608,117313
6.64420,122233
6.65233,112051
6.66045,119827
6.66857,114064
6.67670,123419
6.68482,112823
6.69295,113865
6.70107,109571
6.70918,115757
6.71732,107990
6.72543,113688
6.73357,108574
6.74168,114317
6.74980,111820
6.75793,118603
6.76605,116532
6.77418,115245
6.78230,114801
6.79042,108240
6.79855,104260
6.80667,103685
6.81478,106305
6.82292,100376
6.83103,103891
6.83917,101429
6.84728,105021
6.85540,97649
6.86353,96527
6.87165,95978
6.87978,94978
6.88790,107567
6.89602,110458
6.90415,106767
6.91227,91073
6.92040,78349
6.92852,74826
6.93663,76718
6.94477,68843
6.95288,69637
6.96100,67635
6.96913,67051
6.97725,67202
6.98538,72606
6.99350,63112
7.00162,63017
7.00975,62994
7.01787,66284
7.02600,71284
7.03412,67393
7.04223,69182
7.05037,69516
7.05848,68331
7.06660,69270
7.07473,62341
7.08285,67242
7.09098,65435
7.09910,63513
7.10722,60811
7.11535,62603
7.12347,70374
7.13160,57869
7.13972,67410
7.14783,62086
7.15597,72429
7.16408,62538
7.17222,59420
7.18033,58105
7.18845,64234
7.19658,62427
7.20470,68633
7.21282,82208
7.22095,83998
7.22907,90620
7.23720,90346
7.24532,78924
7.25343,77323
7.26157,67286
7.26968,67304
7.27782,64047
7.28593,60981
7.29405,62789
7.30218,61753
7.31030,61951
7.31843,62069
7.32655,63688
7.33467,60138
7.34280,62957
7.35092,58034
7.35903,62865
7.36717,59220
7.37528,63794
7.38342,60056
7.39153,57728
7.39965,60296
7.40778,60192
7.41590,63201
7.42403,68131
7.43215,63805
7.44027,63184
7.44840,67889
7.45652,70525
7.46463,75536
7.47277,77306
7.48088,71035
7.48902,69099
7.49713,61492
7.50525,63271
7.51338,57623
7.52150,58638
7.52963,57959
7.53775,61974
7.54587,63198
7.55400,60618
7.56212,66824
7.57025,60315
7.57837,61381
7.58648,64677
7.59462,61001
7.60273,57313
7.61085,59060
7.61898,57953
7.62710,55610
7.63523,61278
7.64335,56409
7.65147,60551
7.65960,61592
7.66772,59677
7.67585,64721
7.68397,63793
7.69208,57877
7.70022,63306
7.70833,62023
7.71645,61606
7.72458,59910
7.73270,59103
7.74083,57720
7.74895,59414
7.75707,55065
7.76520,58372
7.77332,54174
7.78145,63999
7.78957,60757
7.79768,69453
7.80582,63433
7.81393,66227
7.82207,57652
7.83018,59301
7.83830,59150
7.84643,59669
7.85455,55204
7.86267,53144
7.87080,56507
7.87892,55961
7.88705,51100
7.89517,49794
7.90328,56085
7.91142,48806
7.91953,54697
7.92767,51119
7.93578,55552
7.94390,54818
7.95203,52088
7.96015,51599
7.96828,54834
7.97640,59144
7.98452,60468
7.99265,65044
8.00077,59861
8.00888,64658
8.01702,61377
8.02513,59111
8.03327,59053
8.04138,52946
8.04950,54290
8.05763,51896
8.06575,52965
8.07388,53804
8.08200,55393
8.09012,56150
8.09825,56444
8.10637,55451
8.11448,54469
8.12262,55984
8.13073,58264
8.13887,53274
8.14698,55500
8.15510,54972
8.16323,61367
8.17135,59560
8.17948,65864
8.18760,69419
8.19572,70879
8.20385,67784
8.21197,66317
8.22010,58703
8.22822,68025
8.23633,60371
8.24447,54880
8.25258,58089
8.26070,58913
8.26883,51848
8.27695,55924
8.28508,54302
8.29320,52205
8.30132,54822
8.30945,59400
8.31757,51193
8.32570,51350
8.33382,57661
8.34193,59157
8.35007,70321
8.35818,82859
8.36632,86548
8.37443,85924
8.38255,75930
8.39068,60884
8.39880,57033
8.40692,56668
8.41505,54857
8.42317,52437
8.43130,58808
8.43942,56740
8.44753,56997
8.45567,59214
8.46378,54692
8.47192,56648
8.48003,55674
8.48815,54072
8.49628,62336
8.50440,57726
8.51252,59693
8.52065,61513
8.52877,63212
8.53690,66977
8.54502,72740
8.55313,67544
8.56127,61770
8.56938,59254
8.57752,60269
8.58563,58642
8.59375,54114
8.60188,57893
8.61000,61413
8.61813,57688
8.62625,54879
8.63437,56343
8.64250,56008
8.65062,56689
8.65873,53367
8.66687,57829
8.67498,59712
8.68312,56200
8.69123,54105
8.69935,57032
8.70748,60395
8.71560,54340
8.72373,51919
8.73185,54206
8.73997,58628
8.74810,54166
8.75622,58534
8.76433,59945
8.77247,66031
8.78058,73204
8.78872,103194
8.79683,162518
8.80495,280427
8.81308,410515
8.82120,514263
8.82933,513803
8.83745,470080
8.84557,400061
8.85370,350284
8.86182,296369
8.86995,260376
8.87807,233385
8.88618,218364
8.89432,198513
8.90243,186418
8.91055,180258
8.91868,170266
8.92680,162948
8.93493,150812
8.94305,152429
8.95117,154532
8.95930,146411
8.96742,142591
8.97555,139769
8.98367,130876
8.99178,142365
8.99992,131381
9.00803,129176
9.01617,126356
9.02428,131044
9.03240,122790
9.04053,119003
9.04865,120740
9.05677,115092
9.06490,118726
9.07302,116577
9.08115,119308
9.08927,109608
9.09738,107578
9.10552,108551
9.11363,110414
9.12177,106899
9.12988,100108
9.13800,107010
9.14613,107208
9.15425,106479
9.16237,103063
9.17050,101623
9.17862,99943
9.18675,100057
9.19487,99144
9.20298,102869
9.21112,96938
9.21923,96780
9.22737,93751
9.23548,100034
9.24360,96735
9.25173,90218
9.25985,89968
9.26798,94761
9.27610,86053
9.28422,92050
9.29235,89745
9.30047,83744
9.30858,80255
9.31672,78548
9.32483,81131
9.33297,81092
9.34108,83769
9.34920,80754
9.35733,80724
9.36545,77371
9.37358,83077
9.38170,79065
9.38982,77926
9.39795,79661
9.40607,80148
9.41420,79718
9.42232,81650
9.43043,74040
9.43857,70554
9.44668,73379
9.45480,78925
9.46293,76664
9.47105,72942
9.47918,79342
9.48730,74396
9.49542,80670
9.50355,77970
9.51167,77546
9.51980,76570
9.52792,73091
9.53603,75138
9.54417,73214
9.55228,84870
9.56040,82156
9.56853,85214
9.57665,80766
9.58478,69000
9.59290,66060
9.60102,69367
9.60915,75119
9.61727,72431
9.62540,70670
9.63352,69812
9.64163,64845
9.64977,60373
9.65788,56187
9.66602,59609
9.67413,61028
9.68225,49341
9.69038,50255
9.69850,43386
9.70662,49807
9.71475,48366
9.72287,46399
9.73100,47482
9.73912,48313
9.74723,47033
9.75537,46543
9.76348,42935
9.77162,45782
9.77973,45403
9.78785,44674
9.79598,47720
9.80410,50064
9.81223,46415
9.82035,47846
9.82847,49789
9.83660,47597
9.84472,44277
9.85283,50536
9.86097,52726
9.86908,57084
9.87722,52317
9.88533,46018
9.89345,45753
9.90158,46937
9.90970,45562
9.91783,48685
9.92595,44671
9.93407,47136
9.94220,45941
9.95032,42427
9.95843,50244
9.96657,43618
9.97468,48408
9.98282,46654
9.99093,49123
9.99905,47402
10.00718,53203
10.01530,58292
10.02343,56952
10.03155,59379
10.03967,59507
10.04780,61960
10.05592,64641
10.06405,61944
10.07217,67927
10.08028,64721
10.08842,58971
10.09653,57318
10.10465,50352
10.11278,53032
10.12090,49370
10.12903,45401
10.13715,57132
10.14527,52173
10.15340,52909
10.16152,49551
10.16965,50016
10.17777,43698
10.18588,42725
10.19402,44150
10.20213,45551
10.21027,45833
10.21838,46343
10.22650,47471
10.23463,50315
10.24275,49549
10.25087,56306
10.25900,56070
10.26712,57420
10.27525,52801
10.28337,50944
10.29148,52578
10.29962,48911
10.30773,45062
10.31587,55191
10.32398,51211
10.33210,49034
10.34023,46796
10.34835,47317
10.35647,50615
10.36460,47909
10.37272,44948
10.38085,43270
10.38897,46507
10.39708,44438
10.40522,44089
10.41333,41502
10.42147,47861
10.42958,45921
10.43770,44814
10.44583,43898
10.45395,41304
10.46208,51043
10.47020,41252
10.47832,44304
10.48645,41727
10.49457,44362
10.50268,45789
10.51082,43447
10.51893,45749
10.52707,43010
10.53518,41949
10.54330,43747
10.55143,41122
10.55955,41009
10.56768,44398
10.57580,45656
10.58392,45117
10.59205,43111
10.60017,42897
10.60828,41916
10.61642,43510
10.62453,42701
10.63267,42378
10.64078,44285
10.64890,45203
10.65703,41988
10.66515,42634
10.67328,41926
10.68140,42904
10.68952,41024
10.69765,41126
10.70577,49844
10.71390,45209
10.72202,48079
10.73013,45706
10.73827,49026
10.74638,48165
10.75450,51291
10.76263,49479
10.77075,50748
10.77888,47035
10.78700,49834
10.79512,54036
10.80325,49644
10.81137,42498
10.81950,41033
10.82762,48596
10.83573,41848
10.84387,43289
10.85198,43477
10.86012,38694
10.86823,41358
10.87635,38824
10.88448,43808
10.89260,39293
10.90072,44337
10.90885,41771
10.91697,40764
10.92510,42442
10.93322,38283
10.94133,35987
10.94947,43435
10.95758,34364
10.96572,40566
10.97383,41749
10.98195,42840
10.99008,38741
10.99820,42962
11.00632,40974
11.01445,40957
11.02257,43667
11.03070,35903
11.03882,39482
11.04693,35537
11.05507,37720
11.06318,36228
11.07132,34326
11.07943,36602
11.08755,42788
11.09568,37952
11.10380,32620
11.11193,36087
11.12005,35108
11.12817,37067
11.13630,37709
11.14442,37850
11.15253,37704
11.16067,42752
11.16878,33765
11.17692,35128
11.18503,37345
11.19315,40549
11.20128,45066
11.20940,48615
11.21753,48905
11.22565,51062
11.23377,51201
11.24190,50963
11.25002,46761
11.25815,42222
11.26627,40857
11.27438,40439
11.28252,36322
11.29063,39839
11.29875,43122
11.30688,34343
11.31500,40045
11.32313,36519
11.33125,37377
11.33937,44144
11.34750,40345
11.35562,42353
11.36375,41046
11.37187,37572
11.37998,39002
11.38812,40395
11.39623,36933
11.40435,39299
11.41248,38855
11.42060,37019
11.42873,32669
11.43685,37576
11.44497,34534
11.45310,33175
11.46122,32982
11.46935,33926
11.47747,34780
11.48558,34489
11.49372,33215
11.50183,34237
11.50997,32569
11.51808,36161
11.52620,33159
11.53433,42045
11.54245,34748
11.55057,31757
11.55870,37580
11.56682,33693
11.57495,33658
11.58307,34229
11.59118,34229
11.59932,32485
11.60743,31109
11.61557,35724
11.62368,34326
11.63180,37617
11.63993,36144
11.64805,33756
11.65617,33616
11.66430,33751
11.67242,33253
11.68055,29915
11.68867,32832
11.69678,33723
11.70492,38114
11.71303,38023
11.72117,36647
11.72928,39126
11.73740,37749
11.74553,38872
11.75365,40168
11.76178,39957
11.76990,42064
11.77802,40199
11.78615,41294
11.79427,39302
11.80238,40452
11.81052,39641
11.81863,38373
11.82677,36589
11.83488,37088
11.84300,37615
11.85113,39453
11.85925,35166
11.86738,41894
11.87550,38370
11.88362,35638
11.89175,37881
11.89987,37847
11.90800,36304
11.91612,37634
11.92423,39092
11.93237,35923
11.94048,36717
11.94860,35085
11.95673,33874
11.96485,33667
11.97298,33572
11.98110,37141
11.98922,34671
11.99735,36153
12.00547,33405
12.01360,36566
12.02172,31794
12.02983,39198
12.03797,30963
12.04608,35903
12.05420,35152
12.06233,37228
12.07045,36361
12.07858,35410
12.08670,34707
12.09482,35689
12.10295,33265
12.11107,40068
12.11920,34928
12.12732,34391
12.13543,33889
12.14357,36144
12.15168,34567
12.15982,37275
12.16793,35086
12.17605,36092
12.18418,35918
12.19230,34526
12.20042,32304
12.20855,38940
12.21667,37535
12.22480,32960
12.23292,37092
12.24103,31531
12.24917,35088
12.25728,41045
12.26542,31585
12.27353,33830
12.28165,35159
12.28978,36368
12.29790,32341
12.30603,31650
12.31415,31699
12.32227,33539
12.33040,39531
12.33852,37923
12.34663,35080
12.35477,36878
12.36288,32925
12.37102,35788
12.37913,36463
12.38725,34848
12.39538,36044
12.40350,34623
12.41163,33823
12.41975,36415
12.42787,31867
12.43600,33716
12.44412,40414
12.45223,40160
12.46037,43797
12.46848,44926
12.47662,46044
12.48473,48345
12.49285,44016
12.50098,40339
12.50910,36952
12.51723,33577
12.52535,34406
12.53347,34406
12.54160,34858
12.54972,34727
12.55785,35296
12.56597,32062
12.57408,37806
12.58222,34411
12.59033,35553
12.59845,36976
12.60658,33553
12.61470,33151
12.62283,33116
12.63095,36960
12.63907,34820
12.64720,33471
12.65532,36367
12.66345,32337
12.67157,33152
12.67968,34792
12.68782,33019
12.69593,34769
12.70407,31254
12.71218,34925
12.72030,33682
12.72843,34560
12.73655,41733
12.74467,52877
12.75280,57845
12.76092,66403
12.76905,68446
12.77717,64981
12.78528,59606
12.79342,53909
12.80153,52239
12.80967,41478
12.81778,40052
12.82590,40361
12.83403,39761
12.84215,39494
12.85027,33465
12.85840,35240
12.86652,35777
12.87465,38121
12.88277,35977
12.89088,36697
12.89902,33680
12.90713,36999
12.91527,38625
12.92338,35359
12.93150,35447
12.93963,34149
12.94775,35802
12.95588,34923
12.96400,35685
12.97212,34929
12.98025,36832
12.98837,37450
12.99648,33600
13.00462,36476
13.01273,35312
13.02087,36315
13.02898,35707
13.03710,33695
13.04523,37385
13.05335,33020
13.06148,32405
13.06960,38299
13.07772,34308
13.08585,36157
13.09397,36735
13.10208,37292
13.11022,33160
13.11833,35959
13.12647,32308
13.13458,34086
13.14270,39208
13.15083,37151
13.15895,35367
13.16708,37582
13.17520,38732
13.18332,41594
13.19145,37190
13.19957,35280
13.20770,35343
13.21582,40307
13.22393,42284
13.23207,42168
13.24018,39032
13.24830,40527
13.25643,40171
13.26455,35280
13.27268,37391
13.28080,34987
13.28892,36065
13.29705,40750
13.30517,39361
13.31330,32440
13.32142,35823
13.32953,34994
13.33767,38120
13.34578,35665
13.35392,37960
13.36203,33743
13.37015,32275
13.37828,31127
13.38640,38020
13.39452,35222
13.40265,39817
13.41077,34549
13.41890,35944
13.42702,37043
13.43513,32896
13.44327,34416
13.45138,33327
13.45952,35953
13.46763,32244
13.47575,37685
13.48388,33412
13.49200,32763
13.50012,33713
13.50825,31032
13.51637,35328
13.52450,39220
13.53262,33224
13.54073,35262
13.54887,34450
13.55698,29425
13.56512,31126
13.57323,34355
13.58135,33600
13.58948,34375
13.59760,35195
13.60573,35039
13.61385,34445
13.62197,37199
13.63010,31983
13.63822,34874
13.64633,32482
13.65447,35559
13.66258,29465
13.67072,28149
13.67883,31061
13.68695,33041
13.69508,32726
13.70320,31161
13.71133,30722
13.71945,33777
13.72757,34014
13.73570,34650
13.74382,32858
13.75195,30829
13.76007,42146
13.76818,31841
13.77632,35391
13.78443,35913
13.79255,30761
13.80068,33391
13.80880,31451
13.81693,31136
13.82505,34830
13.83317,34650
13.84130,36672
13.84942,35965
13.85755,33365
13.86567,34717
13.87378,32459
13.88192,35890
13.89003,32121
13.89815,34157
13.90628,31982
13.91440,30512
13.92253,32350
13.93065,36289
13.93877,36619
13.94690,39456
13.95502,39339
13.96315,36803
13.97127,34905
13.97938,36569
13.98752,39697
13.99563,38266
14.00377,38095
14.01188,38726
14.02000,32648
14.02813,42996
14.03625,38121
14.04437,36792
14.05250,32859
14.06062,39128
14.06875,39129
14.07687,38367
14.08498,37930
14.09312,40658
14.10123,43756
14.10937,42605
14.11748,36941
14.12560,37013
14.13373,36090
14.14185,36197
14.14997,38226
14.15810,35053
14.16622,37392
14.17435,36989
14.18247,42887
14.19058,45738
14.19872,55671
14.20683,72034
14.21497,97480
14.22308,144534
14.23120,191476
14.23933,217056
14.24745,216223
14.25558,199349
14.26370,174073
14.27182,161078
14.27995,145455
14.28807,128888
14.29618,120182
14.30432,105421
14.31243,96619
14.32057,89472
14.32868,82660
14.33680,80203
14.34493,80142
14.35305,75914
14.36118,75742
14.36930,65339
14.37742,60062
14.38555,54983
14.39367,47157
14.40180,49396
14.40992,43034
14.41803,41039
14.42617,39722
14.43428,37223
14.44240,41803
14.45053,41701
14.45865,44534
14.46678,37812
14.47490,39125
14.48302,36568
14.49115,39395
14.49927,40487
14.50740,37562
14.51552,35708
14.52363,39170
14.53177,35027
14.53988,36301
14.54802,38993
14.55613,36964
14.56425,36600
14.57238,35106
14.58050,39047
14.58862,49059
14.59675,40891
14.60487,39832
14.61300,42044
14.62112,42366
14.62923,43792
14.63737,37856
14.64548,35620
14.65362,41401
14.66173,35782
14.66985,36740
14.67798,37449
14.68610,36402
14.69422,32032
14.70235,34437
14.71047,35409
14.71860,36271
14.72672,38363
14.73483,40094
14.74297,36694
14.75108,34117
14.75922,39140
14.76733,41245
14.77545,34584
14.78358,33951
14.79170,38018
14.79983,33308
14.80795,30689
14.81607,30778
14.82420,31722
14.83232,33759
14.84043,36582
14.84857,44222
14.85668,41905
14.86482,42234
14.87293,50314
14.88105,50493
14.88918,49781
14.89730,45458
14.90543,47115
14.91355,45606
14.92167,44344
14.92980,40317
14.93792,43400
14.94603,43061
14.95417,39284
14.96228,40064
14.97042,41849
14.97853,41206
14.98665,43282
14.99478,38306
15.00290,41006
15.01103,41420
15.01915,39871
15.02727,39139
15.03540,38605
15.04352,38987
15.05165,40271
15.05977,40947
15.06788,39325
15.07602,38066
15.08413,39616
15.09225,38898
15.10038,40517
15.10850,38079
15.11663,37955
15.12475,40555
15.13287,35359
15.14100,40999
15.14912,39353
15.15725,40043
15.16537,37899
15.17348,35000
15.18162,39482
15.18973,40153
15.19787,35229
15.20598,35448
15.21410,39276
15.22223,38986
15.23035,36640
15.23847,35244
15.24660,36515
15.25472,41097
15.26285,38061
15.27097,38645
15.27908,37443
15.28722,36054
15.29533,35574
15.30347,36151
15.31158,41057
15.31970,41253
15.32783,33219
15.33595,34291
15.34407,34842
15.35220,35728
15.36032,39192
15.36845,36256
15.37657,38893
15.38468,34086
15.39282,36849
15.40093,33592
15.40907,36429
15.41718,32517
15.42530,35295
15.43343,34680
15.44155,32953
15.44968,33835
15.45780,31300
15.46592,38092
15.47405,34379
15.48217,35318
15.49028,34999
15.49842,37138
15.50653,33773
15.51467,40557
15.52278,39006
15.53090,34936
15.53903,42807
15.54715,37859
15.55528,34034
15.56340,31997
15.57152,36858
15.57965,33280
15.58777,33602
15.59590,33912
15.60402,35372
15.61213,31987
15.62027,33696
15.62838,36242
15.63650,35252
15.64463,33521
15.65275,33537
15.66088,35282
15.66900,43465
15.67712,37021
15.68525,33808
15.69337,31957
15.70150,32134
15.70962,35488
15.71773,34034
15.72587,30195
15.73398,34768
15.74210,35117
15.75023,31387
15.75835,35102
15.76648,31662
15.77460,31663
15.78272,35842
15.79085,34344
15.79897,34298
15.80710,33918
15.81522,33712
15.82333,36810
15.83147,37459
15.83958,36153
15.84772,36793
15.85583,33014
15.86395,33671
15.87208,32234
15.88020,34468
15.88832,37800
15.89645,34980
15.90457,37140
15.91270,37529
15.92082,33006
15.92893,39006
15.93707,36466
15.94518,35901
15.95332,38262
15.96143,33699
15.96955,36257
15.97768,36598
15.98580,35439
15.99392,33310
16.00205,39580
16.01017,45155
16.01830,66294
16.02642,98947
16.03453,148150
16.04267,208510
16.05078,251159
16.05892,285017
16.06703,250521
16.07515,198538
16.08328,149660
16.09140,104589
16.09953,87903
16.10765,75147
16.11577,65997
16.12390,66064
16.13202,60920
16.14013,53832
16.14827,55994
16.15638,58013
16.16452,46720
16.17263,45874
16.18075,46210
16.18888,49979
16.19700,52615
16.20513,49543
16.21325,48923
16.22137,44689
16.22950,43126
16.23762,45734
16.24575,38066
16.25387,45190
16.26198,44617
16.27012,43624
16.27823,48067
16.28635,39970
16.29448,45753
16.30260,45735
16.31073,41024
16.31885,40818
16.32697,45693
16.33510,43500
16.34322,48731
16.35135,41360
16.35947,39390
16.36758,43782
16.37572,39124
16.38383,43638
16.39195,43292
16.40008,41995
16.40820,41610
16.41633,39272
16.42445,39638
16.43257,40276
16.44070,38859
16.44882,38915
16.45695,40011
16.46507,39393
16.47318,39501
16.48132,37218
16.48943,40151
16.49757,41826
16.50568,38439
16.51380,39985
16.52193,40575
16.53005,47346
16.53817,40116
16.54630,37090
16.55442,40117
16.56255,36932
16.57067,39583
16.57878,37664
16.58692,37891
16.59503,43554
16.60317,37509
16.61128,37010
16.61940,34286
16.62753,36483
16.63565,35628
16.64378,38788
16.65190,35832
16.66002,37026
16.66815,38604
16.67627,39727
16.68438,38197
16.69252,36203
16.70063,35819
16.70877,40073
16.71688,38310
16.72500,37959
16.73313,34837
16.74125,34785
16.74938,37965
16.75750,34341
16.76562,36883
16.77375,35289
16.78187,35330
16.78998,34282
16.79812,34517
16.80623,33096
16.81437,33208
16.82248,34358
16.83060,36036
16.83873,33045
16.84685,35560
16.85498,35899
16.86310,32427
16.87122,34609
16.87935,35590
16.88747,33650
16.89560,35391
16.90372,35359
16.91183,34842
16.91997,37677
16.92808,33662
16.93620,37256
16.94433,34548
16.95245,37281
16.96058,37973
16.96870,32884
16.97682,31942
16.98495,32431
16.99307,35192
17.00120,36099
17.00932,31749
17.01743,32683
17.02557,32908
17.03368,35335
17.04180,30598
17.04993,35758
17.05805,35017
17.06618,28208
17.07430,35705
17.08242,31738
17.09055,32838
17.09867,37740
17.10680,35140
17.11492,37141
17.12303,36888
17.13117,36867
17.13928,39964
17.14742,35114
17.15553,35400
17.16365,36387
17.17178,38630
17.17990,34641
17.18802,34135
17.19615,36710
17.20427,32668
17.21240,35835
17.22052,36405
17.22863,36461
17.23677,32868
17.24488,34667
17.25302,35967
17.26113,32453
17.26925,35957
17.27738,34866
17.28550,37263
17.29363,34097
17.30175,38079
17.30987,37563
17.31800,33725
17.32612,34296
17.33423,33150
17.34237,33083
17.35048,32810
17.35862,32126
17.36673,34399
17.37485,39131
17.38298,39821
17.39110,39516
17.39923,42789
17.40735,41687
17.41547,44513
17.42360,36237
17.43172,40581
17.43983,40214
17.44797,38318
17.45608,39717
17.46422,38103
17.47233,37891
17.48045,38018
17.48858,35249
17.49670,34835
17.50483,35790
17.51295,40936
17.52107,39711
17.52920,35741
17.53732,39580
17.54545,42124
17.55357,41380
17.56168,38320
17.56982,39448
17.57793,38290
17.58605,39096
17.59418,32574
17.60230,32321
17.61043,34230
17.61855,38029
17.62667,36151
17.63480,36812
17.64292,34667
17.65105,34216
17.65917,31217
17.66728,36623
17.67542,41192
17.68353,34494
17.69167,39925
17.69978,36794
17.70790,39789
17.71603,38385
17.72415,39447
17.73227,37993
17.74040,38347
17.74852,37292
17.75665,39515
17.76477,39472
17.77288,36327
17.78102,36839
17.78913,36351
17.79727,33986
17.80538,33799
17.81350,41591
17.82163,34586
17.82975,38796
17.83787,35560
17.84600,42823
17.85412,42828
17.86225,48890
17.87037,47867
17.87848,43140
17.88662,39928
17.89473,38844
17.90287,38223
17.91098,37364
17.91910,39114
17.92723,34178
17.93535,34719
17.94348,40914
17.95160,36013
17.95972,36055
17.96785,31350
17.97597,32666
17.98408,34601
17.99222,36069
18.00033,34536
18.00847,33043
18.01658,32992
18.02470,37145
18.03283,31166
18.04095,31185
18.04908,33348
18.05720,34837
18.06532,36555
18.07345,37340
18.08157,30449
18.08970,38135
18.09782,38129
18.10593,45837
18.11407,43303
18.12218,48911
18.13030,54372
18.13843,52491
18.14655,56094
18.15468,49107
18.16280,46826
18.17092,50490
18.17905,47169
18.18717,43718
18.19530,42854
18.20342,46140
18.21153,43865
18.21967,41371
18.22778,48697
18.23590,43793
18.24403,45131
18.25215,45152
18.26028,44772
18.26840,44424
18.27652,41833
18.28465,43370
18.29277,42382
18.30090,43995
18.30902,37369
18.31713,40279
18.32527,36180
18.33338,31780
18.34152,34411
18.34963,33656
18.35775,33898
18.36588,37459
18.37400,32754
18.38212,34787
18.39025,35759
18.39837,35269
18.40650,36533
18.41462,35098
18.42273,34171
18.43087,39820
18.43898,39852
18.44712,33718
18.45523,32319
18.46335,35046
18.47148,34527
18.47960,39906
18.48772,33924
18.49585,42626
18.50397,31916
18.51210,34043
18.52022,32058
18.52833,35051
18.53647,31908
18.54458,31596
18.55272,33045
18.56083,36954
18.56895,35324
18.57708,34134
18.58520,32806
18.59333,32424
18.60145,34635
18.60957,32165
18.61770,33133
18.62582,35296
18.63393,32581
18.64207,36376
18.65018,32098
18.65832,31620
18.66643,39534
18.67455,32612
18.68268,33077
18.69080,33993
18.69893,28473
18.70705,31421
18.71517,34146
18.72330,31698
18.73142,33248
18.73955,33593
18.74767,31076
18.75578,30131
18.76392,34556
18.77203,37424
18.78015,29625
18.78828,34660
18.79640,29651
18.80453,31293
18.81265,33956
18.82077,31921
18.82890,32408
18.83702,33123
18.84515,35974
18.85327,34339
18.86138,31666
18.86952,35899
18.87763,32300
18.88575,34300
18.89388,36608
18.90200,35301
18.91013,35001
18.91825,39637
18.92637,33660
18.93450,39428
18.94262,37122
18.95075,32965
18.95887,33851
18.96698,32693
18.97512,32445
18.98323,37157
18.99137,35632
18.99948,33111
19.00760,33570
19.01573,36783
19.02385,36223
19.03197,32521
19.04010,35873
19.04822,37431
19.05635,31634
19.06447,39765
19.07258,29823
19.08072,35028
19.08883,36428
19.09697,32106
19.10508,34516
19.11320,39123
19.12133,41576
19.12945,41106
19.13758,40745
19.14570,42079
19.15382,45961
19.16195,38549
19.17007,39234
19.17818,39539
19.18632,35040
19.19443,35361
19.20257,42940
19.21068,38484
19.21880,36905
19.22693,33557
19.23505,34938
19.24318,34572
19.25130,33934
19.25942,34861
19.26755,41823
19.27567,42839
19.28378,55504
19.29192,66013
19.30003,87170
19.30817,106479
19.31628,122474
19.32440,124171
19.33253,113132
19.34065,93224
19.34878,77823
19.35690,69443
19.36502,60764
19.37315,58102
19.38127,50112
19.38940,50610
19.39752,47805
19.40563,46519
19.41377,47867
19.42188,47579
19.43000,48878
19.43813,46385
19.44625,45504
19.45438,46132
19.46250,47271
19.47062,49979
19.47875,47287
19.48687,56370
19.49500,74042
19.50312,106591
19.51123,136041
19.51937,160202
19.52748,194121
19.53560,205337
19.54373,207480
19.55185,170018
19.55998,129950
19.56810,103812
19.57622,74274
19.58435,55955
19.59247,51727
19.60060,46223
19.60872,46681
19.61683,48418
19.62497,47570
19.63308,48397
19.64122,50108
19.64933,59323
19.65745,81137
19.66558,125099
19.67370,196722
19.68182,277952
19.68995,332984
19.69807,355596
19.70620,323881
19.71432,282249
19.72243,211209
19.73057,167938
19.73868,126620
19.74682,112634
19.75493,91931
19.76305,80336
19.77118,70722
19.77930,63840
19.78743,61390
19.79555,59450
19.80367,55692
19.81180,53081
19.81992,51002
19.82803,47916
19.83617,51093
19.84428,49112
19.85242,47555
19.86053,46249
19.86865,43903
19.87678,50360
19.88490,49047
19.89303,54711
19.90115,67067
19.90927,79865
19.91740,100252
19.92552,127093
19.93365,144886
19.94177,157584
19.94988,160889
19.95802,160489
19.96613,148516
19.97425,147290
19.98238,139399
19.99050,135879
19.99863,130342
20.00675,130536
20.01487,130834
20.02300,119927
20.03112,125919
20.03925,118250
20.04737,106119
20.05548,107237
20.06362,94386
20.07173,87554
20.07985,74278
20.08798,68983
20.09610,58063
20.10423,56313
20.11235,59251
20.12047,55399
20.12860,58700
20.13672,62739
20.14485,62424
20.15297,63831
20.16108,67783
20.16922,63346
20.17733,64191
20.18547,67746
20.19358,67550
20.20170,66819
20.20983,69586
20.21795,69630
20.22607,64384
20.23420,65834
20.24232,62806
20.25045,76678
20.25857,76085
20.26668,87606
20.27482,123951
20.28293,178074
20.29107,248631
20.29918,307689
20.30730,329048
20.31543,333135
20.32355,301961
20.33167,246483
20.33980,201183
20.34792,154742
20.35605,130281
20.36417,109001
20.37228,102068
20.38042,89775
20.38853,81704
20.39667,79518
20.40478,75387
20.41290,74193
20.42103,76395
20.42915,77222
20.43728,87732
20.44540,99966
20.45352,118440
20.46165,137662
20.46977,135249
20.47788,138893
20.48602,129021
20.49413,110318
20.50227,95247
20.51038,89581
20.51850,85218
20.52663,77031
20.53475,73847
20.54288,70729
20.55100,70277
20.55912,63738
20.56725,68636
20.57537,67609
20.58350,69139
20.59162,65808
20.59973,67963
20.60787,63059
20.61598,63292
20.62410,62079
20.63223,64518
20.64035,63693
20.64848,62985
20.65660,66023
20.66472,60425
20.67285,58202
20.68097,63169
20.68910,64121
20.69722,60934
20.70533,60270
20.71347,62630
20.72158,63940
20.72970,60677
20.73783,62404
20.74595,57289
20.75408,57551
20.76220,62879
20.77032,59811
20.77845,61586
20.78657,62426
20.79470,57692
20.80282,58341
20.81093,62015
20.81907,57632
20.82718,54911
20.83532,56165
20.84343,52933
20.85155,57097
20.85968,56492
20.86780,57166
20.87592,54254
20.88405,55228
20.89217,51976
20.90030,55381
20.90842,54762
20.91653,54043
20.92467,51793
20.93278,55818
20.94092,51033
20.94903,50261
20.95715,60511
20.96528,55443
20.97340,54596
20.98153,56378
20.98965,57063
20.99777,51657
21.00590,59365
21.01402,53444
21.02213,50827
21.03027,48634
21.03838,52163
21.04652,51549
21.05463,51061
21.06275,55512
21.07088,54114
21.07900,50887
21.08713,53751
21.09525,54214
21.10337,54716
21.11150,51639
21.11962,53184
21.12773,53520
21.13587,51659
21.14398,52841
21.15212,54562
21.16023,54426
21.16835,53954
21.17648,50481
21.18460,54345
21.19273,50533
21.20085,53307
21.20897,51080
21.21710,50835
21.22522,50589
21.23335,49683
21.24147,52301
21.24958,50614
21.25772,47326
21.26583,52014
21.27395,51784
21.28208,55027
21.29020,57435
21.29833,52099
21.30645,51931
21.31457,50539
21.32270,52239
21.33082,46512
21.33895,55025
21.34707,50639
21.35518,52877
21.36332,47774
21.37143,51664
21.37955,43343
21.38768,43978
21.39580,49879
21.40393,45761
21.41205,47684
21.42017,48372
21.42830,45988
21.43642,51134
21.44455,46721
21.45267,51382
21.46078,47200
21.46892,50501
21.47703,49204
21.48517,48603
21.49328,52073
21.50140,48641
21.50953,52823
21.51765,48277
21.52577,43671
21.53390,47328
21.54202,52581
21.55015,51707
21.55827,47936
21.56638,46626
21.57452,47281
21.58263,44850
21.59077,49496
21.59888,49353
21.60700,49126
21.61513,47988
21.62325,53247
21.63138,56457
21.63950,67494
21.64762,78364
21.65575,94553
21.66387,110507
21.67198,116005
21.68012,106633
21.68823,94283
21.69637,83827
21.70448,67973
21.71260,64717
21.72073,51519
21.72885,55574
21.73698,52020
21.74510,49739
21.75322,46005
21.76135,50667
21.76947,51677
21.77758,47010
21.78572,46906
21.79383,50614
21.80197,47669
21.81008,50187
21.81820,49169
21.82633,56688
21.83445,60633
21.84258,71886
21.85070,87193
21.85882,95169
21.86695,100174
21.87507,94236
21.88320,87421
21.89132,82271
21.89943,65539
21.90757,55740
21.91568,50944
21.92380,48540
21.93193,47204
21.94005,46829
21.94818,41301
21.95630,46711
21.96442,46731
21.97255,43058
21.98067,46624
21.98880,42932
21.99692,37132
22.00503,42819
22.01317,41420
22.02128,40146
22.02942,39576
22.03753,38995
22.04565,46393
22.05378,47863
22.06190,42016
22.07002,41438
22.07815,42779
22.08627,38596
22.09440,41639
22.10252,41713
22.11063,42786
22.11877,44553
22.12688,39092
22.13502,38411
22.14313,40301
22.15125,43837
22.15938,42269
22.16750,41018
22.17562,43004
22.18375,41434
22.19187,36385
22.20000,37386
22.20812,46239
22.21623,39445
22.22437,43542
22.23248,45839
22.24062,51671
22.24873,55549
22.25685,54050
22.26498,53649
22.27310,51304
22.28123,45972
22.28935,42216
22.29747,45991
22.30560,44164
22.31372,41758
22.32183,40773
22.32997,43643
22.33808,41393
22.34622,40622
22.35433,47285
22.36245,42585
22.37058,41388
22.37870,38360
22.38683,41968
22.39495,42491
22.40307,40361
22.41120,41517
22.41932,42289
22.42743,40550
22.43557,43212
22.44368,39405
22.45182,41441
22.45993,43464
22.46805,48767
22.47618,46496
22.48430,47607
22.49243,42913
22.50055,45014
22.50867,44462
22.51680,41745
22.52492,42683
22.53305,40255
22.54117,42115
22.54928,39517
22.55742,37121
22.56553,44306
22.57365,34731
22.58178,36645
22.58990,39960
22.59803,36349
22.60615,35222
22.61427,39186
22.62240,35288
22.63052,36276
22.63865,38580
22.64677,40124
22.65488,35917
22.66302,41085
22.67113,37673
22.67927,35886
22.68738,34821
22.69550,36791
22.70363,34588
22.71175,36435
22.71987,34796
22.72800,41969
22.73612,42502
22.74425,37924
22.75237,33362
22.76048,36288
22.76862,36298
22.77673,35669
22.78487,34293
22.79298,34095
22.80110,35695
22.80923,33083
22.81735,35003
22.82547,35935
22.83360,35864
22.84172,35015
22.84985,36176
22.85797,35830
22.86608,36193
22.87422,37724
22.88233,39152
22.89047,40767
22.89858,43801
22.90670,43764
22.91483,42858
22.92295,45203
22.93108,51846
22.93920,57636
22.94732,64274
22.95545,72588
22.96357,78423
22.97168,75401
22.97982,74222
22.98793,75849
22.99607,64555
23.00418,62777
23.01230,59039
23.02043,59838
23.02855,50753
23.03668,48960
23.04480,51284
23.05292,42303
23.06105,42145
23.06917,40259
23.07730,41130
23.08542,43575
23.09353,37253
23.10167,37831
23.10978,37149
23.11790,34559
23.12603,37176
23.13415,37864
23.14228,34407
23.15040,35514
23.15852,36455
23.16665,35701
23.17477,35951
23.18290,33793
23.19102,36643
23.19913,35560
23.20727,35757
23.21538,34674
23.22350,37809
23.23163,32647
23.23975,33128
23.24788,33158
23.25600,30429
23.26412,34439
23.27225,33272
23.28037,32025
23.28850,30587
23.29662,30673
23.30473,36676
23.31287,34579
23.32098,33700
23.32912,34116
23.33723,33743
23.34535,34502
23.35348,31484
23.36160,36533
23.36972,35445
23.37785,35844
23.38597,32251
23.39410,32263
23.40222,34102
23.41033,38154
23.41847,38565
23.42658,37631
23.43472,37575
23.44283,33172
23.45095,31604
23.45908,39114
23.46720,38375
23.47533,37635
23.48345,37739
23.49157,36270
23.49970,35960
23.50782,36330
23.51593,34642
23.52407,37907
23.53218,34755
23.54032,35576
23.54843,35053
23.55655,36586
23.56468,39744
23.57280,38072
23.58093,39263
23.58905,36624
23.59717,37720
23.60530,36497
23.61342,37177
23.62153,39194
23.62967,38186
23.63778,42635
23.64592,44744
23.65403,40615
23.66215,38489
23.67028,41498
23.67840,42892
23.68653,47538
23.69465,52864
23.70277,57121
23.71090,52622
23.71902,51929
23.72715,52349
23.73527,51034
23.74338,54434
23.75152,60037
23.75963,79386
23.76775,179614
23.77588,435387
23.78400,1079644
23.79213,2142325
23.80025,3359746
23.80837,4230734
23.81650,4303055
23.82462,3878345
23.83275,3028196
23.84087,2105963
23.84898,1435182
23.85712,1031236
23.86523,763026
23.87335,576655
23.88148,502148
23.88960,425272
23.89773,353014
23.90585,319560
23.91397,285363
23.92210,266266
23.93022,236644
23.93835,222680
23.94647,205743
23.95458,186848
23.96272,186804
23.97083,168198
23.97897,162764
23.98708,156364
23.99520,142915
24.00333,145735
24.01145,146022
24.01957,129411
24.02770,126668
24.03582,119090
24.04395,121763
24.05207,113520
24.06018,113409
24.06832,113265
24.07643,110996
24.08457,105282
24.09268,107231
24.10080,102516
24.10893,99876
24.11705,94466
24.12518,98600
24.13330,99207
24.14142,97552
24.14955,100819
24.15767,102866
24.16578,110609
24.17392,101733
24.18203,100175
24.19017,97653
24.19828,88401
24.20640,90239
24.21453,89623
24.22265,89209
24.23078,89857
24.23890,98314
24.24702,99717
24.25515,100805
24.26327,94487
24.27138,91957
24.27952,76897
24.28763,73771
24.29577,74815
24.30388,75127
24.31200,66991
24.32013,68429
24.32825,67409
24.33638,69704
24.34450,69557
24.35262,65007
24.36075,65007
24.36887,66725
24.37700,63995
24.38512,67585
24.39323,71783
24.40137,83089
24.40948,100828
24.41760,124985
24.42573,134930
24.43385,132868
24.44198,121626
24.45010,95705
24.45822,82014
24.46635,70463
24.47447,64056
24.48260,60770
24.49072,58655
24.49883,61334
24.50697,65326
24.51508,68497
24.52322,76326
24.53133,86006
24.53945,82704
24.54758,88974
24.55570,83472
24.56382,74938
24.57195,69686
24.58007,70319
24.58820,67848
24.59632,63635
24.60443,62990
24.61257,59157
24.62068,60709
24.62882,60685
24.63693,55554
24.64505,60266
24.65318,61047
24.66130,61661
24.66942,59133
24.67755,58830
24.68567,61035
24.69380,59500
24.70192,62195
24.71003,59726
24.71817,54403
24.72628,51619
24.73442,55942
24.74253,51309
24.75065,51603
24.75878,56533
24.76690,48261
24.77503,50309
24.78315,45629
24.79127,48595
24.79940,52464
24.80752,51314
24.81563,47950
24.82377,47627
24.83188,50357
24.84002,53302
24.84813,45437
24.85625,49670
24.86438,49486
24.87250,47201
24.88063,47001
24.88875,48186
24.89687,52759
24.90500,45156
24.91312,47995
24.92123,43765
24.92937,47491
24.93748,49182
24.94562,47797
24.95373,45502
24.96185,42357
24.96998,44824
24.97810,45033
24.98623,45821
24.99435,43841
25.00247,45175
25.01060,48701
25.01872,44663
25.02685,44136
25.03497,41294
25.04308,41527
25.05122,44617
25.05933,42414
25.06745,44485
25.07558,49433
25.08370,48135
25.09183,45897
25.09995,43576
25.10807,43581
25.11620,43708
25.12432,45689
25.13245,43327
25.14057,50476
25.14868,48803
25.15682,49105
25.16493,55293
25.17307,52751
25.18118,56766
25.18930,52946
25.19743,52795
25.20555,49911
25.21367,52982
25.22180,47185
25.22992,48140
25.23805,46606
25.24617,44257
25.25428,42453
25.26242,46473
25.27053,43572
25.27867,43473
25.28678,44404
25.29490,40208
25.30303,45501
25.31115,53321
25.31928,49454
25.32740,49796
25.33552,48888
25.34365,54351
25.35177,51863
25.35988,56465
25.36802,47087
25.37613,47441
25.38427,45136
25.39238,42430
25.40050,42217
25.40863,43732
25.41675,40241
25.42488,42228
25.43300,37916
25.44112,39224
25.44925,37732
25.45737,44290
25.46548,38556
25.47362,41206
25.48173,48415
25.48987,47796
25.49798,51878
25.50610,54402
25.51423,58257
25.52235,58468
25.53048,55401
25.53860,49552
25.54672,50088
25.55485,44248
25.56297,43706
25.57110,39435
25.57922,40686
25.58733,40673
25.59547,42106
25.60358,40058
25.61170,39167
25.61983,40800
25.62795,42220
25.63608,40871
25.64420,39569
25.65232,35156
25.66045,36892
25.66857,42540
25.67670,37352
25.68482,37021
25.69293,40631
25.70107,35200
25.70918,38986
25.71730,38212
25.72543,39286
25.73355,38988
25.74168,39857
25.74980,37064
25.75792,37148
25.76605,39532
25.77417,39661
25.78230,36841
25.79042,39329
25.79853,38612
25.80667,38781
25.81478,39792
25.82292,39582
25.83103,37879
25.83915,41621
25.84728,40195
25.85540,39494
25.86352,37741
25.87165,38028
25.87977,36346
25.88790,38126
25.89602,38762
25.90413,38772
25.91227,38890
25.92038,41300
25.92852,42943
25.93663,42067
25.94475,38853
25.95288,40531
25.96100,37129
25.96913,39489
25.97725,34770
25.98537,40582
25.99350,34987
26.00162,37954
26.00973,39888
26.01787,35736
26.02598,39121
26.03412,35474
26.04223,38171
26.05035,35237
26.05848,32448
26.06660,35958
26.07473,39602
26.08285,41739
26.09097,39235
26.09910,37587
26.10722,39786
26.11533,39763
26.12347,41152
26.13158,39321
26.13972,36959
26.14783,47236
26.15595,47255
26.16408,47486
26.17220,51735
26.18033,50465
26.18845,59951
26.19657,58104
26.20470,50719
26.21282,52073
26.22095,49410
26.22907,51355
26.23718,50716
26.24532,46946
26.25343,44880
26.26155,43592
26.26968,42026
26.27780,45408
26.28593,44036
26.29405,41706
26.30217,44636
26.31030,41810
26.31842,41133
26.32655,36038
26.33467,37553
26.34278,35438
26.35092,38871
26.35903,41813
26.36717,38414
26.37528,38282
26.38340,39262
26.39153,39702
26.39965,36998
26.40777,34914
26.41590,35448
26.42402,38826
26.43215,39653
26.44027,39310
26.44838,35604
26.45652,36380
26.46463,37221
26.47277,35227
26.48088,35521
26.48900,37953
26.49713,42066
26.50525,36805
26.51337,34793
26.52150,38176
26.52962,34313
26.53775,35492
26.54587,30880
26.55398,36587
26.56212,34734
26.57023,35856
26.57837,35707
26.58648,33596
26.59460,36568
26.60273,40330
26.61085,37090
26.61898,34677
26.62710,35915
26.63522,34210
26.64335,35752
26.65147,35433
26.65958,40063
26.66772,42732
26.67583,40582
26.68397,44258
26.69208,44265
26.70020,46571
26.70833,45204
26.71645,38442
26.72458,40491
26.73270,42530
26.74082,39124
26.74895,36796
26.75707,38100
26.76518,40492
26.77332,36101
26.78143,36586
26.78957,41208
26.79768,36145
26.80580,42137
26.81393,43577
26.82205,38168
26.83018,43050
26.83830,46223
26.84642,42971
26.85455,37447
26.86267,40533
26.87080,41157
26.87892,42230
26.88703,45948
26.89517,43428
26.90328,40810
26.91140,40306
26.91953,39647
26.92765,40228
26.93578,39456
26.94390,44211
26.95202,36620
26.96015,43135
26.96827,50439
26.97640,57984
26.98452,104128
26.99263,201007
27.00077,400759
27.00888,728990
27.01702,1271661
27.02513,2031027
27.03325,2679320
27.04138,2808259
27.04950,2540057
27.05762,2022487
27.06575,1495318
27.07387,1072409
27.08200,803992
27.09012,634253
27.09823,488321
27.10637,409924
27.11448,331235
27.12262,291705
27.13073,259343
27.13885,232801
27.14698,225800
27.15510,198165
27.16322,192378
27.17135,179664
27.17947,161418
27.18760,149176
27.19572,151723
27.20383,142227
27.21197,134306
27.22008,133411
27.22822,124074
27.23633,122893
27.24445,113343
27.25258,109629
27.26070,108261
27.26883,99214
27.27695,97669
27.28507,96557
27.29320,92941
27.30132,90295
27.30943,84114
27.31757,86110
27.32568,84008
27.33382,82500
27.34193,73507
27.35005,78389
27.35818,77201
27.36630,76597
27.37443,73993
27.38255,72449
27.39067,76424
27.39880,72614
27.40692,71203
27.41505,69167
27.42317,69749
27.43128,70976
27.43942,67864
27.44753,63681
27.45565,72555
27.46378,66009
27.47190,62003
27.48003,62883
27.48815,63834
27.49627,64396
27.50440,64013
27.51252,60560
27.52065,58036
27.52877,60987
27.53688,62684
27.54502,65196
27.55313,59421
27.56125,62453
27.56938,62279
27.57750,60377
27.58563,60564
27.59375,56825
27.60187,52233
27.61000,53646
27.61812,54048
27.62625,58840
27.63437,57447
27.64248,60803
27.65062,59651
27.65873,53776
27.66687,56872
27.67498,56049
27.68310,52691
27.69123,53115
27.69935,49600
27.70747,50138
27.71560,50141
27.72372,47289
27.73185,46425
27.73997,51783
27.74808,45057
27.75622,48926
27.76433,50613
27.77247,44892
27.78058,48403
27.78870,48443
27.79683,47248
27.80495,49151
27.81307,44305
27.82120,46338
27.82932,44074
27.83745,54529
27.84557,49560
27.85368,53564
27.86182,54159
27.86993,52095
27.87807,47535
27.88618,47577
27.89430,45528
27.90243,46779
27.91055,46623
27.91868,48578
27.92680,42877
27.93492,45626
27.94305,39709
27.95117,44618
27.95928,44231
27.96742,41635
27.97553,47422
27.98367,41918
27.99178,43151
27.99990,43929
28.00803,41941
28.01615,42291
28.02428,46438
28.03240,42447
28.04052,40260
28.04865,43751
28.05677,45998
28.06490,45906
28.07302,43421
28.08113,41223
28.08927,41055
28.09738,40761
28.10550,39661
28.11363,45717
28.12175,41432
28.12988,39775
28.13800,45739
28.14612,40261
28.15425,42005
28.16237,40167
28.17050,39830
28.17862,46802
28.18673,40485
28.19487,37977
28.20298,42172
28.21110,49403
28.21923,50591
28.22735,50230
28.23548,55392
28.24360,52597
28.25172,52176
28.25985,44478
28.26797,51264
28.27610,41670
28.28422,45465
28.29233,43333
28.30047,46352
28.30858,49847
28.31672,61180
28.32483,85787
28.33295,119765
28.34108,159455
28.34920,229008
28.35732,281936
28.36545,340630
28.37357,389774
28.38170,382979
28.38982,404017
28.39793,391125
28.40607,375823
28.41418,338094
28.42232,304198
28.43043,248147
28.43855,224680
28.44668,193997
28.45480,177657
28.46293,157172
28.47105,142143
28.47917,124991
28.48730,123506
28.49542,111123
28.50353,100181
28.51167,107151
28.51978,100716
28.52792,92842
28.53603,93321
28.54415,87732
28.55228,84663
28.56040,84822
28.56853,83176
28.57665,76841
28.58477,82289
28.59290,74394
28.60102,72741
28.60913,72403
28.61727,69451
28.62538,72014
28.63352,71331
28.64163,66089
28.64975,67253
28.65788,70867
28.66600,72106
28.67413,69843
28.68225,73725
28.69037,77457
28.69850,69047
28.70662,70105
28.71475,63990
28.72287,65615
28.73098,61201
28.73912,63018
28.74723,56694
28.75535,59096
28.76348,60200
28.77160,66331
28.77973,74870
28.78785,77746
28.79597,87317
28.80410,94168
28.81222,80176
28.82035,71576
28.82847,64715
28.83658,57845
28.84472,55428
28.85283,56600
28.86097,51804
28.86908,52572
28.87720,51032
28.88533,49583
28.89345,48565
28.90157,55027
28.90970,49794
28.91782,48527
28.92595,58665
28.93407,50483
28.94218,47128
28.95032,49719
28.95843,52441
28.96657,50442
28.97468,52644
28.98280,50786
28.99093,52932
28.99905,50822
29.00717,54888
29.01530,49446
29.02342,50762
29.03155,46584
29.03967,50821
29.04778,54694
29.05592,46606
29.06403,47806
29.07217,46767
29.08028,44344
29.08840,47162
29.09653,48552
29.10465,46623
29.11278,44829
29.12090,48510
29.12902,54911
29.13715,56299
29.14527,55896
29.15338,49514
29.16152,49080
29.16963,55641
29.17777,47645
29.18588,56018
29.19400,50980
29.20213,52322
29.21025,56137
29.21838,48134
29.22650,49612
29.23462,48996
29.24275,42880
29.25087,48614
29.25898,47779
29.26712,53453
29.27523,51424
29.28337,48903
29.29148,50730
29.29960,46301
29.30773,52637
29.31585,50886
29.32398,48406
29.33210,48078
29.34022,46606
29.34835,51154
29.35647,41508
29.36460,41802
29.37272,47748
29.38083,45172
29.38897,49580
29.39708,50602
29.40520,47231
29.41333,51699
29.42145,51475
29.42958,52834
29.43770,52376
29.44582,50759
29.45395,47685
29.46207,51470
29.47020,44113
29.47832,45894
29.48643,47482
29.49457,45605
29.50268,47776
29.51082,49385
29.51893,53189
29.52705,57228
29.53518,59349
29.54330,53522
29.55142,51151
29.55955,46567
29.56767,46276
29.57580,43734
29.58392,46065
29.59203,43049
29.60017,43590
29.60828,41247
29.61642,46013
29.62453,43995
29.63265,47237
29.64078,45647
29.64890,45765
29.65702,45717
29.66515,49710
29.67327,47382
29.68140,43339
29.68952,44595
29.69763,45984
29.70577,44523
29.71388,42665
29.72202,39580
29.73013,41631
29.73825,41416
29.74638,49554
29.75450,41920
29.76263,43869
29.77075,38580
29.77887,41803
29.78700,38145
29.79512,42200
29.80323,37081
29.81137,40473
29.81948,42165
29.82762,44842
29.83573,44490
29.84385,40059
29.85198,36937
29.86010,43526
29.86823,38865
29.87635,42197
29.88447,40392
29.89260,45044
29.90072,51487
29.90885,57199
29.91697,58000
29.92508,54805
29.93322,53621
29.94133,51878
29.94945,51009
29.95758,60442
29.96570,63739
29.97383,70896
29.98195,81063
29.99007,92378
29.99820,113209
30.00632,134553
30.01445,149451
30.02257,155616
30.03068,169197
30.03882,178828
30.04693,174801
30.05505,180250
30.06318,170521
30.07130,172052
30.07943,160812
30.08755,148983
30.09567,140485
30.10380,131086
30.11192,122939
30.12005,119835
30.12817,107185
30.13628,98040
30.14442,92179
30.15253,86151
30.16067,85471
30.16878,79827
30.17690,76264
30.18503,79048
30.19315,70859
30.20127,76178
30.20940,65901
30.21752,64671
30.22565,65028
30.23377,59885
30.24188,62843
30.25002,65358
30.25813,64406
30.26627,54313
30.27438,59050
30.28250,57780
30.29063,52996
30.29875,51053
30.30687,56949
30.31500,56264
30.32312,58302
30.33125,57277
30.33937,52602
30.34748,53426
30.35562,54185
30.36373,55224
30.37187,50021
30.37998,55720
30.38810,49827
30.39623,45901
30.40435,50078
30.41248,51127
30.42060,54539
30.42872,46333
30.43685,53398
30.44497,49382
30.45308,49397
30.46122,43802
30.46933,46067
30.47747,46334
30.48558,49330
30.49370,47474
30.50183,47443
30.50995,46833
30.51808,45216
30.52620,42529
30.53432,41950
30.54245,46580
30.55057,41556
30.55870,47007
30.56682,46218
30.57493,41792
30.58307,42978
30.59118,44036
30.59930,43578
30.60743,41793
30.61555,43634
30.62368,42293
30.63180,42372
30.63992,48398
30.64805,40625
30.65617,41239
30.66430,44028
30.67242,44767
30.68053,40861
30.68867,42611
30.69678,42256
30.70492,40504
30.71303,39870
30.72115,39930
30.72928,39539
30.73740,43599
30.74552,43599
30.75365,41117
30.76177,39304
30.76990,40522
30.77802,47467
30.78613,39994
30.79427,37915
30.80238,43964
30.81052,38801
30.81863,43380
30.82675,49951
30.83488,45018
30.84300,45307
30.85112,43658
30.85925,43244
30.86737,47084
30.87550,45135
30.88362,45777
30.89173,42089
30.89987,39040
30.90798,41378
30.91612,41352
30.92423,47606
30.93235,37740
30.94048,42355
30.94860,39402
30.95673,39073
30.96485,42023
30.97297,42309
30.98110,36734
30.98922,33534
30.99733,39704
31.00547,42151
31.01358,39789
31.02172,45598
31.02983,39989
31.03795,40743
31.04608,43331
31.05420,42809
31.06233,44975
31.07045,43987
31.07857,39507
31.08670,40200
31.09482,45155
31.10293,46636
31.11107,57097
31.11918,61168
31.12732,53507
31.13543,54892
31.14355,53075
31.15168,47002
31.15980,53970
31.16793,44367
31.17605,57445
31.18417,73672
31.19230,118751
31.20042,204256
31.20855,328429
31.21667,549036
31.22478,778956
31.23292,1063695
31.24103,1207245
31.24915,1159744
31.25728,905645
31.26540,621689
31.27353,372527
31.28165,216570
31.28977,129993
31.29790,87568
31.30602,68448
31.31415,59719
31.32227,54094
31.33038,50274
31.33852,48677
31.34663,54903
31.35477,47108
31.36288,50194
31.37100,47054
31.37913,42792
31.38725,47775
31.39537,46657
31.40350,48383
31.41162,44673
31.41975,47109
31.42787,46614
31.43598,52830
31.44412,48737
31.45223,48648
31.46037,47781
31.46848,47222
31.47660,44161
31.48473,46069
31.49285,41979
31.50097,41440
31.50910,40434
31.51722,42463
31.52535,40770
31.53347,41901
31.54158,40978
31.54972,37652
31.55783,39281
31.56597,40876
31.57408,41961
31.58220,42774
31.59033,40150
31.59845,43798
31.60658,41547
31.61470,41123
31.62282,39810
31.63095,41060
31.63907,43269
31.64718,41710
31.65532,40849
31.66343,41440
31.67157,40397
31.67968,42380
31.68780,42308
31.69593,43598
31.70405,36585
31.71218,41591
31.72030,39263
31.72842,37980
31.73655,38739
31.74467,43478
31.75280,39567
31.76092,38860
31.76903,36962
31.77717,43041
31.78528,38297
31.79340,34688
31.80153,39692
31.80965,41753
31.81778,47938
31.82590,40604
31.83402,42521
31.84215,40373
31.85027,43002
31.85840,42546
31.86652,47433
31.87463,47602
31.88277,45884
31.89088,48427
31.89900,48222
31.90713,49068
31.91525,51912
31.92338,50485
31.93150,62860
31.93962,70545
31.94775,81181
31.95587,86627
31.96400,100578
31.97212,105658
31.98023,113420
31.98837,117371
31.99648,115086
32.00462,119647
32.01273,111875
32.02085,110133
32.02898,100443
32.03710,96135
32.04522,90791
32.05335,80235
32.06147,81998
32.06960,71586
32.07772,71562
32.08583,75432
32.09397,70074
32.10208,71517
32.11022,70576
32.11833,70477
32.12645,70001
32.13458,61090
32.14270,57441
32.15082,57126
32.15895,54824
32.16707,50924
32.17520,51842
32.18332,53496
32.19143,50507
32.19957,47741
32.20768,48622
32.21582,47228
32.22393,54399
32.23205,46451
32.24018,56348
32.24830,49399
32.25643,49279
32.26455,46548
32.27267,49748
32.28080,44828
32.28892,45108
32.29703,46991
32.30517,41877
32.31328,43597
32.32142,48748
32.32953,45363
32.33765,50285
32.34578,49636
32.35390,49121
32.36203,47956
32.37015,55700
32.37827,57679
32.38640,54670
32.39452,54053
32.40265,47496
32.41077,46859
32.41888,41655
32.42702,42354
32.43513,41550
32.44325,41843
32.45138,46170
32.45950,43935
32.46763,45586
32.47575,42992
32.48387,43252
32.49200,45921
32.50012,46810
32.50825,43457
32.51637,43581
32.52448,44279
32.53262,43286
32.54073,40870
32.54885,42151
32.55698,42057
32.56510,39812
32.57323,44700
32.58135,41444
32.58947,40837
32.59760,41834
32.60572,41424
32.61385,43453
32.62197,41777
32.63008,41342
32.63822,42423
32.64633,41270
32.65447,41839
32.66258,44803
32.67070,45948
32.67883,59416
32.68695,68989
32.69507,65732
32.70320,68551
32.71132,61049
32.71945,57477
32.72757,50216
32.73568,45464
32.74382,46669
32.75193,46632
32.76007,46832
32.76818,43732
32.77630,43972
32.78443,40716
32.79255,37049
32.80068,41360
32.80880,37560
32.81692,39454
32.82505,41169
32.83317,38500
32.84128,37406
32.84942,39610
32.85753,40242
32.86567,41146
32.87378,42326
32.88190,41007
32.89003,44903
32.89815,41186
32.90628,43112
32.91440,41501
32.92252,47233
32.93065,41157
32.93877,45623
32.94688,40541
32.95502,37989
32.96313,38856
32.97127,43237
32.97938,42742
32.98750,44135
32.99563,45940
33.00375,41684
33.01188,37799
33.02000,40605
33.02812,40676
33.03625,40293
33.04437,45036
33.05250,39480
33.06062,37668
33.06873,40816
33.07687,38661
33.08498,37336
33.09310,39110
33.10123,43842
33.10935,48096
33.11748,59724
33.12560,60914
33.13372,63165
33.14185,68525
33.14997,57499
33.15810,63066
33.16622,55599
33.17433,49684
33.18247,46819
33.19058,45009
33.19872,43022
33.20683,41564
33.21495,44566
33.22308,40135
33.23120,46913
33.23932,43425
33.24745,40750
33.25557,46575
33.26370,44228
33.27182,40395
33.27993,42466
33.28807,40824
33.29618,39363
33.30432,42883
33.31243,41082
33.32055,38241
33.32868,41413
33.33680,43794
33.34492,42254
33.35305,39555
33.36117,43597
33.36930,49288
33.37742,43741
33.38553,40740
33.39367,46194
33.40178,48800
33.40992,43542
33.41803,42254
33.42615,41986
33.43428,41100
33.44240,40640
33.45053,45590
33.45865,41920
33.46677,40357
33.47490,41554
33.48302,41312
33.49113,42924
33.49927,43097
33.50738,43503
33.51552,42115
33.52363,43600
33.53175,43924
33.53988,41096
33.54800,37035
33.55613,40741
33.56425,45275
33.57237,39517
33.58050,41032
33.58862,39433
33.59673,39575
33.60487,45397
33.61298,39301
33.62112,40027
33.62923,39059
33.63735,38335
33.64548,39987
33.65360,48875
33.66173,39095
33.66985,39140
33.67797,35319
33.68610,42412
33.69422,40788
33.70235,42652
33.71047,40956
33.71858,43628
33.72672,42861
33.73483,44090
33.74295,42284
33.75108,47239
33.75920,43981
33.76733,40525
33.77545,41434
33.78357,43820
33.79170,41126
33.79982,49589
33.80795,43755
33.81607,43154
33.82418,46079
33.83232,45649
33.84043,48858
33.84857,44027
33.85668,48223
33.86480,46376
33.87293,49016
33.88105,50910
33.88917,44867
33.89730,47709
33.90542,45561
33.91355,43993
33.92167,45766
33.92978,42137
33.93792,44123
33.94603,50952
33.95417,46485
33.96228,42839
33.97040,46588
33.97853,45986
33.98665,41577
33.99477,39706
34.00290,47424
34.01102,43388
34.01915,42284
34.02727,41320
34.03538,49218
34.04352,43441
34.05163,38916
34.05977,38935
34.06788,38258
34.07600,39191
34.08413,44823
34.09225,42674
34.10038,42065
34.10850,44785
34.11662,47673
34.12475,47893
34.13287,47089
34.14098,41955
34.14912,42966
34.15723,39902
34.16537,41117
34.17348,50411
34.18160,43045
34.18973,42028
34.19785,43246
34.20598,44882
34.21410,39872
34.22222,46624
34.23035,42570
34.23847,42553
34.24660,44436
34.25472,44143
34.26283,41475
34.27097,45522
34.27908,49376
34.28720,45173
34.29533,44999
34.30345,47950
34.31158,43359
34.31970,49649
34.32782,38620
34.33595,46508
34.34407,41957
34.35220,45430
34.36032,39608
34.36843,41026
34.37657,40611
34.38468,40210
34.39280,41760
34.40093,42376
34.40905,43518
34.41718,43608
34.42530,43536
34.43342,44281
34.44155,43000
34.44967,44990
34.45780,45114
34.46592,46157
34.47403,41595
34.48217,42878
34.49028,44435
34.49842,46079
34.50653,46000
34.51465,46500
34.52278,42292
34.53090,53240
34.53902,59604
34.54715,66958
34.55527,78194
34.56340,90635
34.57152,90208
34.57963,97449
34.58777,103218
34.59588,89791
34.60402,85834
34.61213,81488
34.62025,75184
34.62838,67246
34.63650,66545
34.64462,64069
34.65275,63422
34.66087,60587
34.66900,60377
34.67712,60132
34.68523,62594
34.69337,57679
34.70148,55675
34.70962,56364
34.71773,50932
34.72585,48126
34.73398,56936
34.74210,52770
34.75023,54747
34.75835,54339
34.76647,55014
34.77460,51756
34.78272,51837
34.79083,53483
34.79897,50728
34.80708,48857
34.81522,48292
34.82333,49882
34.83145,51007
34.83958,52355
34.84770,51158
34.85583,53748
34.86395,52899
34.87207,48323
34.88020,47176
34.88832,46568
34.89645,51442
34.90457,47886
34.91268,53500
34.92082,49708
34.92893,51212
34.93705,48019
34.94518,50350
34.95330,55222
34.96143,50826
34.96955,53908
34.97767,58184
34.98580,60432
34.99392,61322
35.00205,53953
35.01017,55845
35.01828,57709
35.02642,53026
35.03453,52197
35.04265,54081
35.05078,57016
35.05890,54294
35.06703,53464
35.07515,46065
35.08327,50671
35.09140,51022
35.09952,54382
35.10765,52922
35.11577,52851
35.12388,51930
35.13202,51469
35.14013,55548
35.14827,57029
35.15638,62630
35.16450,69641
35.17263,68200
35.18075,71995
35.18887,62884
35.19700,62101
35.20512,60316
35.21325,51348
35.22137,52318
35.22948,47899
35.23762,50937
35.24573,50162
35.25387,49672
35.26198,55343
35.27010,49067
35.27823,52961
35.28635,51765
35.29448,49784
35.30260,50115
35.31072,47472
35.31885,47272
35.32697,45364
35.33508,48463
35.34322,48933
35.35133,42663
35.35947,48645
35.36758,48669
35.37570,48353
35.38383,48155
35.39195,47391
35.40008,44377
35.40820,51830
35.41632,45421
35.42445,47718
35.43257,45023
35.44068,45838
35.44882,50649
35.45693,46106
35.46507,51956
35.47318,50098
35.48130,54337
35.48943,55332
35.49755,52597
35.50568,57626
35.51380,48907
35.52192,51253
35.53005,51408
35.53817,50378
35.54630,49090
35.55442,49634
35.56253,46635
35.57067,56255
35.57878,50338
35.58690,53031
35.59503,52733
35.60315,49643
35.61128,49047
35.61940,54909
35.62752,48632
35.63565,48371
35.64377,49718
35.65190,48579
35.66002,48134
35.66813,53913
35.67627,49097
35.68438,48873
35.69250,53669
35.70063,57248
35.70875,63485
35.71688,60689
35.72500,60101
35.73312,57216
35.74125,61770
35.74937,52193
35.75750,56031
35.76562,47580
35.77373,53253
35.78187,56530
35.78998,51890
35.79812,51988
35.80623,50395
35.81435,52523
35.82248,52483
35.83060,51689
35.83872,52450
35.84685,53091
35.85497,53137
35.86310,47526
35.87122,52247
35.87933,49247
35.88747,51089
35.89558,50025
35.90372,53601
35.91183,55232
35.91995,51288
35.92808,49699
35.93620,56335
35.94433,48030
35.95245,46790
35.96057,48798
35.96870,48839
35.97682,51414
35.98493,48991
35.99307,51118
36.00118,54348
36.00932,50408
36.01743,55123
36.02555,54513
36.03368,53057
36.04180,53351
36.04993,53305
36.05805,57094
36.06617,56011
36.07430,54726
36.08242,55026
36.09055,58787
36.09867,52424
36.10678,54683
36.11492,54303
36.12303,56897
36.13115,53289
36.13928,53644
36.14740,49254
36.15553,53930
36.16365,53476
36.17177,53516
36.17990,51631
36.18802,53289
36.19615,54901
36.20427,56078
36.21238,57701
36.22052,53796
36.22863,53108
36.23675,59787
36.24488,56041
36.25300,50820
36.26113,51806
36.26925,56940
36.27737,53451
36.28550,56831
36.29362,56031
36.30175,58254
36.30987,58320
36.31798,65119
36.32612,66392
36.33423,79658
36.34237,77248
36.35048,79828
36.35860,75306
36.36673,73041
36.37485,71937
36.38297,77105
36.39110,74684
36.39922,80261
36.40735,80178
36.41547,73884
36.42358,70627
36.43172,67418
36.43983,63538
36.44797,60263
36.45608,59593
36.46420,55850
36.47233,57079
36.48045,54181
36.48857,51937
36.49670,52972
36.50482,53934
36.51295,54426
36.52107,50636
36.52918,54682
36.53732,52553
36.54543,53659
36.55357,53507
36.56168,49335
36.56980,54091
36.57793,55339
36.58605,54210
36.59418,54834
36.60230,54544
36.61042,55314
36.61855,55482
36.62667,49991
36.63478,51486
36.64292,56867
36.65103,55817
36.65917,50421
36.66728,50708
36.67540,55349
36.68353,57419
36.69165,57277
36.69978,56720
36.70790,61629
36.71602,56156
36.72415,54374
36.73227,58278
36.74040,58758
36.74852,56399
36.75663,50777
36.76477,53969
36.77288,57136
36.78100,58225
36.78913,52377
36.79725,56635
36.80538,53766
36.81350,54015
36.82162,51421
36.82975,53355
36.83787,52204
36.84600,52443
36.85412,52731
36.86223,55332
36.87037,55423
36.87848,54302
36.88660,49308
36.89473,53532
36.90285,48910
36.91098,56804
36.91910,57952
36.92722,53837
36.93535,54000
36.94347,56162
36.95160,54145
36.95972,53274
36.96783,56025
36.97597,57785
36.98408,51981
36.99222,56620
37.00033,55990
37.00845,53720
37.01658,57976
37.02470,54329
37.03282,56536
37.04095,54372
37.04907,55423
37.05720,52307
37.06532,55856
37.07343,61645
37.08157,54924
37.08968,54124
37.09782,58641
37.10593,62035
37.11405,55272
37.12218,53079
37.13030,55707
37.13843,58372
37.14655,57905
37.15467,60396
37.16280,54451
37.17092,55959
37.17903,51614
37.18717,56712
37.19528,57417
37.20342,59179
37.21153,55008
37.21965,61238
37.22778,61969
37.23590,59438
37.24403,56016
37.25215,57827
37.26027,64524
37.26840,56084
37.27652,59404
37.28463,59853
37.29277,58049
37.30088,59808
37.30902,61400
37.31713,60788
37.32525,60611
37.33338,59518
37.34150,63469
37.34963,68211
37.35775,69400
37.36587,86041
37.37400,91356
37.38212,92897
37.39025,100196
37.39837,93502
37.40648,84921
37.41462,75107
37.42273,74033
37.43085,76249
37.43898,72912
37.44710,71736
37.45523,67636
37.46335,67204
37.47147,69224
37.47960,72819
37.48772,71599
