D:\MassHunter\GCMS\1\data\JTB-E02\BACandSTRAW\JTB-E12-002-08.D Fri Mar 15 11:21:52 2019
Start of data points
2.09532	94631
2.10345	101576
2.11157	93063
2.11968	98334
2.12782	95040
2.13593	93475
2.14407	93668
2.15218	91438
2.16030	90988
2.16843	107971
2.17655	87868
2.18468	86077
2.19280	82227
2.20092	84590
2.20905	77081
2.21717	75999
2.22530	78093
2.23342	76411
2.24153	70324
2.24967	74516
2.25778	70929
2.26590	67136
2.27403	65518
2.28215	66732
2.29028	68910
2.29840	64095
2.30652	64876
2.31465	66774
2.32277	64249
2.33090	67125
2.33902	66202
2.34713	59850
2.35527	62983
2.36338	56560
2.37152	63675
2.37963	65067
2.38775	274959
2.39588	3949700
2.40400	9105160
2.41212	5391667
2.42025	1922853
2.42837	1287601
2.43650	1066962
2.44462	892336
2.45273	762832
2.46087	676321
2.46898	612753
2.47712	536260
2.48523	491289
2.49335	452010
2.50148	436300
2.50960	421203
2.51772	396667
2.52585	379930
2.53397	353447
2.54210	344883
2.55022	338362
2.55833	325943
2.56647	309486
2.57458	310628
2.58272	310888
2.59083	298712
2.59895	284674
2.60708	278416
2.61520	275203
2.62333	267165
2.63145	282513
2.63957	273198
2.64770	265961
2.65582	256024
2.66393	253730
2.67207	245537
2.68018	248684
2.68832	252761
2.69643	261043
2.70455	259530
2.71268	253095
2.72080	244411
2.72893	234493
2.73705	233647
2.74517	235779
2.75330	290061
2.76142	319344
2.76955	290142
2.77767	256740
2.78578	248471
2.79392	238304
2.80203	229289
2.81015	230192
2.81828	222599
2.82640	219368
2.83453	223458
2.84265	216667
2.85077	208432
2.85890	204326
2.86702	210502
2.87515	202202
2.88327	207998
2.89138	203348
2.89952	207316
2.90763	199801
2.91575	194998
2.92388	194045
2.93200	191412
2.94013	222323
2.94825	212571
2.95637	208370
2.96450	196353
2.97262	196043
2.98075	208087
2.98887	205717
2.99698	202659
3.00512	187446
3.01323	190287
3.02137	189920
3.02948	186038
3.03760	186430
3.04573	180565
3.05385	178160
3.06197	183746
3.07010	181041
3.07822	176790
3.08635	172794
3.09447	176666
3.10258	181662
3.11072	173244
3.11883	174902
3.12697	165707
3.13508	172317
3.14320	166849
3.15133	169754
3.15945	171324
3.16758	181963
3.17570	172857
3.18382	172155
3.19195	165843
3.20007	168420
3.20818	157876
3.21632	162582
3.22443	170101
3.23257	171483
3.24068	151416
3.24880	158743
3.25693	167241
3.26505	330212
3.27318	2427190
3.28130	8310888
3.28942	9413828
3.29755	5714562
3.30567	3724221
3.31380	2971980
3.32192	2483535
3.33003	2045646
3.33817	1744264
3.34628	1646462
3.35440	5386526
3.36253	2.158673E+07
3.37065	3.119711E+07
3.37878	2.742513E+07
3.38690	2.02191E+07
3.39502	1.656649E+07
3.40315	1.431234E+07
3.41127	1.239636E+07
3.41940	1.073305E+07
3.42752	9435540
3.43563	8425879
3.44377	7444163
3.45188	6759152
3.46000	6324652
3.46813	6518251
3.47625	6897288
3.48438	6517714
3.49250	5831193
3.50062	5207181
3.50875	4775632
3.51687	4333649
3.52500	4004127
3.53312	3677377
3.54123	3403583
3.54937	3193392
3.55748	2975832
3.56562	2779303
3.57373	2634415
3.58185	2446364
3.58998	2310936
3.59810	2173666
3.60622	2071568
3.61435	1974485
3.62247	1863968
3.63060	1764540
3.63872	1704252
3.64683	1623671
3.65497	1547952
3.66308	1479890
3.67122	1424537
3.67933	1372673
3.68745	1303020
3.69558	1257965
3.70370	1217360
3.71183	1179963
3.71995	1138013
3.72807	1098521
3.73620	1067135
3.74432	1026747
3.75243	991356
3.76057	961705
3.76868	928711
3.77682	915539
3.78493	875379
3.79305	855707
3.80118	832442
3.80930	818901
3.81743	814152
3.82555	806074
3.83367	781328
3.84180	743011
3.84992	761478
3.85803	1275844
3.86617	4777273
3.87428	1.105885E+07
3.88242	1.171053E+07
3.89053	7043242
3.89865	4170494
3.90678	3163185
3.91490	2641552
3.92303	2278144
3.93115	2018312
3.93927	1834647
3.94740	1726922
3.95552	1614346
3.96365	1572886
3.97177	2273721
3.97988	9178777
3.98802	2.608994E+07
3.99613	3.650258E+07
4.00425	3.197311E+07
4.01238	1.880914E+07
4.02050	9965557
4.02863	6810107
4.03675	5251124
4.04487	4348368
4.05300	3739812
4.06112	3246080
4.06925	2877103
4.07737	2776497
4.08548	3220085
4.09362	3403495
4.10173	2851836
4.10987	2242749
4.11798	1970840
4.12610	1777808
4.13423	1641475
4.14235	1542581
4.15047	1458303
4.15860	1398109
4.16672	1308903
4.17485	1252312
4.18297	1175953
4.19108	1147992
4.19922	1082092
4.20733	1052923
4.21547	1015202
4.22358	974070
4.23170	935886
4.23983	932054
4.24795	909202
4.25607	878261
4.26420	846412
4.27232	814986
4.28045	812081
4.28857	805657
4.29668	843823
4.30482	834391
4.31293	781396
4.32107	734587
4.32918	704106
4.33730	677739
4.34543	665302
4.35355	664275
4.36168	728797
4.36980	1334717
4.37792	3347130
4.38605	5626842
4.39417	5346353
4.40228	3317376
4.41042	1952590
4.41853	1446993
4.42667	1179540
4.43478	1004298
4.44290	878338
4.45103	836906
4.45915	936000
4.46728	1248818
4.47540	1443000
4.48352	1272441
4.49165	1003255
4.49977	839407
4.50790	746322
4.51602	697817
4.52413	634314
4.53227	605876
4.54038	584663
4.54850	554562
4.55663	546589
4.56475	526730
4.57288	516544
4.58100	498777
4.58912	491666
4.59725	471940
4.60537	456215
4.61350	448030
4.62162	437018
4.62973	435012
4.63787	425459
4.64598	432067
4.65412	426753
4.66223	406513
4.67035	413789
4.67848	398372
4.68660	394457
4.69472	389160
4.70285	383508
4.71097	390859
4.71910	390162
4.72722	383445
4.73533	386010
4.74347	368131
4.75158	365835
4.75972	372683
4.76783	435330
4.77595	534506
4.78408	569279
4.79220	491835
4.80032	402385
4.80845	376453
4.81657	362842
4.82470	412640
4.83282	582911
4.84093	893166
4.84907	1023008
4.85718	813609
4.86532	577005
4.87343	460482
4.88155	403586
4.88968	402975
4.89780	394925
4.90593	391188
4.91405	374430
4.92217	358185
4.93030	333550
4.93842	325191
4.94653	328568
4.95467	310704
4.96278	307560
4.97092	307937
4.97903	305935
4.98715	303872
4.99528	301412
5.00340	288627
5.01153	291658
5.01965	303674
5.02777	344087
5.03590	447773
5.04402	547534
5.05215	511644
5.06027	405680
5.06838	344300
5.07652	316493
5.08463	331117
5.09275	331107
5.10088	314912
5.10900	299860
5.11713	291179
5.12525	289430
5.13337	287306
5.14150	360169
5.14962	571583
5.15775	909514
5.16587	1224974
5.17398	1252990
5.18212	1122348
5.19023	1004400
5.19835	1493472
5.20648	5207127
5.21460	1.690696E+07
5.22273	3.21403E+07
5.23085	3.655491E+07
5.23897	2.76608E+07
5.24710	1.495117E+07
5.25522	8310743
5.26335	5889930
5.27147	4674964
5.27958	3878530
5.28772	3326773
5.29583	2960571
5.30397	2662394
5.31208	2468811
5.32020	2294836
5.32833	2119389
5.33645	2010645
5.34457	1903626
5.35270	1821806
5.36082	1744778
5.36895	1652978
5.37707	1586662
5.38518	1516907
5.39332	1445286
5.40143	1400133
5.40957	1341254
5.41768	1312001
5.42580	1289411
5.43393	1249453
5.44205	1222479
5.45018	1158061
5.45830	1128893
5.46642	1112075
5.47455	1052564
5.48267	1032113
5.49078	1009503
5.49892	999130
5.50703	967208
5.51517	916279
5.52328	927808
5.53140	893682
5.53953	882553
5.54765	851036
5.55578	820436
5.56390	831316
5.57202	811580
5.58015	796681
5.58827	807121
5.59638	826425
5.60452	860796
5.61263	839563
5.62077	839628
5.62888	977475
5.63700	2102352
5.64513	6012586
5.65325	1.287875E+07
5.66138	1.807416E+07
5.66950	1.684817E+07
5.67762	1.104906E+07
5.68575	5900488
5.69387	3423528
5.70200	2450321
5.71012	2140884
5.71823	1989807
5.72637	1776857
5.73448	1574249
5.74260	1368557
5.75073	1248802
5.75885	1135314
5.76698	1065342
5.77510	1014518
5.78322	968236
5.79135	969990
5.79947	959680
5.80760	990599
5.81572	1380474
5.82383	2521707
5.83197	4064352
5.84008	4797949
5.84822	3943282
5.85633	2551660
5.86445	1637271
5.87258	1209890
5.88070	1031450
5.88882	943415
5.89695	882608
5.90507	844758
5.91320	799155
5.92132	772175
5.92943	740506
5.93757	700575
5.94568	700001
5.95382	687341
5.96193	688081
5.97005	667995
5.97818	699508
5.98630	723935
5.99443	703724
6.00255	648106
6.01067	628882
6.01880	592975
6.02692	592438
6.03503	566222
6.04317	543198
6.05128	552804
6.05942	521158
6.06753	502669
6.07565	478639
6.08378	473478
6.09190	466835
6.10003	457668
6.10815	458805
6.11627	431881
6.12440	450469
6.13252	430574
6.14063	412159
6.14877	426764
6.15688	419223
6.16502	503206
6.17313	969753
6.18125	2191428
6.18938	3963875
6.19750	4819317
6.20563	3888176
6.21375	2342293
6.22187	1321167
6.23000	898646
6.23812	748558
6.24625	756659
6.25437	1134092
6.26248	2765219
6.27062	6897436
6.27873	1.267159E+07
6.28685	1.570953E+07
6.29498	1.342047E+07
6.30310	8224522
6.31123	4192676
6.31935	2335832
6.32747	1640576
6.33560	1354268
6.34372	1153044
6.35185	1046131
6.35997	938622
6.36808	908929
6.37622	836193
6.38433	799504
6.39247	753037
6.40058	732663
6.40870	708959
6.41683	675444
6.42495	663869
6.43307	639125
6.44120	649991
6.44932	645256
6.45745	623506
6.46557	578337
6.47368	561833
6.48182	546519
6.48993	542968
6.49807	532721
6.50618	515762
6.51430	582381
6.52243	885952
6.53055	1685265
6.53867	2939194
6.54680	3839702
6.55492	3499693
6.56305	2355983
6.57117	1388250
6.57928	874371
6.58742	686569
6.59553	622759
6.60367	568496
6.61178	546279
6.61990	520518
6.62803	508527
6.63615	483825
6.64428	475643
6.65240	471267
6.66052	457831
6.66865	464510
6.67677	446648
6.68488	444319
6.69302	440280
6.70113	435404
6.70927	429799
6.71738	417831
6.72550	417615
6.73363	430000
6.74175	413052
6.74988	413006
6.75800	410630
6.76612	410924
6.77425	398881
6.78237	404878
6.79050	391642
6.79862	402689
6.80673	407860
6.81487	393607
6.82298	393020
6.83110	390245
6.83923	382484
6.84735	386740
6.85548	428764
6.86360	559182
6.87172	775751
6.87985	924609
6.88797	890340
6.89610	728502
6.90422	621676
6.91233	554616
6.92047	498157
6.92858	448713
6.93670	436687
6.94483	466800
6.95295	569887
6.96108	716984
6.96920	939800
6.97732	1357444
6.98545	1914514
6.99357	2054761
7.00170	1639877
7.00982	1059478
7.01793	700389
7.02607	552323
7.03418	501745
7.04232	455755
7.05043	431267
7.05855	422163
7.06668	410531
7.07480	413170
7.08292	405133
7.09105	400368
7.09917	447066
7.10730	404160
7.11542	381663
7.12353	368380
7.13167	372351
7.13978	356873
7.14792	351441
7.15603	349486
7.16415	355384
7.17228	338595
7.18040	345725
7.18853	321505
7.19665	305907
7.20477	300536
7.21290	311235
7.22102	301240
7.22913	284547
7.23727	290542
7.24538	287058
7.25352	309928
7.26163	393800
7.26975	528464
7.27788	633105
7.28600	614122
7.29413	501766
7.30225	381528
7.31037	294992
7.31850	248031
7.32662	225241
7.33475	221225
7.34287	216791
7.35098	223219
7.35912	225170
7.36723	218133
7.37535	216257
7.38348	214423
7.39160	211095
7.39973	201217
7.40785	206315
7.41597	203133
7.42410	203552
7.43222	209499
7.44035	199161
7.44847	198210
7.45658	196818
7.46472	189962
7.47283	203721
7.48095	192006
7.48908	200646
7.49720	195040
7.50533	190277
7.51345	185685
7.52157	182706
7.52970	177916
7.53782	179801
7.54595	185909
7.55407	195293
7.56218	215335
7.57032	233876
7.57843	235697
7.58657	230013
7.59468	206449
7.60280	183367
7.61093	187637
7.61905	189067
7.62717	186279
7.63530	187235
7.64342	171208
7.65155	174608
7.65967	162653
7.66778	158229
7.67592	154796
7.68403	163387
7.69217	159996
7.70028	159709
7.70840	171723
7.71653	180154
7.72465	178963
7.73278	180363
7.74090	170250
7.74902	170612
7.75715	183568
7.76527	239612
7.77338	361140
7.78152	578591
7.78963	721489
7.79777	663555
7.80588	512399
7.81400	350865
7.82213	267516
7.83025	241661
7.83838	209070
7.84650	192844
7.85462	185480
7.86275	175979
7.87087	168876
7.87898	180655
7.88712	168481
7.89523	170897
7.90337	178240
7.91148	197436
7.91960	216791
7.92773	216704
7.93585	213248
7.94398	201198
7.95210	198268
7.96022	190227
7.96835	172436
7.97647	168051
7.98460	155918
7.99272	141738
8.00083	154400
8.00897	135919
8.01708	128627
8.02520	127892
8.03333	130556
8.04145	123709
8.04958	118711
8.05770	113769
8.06582	110535
8.07395	117146
8.08207	113247
8.09020	106697
8.09832	107404
8.10643	108924
8.11457	115468
8.12268	120880
8.13082	125727
8.13893	174114
8.14705	306505
8.15518	589641
8.16330	1034964
8.17142	1441907
8.17955	1603961
8.18767	1792380
8.19580	2043431
8.20392	2119226
8.21203	1841442
8.22017	1256514
8.22828	743025
8.23642	446361
8.24453	299657
8.25265	234237
8.26078	204093
8.26890	200000
8.27702	199204
8.28515	191020
8.29327	176458
8.30140	162671
8.30952	134349
8.31763	130127
8.32577	131016
8.33388	134597
8.34202	130943
8.35013	141145
8.35825	147518
8.36638	159554
8.37450	157735
8.38263	169249
8.39075	165424
8.39887	168261
8.40700	192524
8.41512	240849
8.42323	254586
8.43137	262697
8.43948	229672
8.44762	192243
8.45573	159237
8.46385	145698
8.47198	148134
8.48010	138910
8.48823	137177
8.49635	133629
8.50447	128066
8.51260	129125
8.52072	128381
8.52885	133592
8.53697	140912
8.54508	147299
8.55322	148192
8.56133	151011
8.56945	158280
8.57758	163698
8.58570	166678
8.59383	152333
8.60195	144628
8.61007	124055
8.61820	111369
8.62632	113916
8.63445	110224
8.64257	115498
8.65068	123335
8.65882	128403
8.66693	130129
8.67507	119979
8.68318	122059
8.69130	108937
8.69943	108013
8.70755	112845
8.71567	117357
8.72380	119925
8.73192	129846
8.74005	123141
8.74817	135425
8.75628	169845
8.76442	236750
8.77253	331914
8.78067	386539
8.78878	354860
8.79690	270083
8.80503	205228
8.81315	150081
8.82127	127321
8.82940	116958
8.83752	115930
8.84565	112636
8.85377	115878
8.86188	112622
8.87002	110042
8.87813	99378
8.88627	99414
8.89438	101867
8.90250	108866
8.91063	113596
8.91875	125796
8.92688	136353
8.93500	134703
8.94312	123846
8.95125	118554
8.95937	110091
8.96748	103042
8.97562	97817
8.98373	97361
8.99187	99341
8.99998	110928
9.00810	170956
9.01623	300903
9.02435	519835
9.03248	742772
9.04060	801119
9.04872	697412
9.05685	529565
9.06497	373215
9.07310	264666
9.08122	218089
9.08933	197551
9.09747	202718
9.10558	203040
9.11370	208763
9.12183	208894
9.12995	190039
9.13808	184398
9.14620	178477
9.15432	173454
9.16245	165676
9.17057	159075
9.17870	156669
9.18682	152246
9.19493	169427
9.20307	194533
9.21118	218079
9.21930	236291
9.22743	221979
9.23555	200422
9.24368	172974
9.25180	154570
9.25992	143693
9.26805	143149
9.27617	145853
9.28430	133191
9.29242	132643
9.30053	130661
9.30867	146914
9.31678	177633
9.32492	221121
9.33303	252950
9.34115	251369
9.34928	220463
9.35740	179717
9.36552	154539
9.37365	139499
9.38177	141276
9.38990	136366
9.39802	133528
9.40613	131706
9.41427	129375
9.42238	133788
9.43052	139442
9.43863	134719
9.44675	132873
9.45488	136878
9.46300	138556
9.47113	133026
9.47925	130421
9.48737	122496
9.49550	117019
9.50362	127818
9.51173	147017
9.51987	190500
9.52798	289488
9.53612	389867
9.54423	437342
9.55235	418343
9.56048	324681
9.56860	229422
9.57673	174381
9.58485	147702
9.59297	128481
9.60110	124360
9.60922	126566
9.61733	135381
9.62547	136293
9.63358	130951
9.64172	134464
9.64983	119221
9.65795	111292
9.66608	115956
9.67420	111952
9.68233	114775
9.69045	113749
9.69857	117844
9.70670	135782
9.71482	134999
9.72295	133642
9.73107	124475
9.73918	114455
9.74732	112640
9.75543	103528
9.76355	100987
9.77168	95240
9.77980	100454
9.78793	89978
9.79605	86450
9.80417	85017
9.81230	81252
9.82042	77525
9.82855	82383
9.83667	75110
9.84478	83223
9.85292	72202
9.86103	73738
9.86917	78406
9.87728	82261
9.88540	86805
9.89353	86494
9.90165	87835
9.90977	84025
9.91790	73756
9.92602	74367
9.93415	74894
9.94227	72074
9.95038	68929
9.95852	75550
9.96663	94401
9.97477	193922
9.98288	598363
9.99100	1900265
9.99913	4729029
10.00725	9055288
10.01538	1.259394E+07
10.02350	1.35288E+07
10.03162	1.062647E+07
10.03975	6487572
10.04787	3189401
10.05598	1482138
10.06412	748245
10.07223	481953
10.08037	372949
10.08848	442753
10.09660	689671
10.10473	1070161
10.11285	1470380
10.12098	1684522
10.12910	1564885
10.13722	1279847
10.14535	968489
10.15347	765126
10.16158	675519
10.16972	577000
10.17783	549867
10.18597	543272
10.19408	524654
10.20220	509306
10.21033	499277
10.21845	479993
10.22658	477207
10.23470	473447
10.24282	474668
10.25095	484690
10.25907	465003
10.26720	463867
10.27532	447443
10.28343	434218
10.29157	406311
10.29968	403785
10.30780	399207
10.31593	383757
10.32405	382420
10.33218	371403
10.34030	353368
10.34842	341107
10.35655	336727
10.36467	336993
10.37280	329142
10.38092	320974
10.38903	310371
10.39717	302935
10.40528	318884
10.41342	313992
10.42153	313887
10.42965	323221
10.43778	297030
10.44590	292889
10.45402	278462
10.46215	282117
10.47027	280395
10.47840	267614
10.48652	278753
10.49463	268264
10.50277	258100
10.51088	253992
10.51902	261546
10.52713	256310
10.53525	247884
10.54338	254051
10.55150	232736
10.55962	243971
10.56775	239225
10.57587	242677
10.58400	244456
10.59212	238638
10.60023	232915
10.60837	232224
10.61648	222233
10.62462	230322
10.63273	223346
10.64085	221378
10.64898	217804
10.65710	222593
10.66523	246853
10.67335	287469
10.68147	369093
10.68960	426762
10.69772	430837
10.70583	412877
10.71397	398511
10.72208	429165
10.73022	470834
10.73833	449907
10.74645	364121
10.75458	298946
10.76270	247886
10.77083	229686
10.77895	212624
10.78707	209990
10.79520	208090
10.80332	202050
10.81145	198151
10.81957	198326
10.82768	202455
10.83582	207623
10.84393	205919
10.85205	216225
10.86018	213034
10.86830	210346
10.87643	214284
10.88455	203783
10.89267	187928
10.90080	184199
10.90892	179010
10.91705	182254
10.92517	178179
10.93328	182673
10.94142	177742
10.94953	186850
10.95765	195478
10.96578	202847
10.97390	199670
10.98203	170287
10.99015	138990
10.99827	110694
11.00640	94238
11.01452	82765
11.02265	77722
11.03077	83710
11.03888	85394
11.04702	81128
11.05513	76737
11.06327	76520
11.07138	85117
11.07950	74429
11.08763	71030
11.09575	72133
11.10387	74736
11.11200	70272
11.12012	78681
11.12825	79800
11.13637	80571
11.14448	86153
11.15262	88952
11.16073	83042
11.16887	75188
11.17698	81014
11.18510	75009
11.19323	75550
11.20135	75058
11.20948	69540
11.21760	64900
11.22572	66479
11.23385	64037
11.24197	70203
11.25008	66236
11.25822	66597
11.26633	65286
11.27447	74338
11.28258	75967
11.29070	94386
11.29883	111051
11.30695	124495
11.31508	120647
11.32320	108471
11.33132	98720
11.33945	90093
11.34757	78385
11.35570	86706
11.36382	87902
11.37193	125132
11.38007	242424
11.38818	550998
11.39630	1089747
11.40443	1824046
11.41255	2398286
11.42068	2568310
11.42880	2293370
11.43692	1798556
11.44505	1271806
11.45317	822341
11.46130	540038
11.46942	370471
11.47753	307213
11.48567	304033
11.49378	332191
11.50190	382767
11.51003	410999
11.51815	457910
11.52628	477771
11.53440	470869
11.54252	433943
11.55065	378897
11.55877	342311
11.56690	312535
11.57502	287294
11.58313	293400
11.59127	289096
11.59938	271442
11.60752	277148
11.61563	265790
11.62375	272009
11.63188	264007
11.64000	263144
11.64812	249393
11.65625	251124
11.66437	253668
11.67250	243623
11.68062	241495
11.68873	236807
11.69687	237591
11.70498	240720
11.71312	227974
11.72123	241191
11.72935	220913
11.73748	221388
11.74560	220536
11.75373	212663
11.76185	212158
11.76997	205032
11.77810	214720
11.78622	221528
11.79433	201520
11.80247	209932
11.81058	227098
11.81872	262276
11.82683	293632
11.83495	328304
11.84308	331305
11.85120	300030
11.85933	264114
11.86745	231629
11.87557	206599
11.88370	204205
11.89182	202348
11.89993	214116
11.90807	210883
11.91618	205667
11.92432	199232
11.93243	206264
11.94055	206816
11.94868	200633
11.95680	206546
11.96493	196701
11.97305	184970
11.98117	182833
11.98930	181456
11.99742	182918
12.00555	177312
12.01367	188520
12.02178	183506
12.02992	201808
12.03803	203843
12.04615	196860
12.05428	188405
12.06240	187922
12.07053	185630
12.07865	202127
12.08677	193713
12.09490	198238
12.10302	194581
12.11115	192690
12.11927	199653
12.12738	199179
12.13552	195959
12.14363	184419
12.15177	171969
12.15988	158000
12.16800	143015
12.17613	130256
12.18425	108782
12.19237	101464
12.20050	97271
12.20862	94811
12.21675	86049
12.22487	84919
12.23298	90983
12.24112	80469
12.24923	83134
12.25737	82127
12.26548	76912
12.27360	80694
12.28173	83572
12.28985	80580
12.29797	79675
12.30610	88970
12.31422	77754
12.32235	80129
12.33047	93211
12.33858	83262
12.34672	86886
12.35483	98985
12.36297	94634
12.37108	90177
12.37920	89193
12.38733	84993
12.39545	98727
12.40358	129275
12.41170	181005
12.41982	234019
12.42795	276432
12.43607	266392
12.44418	224572
12.45232	165000
12.46043	122024
12.46857	110699
12.47668	93024
12.48480	92062
12.49293	94840
12.50105	94140
12.50918	96165
12.51730	89007
12.52542	88510
12.53355	90407
12.54167	81428
12.54980	75909
12.55792	78206
12.56603	86368
12.57417	86085
12.58228	76702
12.59040	80937
12.59853	89715
12.60665	95967
12.61478	130335
12.62290	186851
12.63102	258859
12.63915	290421
12.64727	286563
12.65540	248938
12.66352	187725
12.67163	142799
12.67977	130006
12.68788	131916
12.69602	140073
12.70413	142555
12.71225	143904
12.72038	143976
12.72850	149161
12.73662	149088
12.74475	144462
12.75287	148752
12.76100	139943
12.76912	141326
12.77723	143875
12.78537	143228
12.79348	145516
12.80162	156736
12.80973	163482
12.81785	152025
12.82598	144774
12.83410	141377
12.84222	139787
12.85035	130315
12.85847	129011
12.86660	127590
12.87472	137132
12.88283	128975
12.89097	127471
12.89908	123985
12.90722	131960
12.91533	124106
12.92345	121216
12.93158	114266
12.93970	117713
12.94783	117106
12.95595	111356
12.96407	108549
12.97220	110728
12.98032	107142
12.98843	103401
12.99657	119541
13.00468	112955
13.01282	115189
13.02093	114179
13.02905	105186
13.03718	103614
13.04530	97248
13.05343	100137
13.06155	95857
13.06967	100271
13.07780	100907
13.08592	106249
13.09405	106039
13.10217	103463
13.11028	101479
13.11842	97940
13.12653	95910
13.13465	97953
13.14278	97471
13.15090	111080
13.15903	122513
13.16715	161034
13.17527	196598
13.18340	214754
13.19152	206916
13.19965	165412
13.20777	143663
13.21588	108612
13.22402	93163
13.23213	83085
13.24025	73978
13.24838	69888
13.25650	74981
13.26463	66714
13.27275	68589
13.28087	64581
13.28900	65821
13.29712	59970
13.30525	63023
13.31337	61628
13.32148	59368
13.32962	65916
13.33773	72102
13.34587	76469
13.35398	79902
13.36210	82721
13.37023	77709
13.37835	72936
13.38647	65972
13.39460	64314
13.40272	60130
13.41085	56021
13.41897	55896
13.42708	61869
13.43522	55828
13.44333	58488
13.45147	56649
13.45958	55398
13.46770	55607
13.47583	59023
13.48395	58260
13.49208	54958
13.50020	54553
13.50832	53509
13.51645	57098
13.52457	56554
13.53268	54091
13.54082	59898
13.54893	51843
13.55707	60779
13.56518	51050
13.57330	60556
13.58143	51545
13.58955	48053
13.59768	50434
13.60580	57228
13.61392	54385
13.62205	50089
13.63017	48931
13.63830	50712
13.64642	56489
13.65453	49556
13.66267	50464
13.67078	50323
13.67890	51271
13.68703	50743
13.69515	50419
13.70328	54982
13.71140	45290
13.71952	47618
13.72765	45165
13.73577	45413
13.74390	45373
13.75202	42722
13.76013	46061
13.76827	49835
13.77638	45057
13.78450	43646
13.79263	42684
13.80075	47655
13.80888	44342
13.81700	43986
13.82512	40046
13.83325	51893
13.84137	44060
13.84950	41275
13.85762	41079
13.86573	42751
13.87387	44726
13.88198	48507
13.89012	40219
13.89823	50857
13.90635	40368
13.91448	50223
13.92260	41336
13.93072	39640
13.93885	46625
13.94697	40866
13.95510	39850
13.96322	40252
13.97133	41950
13.97947	41928
13.98758	41824
13.99572	45641
14.00383	49278
14.01195	60857
14.02008	85662
14.02820	99401
14.03633	88585
14.04445	86239
14.05257	68701
14.06070	58202
14.06882	50006
14.07693	48348
14.08507	44303
14.09318	47506
14.10132	48008
14.10943	50879
14.11755	48219
14.12568	55820
14.13380	44692
14.14193	48254
14.15005	41005
14.15817	39427
14.16630	45704
14.17442	49457
14.18253	56292
14.19067	62019
14.19878	66291
14.20692	91087
14.21503	88957
14.22315	87757
14.23128	76961
14.23940	81432
14.24753	68134
14.25565	62191
14.26377	61017
14.27190	51202
14.28002	46452
14.28815	45202
14.29627	42548
14.30438	53581
14.31252	44244
14.32063	46299
14.32875	45345
14.33688	43063
14.34500	44328
14.35313	43885
14.36125	43118
14.36937	40191
14.37750	41556
14.38562	37253
14.39375	39993
14.40187	43450
14.40998	41984
14.41812	43002
14.42623	46171
14.43437	40981
14.44248	40922
14.45060	44972
14.45873	51892
14.46685	66043
14.47497	94631
14.48310	124444
14.49122	145745
14.49935	147801
14.50747	136915
14.51558	126424
14.52372	109302
14.53183	102123
14.53997	103142
14.54808	100803
14.55620	120777
14.56433	119637
14.57245	117958
14.58058	115542
14.58870	104439
14.59682	94055
14.60495	80165
14.61307	70510
14.62118	68384
14.62932	63505
14.63743	60176
14.64557	59681
14.65368	66213
14.66180	61237
14.66993	60522
14.67805	57959
14.68618	52075
14.69430	55612
14.70242	52088
14.71055	42038
14.71867	41859
14.72678	49323
14.73492	40746
14.74303	40530
14.75117	43886
14.75928	49969
14.76740	43529
14.77553	55501
14.78365	45403
14.79178	45597
14.79990	43868
14.80802	44528
14.81615	45964
14.82427	42694
14.83240	41871
14.84052	39558
14.84863	41156
14.85677	39845
14.86488	40685
14.87300	43672
14.88113	42753
14.88925	40140
14.89738	40413
14.90550	45600
14.91362	44461
14.92175	47716
14.92987	45110
14.93800	50401
14.94612	45942
14.95423	44086
14.96237	41884
14.97048	40289
14.97862	48498
14.98673	50649
14.99485	50421
15.00298	47783
15.01110	56926
15.01922	56096
15.02735	50303
15.03547	56602
15.04360	47179
15.05172	40489
15.05983	40520
15.06797	38502
15.07608	37308
15.08422	41589
15.09233	40429
15.10045	39315
15.10858	40728
15.11670	49003
15.12482	44108
15.13295	38766
15.14107	44115
15.14920	41170
15.15732	41448
15.16543	41714
15.17357	40846
15.18168	41627
15.18982	42744
15.19793	41540
15.20605	41467
15.21418	39062
15.22230	44476
15.23043	41062
15.23855	44867
15.24667	50111
15.25480	50443
15.26292	57929
15.27103	60510
15.27917	66922
15.28728	63263
15.29542	62125
15.30353	52159
15.31165	48193
15.31978	55166
15.32790	49538
15.33603	52915
15.34415	47312
15.35227	47174
15.36040	54218
15.36852	54400
15.37665	47015
15.38477	45745
15.39288	52841
15.40102	41846
15.40913	43265
15.41725	43513
15.42538	44291
15.43350	49324
15.44163	45597
15.44975	42899
15.45787	43448
15.46600	44211
15.47412	50577
15.48225	50805
15.49037	53642
15.49848	53045
15.50662	48415
15.51473	43617
15.52287	44312
15.53098	40547
15.53910	42491
15.54723	42680
15.55535	43316
15.56347	47368
15.57160	37036
15.57972	37960
15.58785	40901
15.59597	36776
15.60408	38301
15.61222	43507
15.62033	37087
15.62847	39029
15.63658	34510
15.64470	34934
15.65283	37621
15.66095	36411
15.66907	31021
15.67720	35998
15.68532	35017
15.69345	34280
15.70157	33468
15.70968	34341
15.71782	34701
15.72593	33103
15.73407	35444
15.74218	43516
15.75030	34234
15.75843	41835
15.76655	39714
15.77468	38362
15.78280	32056
15.79092	43064
15.79905	36533
15.80717	37092
15.81528	34352
15.82342	37271
15.83153	34931
15.83967	36848
15.84778	35482
15.85590	34216
15.86403	34891
15.87215	34866
15.88028	36810
15.88840	34131
15.89652	32269
15.90465	35980
15.91277	35481
15.92090	34358
15.92902	34116
15.93713	43158
15.94527	35084
15.95338	33668
15.96150	32461
15.96963	33445
15.97775	35810
15.98588	40640
15.99400	38918
16.00212	40764
16.01025	37395
16.01837	39657
16.02650	32580
16.03462	34363
16.04273	32055
16.05087	34772
16.05898	34092
16.06710	30716
16.07523	29086
16.08335	31730
16.09148	38597
16.09960	34123
16.10772	30553
16.11585	33201
16.12397	35083
16.13210	33414
16.14022	33354
16.14833	40248
16.15647	38521
16.16458	35119
16.17272	38710
16.18083	39062
16.18895	34128
16.19708	34962
16.20520	43493
16.21332	37792
16.22145	45946
16.22957	59837
16.23770	64019
16.24582	60097
16.25393	61616
16.26207	46719
16.27018	39725
16.27832	47610
16.28643	40357
16.29455	35839
16.30268	38420
16.31080	43506
16.31893	49682
16.32705	60921
16.33517	70885
16.34330	70299
16.35142	72330
16.35953	68836
16.36767	58218
16.37578	52356
16.38392	47504
16.39203	49928
16.40015	40466
16.40828	43416
16.41640	45088
16.42453	55657
16.43265	53238
16.44077	53048
16.44890	52641
16.45702	57976
16.46513	48295
16.47327	44581
16.48138	48844
16.48952	37437
16.49763	42237
16.50575	38352
16.51388	43241
16.52200	38027
16.53013	39278
16.53825	36866
16.54637	39032
16.55450	38491
16.56262	40896
16.57075	38535
16.57887	38110
16.58698	38866
16.59512	37628
16.60323	40681
16.61135	37014
16.61948	39909
16.62760	37328
16.63573	36633
16.64385	40861
16.65197	39066
16.66010	46401
16.66822	45163
16.67635	47603
16.68447	39990
16.69258	36437
16.70072	35575
16.70883	37170
16.71697	36352
16.72508	34901
16.73320	38391
16.74133	38586
16.74945	34248
16.75757	38091
16.76570	38662
16.77382	37050
16.78195	36405
16.79007	38648
16.79818	47577
16.80632	41296
16.81443	48492
16.82257	42760
16.83068	45154
16.83880	45584
16.84693	40719
16.85505	39990
16.86318	42427
16.87130	38239
16.87942	37795
16.88755	38388
16.89567	34208
16.90378	38671
16.91192	37967
16.92003	39778
16.92817	39947
16.93628	37323
16.94440	37870
16.95253	36601
16.96065	40012
16.96878	40373
16.97690	37836
16.98502	38568
16.99315	37163
17.00127	35404
17.00938	37973
17.01752	43499
17.02563	37439
17.03377	35414
17.04188	41730
17.05000	35971
17.05813	34701
17.06625	42920
17.07438	33344
17.08250	34003
17.09062	32130
17.09875	36568
17.10687	36860
17.11500	36272
17.12312	34933
17.13123	35014
17.13937	36708
17.14748	38932
17.15560	40414
17.16373	40713
17.17185	48301
17.17998	44110
17.18810	46755
17.19622	48939
17.20435	48743
17.21247	44883
17.22060	46393
17.22872	47767
17.23683	47802
17.24497	54587
17.25308	52165
17.26122	49034
17.26933	44789
17.27745	48479
17.28558	40849
17.29370	45572
17.30182	50722
17.30995	44341
17.31807	43619
17.32620	43891
17.33432	46786
17.34243	42193
17.35057	41459
17.35868	42260
17.36682	43280
17.37493	43062
17.38305	42543
17.39118	41588
17.39930	38205
17.40742	39573
17.41555	36916
17.42367	41992
17.43180	36999
17.43992	32430
17.44803	35355
17.45617	35769
17.46428	37265
17.47242	39524
17.48053	51198
17.48865	63115
17.49678	74979
17.50490	82672
17.51303	90937
17.52115	78863
17.52927	74532
17.53740	68334
17.54552	60632
17.55363	59338
17.56177	58547
17.56988	48240
17.57802	46230
17.58613	42035
17.59425	41943
17.60238	47165
17.61050	39460
17.61863	43659
17.62675	41399
17.63487	40992
17.64300	40057
17.65112	39334
17.65925	38394
17.66737	42250
17.67548	48878
17.68362	48111
17.69173	40773
17.69985	47760
17.70798	38035
17.71610	38790
17.72423	39878
17.73235	37313
17.74047	44471
17.74860	37457
17.75672	34589
17.76485	38634
17.77297	40343
17.78108	51125
17.78922	45138
17.79733	48903
17.80545	49802
17.81358	50878
17.82170	53478
17.82983	49785
17.83795	47804
17.84607	46493
17.85420	45691
17.86232	42886
17.87045	48147
17.87857	41081
17.88668	39944
17.89482	39837
17.90293	40263
17.91107	43921
17.91918	43525
17.92730	41641
17.93543	38433
17.94355	41458
17.95167	37910
17.95980	40045
17.96792	39742
17.97605	39822
17.98417	38246
17.99228	36836
18.00042	36998
18.00853	36475
18.01667	31989
18.02478	35775
18.03290	37148
18.04103	33731
18.04915	33989
18.05728	36889
18.06540	35794
18.07352	37258
18.08165	34920
18.08977	34742
18.09788	37968
18.10602	39617
18.11413	40089
18.12227	49352
18.13038	42441
18.13850	42581
18.14663	40924
18.15475	40432
18.16288	43027
18.17100	38402
18.17912	37961
18.18725	49105
18.19537	41343
18.20350	34903
18.21162	40831
18.21973	40648
18.22787	38963
18.23598	38111
18.24410	37443
18.25223	37207
18.26035	40785
18.26848	42513
18.27660	49543
18.28472	61951
18.29285	78131
18.30097	102918
18.30910	106917
18.31722	94805
18.32533	78825
18.33347	61158
18.34158	56903
18.34970	44524
18.35783	39628
18.36595	36875
18.37408	40364
18.38220	35806
18.39032	40394
18.39845	40290
18.40657	38080
18.41470	40034
18.42282	35866
18.43093	35869
18.43907	37917
18.44718	36915
18.45532	37804
18.46343	34921
18.47155	32303
18.47968	34307
18.48780	34450
18.49592	35963
18.50405	41361
18.51217	39878
18.52030	43044
18.52842	42877
18.53653	42549
18.54467	41553
18.55278	40510
18.56092	43187
18.56903	39171
18.57715	37558
18.58528	40202
18.59340	38492
18.60153	37079
18.60965	49355
18.61777	47569
18.62590	46026
18.63402	38164
18.64213	38044
18.65027	38865
18.65838	37163
18.66652	37056
18.67463	34675
18.68275	36258
18.69088	38525
18.69900	35874
18.70713	38116
18.71525	36100
18.72337	45296
18.73150	38351
18.73962	41098
18.74773	44206
18.75587	45633
18.76398	49893
18.77212	44067
18.78023	51559
18.78835	52945
18.79648	48426
18.80460	48186
18.81273	47621
18.82085	53711
18.82897	47209
18.83710	49637
18.84522	46639
18.85335	47154
18.86147	55387
18.86958	56305
18.87772	49220
18.88583	44919
18.89395	50219
18.90208	45448
18.91020	50011
18.91833	44942
18.92645	42986
18.93457	50617
18.94270	45813
18.95082	47022
18.95895	49999
18.96707	48870
18.97518	44527
18.98332	45358
18.99143	44024
18.99957	41916
19.00768	49462
19.01580	46667
19.02393	51340
19.03205	51404
19.04017	51940
19.04830	52189
19.05642	55114
19.06455	54835
19.07267	62793
19.08078	49242
19.08892	48615
19.09703	48461
19.10517	47576
19.11328	49098
19.12140	48207
19.12953	50662
19.13765	43334
19.14577	48198
19.15390	45288
19.16202	52266
19.17015	44247
19.17827	38122
19.18638	46507
19.19452	48618
19.20263	52310
19.21077	60116
19.21888	64977
19.22700	63952
19.23513	57381
19.24325	50568
19.25138	49949
19.25950	45113
19.26762	43811
19.27575	40293
19.28387	44814
19.29198	37992
19.30012	37294
19.30823	38564
19.31637	37155
19.32448	41940
19.33260	36066
19.34073	37968
19.34885	40322
19.35698	36798
19.36510	40810
19.37322	38740
19.38135	36295
19.38947	34227
19.39760	35716
19.40572	37505
19.41383	43376
19.42197	36836
19.43008	34634
19.43820	35889
19.44633	37201
19.45445	37070
19.46258	34862
19.47070	34853
19.47882	41039
19.48695	35874
19.49507	34497
19.50320	33289
19.51132	31831
19.51943	33980
19.52757	37140
19.53568	38180
19.54382	43304
19.55193	58117
19.56005	60310
19.56818	54873
19.57630	58906
19.58442	52072
19.59255	51242
19.60067	53893
19.60880	49271
19.61692	47366
19.62503	47389
19.63317	44208
19.64128	43772
19.64942	40804
19.65753	44047
19.66565	41150
19.67378	37717
19.68190	40629
19.69002	39338
19.69815	36863
19.70627	42178
19.71440	41241
19.72252	43631
19.73063	46324
19.73877	46629
19.74688	45020
19.75502	40520
19.76313	38995
19.77125	43383
19.77938	46964
19.78750	57227
19.79563	74801
19.80375	91177
19.81187	104924
19.82000	103895
19.82812	95304
19.83623	71883
19.84437	59306
19.85248	50088
19.86062	42993
19.86873	39102
19.87685	39918
19.88498	38447
19.89310	36946
19.90123	41969
19.90935	34418
19.91747	34448
19.92560	35001
19.93372	35153
19.94185	34042
19.94997	35841
19.95808	41377
19.96622	35285
19.97433	39788
19.98245	34823
19.99058	41904
19.99870	36416
20.00683	37530
20.01495	48106
20.02307	61322
20.03120	95919
20.03932	150263
20.04745	227933
20.05557	267542
20.06368	288729
20.07182	279299
20.07993	232349
20.08805	182048
20.09618	144818
20.10430	111597
20.11243	100094
20.12055	83234
20.12867	73893
20.13680	61787
20.14492	56850
20.15305	53927
20.16117	55986
20.16928	47719
20.17742	50085
20.18553	47293
20.19367	59756
20.20178	47868
20.20990	45318
20.21803	55352
20.22615	45552
20.23427	41786
20.24240	41740
20.25052	49722
20.25865	41818
20.26677	40554
20.27488	36051
20.28302	43290
20.29113	43447
20.29927	38695
20.30738	37570
20.31550	39742
20.32363	34090
20.33175	39567
20.33988	39512
20.34800	38928
20.35612	39606
20.36425	45998
20.37237	53473
20.38048	66731
20.38862	66271
20.39673	71486
20.40487	69113
20.41298	75247
20.42110	64809
20.42923	61134
20.43735	59808
20.44548	59634
20.45360	59010
20.46172	56139
20.46985	56435
20.47797	55757
20.48608	55397
20.49422	52835
20.50233	53288
20.51047	47511
20.51858	46607
20.52670	42926
20.53483	39894
20.54295	38178
20.55108	36166
20.55920	38581
20.56732	42033
20.57545	40510
20.58357	55850
20.59170	58726
20.59982	83566
20.60793	121569
20.61607	160782
20.62418	194757
20.63230	190245
20.64043	185377
20.64855	140117
20.65668	117691
20.66480	90891
20.67292	77084
20.68105	66609
20.68917	66025
20.69730	49263
20.70542	46183
20.71353	48668
20.72167	45032
20.72978	47231
20.73792	43700
20.74603	52414
20.75415	47356
20.76228	54873
20.77040	57599
20.77852	74324
20.78665	75209
20.79477	82018
20.80290	84265
20.81102	74979
20.81913	64840
20.82727	68194
20.83538	54855
20.84352	51341
20.85163	47013
20.85975	52993
20.86788	48559
20.87600	40792
20.88413	39958
20.89225	41774
20.90037	33212
20.90850	35819
20.91662	35074
20.92473	36267
20.93287	39665
20.94098	36749
20.94912	35806
20.95723	37070
20.96535	35659
20.97348	38902
20.98160	35666
20.98973	33438
20.99785	34220
21.00597	31793
21.01410	33518
21.02222	31226
21.03033	31070
21.03847	39851
21.04658	32982
21.05472	35936
21.06283	33130
21.07095	36444
21.07908	33919
21.08720	34851
21.09533	38623
21.10345	32348
21.11157	33402
21.11970	30893
21.12782	35104
21.13595	39163
21.14407	34172
21.15218	36520
21.16032	33403
21.16843	35845
21.17655	33676
21.18468	31924
21.19280	34734
21.20093	33234
21.20905	34120
21.21717	35269
21.22530	35250
21.23342	36007
21.24155	44847
21.24967	57686
21.25778	63756
21.26592	67664
21.27403	71815
21.28217	64912
21.29028	65069
21.29840	49213
21.30653	50914
21.31465	37796
21.32277	39166
21.33090	43802
21.33902	33067
21.34715	35723
21.35527	31064
21.36338	31921
21.37152	33770
21.37963	36929
21.38777	35177
21.39588	34551
21.40400	35612
21.41213	35791
21.42025	30902
21.42837	35383
21.43650	32484
21.44462	32417
21.45275	33376
21.46087	34771
21.46898	37717
21.47712	35934
21.48523	32781
21.49337	35500
21.50148	31416
21.50960	30585
21.51773	37724
21.52585	34308
21.53398	41455
21.54210	35653
21.55022	33723
21.55835	30492
21.56647	30147
21.57458	33893
21.58272	32590
21.59083	34113
21.59897	35777
21.60708	41020
21.61520	38702
21.62333	36622
21.63145	35246
21.63958	46045
21.64770	37743
21.65582	38415
21.66395	39796
21.67207	36256
21.68020	35035
21.68832	42714
21.69643	37297
21.70457	46726
21.71268	39298
21.72080	38820
21.72893	38960
21.73705	40276
21.74518	35908
21.75330	34875
21.76142	38950
21.76955	37251
21.77767	35403
21.78580	35213
21.79392	37448
21.80203	34131
21.81017	30639
21.81828	35421
21.82640	36247
21.83453	32792
21.84265	30778
21.85078	36489
21.85890	36686
21.86702	37079
21.87515	44772
21.88327	33277
21.89140	35538
21.89952	32434
21.90763	35516
21.91577	34542
21.92388	36879
21.93202	39501
21.94013	61607
21.94825	65406
21.95638	73369
21.96450	75733
21.97262	71071
21.98075	68639
21.98887	54054
21.99700	50897
22.00512	41734
22.01323	40465
22.02137	37926
22.02948	40895
22.03762	41261
22.04573	49887
22.05385	45788
22.06198	44588
22.07010	46865
22.07823	41092
22.08635	37964
22.09447	42189
22.10260	37577
22.11072	38646
22.11883	39693
22.12697	39407
22.13508	42584
22.14322	49957
22.15133	60457
22.15945	67437
22.16758	75089
22.17570	71863
22.18383	56893
22.19195	56323
22.20007	47700
22.20820	51618
22.21632	41557
22.22445	45967
22.23257	40386
22.24068	46578
22.24882	50046
22.25693	37290
22.26505	37045
22.27318	35447
22.28130	40082
22.28943	34741
22.29755	35100
22.30567	38130
22.31380	39127
22.32192	33433
22.33005	36840
22.33817	32825
22.34628	33862
22.35442	34474
22.36253	35558
22.37065	37204
22.37878	36127
22.38690	33702
22.39503	34174
22.40315	38580
22.41127	34097
22.41940	36389
22.42752	34179
22.43565	31030
22.44377	37343
22.45188	34982
22.46002	39669
22.46813	34820
22.47627	37133
22.48438	34057
22.49250	43425
22.50063	36257
22.50875	34108
22.51687	37150
22.52500	37631
22.53312	45104
22.54125	59674
22.54937	86029
22.55748	141851
22.56562	231009
22.57373	392013
22.58187	519747
22.58998	594448
22.59810	551594
22.60623	405225
22.61435	266030
22.62248	181131
22.63060	134164
22.63872	101689
22.64685	88907
22.65497	75037
22.66308	67212
22.67122	63467
22.67933	61096
22.68747	65478
22.69558	61398
22.70370	52941
22.71183	52728
22.71995	58425
22.72808	47502
22.73620	43013
22.74432	45160
22.75245	43640
22.76057	41641
22.76868	42430
22.77682	37448
22.78493	45391
22.79307	44752
22.80118	43403
22.80930	51292
22.81743	46006
22.82555	45266
22.83368	44843
22.84180	44065
22.84992	39595
22.85805	41111
22.86617	42578
22.87430	46333
22.88242	47519
22.89053	38127
22.89867	41210
22.90678	48248
22.91490	38706
22.92303	46886
22.93115	37090
22.93928	37111
22.94740	35222
22.95552	35953
22.96365	38300
22.97177	39116
22.97990	43206
22.98802	42465
22.99613	35241
23.00427	35809
23.01238	36892
23.02052	37653
23.02863	36261
23.03675	34540
23.04488	32588
23.05300	35066
23.06112	33588
23.06925	34255
23.07737	37389
23.08550	32480
23.09362	36175
23.10173	42203
23.10987	34327
23.11798	36635
23.12612	45149
23.13423	39886
23.14235	37112
23.15048	38720
23.15860	41169
23.16672	44164
23.17485	47922
23.18297	42666
23.19110	43431
23.19922	44137
23.20733	43723
23.21547	40333
23.22358	43096
23.23172	40341
23.23983	42907
23.24795	39714
23.25608	37971
23.26420	38126
23.27233	38779
23.28045	35897
23.28857	36730
23.29670	37161
23.30482	39691
23.31293	36856
23.32107	40530
23.32918	42330
23.33732	43826
23.34543	53470
23.35355	60113
23.36168	77021
23.36980	85119
23.37793	89402
23.38605	84933
23.39417	73214
23.40230	66862
23.41042	60687
23.41855	57556
23.42667	59178
23.43478	66398
23.44292	58967
23.45103	66580
23.45915	72014
23.46728	73376
23.47540	77018
23.48353	90608
23.49165	83514
23.49977	84807
23.50790	74523
23.51602	70141
23.52415	68009
23.53227	60483
23.54038	64186
23.54852	57629
23.55663	54313
23.56477	47337
23.57288	47716
23.58100	46028
23.58913	42511
23.59725	45595
23.60537	43763
23.61350	47698
23.62162	47906
23.62975	56455
23.63787	57212
23.64598	59778
23.65412	60686
23.66223	52079
23.67037	47019
23.67848	40912
23.68660	44494
23.69473	41393
23.70285	41910
23.71097	38652
23.71910	39345
23.72722	37837
23.73535	38923
23.74347	37526
23.75158	45591
23.75972	44985
23.76783	38328
23.77597	39685
23.78408	36096
23.79220	43770
23.80033	46921
23.80845	46619
23.81658	40703
23.82470	36881
23.83282	35940
23.84095	35676
23.84907	37115
23.85718	34943
23.86532	36853
23.87343	39259
23.88157	42634
23.88968	34774
23.89780	35039
23.90593	33390
23.91405	34875
23.92218	34053
23.93030	43301
23.93842	36013
23.94655	36797
23.95467	36478
23.96280	39574
23.97092	40153
23.97903	36430
23.98717	36644
23.99528	34438
24.00340	33746
24.01153	36888
24.01965	37712
24.02778	38207
24.03590	38347
24.04402	42142
24.05215	44172
24.06027	44331
24.06840	52029
24.07652	44365
24.08463	44359
24.09277	43692
24.10088	45027
24.10900	44179
24.11713	42498
24.12525	43815
24.13338	49951
24.14150	48296
24.14962	50818
24.15775	49833
24.16587	54391
24.17400	59186
24.18212	62548
24.19023	61987
24.19837	62504
24.20648	55530
24.21462	62667
24.22273	69074
24.23085	122081
24.23898	352712
24.24710	978509
24.25522	2591056
24.26335	4872648
24.27147	6959044
24.27960	7801063
24.28772	7448322
24.29583	6360991
24.30397	4912462
24.31208	3689789
24.32022	2720390
24.32833	2036676
24.33645	1618742
24.34458	1238380
24.35270	973316
24.36083	796436
24.36895	652969
24.37707	548351
24.38520	508326
24.39332	456737
24.40143	425694
24.40957	370528
24.41768	320838
24.42582	274612
24.43393	239775
24.44205	220367
24.45018	210407
24.45830	177208
24.46643	157876
24.47455	149041
24.48267	129181
24.49080	123374
24.49892	119385
24.50703	114794
24.51517	108795
24.52328	107844
24.53142	121901
24.53953	114076
24.54765	111624
24.55578	102891
24.56390	93148
24.57203	88672
24.58015	92247
24.58827	75591
24.59640	73503
24.60452	83440
24.61265	75767
24.62077	77000
24.62888	77835
24.63702	71492
24.64513	70880
24.65325	68762
24.66138	77484
24.66950	78798
24.67763	85838
24.68575	95476
24.69387	112051
24.70200	119200
24.71012	118087
24.71825	113343
24.72637	108352
24.73448	87135
24.74262	88603
24.75073	69292
24.75887	71296
24.76698	63620
24.77510	63166
24.78323	61556
24.79135	70781
24.79947	63789
24.80760	69325
24.81572	74022
24.82385	78924
24.83197	71861
24.84008	65279
24.84822	63871
24.85633	59916
24.86447	54795
24.87258	53474
24.88070	52078
24.88883	51685
24.89695	52715
24.90508	51126
24.91320	52522
24.92132	49649
24.92945	49946
24.93757	51392
24.94568	55572
24.95382	51126
24.96193	56505
24.97007	49507
24.97818	48261
24.98630	47102
24.99443	54552
25.00255	48089
25.01068	49725
25.01880	49581
25.02692	45903
25.03505	46579
25.04317	49882
25.05128	47932
25.05942	44819
25.06753	45784
25.07567	54698
25.08378	48510
25.09190	50132
25.10003	46550
25.10815	51523
25.11628	50014
25.12440	47084
25.13252	45763
25.14065	51253
25.14877	49385
25.15690	49521
25.16502	58382
25.17313	53978
25.18127	52031
25.18938	48505
25.19750	44651
25.20563	44172
25.21375	43677
25.22188	45406
25.23000	43037
25.23812	45159
25.24625	42189
25.25437	45962
25.26250	41276
25.27062	44618
25.27873	44966
25.28687	54232
25.29498	48816
25.30312	52664
25.31123	49166
25.31935	44893
25.32748	49380
25.33560	46255
25.34372	48617
25.35185	47428
25.35997	48530
25.36810	48734
25.37622	49832
25.38433	56403
25.39247	49005
25.40058	56163
25.40872	51847
25.41683	47604
25.42495	50031
25.43308	48127
25.44120	44905
25.44932	47348
25.45745	42796
25.46557	46065
25.47370	41919
25.48182	46446
25.48993	43948
25.49807	40044
25.50618	46044
25.51432	48851
25.52243	43383
25.53055	48789
25.53868	44512
25.54680	47578
25.55493	44905
25.56305	45988
25.57117	50425
25.57930	41608
25.58742	41977
25.59553	43922
25.60367	42942
25.61178	45541
25.61992	49912
25.62803	54228
25.63615	58165
25.64428	67213
25.65240	73060
25.66053	73218
25.66865	56372
25.67677	57720
25.68490	50463
25.69302	47771
25.70115	44701
25.70927	44949
25.71738	45538
25.72552	46755
25.73363	42021
25.74175	42467
25.74988	43026
25.75800	43313
25.76613	40986
25.77425	45476
25.78237	49409
25.79050	51250
25.79862	53042
25.80675	61991
25.81487	63687
25.82298	58394
25.83112	58083
25.83923	56521
25.84737	52975
25.85548	52139
25.86360	50429
25.87173	44243
25.87985	48092
25.88797	44637
25.89610	44486
25.90422	42276
25.91235	44150
25.92047	42336
25.92858	46157
25.93672	45576
25.94483	43635
25.95297	44908
25.96108	39561
25.96920	41368
25.97733	50461
25.98545	41158
25.99357	41265
26.00170	42437
26.00982	41759
26.01795	38998
26.02607	39539
26.03418	42470
26.04232	41709
26.05043	39115
26.05857	36269
26.06668	38296
26.07480	39410
26.08293	41760
26.09105	38225
26.09918	41686
26.10730	40624
26.11542	41530
26.12355	39760
26.13167	41591
26.13978	43563
26.14792	42301
26.15603	42497
26.16417	47185
26.17228	37368
26.18040	36378
26.18853	39874
26.19665	38570
26.20478	40322
26.21290	37737
26.22102	39536
26.22915	39719
26.23727	40828
26.24540	39666
26.25352	40392
26.26163	41638
26.26977	41305
26.27788	42172
26.28600	39564
26.29413	38597
26.30225	43467
26.31038	44668
26.31850	47515
26.32662	61531
26.33475	76351
26.34287	93636
26.35100	123449
26.35912	132133
26.36723	143133
26.37537	144140
26.38348	137242
26.39162	115106
26.39973	92512
26.40785	83680
26.41598	83179
26.42410	81982
26.43222	84292
26.44035	86544
26.44847	85056
26.45660	78304
26.46472	66154
26.47283	54672
26.48097	51368
26.48908	52752
26.49722	44916
26.50533	41002
26.51345	42406
26.52158	40442
26.52970	40703
26.53782	40771
26.54595	47105
26.55407	43700
26.56220	44436
26.57032	48421
26.57843	41773
26.58657	42057
26.59468	39256
26.60282	36094
26.61093	38382
26.61905	38710
26.62718	41440
26.63530	46144
26.64343	47572
26.65155	53815
26.65967	50926
26.66780	56697
26.67592	59217
26.68403	56587
26.69217	58773
26.70028	66611
26.70842	50075
26.71653	53006
26.72465	48536
26.73278	43463
26.74090	45268
26.74903	41437
26.75715	43965
26.76527	40254
26.77340	36341
26.78152	44415
26.78965	39428
26.79777	39668
26.80588	38843
26.81402	47542
26.82213	43352
26.83025	35788
26.83838	38894
26.84650	39506
26.85463	36051
26.86275	39255
26.87087	46429
26.87900	48249
26.88712	40378
26.89525	41525
26.90337	38602
26.91148	42242
26.91962	41102
26.92773	38463
26.93585	39630
26.94398	38213
26.95210	37300
26.96023	37297
26.96835	37847
26.97647	39647
26.98460	40604
26.99272	43864
27.00085	40181
27.00897	41979
27.01708	40889
27.02522	49756
27.03333	42669
27.04147	44296
27.04958	44552
27.05770	44810
27.06583	45577
27.07395	42497
27.08207	46576
27.09020	47400
27.09832	46486
27.10645	45139
27.11457	46411
27.12268	47427
27.13082	52668
27.13893	45252
27.14707	44977
27.15518	46593
27.16330	47849
27.17143	49406
27.17955	51075
27.18768	48099
27.19580	52397
27.20392	55479
27.21205	51102
27.22017	46823
27.22828	45916
27.23642	45619
27.24453	55595
27.25267	53520
27.26078	49246
27.26890	49810
27.27703	54107
27.28515	58422
27.29328	48299
27.30140	42936
27.30952	48259
27.31765	58869
27.32577	46125
27.33388	46687
27.34202	43122
27.35013	44965
27.35827	50372
27.36638	43595
27.37450	42375
27.38263	46255
27.39075	45347
27.39888	49498
27.40700	67710
27.41512	93616
27.42325	166140
27.43137	293879
27.43950	495921
27.44762	766219
27.45573	1091042
27.46387	1340229
27.47198	1402044
27.48010	1354683
27.48823	1170994
27.49635	1012828
27.50448	846915
27.51260	687347
27.52072	537092
27.52885	435702
27.53697	359613
27.54510	287669
27.55322	250871
27.56133	208050
27.56947	177102
27.57758	150794
27.58572	138227
27.59383	122898
27.60195	114748
27.61008	111463
27.61820	94383
27.62632	86622
27.63445	82772
27.64257	82443
27.65070	78928
27.65882	81156
27.66693	79620
27.67507	79387
27.68318	76937
27.69132	77523
27.69943	77046
27.70755	78622
27.71568	71559
27.72380	66235
27.73193	62971
27.74005	71501
27.74817	60996
27.75630	59328
27.76442	59081
27.77253	65763
27.78067	53718
27.78878	63106
27.79692	58967
27.80503	54017
27.81315	55025
27.82128	54222
27.82940	54898
27.83753	52783
27.84565	55225
27.85377	51552
27.86190	65254
27.87002	53741
27.87813	53637
27.88627	49524
27.89438	54075
27.90252	49850
27.91063	48952
27.91875	48860
27.92688	51295
27.93500	55071
27.94313	52178
27.95125	55896
27.95937	55049
27.96750	45757
27.97562	43605
27.98375	46889
27.99187	57589
27.99998	46646
28.00812	49088
28.01623	42608
28.02435	45571
28.03248	48522
28.04060	45571
28.04873	47067
28.05685	47741
28.06497	49937
28.07310	46843
28.08122	51097
28.08935	47396
28.09747	50167
28.10558	54695
28.11372	54760
28.12183	45312
28.12997	48402
28.13808	45757
28.14620	45540
28.15433	45046
28.16245	45755
28.17057	48860
28.17870	45947
28.18682	41253
28.19495	44091
28.20307	44076
28.21118	42985
28.21932	44280
28.22743	40099
28.23557	40652
28.24368	45029
28.25180	41498
28.25993	47144
28.26805	42294
28.27617	42927
28.28430	46640
28.29242	45313
28.30055	42668
28.30867	45615
28.31678	43657
28.32492	47817
28.33303	42734
28.34117	44543
28.34928	50450
28.35740	45991
28.36553	44784
28.37365	52022
28.38178	41975
28.38990	48027
28.39802	39745
28.40615	43250
28.41427	41930
28.42238	44035
28.43052	43352
28.43863	47074
28.44677	46985
28.45488	53253
28.46300	56936
28.47113	50851
28.47925	51657
28.48738	51031
28.49550	51666
28.50362	54278
28.51175	54634
28.51987	58116
28.52800	59099
28.53612	54672
28.54423	52103
28.55237	47479
28.56048	48264
28.56860	47994
28.57673	45953
28.58485	45010
28.59298	55717
28.60110	48061
28.60922	51652
28.61735	53889
28.62547	50212
28.63360	38224
28.64172	41698
28.64983	43610
28.65797	45635
28.66608	45772
28.67420	43358
28.68233	54580
28.69045	49573
28.69858	56736
28.70670	71631
28.71482	95745
28.72295	132380
28.73107	161880
28.73920	200104
28.74732	218239
28.75543	239353
28.76357	263973
28.77168	256924
28.77982	265090
28.78793	272590
28.79605	256604
28.80418	258008
28.81230	240194
28.82042	217900
28.82855	213447
28.83667	204894
28.84480	200945
28.85292	174239
28.86103	170087
28.86917	150009
28.87728	152688
28.88542	144194
28.89353	131027
28.90165	121710
28.90978	123375
28.91790	105999
28.92603	110416
28.93415	104981
28.94227	98446
28.95040	84350
28.95852	85636
28.96663	81737
28.97477	81869
28.98288	76645
28.99102	77413
28.99913	79586
29.00725	75481
29.01538	68942
29.02350	68210
29.03163	67543
29.03975	64193
29.04787	64503
29.05600	61480
29.06412	62034
29.07225	66277
29.08037	71463
29.08848	76575
29.09662	82379
29.10473	87879
29.11285	68854
29.12098	67543
29.12910	63973
29.13723	56161
29.14535	53948
29.15347	55624
29.16160	59587
29.16972	63464
29.17785	61696
29.18597	61728
29.19408	65215
29.20222	67775
29.21033	61525
29.21845	54909
29.22658	59159
29.23470	53714
29.24283	59456
29.25095	58021
29.25907	52514
29.26720	49060
29.27532	52889
29.28345	54294
29.29157	50546
29.29968	56205
29.30782	49606
29.31593	55946
29.32407	46102
29.33218	46249
29.34030	46514
29.34843	47899
29.35655	45592
29.36467	46817
29.37280	45832
29.38092	48521
29.38905	43035
29.39717	46591
29.40528	44623
29.41342	45066
29.42153	41713
29.42967	48861
29.43778	46379
29.44590	43033
29.45403	43596
29.46215	46914
29.47028	45540
29.47840	49207
29.48652	52542
29.49465	48830
29.50277	49864
29.51088	48621
29.51902	50317
29.52713	50199
29.53527	43678
29.54338	42500
29.55150	46394
29.55963	43548
29.56775	41228
29.57588	45745
29.58400	44880
29.59212	46208
29.60025	41421
29.60837	53453
29.61648	46620
29.62462	48574
29.63273	47864
29.64087	51716
29.64898	49751
29.65710	47220
29.66523	46578
29.67335	46178
29.68148	46231
29.68960	48154
29.69772	47670
29.70585	53958
29.71397	47197
29.72210	43564
29.73022	45595
29.73833	47965
29.74647	53397
29.75458	45228
29.76270	46450
29.77083	51623
29.77895	50543
29.78708	49314
29.79520	49684
29.80332	47460
29.81145	55825
29.81957	49027
29.82770	45771
29.83582	44879
29.84393	44462
29.85207	48210
29.86018	56871
29.86832	47055
29.87643	46996
29.88455	49244
29.89268	41791
29.90080	48056
29.90892	49101
29.91705	44692
29.92517	45891
29.93330	46508
29.94142	47589
29.94953	50875
29.95767	44827
29.96578	42985
29.97392	44535
29.98203	43852
29.99015	45105
29.99828	43160
30.00640	43714
30.01452	43452
30.02265	45703
30.03077	51642
30.03890	53431
30.04702	57514
30.05513	53342
30.06327	48170
30.07138	50302
30.07952	47652
30.08763	46494
30.09575	57114
30.10388	43770
30.11200	45600
30.12013	41793
30.12825	44021
30.13637	46316
30.14450	55683
30.15262	49713
30.16073	52936
30.16887	52040
30.17698	51361
30.18512	52460
30.19323	49770
30.20135	47851
30.20948	46839
30.21760	49175
30.22573	46881
30.23385	51207
30.24197	52141
30.25010	49343
30.25822	46616
30.26635	54307
30.27447	47304
30.28258	50631
30.29072	45140
30.29883	50336
30.30695	60560
30.31508	65034
30.32320	76535
30.33133	95236
30.33945	106876
30.34757	118584
30.35570	128535
30.36382	133526
30.37195	148329
30.38007	142105
30.38818	148421
30.39632	146990
30.40443	147181
30.41257	140850
30.42068	143245
30.42880	145282
30.43693	139346
30.44505	130320
30.45317	129193
30.46130	125048
30.46942	126447
30.47755	111753
30.48567	108868
30.49378	106256
30.50192	95336
30.51003	93244
30.51817	85096
30.52628	91188
30.53440	82617
30.54253	82212
30.55065	89508
30.55877	82021
30.56690	76028
30.57502	68728
30.58315	70403
30.59127	69553
30.59938	77401
30.60752	70514
30.61563	63493
30.62377	68462
30.63188	61729
30.64000	62359
30.64813	66228
30.65625	67268
30.66438	60705
30.67250	61059
30.68062	68340
30.68875	56458
30.69687	58763
30.70498	58372
30.71312	59146
30.72123	54910
30.72937	48940
30.73748	58390
30.74560	52006
30.75373	49647
30.76185	51076
30.76998	49685
30.77810	51710
30.78622	49349
30.79435	53964
30.80247	49249
30.81060	52106
30.81872	49965
30.82683	50930
30.83497	49244
30.84308	62620
30.85120	47902
30.85933	51831
30.86745	46997
30.87558	49208
30.88370	58131
30.89182	52888
30.89995	45143
30.90807	50484
30.91620	52052
30.92432	54923
30.93243	47744
30.94057	49420
30.94868	43826
30.95680	47210
30.96493	45514
30.97305	51745
30.98118	52395
30.98930	45963
30.99742	47669
31.00555	48687
31.01367	46232
31.02180	48680
31.02992	46724
31.03803	43617
31.04617	47188
31.05428	48077
31.06242	47504
31.07053	48735
31.07865	47253
31.08678	46959
31.09490	47891
31.10302	49748
31.11115	48711
31.11927	47104
31.12740	46927
31.13552	54363
31.14363	49934
31.15177	43761
31.15988	45527
31.16802	45558
31.17613	50959
31.18425	45952
31.19238	47493
31.20050	49133
31.20863	47326
31.21675	44910
31.22487	48763
31.23300	46607
31.24112	46684
31.24923	53703
31.25737	47667
31.26548	48009
31.27362	46547
31.28173	46525
31.28985	48287
31.29798	49109
31.30610	50799
31.31423	46507
31.32235	52820
31.33047	52735
31.33860	48303
31.34672	52117
31.35483	50841
31.36297	52014
31.37108	58139
31.37922	58574
31.38733	52049
31.39545	48929
31.40358	54788
31.41170	50255
31.41983	47361
31.42795	48520
31.43607	48169
31.44420	53221
31.45232	45419
31.46045	48112
31.46857	46973
31.47668	42695
31.48482	47002
31.49293	45202
31.50105	48265
31.50918	51777
31.51730	47606
31.52543	53075
31.53355	46708
31.54167	52456
31.54980	54541
31.55792	48217
31.56605	51314
31.57417	48808
31.58228	56647
31.59042	48395
31.59853	47510
31.60667	57445
31.61478	57068
31.62290	75527
31.63103	96500
31.63915	124642
31.64727	170219
31.65540	195501
31.66352	195339
31.67165	192227
31.67977	158755
31.68788	136620
31.69602	89303
31.70413	73405
31.71227	60961
31.72038	58710
31.72850	59518
31.73663	56208
31.74475	58401
31.75288	57046
31.76100	54442
31.76912	57751
31.77725	49667
31.78537	53618
31.79348	49848
31.80162	53351
31.80973	50438
31.81787	57660
31.82598	57092
31.83410	51736
31.84223	48303
31.85035	48111
31.85848	51668
31.86660	51867
31.87472	51362
31.88285	56821
31.89097	48427
31.89908	49994
31.90722	44629
31.91533	48383
31.92347	51022
31.93158	48458
31.93970	50543
31.94783	46601
31.95595	52870
31.96408	49614
31.97220	47411
31.98032	48847
31.98845	52818
31.99657	52246
32.00470	48585
32.01282	51685
32.02093	43492
32.02907	46371
32.03718	47096
32.04530	47010
32.05343	50358
32.06155	52834
32.06968	46811
32.07780	52332
32.08592	51522
32.09405	45564
32.10217	48343
32.11030	45947
32.11842	43071
32.12653	48494
32.13467	49459
32.14278	47548
32.15092	50975
32.15903	49244
32.16715	51767
32.17528	52394
32.18340	58801
32.19152	50136
32.19965	54469
32.20777	46011
32.21590	50064
32.22402	49563
32.23213	55638
32.24027	56478
32.24838	64711
32.25652	72495
32.26463	79456
32.27275	103727
32.28088	104971
32.28900	120037
32.29712	121640
32.30525	125395
32.31337	121148
32.32150	121965
32.32962	112923
32.33773	116831
32.34587	109340
32.35398	111700
32.36212	103120
32.37023	99610
32.37835	101489
32.38648	99513
32.39460	101096
32.40273	101287
32.41085	104339
32.41897	107943
32.42710	101802
32.43522	101295
32.44333	90803
32.45147	90115
32.45958	83397
32.46772	71008
32.47583	72190
32.48395	65710
32.49208	65864
32.50020	64318
32.50833	59706
32.51645	61004
32.52457	58092
32.53270	55845
32.54082	56854
32.54895	56420
32.55707	56980
32.56518	55049
32.57332	59891
32.58143	64356
32.58955	55153
32.59768	52880
32.60580	57868
32.61393	51294
32.62205	54641
32.63017	62505
32.63830	53763
32.64642	54279
32.65455	52926
32.66267	49911
32.67078	53712
32.67892	52884
32.68703	51748
32.69515	57831
32.70328	52382
32.71140	51248
32.71953	51444
32.72765	59125
32.73577	54438
32.74390	51990
32.75202	52166
32.76015	62034
32.76827	53651
32.77638	55727
32.78452	49217
32.79263	54569
32.80077	51903
32.80888	54378
32.81700	53812
32.82513	60211
32.83325	64871
32.84137	60359
32.84950	50502
32.85762	53586
32.86575	52937
32.87387	51965
32.88198	51906
32.89012	53315
32.89823	55272
32.90637	56430
32.91448	53265
32.92260	51459
32.93073	48735
32.93885	55668
32.94698	56668
32.95510	51924
32.96322	54408
32.97135	56914
32.97947	58903
32.98758	64663
32.99572	70550
33.00383	64998
33.01197	65018
33.02008	70024
33.02820	60198
33.03633	60340
33.04445	52601
33.05258	51965
33.06070	50958
33.06882	52871
33.07695	53606
33.08507	50784
33.09320	50788
33.10132	53060
33.10943	62118
33.11757	53888
33.12568	56107
33.13380	57219
33.14193	53041
33.15005	57506
33.15818	52665
33.16630	53159
33.17442	52242
33.18255	50082
33.19067	50133
33.19880	49452
33.20692	55934
33.21503	54432
33.22317	59899
33.23128	61837
33.23940	57011
33.24753	53489
33.25565	53779
33.26378	56849
33.27190	55394
33.28002	54124
33.28815	56023
33.29627	56006
33.30440	60292
33.31252	51246
33.32063	52651
33.32877	53869
33.33688	51394
33.34502	50443
33.35313	50577
33.36125	46977
33.36938	52002
33.37750	49905
33.38562	50072
33.39375	51904
33.40187	53457
33.41000	51810
33.41812	56353
33.42623	51549
33.43437	49562
33.44248	51618
33.45062	55169
33.45873	51382
33.46685	56991
33.47498	55628
33.48310	55180
33.49123	63561
33.49935	58707
33.50747	58822
33.51560	59212
33.52372	58298
33.53183	52441
33.53997	55236
33.54808	56408
33.55622	57477
33.56433	57893
33.57245	61523
33.58058	53920
33.58870	52612
33.59683	56238
33.60495	51295
33.61307	66187
33.62120	63485
33.62932	55805
33.63743	63362
33.64557	66820
33.65368	72615
33.66182	75508
33.66993	73852
33.67805	70555
33.68618	72188
33.69430	63748
33.70243	56187
33.71055	62490
33.71867	55655
33.72680	54161
33.73492	52374
33.74305	54538
33.75117	49274
33.75928	54411
33.76742	64920
33.77553	50924
33.78365	55825
33.79178	53466
33.79990	56375
33.80803	53183
33.81615	52405
33.82427	51059
33.83240	58257
33.84052	59115
33.84865	55649
33.85677	51371
33.86488	57223
33.87302	51470
33.88113	55301
33.88927	53373
33.89738	59022
33.90550	59865
33.91363	55019
33.92175	54818
33.92987	55166
33.93800	52409
33.94612	53255
33.95425	60077
33.96237	58113
33.97048	58636
33.97862	52612
33.98673	64142
33.99487	57943
34.00298	54226
34.01110	59317
34.01923	64609
34.02735	60552
34.03547	61082
34.04360	56002
34.05172	55781
34.05985	55507
34.06797	60733
34.07608	59933
34.08422	60550
34.09233	60232
34.10047	64284
34.10858	63435
34.11670	60675
34.12483	59863
34.13295	62880
34.14108	62262
34.14920	61108
34.15732	63307
34.16545	72980
34.17357	59084
34.18168	67714
34.18982	67145
34.19793	63996
34.20607	62122
34.21418	60174
34.22230	60571
34.23043	61787
34.23855	60357
34.24668	63941
34.25480	62207
34.26292	65536
34.27105	58283
34.27917	63336
34.28730	63082
34.29542	57019
34.30353	58921
34.31167	59643
34.31978	59831
34.32790	63450
34.33603	57557
34.34415	62612
34.35228	57652
34.36040	65725
34.36852	59591
34.37665	59610
34.38477	58792
34.39290	67547
34.40102	61505
34.40913	58977
34.41727	63579
34.42538	62888
34.43352	64574
34.44163	59334
34.44975	60701
34.45788	61013
34.46600	59965
34.47412	65418
34.48225	59144
34.49037	64797
34.49850	68025
34.50662	60256
34.51473	61739
34.52287	59391
34.53098	60009
34.53912	62568
34.54723	58875
34.55535	57804
34.56348	55028
34.57160	59876
34.57972	58193
34.58785	58883
34.59597	56842
34.60410	57527
34.61222	59962
34.62033	59637
34.62847	58618
34.63658	61606
34.64472	57977
34.65283	70485
34.66095	57829
34.66908	66078
34.67720	58786
34.68533	64521
34.69345	61667
34.70157	64446
34.70970	61181
34.71782	58801
34.72593	62173
34.73407	59688
34.74218	58041
34.75032	55986
34.75843	57031
34.76655	61113
34.77468	58903
34.78280	58958
34.79093	58140
34.79905	60105
34.80717	57405
34.81530	59813
34.82342	66914
34.83155	60315
34.83967	60849
34.84778	65871
34.85592	76794
34.86403	87232
34.87215	104617
34.88028	125778
34.88840	136896
34.89653	130669
34.90465	134446
34.91277	122823
34.92090	111816
34.92902	109605
34.93715	99056
34.94527	92117
34.95338	85047
34.96152	81836
34.96963	77031
34.97775	77298
34.98588	73166
34.99400	72272
35.00213	69995
35.01025	71637
35.01837	72817
35.02650	73618
35.03462	76212
35.04275	66976
35.05087	69726
35.05898	67964
35.06712	66654
35.07523	62924
35.08337	62702
35.09148	72655
35.09960	77109
35.10773	66813
35.11585	64765
35.12397	64445
35.13210	68256
35.14022	64033
35.14835	72783
35.15647	64372
35.16458	66895
35.17272	64232
35.18083	65316
35.18897	65862
35.19708	74720
35.20520	63467
35.21333	75685
35.22145	66488
35.22958	73912
35.23770	63943
35.24582	63819
35.25395	58709
35.26207	66358
35.27018	59551
35.27832	63506
35.28643	68679
35.29457	60839
35.30268	65906
35.31080	66333
35.31893	65460
35.32705	63858
35.33518	60237
35.34330	63057
35.35142	61998
35.35955	72483
35.36767	66861
35.37578	61763
35.38392	63224
35.39203	61328
35.40017	65321
35.40828	64968
35.41640	68041
35.42453	65897
35.43265	68504
35.44078	68680
35.44890	69545
35.45702	68241
35.46515	72798
35.47327	76565
35.48140	80791
35.48952	86462
35.49763	85961
35.50577	85078
35.51388	89959
35.52200	82991
35.53013	81973
35.53825	88391
35.54638	88868
35.55450	90598
35.56262	85100
35.57075	87866
35.57887	90175
35.58700	92176
35.59512	87953
35.60323	88018
35.61137	91425
35.61948	87434
35.62762	86594
35.63573	87381
35.64385	87704
35.65198	83673
35.66010	87408
35.66822	80382
35.67635	79375
35.68447	79665
35.69260	83142
35.70072	91366
35.70883	82746
35.71697	71843
35.72508	78517
35.73322	79631
35.74133	73729
35.74945	71496
35.75758	69927
35.76570	71570
35.77383	70156
35.78195	70831
35.79007	73372
35.79820	78047
35.80632	77042
35.81443	73522
35.82257	69820
35.83068	72688
35.83882	73246
35.84693	70908
35.85505	68795
35.86318	70031
35.87130	80937
35.87943	70055
35.88755	71492
35.89567	71112
35.90380	67827
35.91192	79188
35.92003	69698
35.92817	71598
35.93628	63951
35.94442	67164
35.95253	69325
35.96065	76871
35.96878	77283
35.97690	77360
35.98503	81149
35.99315	82670
36.00127	84495
36.00940	82778
36.01752	81661
36.02565	79273
36.03377	83831
36.04188	90399
36.05002	79732
36.05813	85856
36.06625	75344
36.07438	77108
36.08250	78145
36.09063	79788
36.09875	72441
36.10687	73204
36.11500	72533
36.12312	76270
36.13125	72759
36.13937	74786
36.14748	73310
36.15562	74790
36.16373	74146
36.17187	76759
36.17998	71825
36.18810	69988
36.19623	76007
36.20435	81897
36.21247	75675
36.22060	71919
36.22872	71450
36.23685	70829
36.24497	75073
36.25308	79102
36.26122	78375
36.26933	76578
36.27747	80890
36.28558	77908
36.29370	77925
36.30183	79382
36.30995	75539
36.31807	76881
36.32620	77504
36.33432	78100
36.34245	76490
36.35057	77511
36.35868	82799
36.36682	77993
36.37493	78889
36.38307	76464
36.39118	78520
36.39930	78484
36.40743	80493
36.41555	77164
36.42368	77830
36.43180	74805
36.43992	78487
36.44805	79682
36.45617	75402
36.46428	74716
36.47242	79821
36.48053	76251
36.48867	77088
36.49678	73812
36.50490	78893
36.51303	77682
36.52115	75870
36.52928	74823
36.53740	82572
36.54552	73671
36.55365	83672
36.56177	72598
36.56990	83124
36.57802	82111
36.58613	77255
36.59427	83510
36.60238	81282
36.61050	90111
36.61863	87296
36.62675	83968
36.63488	91639
36.64300	92526
36.65112	98265
36.65925	93261
36.66737	88489
36.67550	88156
36.68362	83261
36.69173	77936
36.69987	81151
36.70798	77225
36.71612	79952
36.72423	77877
36.73235	74515
36.74048	76454
36.74860	76038
36.75672	78649
36.76485	87161
36.77297	77821
36.78110	80291
36.78922	82148
36.79733	79526
36.80547	84454
36.81358	79998
36.82172	81122
36.82983	83958
36.83795	79599
36.84608	81077
36.85420	81406
36.86232	75987
36.87045	85064
36.87857	77590
36.88670	79009
36.89482	82496
36.90293	82190
36.91107	78954
36.91918	73818
36.92732	81851
36.93543	84510
36.94355	87837
36.95168	87286
36.95980	88501
36.96793	91515
36.97605	93860
36.98417	97088
36.99230	100157
37.00042	91776
37.00853	96975
37.01667	90095
37.02478	84648
37.03292	82402
37.04103	83248
37.04915	85033
37.05728	81007
37.06540	83497
37.07353	78759
37.08165	85890
37.08977	86221
37.09790	93025
37.10602	80723
37.11415	84446
37.12227	77284
37.13038	86253
37.13852	82120
37.14663	90352
37.15475	79973
37.16288	92899
37.17100	80107
37.17913	81417
37.18725	82271
37.19537	83025
37.20350	79529
37.21162	82444
37.21975	87015
37.22787	85080
37.23598	82897
37.24412	87324
37.25223	82582
37.26035	80911
37.26848	80995
37.27660	92777
37.28473	84479
37.29285	78454
37.30097	81178
37.30910	89316
37.31722	83715
37.32535	79828
37.33347	87401
37.34158	88524
37.34972	81940
37.35783	85896
37.36597	87671
37.37408	83970
37.38220	84945
37.39033	88791
37.39845	87058
37.40657	96447
37.41470	82365
37.42282	84141
37.43095	86909
37.43907	89114
37.44718	85460
37.45532	84530
37.46343	86312
37.47157	83748
37.47968	88073
37.48780	85672
