Z:\data\JTB-E02\BACandBLUE\JTB-E02-194-11.D Thu Dec 20 10:15:09 2018
Start of data points
2.09520	78882
2.10333	74410
2.11145	76268
2.11958	75038
2.12770	76916
2.13582	73327
2.14395	72552
2.15207	73974
2.16020	72108
2.16832	69614
2.17643	67429
2.18457	68670
2.19268	75047
2.20082	71688
2.20893	63265
2.21705	63186
2.22518	66785
2.23330	68382
2.24142	62955
2.24955	65107
2.25767	64907
2.26580	161813
2.27392	777596
2.28203	1498043
2.29017	1089885
2.29828	574499
2.30642	398100
2.31453	326602
2.32265	269725
2.33078	236251
2.33890	214875
2.34702	190137
2.35515	181977
2.36327	169519
2.37140	159227
2.37952	157082
2.38763	149641
2.39577	146394
2.40388	133896
2.41202	133206
2.42013	139694
2.42825	130070
2.43638	122881
2.44450	122464
2.45263	115701
2.46075	117210
2.46887	109814
2.47700	107560
2.48512	117411
2.49323	117310
2.50137	116752
2.50948	117601
2.51762	114284
2.52573	106683
2.53385	106520
2.54198	110669
2.55010	108692
2.55823	117660
2.56635	116662
2.57447	114302
2.58260	101335
2.59072	103475
2.59885	113676
2.60697	249823
2.61508	500326
2.62322	462399
2.63133	301260
2.63945	214732
2.64758	179584
2.65570	152107
2.66383	136634
2.67195	128509
2.68007	117634
2.68820	111779
2.69632	106480
2.70445	104477
2.71257	103151
2.72068	103793
2.72882	99301
2.73693	101120
2.74505	92383
2.75318	88293
2.76130	90554
2.76943	101458
2.77755	335986
2.78567	1144651
2.79380	1577868
2.80192	1041589
2.81005	564253
2.81817	466619
2.82628	412589
2.83442	330300
2.84253	274773
2.85067	230038
2.85878	201460
2.86690	188500
2.87503	172024
2.88315	156721
2.89127	140974
2.89940	139804
2.90752	128846
2.91565	121083
2.92377	117588
2.93188	112852
2.94002	111658
2.94813	108276
2.95627	113750
2.96438	128639
2.97250	127091
2.98063	128888
2.98875	112893
2.99688	110275
3.00500	115951
3.01312	112848
3.02125	109380
3.02937	107547
3.03748	102787
3.04562	98548
3.05373	95418
3.06187	92872
3.06998	93848
3.07810	113853
3.08623	299409
3.09435	850944
3.10248	2114335
3.11060	4625452
3.11872	5891966
3.12685	4286813
3.13497	2652984
3.14308	1856282
3.15122	1418085
3.15933	1136800
3.16747	996566
3.17558	972556
3.18370	1313922
3.19183	3002556
3.19995	5305894
3.20808	5133097
3.21620	3445439
3.22432	2411015
3.23245	1939836
3.24057	1585827
3.24870	1322919
3.25682	1135919
3.26493	997569
3.27307	876431
3.28118	796551
3.28930	744878
3.29743	976424
3.30555	1846510
3.31368	3183189
3.32180	3770754
3.32992	3271768
3.33805	2368433
3.34617	1772700
3.35430	1441613
3.36242	1205040
3.37053	1051275
3.37867	927572
3.38678	830920
3.39492	753346
3.40303	694126
3.41115	633340
3.41928	600411
3.42740	569024
3.43552	551575
3.44365	563430
3.45177	535924
3.45990	518050
3.46802	580845
3.47613	740221
3.48427	773051
3.49238	651089
3.50052	505192
3.50863	430481
3.51675	389856
3.52488	382796
3.53300	395450
3.54112	426248
3.54925	469938
3.55737	430326
3.56550	370600
3.57362	324395
3.58173	315205
3.58987	292367
3.59798	283010
3.60612	282387
3.61423	271606
3.62235	272404
3.63048	279467
3.63860	292116
3.64673	281236
3.65485	310881
3.66297	1057313
3.67110	6880623
3.67922	2.269654E+07
3.68733	3.73461E+07
3.69547	3.882444E+07
3.70358	2.845695E+07
3.71172	1.879E+07
3.71983	1.371878E+07
3.72795	1.104581E+07
3.73608	9163722
3.74420	7839266
3.75233	6798531
3.76045	5994900
3.76857	5341662
3.77670	4801841
3.78482	4368752
3.79293	4003295
3.80107	3777234
3.80918	3618140
3.81732	3827253
3.82543	4110436
3.83355	3900100
3.84168	3355475
3.84980	2971914
3.85793	2681935
3.86605	2504120
3.87417	2339214
3.88230	2243816
3.89042	2117801
3.89855	1978025
3.90667	1882132
3.91478	1844664
3.92292	1999476
3.93103	2397661
3.93915	2662927
3.94728	2525343
3.95540	2127392
3.96353	1994212
3.97165	2143340
3.97977	2146645
3.98790	1871370
3.99602	1582697
4.00415	1590835
4.01227	1950049
4.02038	2545779
4.02852	2725393
4.03663	2205655
4.04477	1670473
4.05288	1337654
4.06100	1182959
4.06913	1093955
4.07725	1014665
4.08537	981981
4.09350	943114
4.10162	907701
4.10975	902114
4.11787	856226
4.12598	819522
4.13412	797865
4.14223	793220
4.15037	784283
4.15848	797728
4.16660	806072
4.17473	782652
4.18285	782182
4.19097	767062
4.19910	733859
4.20722	784229
4.21535	1450500
4.22347	4633788
4.23158	1.171963E+07
4.23972	2.083843E+07
4.24783	2.80453E+07
4.25597	3.325302E+07
4.26408	3.625458E+07
4.27220	3.480611E+07
4.28033	2.352033E+07
4.28845	1.281154E+07
4.29658	9049908
4.30470	6967541
4.31282	5662788
4.32095	4683667
4.32907	3928399
4.33718	3375847
4.34532	2967179
4.35343	2634829
4.36157	2385187
4.36968	2272430
4.37780	2213146
4.38593	2092814
4.39405	1870456
4.40218	1633869
4.41030	1468583
4.41842	1322808
4.42655	1245536
4.43467	1174902
4.44280	1103983
4.45092	1052834
4.45903	982538
4.46717	948813
4.47528	902009
4.48340	869588
4.49153	838394
4.49965	792376
4.50778	769111
4.51590	746319
4.52402	712423
4.53215	703154
4.54027	671760
4.54840	680255
4.55652	703493
4.56463	705865
4.57277	677198
4.58088	633076
4.58900	608674
4.59713	592111
4.60525	574196
4.61338	558118
4.62150	553593
4.62962	645100
4.63775	899731
4.64587	1449233
4.65400	1859036
4.66212	1772011
4.67023	1387880
4.67837	1010536
4.68648	840417
4.69462	737146
4.70273	661153
4.71085	605060
4.71898	554334
4.72710	515544
4.73522	499761
4.74335	483313
4.75147	470611
4.75960	461310
4.76772	452690
4.77583	425835
4.78397	431901
4.79208	423367
4.80022	462001
4.80833	559591
4.81645	694258
4.82458	706840
4.83270	621513
4.84082	563251
4.84895	605896
4.85707	672799
4.86520	718549
4.87332	675047
4.88143	584980
4.88957	514678
4.89768	452629
4.90582	445631
4.91393	421411
4.92205	411321
4.93018	397067
4.93830	395535
4.94643	433517
4.95455	594109
4.96267	1040175
4.97080	1678951
4.97892	2216388
4.98703	2280519
4.99517	1887464
5.00328	1408780
5.01142	1089629
5.01953	884726
5.02765	817335
5.03578	989610
5.04390	1389727
5.05203	1906738
5.06015	1997120
5.06827	1720809
5.07640	1389936
5.08452	1132552
5.09265	988630
5.10077	869630
5.10888	816092
5.11702	767163
5.12513	709179
5.13325	672616
5.14138	642611
5.14950	613603
5.15763	662603
5.16575	789714
5.17387	980579
5.18200	1098741
5.19012	1053621
5.19825	917303
5.20637	845957
5.21448	880773
5.22262	951028
5.23073	924185
5.23885	814642
5.24698	773116
5.25510	663766
5.26323	596424
5.27135	563147
5.27947	501834
5.28760	444913
5.29572	421422
5.30385	403173
5.31197	390919
5.32008	390483
5.32822	381583
5.33633	387446
5.34447	389597
5.35258	411906
5.36070	410440
5.36883	396724
5.37695	370646
5.38507	365099
5.39320	351334
5.40132	369034
5.40945	386132
5.41757	402384
5.42568	391201
5.43382	357766
5.44193	342840
5.45007	349428
5.45818	369602
5.46630	384778
5.47443	415444
5.48255	396692
5.49068	367700
5.49880	317901
5.50692	298411
5.51505	292710
5.52317	289564
5.53128	297496
5.53942	298564
5.54753	293634
5.55567	293986
5.56378	348000
5.57190	464994
5.58003	629910
5.58815	792069
5.59628	771952
5.60440	637671
5.61252	471128
5.62065	374675
5.62877	343357
5.63688	329453
5.64502	312002
5.65313	305022
5.66127	292734
5.66938	278886
5.67750	277619
5.68563	295964
5.69375	328832
5.70188	395309
5.71000	450415
5.71812	445876
5.72625	401556
5.73437	349304
5.74250	308443
5.75062	286056
5.75873	261085
5.76687	267255
5.77498	258049
5.78310	254867
5.79123	245531
5.79935	248099
5.80748	242888
5.81560	233962
5.82372	237011
5.83185	234281
5.83997	240980
5.84810	233033
5.85622	241853
5.86433	226698
5.87247	225323
5.88058	221150
5.88870	218962
5.89683	222218
5.90495	216094
5.91308	209455
5.92120	215135
5.92932	215119
5.93745	225596
5.94557	229993
5.95370	239535
5.96182	296956
5.96993	383478
5.97807	499953
5.98618	630737
5.99432	846899
6.00243	1028813
6.01055	1127518
6.01868	1032782
6.02680	821399
6.03492	578875
6.04305	433022
6.05117	340189
6.05930	297539
6.06742	265930
6.07553	250645
6.08367	233658
6.09178	223729
6.09992	219592
6.10803	204892
6.11615	197135
6.12428	207854
6.13240	258049
6.14053	454098
6.14865	860777
6.15677	1356294
6.16490	1622732
6.17302	1402400
6.18113	1037427
6.18927	735265
6.19738	578596
6.20552	473797
6.21363	411359
6.22175	360566
6.22988	336305
6.23800	320542
6.24613	316642
6.25425	305639
6.26237	305698
6.27050	312850
6.27862	330718
6.28675	314558
6.29487	297350
6.30298	270309
6.31112	258663
6.31923	272447
6.32735	259268
6.33548	263579
6.34360	262651
6.35173	263056
6.35985	270148
6.36797	254791
6.37610	262913
6.38422	250085
6.39235	251268
6.40047	248281
6.40858	252904
6.41672	241249
6.42483	239489
6.43295	237269
6.44108	227970
6.44920	235471
6.45733	237672
6.46545	246518
6.47357	247406
6.48170	254337
6.48982	251435
6.49795	254302
6.50607	257734
6.51418	256594
6.52232	251726
6.53043	258742
6.53857	262761
6.54668	264311
6.55480	257263
6.56293	245547
6.57105	261283
6.57917	318553
6.58730	444368
6.59542	559292
6.60355	588493
6.61167	511643
6.61978	392484
6.62792	334445
6.63603	264800
6.64417	231624
6.65228	209101
6.66040	190400
6.66853	188069
6.67665	180693
6.68477	178322
6.69290	172540
6.70102	165851
6.70915	155413
6.71727	158614
6.72538	150796
6.73352	147337
6.74163	151441
6.74977	149104
6.75788	147306
6.76600	147966
6.77413	141090
6.78225	145580
6.79038	144470
6.79850	142196
6.80662	142818
6.81475	143136
6.82287	133273
6.83098	131707
6.83912	136765
6.84723	128961
6.85537	134805
6.86348	135831
6.87160	145001
6.87973	167382
6.88785	192456
6.89598	207396
6.90410	186984
6.91222	171464
6.92035	138253
6.92847	122727
6.93660	117151
6.94472	114302
6.95283	109612
6.96097	109954
6.96908	113609
6.97720	115315
6.98533	131648
6.99345	147227
7.00158	157924
7.00970	150476
7.01782	146290
7.02595	129787
7.03407	138659
7.04220	131895
7.05032	133349
7.05843	119568
7.06657	119264
7.07468	113833
7.08280	127083
7.09093	145042
7.09905	162338
7.10718	167468
7.11530	161779
7.12342	153277
7.13155	128754
7.13967	113278
7.14780	120178
7.15592	117134
7.16403	146803
7.17217	195217
7.18028	296107
7.18842	640492
7.19653	1717808
7.20465	4028719
7.21278	7386249
7.22090	9990159
7.22902	9727742
7.23715	6870764
7.24527	3554713
7.25340	1447748
7.26152	540868
7.26963	269826
7.27777	182522
7.28588	158629
7.29402	152927
7.30213	151214
7.31025	151262
7.31838	143533
7.32650	151488
7.33463	140455
7.34275	155356
7.35087	190921
7.35900	236265
7.36712	274588
7.37523	286230
7.38337	268443
7.39148	224447
7.39962	185667
7.40773	157531
7.41585	144428
7.42398	130659
7.43210	128389
7.44023	124830
7.44835	133511
7.45647	119580
7.46460	124296
7.47272	119744
7.48083	117879
7.48897	126417
7.49708	116000
7.50522	118911
7.51333	116160
7.52145	104604
7.52958	102446
7.53770	112633
7.54583	132442
7.55395	198928
7.56207	366757
7.57020	702454
7.57832	1305300
7.58645	2013133
7.59457	2574626
7.60268	2765020
7.61082	2466424
7.61893	1875437
7.62705	1254571
7.63518	772067
7.64330	475821
7.65143	316062
7.65955	237996
7.66767	180537
7.67580	161819
7.68392	141961
7.69205	125040
7.70017	115727
7.70828	109787
7.71642	106646
7.72453	118890
7.73265	130556
7.74078	144884
7.74890	163595
7.75703	151846
7.76515	155536
7.77327	151454
7.78140	147019
7.78952	140831
7.79765	127468
7.80577	127905
7.81388	126497
7.82202	147542
7.83013	180891
7.83827	191863
7.84638	178925
7.85450	156165
7.86263	124153
7.87075	110644
7.87887	114321
7.88700	113507
7.89512	131115
7.90325	155915
7.91137	184206
7.91948	214747
7.92762	206115
7.93573	192588
7.94387	168941
7.95198	182492
7.96010	205579
7.96823	218641
7.97635	233944
7.98448	217131
7.99260	192339
8.00072	158503
8.00885	133872
8.01697	112733
8.02508	100070
8.03322	97880
8.04133	93300
8.04947	92134
8.05758	88785
8.06570	89992
8.07383	88961
8.08195	89428
8.09008	84974
8.09820	90873
8.10632	84109
8.11445	84090
8.12257	83107
8.13068	87489
8.13882	92317
8.14693	124151
8.15507	177293
8.16318	247658
8.17130	293311
8.17943	292922
8.18755	249794
8.19568	194746
8.20380	159005
8.21192	125653
8.22005	106225
8.22817	105471
8.23630	95401
8.24442	98991
8.25253	82959
8.26067	88594
8.26878	83857
8.27690	78819
8.28503	79926
8.29315	80806
8.30128	80184
8.30940	77467
8.31752	80350
8.32565	81934
8.33377	81623
8.34190	84627
8.35002	85964
8.35813	88831
8.36627	87848
8.37438	83356
8.38252	82997
8.39063	76277
8.39875	76832
8.40688	72763
8.41500	72905
8.42312	69397
8.43125	69016
8.43937	71286
8.44750	80634
8.45562	71359
8.46373	73716
8.47187	71334
8.47998	67487
8.48812	71825
8.49623	67153
8.50435	68195
8.51248	65749
8.52060	79975
8.52872	110600
8.53685	169837
8.54497	254331
8.55310	275981
8.56122	250655
8.56933	196990
8.57747	137223
8.58558	95495
8.59372	79863
8.60183	76848
8.60995	75870
8.61808	86592
8.62620	100285
8.63433	118114
8.64245	138651
8.65057	158158
8.65870	156285
8.66682	148738
8.67493	126230
8.68307	105561
8.69118	88491
8.69932	79197
8.70743	72219
8.71555	70437
8.72368	71508
8.73180	72732
8.73993	69420
8.74805	70598
8.75617	71851
8.76430	73332
8.77242	73244
8.78053	90265
8.78867	155354
8.79678	310362
8.80492	565460
8.81303	879616
8.82115	1064906
8.82928	991630
8.83740	768501
8.84553	530696
8.85365	367123
8.86177	275994
8.86990	243560
8.87802	207131
8.88615	203399
8.89427	178629
8.90238	170730
8.91052	160010
8.91863	154907
8.92675	174241
8.93488	219745
8.94300	318449
8.95113	407644
8.95925	442725
8.96737	380247
8.97550	285120
8.98362	227802
8.99175	191412
8.99987	195336
9.00798	196569
9.01612	192519
9.02423	195330
9.03237	167454
9.04048	151257
9.04860	137521
9.05673	125329
9.06485	122728
9.07297	119956
9.08110	110488
9.08922	118080
9.09735	113306
9.10547	115343
9.11358	135473
9.12172	163287
9.12983	199709
9.13797	234487
9.14608	240801
9.15420	225389
9.16233	180073
9.17045	164243
9.17857	136036
9.18670	122987
9.19482	128489
9.20295	122812
9.21107	119741
9.21918	110508
9.22732	119109
9.23543	121622
9.24357	124819
9.25168	119683
9.25980	117156
9.26793	114679
9.27605	107717
9.28418	104839
9.29230	106194
9.30042	99510
9.30855	101172
9.31667	100839
9.32478	99058
9.33292	97984
9.34103	95413
9.34917	97095
9.35728	93133
9.36540	96071
9.37353	93276
9.38165	87715
9.38978	90898
9.39790	82851
9.40602	92722
9.41415	89999
9.42227	105276
9.43040	124024
9.43852	155843
9.44663	195649
9.45477	228504
9.46288	280789
9.47100	288502
9.47913	271184
9.48725	224784
9.49538	178298
9.50350	137100
9.51162	119616
9.51975	109661
9.52787	116300
9.53600	124788
9.54412	139872
9.55223	140090
9.56037	135388
9.56848	127284
9.57660	108677
9.58473	102554
9.59285	89334
9.60098	79865
9.60910	79896
9.61722	81154
9.62535	80238
9.63347	77470
9.64160	67213
9.64972	73533
9.65783	75302
9.66597	64778
9.67408	65115
9.68222	61572
9.69033	63477
9.69845	64252
9.70658	67439
9.71470	66212
9.72282	71148
9.73095	74744
9.73907	75879
9.74720	80099
9.75532	76523
9.76343	72506
9.77157	66055
9.77968	60609
9.78782	59048
9.79593	63073
9.80405	65719
9.81218	65046
9.82030	64525
9.82843	59700
9.83655	63322
9.84467	60544
9.85280	59918
9.86092	63374
9.86903	64535
9.87717	64063
9.88528	62327
9.89342	62486
9.90153	60508
9.90965	58603
9.91778	55160
9.92590	58261
9.93403	59457
9.94215	59308
9.95027	66587
9.95840	82786
9.96652	107247
9.97463	135132
9.98277	170595
9.99088	175452
9.99902	178759
10.00713	167291
10.01525	137937
10.02338	111448
10.03150	96412
10.03963	89904
10.04775	88434
10.05587	91530
10.06400	97865
10.07212	93032
10.08025	93693
10.08837	91626
10.09648	89859
10.10462	91671
10.11273	87207
10.12085	87621
10.12898	83571
10.13710	81566
10.14523	80608
10.15335	79243
10.16147	81722
10.16960	75767
10.17772	82217
10.18585	85850
10.19397	82379
10.20208	73098
10.21022	75355
10.21833	70616
10.22645	74461
10.23458	71239
10.24270	78373
10.25083	80347
10.25895	90047
10.26707	135286
10.27520	315578
10.28332	861817
10.29145	2100523
10.29957	4219477
10.30768	6998703
10.31582	1.007537E+07
10.32393	1.344885E+07
10.33207	1.754912E+07
10.34018	2.286797E+07
10.34830	2.950772E+07
10.35643	3.72581E+07
10.36455	4.420136E+07
10.37267	4.880319E+07
10.38080	4.379844E+07
10.38892	2.8698E+07
10.39705	1.221731E+07
10.40517	5036600
10.41328	2870669
10.42142	2022752
10.42953	1491932
10.43767	1119340
10.44578	912015
10.45390	842404
10.46203	765228
10.47015	739196
10.47828	706600
10.48640	651513
10.49452	601091
10.50265	522787
10.51077	467445
10.51888	438128
10.52702	413588
10.53513	380774
10.54327	362271
10.55138	356216
10.55950	352869
10.56763	346423
10.57575	349487
10.58388	337922
10.59200	344480
10.60012	337742
10.60825	318368
10.61637	305470
10.62448	279224
10.63262	266418
10.64073	249404
10.64887	238316
10.65698	227570
10.66510	225515
10.67323	221740
10.68135	210430
10.68948	202721
10.69760	211705
10.70572	201608
10.71385	216089
10.72197	206793
10.73010	205853
10.73822	208462
10.74633	211231
10.75447	198726
10.76258	205085
10.77070	184518
10.77883	188589
10.78695	181041
10.79508	165857
10.80320	162291
10.81132	155465
10.81945	170756
10.82757	154619
10.83570	156078
10.84382	163078
10.85193	158460
10.86007	146616
10.86818	143213
10.87632	135225
10.88443	137115
10.89255	124582
10.90068	123322
10.90880	129376
10.91692	123714
10.92505	123235
10.93317	122358
10.94130	124331
10.94942	119763
10.95753	110175
10.96567	109722
10.97378	114332
10.98192	116708
10.99003	112307
10.99815	113374
11.00628	109171
11.01440	108049
11.02252	115673
11.03065	113732
11.03877	120090
11.04690	120129
11.05502	112269
11.06313	118381
11.07127	109324
11.07938	107594
11.08752	108140
11.09563	114433
11.10375	119491
11.11188	130132
11.12000	127135
11.12813	118992
11.13625	120853
11.14437	109768
11.15250	92076
11.16062	94749
11.16873	85871
11.17687	85435
11.18498	87945
11.19312	85640
11.20123	85127
11.20935	81040
11.21748	85311
11.22560	71058
11.23373	74694
11.24185	75126
11.24997	68039
11.25810	70442
11.26622	69535
11.27433	68858
11.28247	64873
11.29058	60040
11.29872	58714
11.30683	65275
11.31495	64966
11.32308	95989
11.33120	167793
11.33933	326941
11.34745	617881
11.35557	1020970
11.36370	1396056
11.37182	1617169
11.37995	1537030
11.38807	1279592
11.39618	959106
11.40432	697525
11.41243	514503
11.42055	438473
11.42868	366557
11.43680	300059
11.44493	248451
11.45305	214489
11.46117	186395
11.46930	163003
11.47742	152811
11.48555	138650
11.49367	137011
11.50178	157301
11.50992	214328
11.51803	273908
11.52617	344384
11.53428	387085
11.54240	394482
11.55053	368106
11.55865	338365
11.56677	275847
11.57490	231067
11.58302	207342
11.59115	194832
11.59927	191788
11.60738	238996
11.61552	332527
11.62363	508264
11.63177	672399
11.63988	757246
11.64800	692936
11.65613	535449
11.66425	388053
11.67238	272217
11.68050	194823
11.68862	162457
11.69675	136986
11.70487	125340
11.71298	119336
11.72112	122352
11.72923	119903
11.73737	127662
11.74548	127341
11.75360	126675
11.76173	119299
11.76985	105679
11.77798	97624
11.78610	92121
11.79422	83220
11.80235	84268
11.81047	79175
11.81858	77270
11.82672	76640
11.83483	67798
11.84297	69969
11.85108	70373
11.85920	69461
11.86733	72273
11.87545	67973
11.88358	64325
11.89170	64469
11.89982	67167
11.90795	64808
11.91607	62515
11.92420	68736
11.93232	69371
11.94043	81730
11.94857	85762
11.95668	81382
11.96480	81310
11.97293	73059
11.98105	69099
11.98918	69423
11.99730	59433
12.00542	63154
12.01355	61655
12.02167	60872
12.02980	58507
12.03792	56641
12.04603	56220
12.05417	57566
12.06228	63512
12.07040	62521
12.07853	60401
12.08665	66764
12.09478	66818
12.10290	71998
12.11102	71710
12.11915	76758
12.12727	87036
12.13540	111714
12.14352	151134
12.15163	206279
12.15977	237799
12.16788	250920
12.17602	222868
12.18413	182482
12.19225	142382
12.20038	127780
12.20850	122131
12.21662	113390
12.22475	114474
12.23287	111280
12.24100	104900
12.24912	99677
12.25723	96653
12.26537	93765
12.27348	93088
12.28162	91222
12.28973	94170
12.29785	89139
12.30598	91622
12.31410	84702
12.32223	84535
12.33035	83843
12.33847	81783
12.34660	77859
12.35472	77099
12.36283	79754
12.37097	80937
12.37908	77409
12.38722	80589
12.39533	81848
12.40345	90496
12.41158	100032
12.41970	152299
12.42783	214502
12.43595	300386
12.44407	365132
12.45220	392116
12.46032	351100
12.46843	274432
12.47657	211385
12.48468	157674
12.49282	131527
12.50093	113706
12.50905	101026
12.51718	101629
12.52530	93412
12.53343	90081
12.54155	97606
12.54967	114461
12.55780	156738
12.56592	209536
12.57405	267875
12.58217	292015
12.59028	274920
12.59842	226496
12.60653	181407
12.61465	141685
12.62278	115555
12.63090	106415
12.63903	91715
12.64715	93549
12.65527	85899
12.66340	80660
12.67152	86791
12.67965	84560
12.68777	85372
12.69588	81809
12.70402	86093
12.71213	79229
12.72027	75616
12.72838	70960
12.73650	76867
12.74463	71827
12.75275	72514
12.76087	81963
12.76900	88582
12.77712	80196
12.78525	75076
12.79337	78887
12.80148	73647
12.80962	65971
12.81773	64399
12.82587	59793
12.83398	62294
12.84210	57013
12.85023	61481
12.85835	56407
12.86647	56678
12.87460	52809
12.88272	50946
12.89085	51782
12.89897	53837
12.90708	46938
12.91522	50022
12.92333	56030
12.93147	49439
12.93958	49165
12.94770	49353
12.95583	51860
12.96395	52404
12.97208	52411
12.98020	63869
12.98832	71861
12.99645	77201
13.00457	78226
13.01268	69385
13.02082	68300
13.02893	55117
13.03707	60912
13.04518	53655
13.05330	56405
13.06143	58887
13.06955	49743
13.07768	55913
13.08580	54121
13.09392	58447
13.10205	65004
13.11017	63795
13.11828	61776
13.12642	61328
13.13453	60245
13.14267	53543
13.15078	56230
13.15890	57395
13.16703	53941
13.17515	57832
13.18328	63306
13.19140	61113
13.19952	63777
13.20765	64817
13.21577	62905
13.22390	67128
13.23202	65476
13.24013	67892
13.24827	73572
13.25638	78638
13.26450	75985
13.27263	78504
13.28075	87849
13.28888	79422
13.29700	74335
13.30512	69728
13.31325	66438
13.32137	58143
13.32950	54542
13.33762	45556
13.34573	51057
13.35387	48788
13.36198	49732
13.37012	52724
13.37823	55331
13.38635	49593
13.39448	52935
13.40260	52642
13.41072	48750
13.41885	48100
13.42697	49796
13.43510	48794
13.44322	50603
13.45133	43297
13.45947	45475
13.46758	47462
13.47572	49423
13.48383	50852
13.49195	50981
13.50008	52375
13.50820	52170
13.51632	53771
13.52445	53491
13.53257	66381
13.54070	66808
13.54882	72151
13.55693	64667
13.56507	62021
13.57318	51261
13.58132	53344
13.58943	52819
13.59755	63233
13.60568	63093
13.61380	75986
13.62193	102319
13.63005	116094
13.63817	130874
13.64630	136921
13.65442	126297
13.66253	103288
13.67067	83910
13.67878	69561
13.68692	55864
13.69503	53480
13.70315	49775
13.71128	47498
13.71940	46316
13.72753	49564
13.73565	46207
13.74377	49301
13.75190	50478
13.76002	54307
13.76815	77080
13.77627	95145
13.78438	151013
13.79252	199048
13.80063	273745
13.80875	367592
13.81688	458092
13.82500	538219
13.83313	583793
13.84125	673286
13.84937	785877
13.85750	897598
13.86562	922992
13.87375	861957
13.88187	703739
13.88998	527898
13.89812	370298
13.90623	265286
13.91435	191497
13.92248	150532
13.93060	118178
13.93873	102280
13.94685	95857
13.95497	86520
13.96310	78431
13.97122	77133
13.97935	67909
13.98747	70579
13.99558	66435
14.00372	68870
14.01183	75735
14.01997	73811
14.02808	80916
14.03620	82416
14.04433	74692
14.05245	69615
14.06057	65666
14.06870	60401
14.07682	58914
14.08495	59604
14.09307	64196
14.10118	56995
14.10932	59721
14.11743	55744
14.12557	56873
14.13368	52877
14.14180	51623
14.14993	54102
14.15805	57598
14.16618	54962
14.17430	64008
14.18242	60746
14.19055	65484
14.19867	75459
14.20678	79279
14.21492	91913
14.22303	122457
14.23117	141421
14.23928	178368
14.24740	183992
14.25553	200966
14.26365	203830
14.27178	215142
14.27990	217209
14.28802	205267
14.29615	176479
14.30427	158704
14.31238	130510
14.32052	119774
14.32863	105776
14.33677	103945
14.34488	94967
14.35300	94674
14.36113	94776
14.36925	94122
14.37738	84449
14.38550	91740
14.39362	79498
14.40175	81175
14.40987	84831
14.41800	107794
14.42612	145123
14.43423	190971
14.44237	236421
14.45048	240309
14.45860	230609
14.46673	182773
14.47485	144254
14.48298	118820
14.49110	103138
14.49922	107539
14.50735	103621
14.51547	96411
14.52360	92831
14.53172	90636
14.53983	84266
14.54797	79731
14.55608	68744
14.56420	68534
14.57233	62635
14.58045	63534
14.58858	61188
14.59670	55508
14.60482	57111
14.61295	56441
14.62107	56727
14.62920	53352
14.63732	49024
14.64543	50584
14.65357	45794
14.66168	52394
14.66982	47421
14.67793	45913
14.68605	44580
14.69418	49437
14.70230	44995
14.71042	42132
14.71855	48188
14.72667	48304
14.73480	50066
14.74292	51762
14.75103	53102
14.75917	52996
14.76728	52798
14.77542	55684
14.78353	55917
14.79165	63739
14.79978	89104
14.80790	203729
14.81603	570942
14.82415	1761477
14.83227	4264987
14.84040	8207307
14.84852	1.355811E+07
14.85663	1.820166E+07
14.86477	2.111007E+07
14.87288	2.002147E+07
14.88102	1.558856E+07
14.88913	9444733
14.89725	5109211
14.90538	2842861
14.91350	1907460
14.92163	1454801
14.92975	1221412
14.93787	1025002
14.94600	922770
14.95412	838058
14.96223	743216
14.97037	696010
14.97848	650602
14.98662	596115
14.99473	562740
15.00285	554590
15.01098	518811
15.01910	496066
15.02723	481833
15.03535	450543
15.04347	416144
15.05160	374775
15.05972	350546
15.06785	327001
15.07597	324400
15.08408	301434
15.09222	285652
15.10033	275433
15.10845	264182
15.11658	256371
15.12470	251269
15.13283	259314
15.14095	271811
15.14907	311688
15.15720	362764
15.16532	414852
15.17345	417853
15.18157	368241
15.18968	290541
15.19782	214147
15.20593	163141
15.21407	132372
15.22218	118167
15.23030	110716
15.23843	101908
15.24655	93537
15.25467	94639
15.26280	91058
15.27092	86950
15.27905	81048
15.28717	81366
15.29528	78157
15.30342	83381
15.31153	77638
15.31967	78943
15.32778	73562
15.33590	73537
15.34403	69035
15.35215	67627
15.36027	67033
15.36840	69779
15.37652	71559
15.38465	78158
15.39277	78855
15.40088	87360
15.40902	89707
15.41713	84446
15.42527	80013
15.43338	73584
15.44150	66953
15.44963	65845
15.45775	65802
15.46588	62255
15.47400	65912
15.48212	72634
15.49025	84599
15.49837	119241
15.50648	161610
15.51462	223210
15.52273	271275
15.53087	311081
15.53898	301560
15.54710	276580
15.55523	225157
15.56335	180695
15.57148	143699
15.57960	111817
15.58772	98263
15.59585	88063
15.60397	79774
15.61208	73662
15.62022	74579
15.62833	77564
15.63647	77608
15.64458	71558
15.65270	76792
15.66083	80074
15.66895	75542
15.67708	73754
15.68520	67601
15.69332	66563
15.70145	60345
15.70957	61293
15.71770	60413
15.72582	52899
15.73393	53888
15.74207	59050
15.75018	56724
15.75830	63663
15.76643	87747
15.77455	159137
15.78268	350154
15.79080	720662
15.79892	1239073
15.80705	1680925
15.81517	1878738
15.82330	1665869
15.83142	1240974
15.83953	808880
15.84767	492100
15.85578	328337
15.86392	239675
15.87203	203520
15.88015	176062
15.88828	167498
15.89640	154825
15.90452	134923
15.91265	131414
15.92077	123148
15.92890	118189
15.93702	111807
15.94513	109264
15.95327	104796
15.96138	100807
15.96952	100623
15.97763	94245
15.98575	91284
15.99388	92439
16.00200	93124
16.01012	90179
16.01825	102482
16.02637	103711
16.03450	114745
16.04262	125897
16.05073	131726
16.05887	127444
16.06698	114602
16.07512	114448
16.08323	90089
16.09135	81773
16.09948	79446
16.10760	72855
16.11573	69583
16.12385	68750
16.13197	72605
16.14010	76570
16.14822	84134
16.15633	99877
16.16447	112202
16.17258	116566
16.18072	120319
16.18883	112686
16.19695	101851
16.20508	90893
16.21320	84553
16.22133	78677
16.22945	80871
16.23757	87235
16.24570	87936
16.25382	85012
16.26195	75209
16.27007	71658
16.27818	67002
16.28632	65703
16.29443	67318
16.30255	74490
16.31068	86887
16.31880	92377
16.32693	93761
16.33505	107217
16.34317	108908
16.35130	106974
16.35942	116810
16.36755	115209
16.37567	114154
16.38378	106414
16.39192	90859
16.40003	87812
16.40815	87767
16.41628	75804
16.42440	73470
16.43253	71290
16.44065	75174
16.44877	76634
16.45690	114597
16.46502	248537
16.47315	615876
16.48127	1425144
16.48938	2767057
16.49752	4303681
16.50563	5427695
16.51377	5386843
16.52188	4408759
16.53000	2973401
16.53813	1767158
16.54625	1011398
16.55437	627160
16.56250	440854
16.57062	372953
16.57875	313783
16.58687	286442
16.59498	266786
16.60312	248369
16.61123	224433
16.61937	221162
16.62748	207688
16.63560	184385
16.64373	177909
16.65185	157398
16.65997	152535
16.66810	141204
16.67622	137457
16.68435	123962
16.69247	133427
16.70058	126827
16.70872	115093
16.71683	115112
16.72497	103596
16.73308	93089
16.74120	94351
16.74933	85945
16.75745	88074
16.76558	107835
16.77370	130703
16.78182	160752
16.78995	171223
16.79807	173212
16.80618	146582
16.81432	115301
16.82243	92892
16.83057	76056
16.83868	70009
16.84680	72722
16.85493	67720
16.86305	65266
16.87118	60162
16.87930	62089
16.88742	63068
16.89555	61201
16.90367	59994
16.91180	56267
16.91992	56024
16.92803	57287
16.93617	57139
16.94428	62524
16.95240	58317
16.96053	52407
16.96865	57496
16.97678	59065
16.98490	57471
16.99302	54841
17.00115	57424
17.00927	61947
17.01740	66132
17.02552	64165
17.03363	60464
17.04177	64641
17.04988	75961
17.05802	96562
17.06613	124216
17.07425	140820
17.08238	155914
17.09050	145216
17.09862	123866
17.10675	101904
17.11487	81552
17.12300	75327
17.13112	70052
17.13923	69954
17.14737	74403
17.15548	75637
17.16362	73197
17.17173	73781
17.17985	74507
17.18798	67676
17.19610	70254
17.20422	67740
17.21235	65281
17.22047	64119
17.22860	56274
17.23672	53873
17.24483	54593
17.25297	60386
17.26108	58011
17.26922	60786
17.27733	60955
17.28545	61261
17.29358	57271
17.30170	60117
17.30983	55977
17.31795	54918
17.32607	61265
17.33420	71679
17.34232	96053
17.35043	127198
17.35857	159507
17.36668	184298
17.37482	189323
17.38293	181934
17.39105	169838
17.39918	145184
17.40730	136581
17.41543	117985
17.42355	118203
17.43167	113404
17.43980	117067
17.44792	118583
17.45603	109689
17.46417	111038
17.47228	106346
17.48042	100037
17.48853	89136
17.49665	92970
17.50478	83693
17.51290	76393
17.52103	78678
17.52915	79492
17.53727	77309
17.54540	71731
17.55352	76518
17.56165	79616
17.56977	96947
17.57788	149289
17.58602	311411
17.59413	702702
17.60225	1512325
17.61038	2806402
17.61850	4146772
17.62663	5049745
17.63475	5217780
17.64287	4590015
17.65100	3397113
17.65912	2171547
17.66725	1284259
17.67537	746098
17.68348	464589
17.69162	316446
17.69973	247518
17.70785	203278
17.71598	180485
17.72410	166070
17.73223	156345
17.74035	148131
17.74847	130250
17.75660	127709
17.76472	115311
17.77285	107272
17.78097	99952
17.78908	88786
17.79722	86430
17.80533	83626
17.81347	81974
17.82158	79715
17.82970	80731
17.83783	78812
17.84595	83330
17.85407	89417
17.86220	111054
17.87032	133917
17.87845	155902
17.88657	182888
17.89468	187721
17.90282	165018
17.91093	142161
17.91907	114259
17.92718	94781
17.93530	78156
17.94343	76950
17.95155	67481
17.95968	67645
17.96780	66003
17.97592	64099
17.98405	63618
17.99217	62956
18.00028	59245
18.00842	60845
18.01653	61089
18.02467	77654
18.03278	100333
18.04090	140980
18.04903	199237
18.05715	269169
18.06528	347677
18.07340	556648
18.08152	1091566
18.08965	2352991
18.09777	4440804
18.10590	7025925
18.11402	9097952
18.12213	1.021447E+07
18.13027	9264339
18.13838	7350495
18.14650	5278499
18.15463	3888132
18.16275	2861638
18.17088	2293804
18.17900	1912705
18.18712	1668424
18.19525	1436213
18.20337	1274477
18.21150	1150350
18.21962	1043872
18.22773	919876
18.23587	862185
18.24398	795917
18.25210	729646
18.26023	689258
18.26835	640203
18.27648	582291
18.28460	531639
18.29272	447811
18.30085	379045
18.30897	286100
18.31710	222504
18.32522	174983
18.33333	145798
18.34147	138268
18.34958	126099
18.35772	121721
18.36583	112869
18.37395	113301
18.38208	104814
18.39020	103414
18.39832	100805
18.40645	99031
18.41457	100170
18.42270	101144
18.43082	104865
18.43893	120838
18.44707	132119
18.45518	165371
18.46332	229682
18.47143	378812
18.47955	655881
18.48768	1071444
18.49580	1512142
18.50392	1829753
18.51205	1849475
18.52017	1556508
18.52830	1157838
18.53642	740821
18.54453	455139
18.55267	283389
18.56078	190400
18.56892	145540
18.57703	116049
18.58515	109415
18.59328	100658
18.60140	92173
18.60953	95273
18.61765	96979
18.62577	96648
18.63390	107260
18.64202	113344
18.65013	109376
18.65827	101714
18.66638	100601
18.67452	94400
18.68263	85613
18.69075	74206
18.69888	70931
18.70700	67611
18.71513	69771
18.72325	70293
18.73137	65043
18.73950	61430
18.74762	61506
18.75575	63904
18.76387	60804
18.77198	59261
18.78012	57712
18.78823	52973
18.79635	60448
18.80448	60664
18.81260	60982
18.82073	63136
18.82885	56560
18.83697	62386
18.84510	61010
18.85322	62116
18.86135	61139
18.86947	62823
18.87758	62404
18.88572	59093
18.89383	65867
18.90195	66383
18.91008	83016
18.91820	116419
18.92633	170064
18.93445	211139
18.94257	245801
18.95070	269366
18.95882	284436
18.96695	300720
18.97507	333582
18.98318	342700
18.99132	344872
18.99943	338448
19.00757	313476
19.01568	299787
19.02380	288687
19.03193	265353
19.04005	265393
19.04817	254747
19.05630	244448
19.06442	248595
19.07255	258544
19.08067	247820
19.08878	243887
19.09692	249937
19.10503	266237
19.11317	289867
19.12128	307044
19.12940	321937
19.13753	316831
19.14565	301406
19.15378	283922
19.16190	269129
19.17002	250762
19.17815	251860
19.18627	246693
19.19438	237284
19.20252	230784
19.21063	236848
19.21877	233406
19.22688	227316
19.23500	227600
19.24313	231755
19.25125	227381
19.25938	230930
19.26750	228057
19.27562	226853
19.28375	232632
19.29187	222249
19.29998	239929
19.30812	234917
19.31623	233878
19.32437	238252
19.33248	245068
19.34060	237988
19.34873	236263
19.35685	237861
19.36498	249772
19.37310	297499
19.38122	379361
19.38935	464433
19.39747	525241
19.40560	532825
19.41372	498899
19.42183	424450
19.42997	348569
19.43808	305651
19.44620	274965
19.45433	261738
19.46245	244652
19.47058	236507
19.47870	229615
19.48682	231609
19.49495	235971
19.50307	235262
19.51120	248729
19.51932	259347
19.52743	283106
19.53557	307071
19.54368	320620
19.55180	337405
19.55993	322567
19.56805	311084
19.57618	274597
19.58430	257058
19.59242	236159
19.60055	219328
19.60867	213159
19.61680	199096
19.62492	197830
19.63303	179391
19.64117	189413
19.64928	192991
19.65742	222186
19.66553	274282
19.67365	347954
19.68178	435664
19.68990	552739
19.69802	642677
19.70615	691110
19.71427	664855
19.72240	607125
19.73052	543814
19.73863	480112
19.74677	420084
19.75488	372679
19.76302	319810
19.77113	288555
19.77925	269539
19.78738	253519
19.79550	255961
19.80363	279265
19.81175	296805
19.81987	331097
19.82800	344827
19.83612	334339
19.84423	310793
19.85237	274076
19.86048	247371
19.86862	228329
19.87673	227711
19.88485	267488
19.89298	388826
19.90110	548082
19.90923	773094
19.91735	981489
19.92547	1086103
19.93360	1041791
19.94172	882909
19.94983	688738
19.95797	537469
19.96608	435517
19.97422	375411
19.98233	333467
19.99045	310757
19.99858	287301
20.00670	278848
20.01483	265211
20.02295	263711
20.03107	251801
20.03920	247781
20.04732	239256
20.05545	233144
20.06357	218017
20.07168	216444
20.07982	220567
20.08793	235076
20.09605	259114
20.10418	280829
20.11230	292890
20.12043	281478
20.12855	265485
20.13667	241026
20.14480	217269
20.15292	203056
20.16105	202975
20.16917	226413
20.17728	271810
20.18542	356351
20.19353	462241
20.20167	604919
20.20978	720641
20.21790	749885
20.22603	745715
20.23415	649313
20.24227	546223
20.25040	447842
20.25852	403694
20.26665	417742
20.27477	493761
20.28288	597573
20.29102	743409
20.29913	875814
20.30727	929171
20.31538	895091
20.32350	815083
20.33163	649108
20.33975	506530
20.34787	385114
20.35600	306196
20.36412	255728
20.37225	222405
20.38037	192438
20.38848	184797
20.39662	178234
20.40473	168261
20.41287	162780
20.42098	161098
20.42910	164719
20.43723	162873
20.44535	171056
20.45348	189488
20.46160	209034
20.46972	216200
20.47785	218580
20.48597	212836
20.49408	207173
20.50222	180106
20.51033	168052
20.51847	162052
20.52658	158163
20.53470	154643
20.54283	150160
20.55095	151087
20.55908	164305
20.56720	173587
20.57532	167670
20.58345	159507
20.59157	158094
20.59970	152851
20.60782	141260
20.61593	136379
20.62407	136272
20.63218	129080
20.64030	127576
20.64843	130169
20.65655	132130
20.66468	141519
20.67280	147472
20.68092	150845
20.68905	148613
20.69717	137155
20.70530	139538
20.71342	133596
20.72153	125071
20.72967	124830
20.73778	124540
20.74590	124490
20.75403	127967
20.76215	133109
20.77028	138239
20.77840	144083
20.78652	156331
20.79465	178409
20.80277	229193
20.81090	348043
20.81902	560737
20.82713	887727
20.83527	1189614
20.84338	1315184
20.85152	1233359
20.85963	978317
20.86775	676706
20.87588	440519
20.88400	293447
20.89212	211098
20.90025	174857
20.90837	165111
20.91650	153072
20.92462	150119
20.93273	152451
20.94087	155902
20.94898	161958
20.95712	165833
20.96523	165982
20.97335	160339
20.98148	157955
20.98960	157151
20.99772	143817
21.00585	125103
21.01397	120613
21.02210	117541
21.03022	120653
21.03833	124939
21.04647	121894
21.05458	127857
21.06272	127018
21.07083	131710
21.07895	131305
21.08708	131261
21.09520	124366
21.10333	123962
21.11145	124837
21.11957	121395
21.12770	115566
21.13582	122209
21.14393	129034
21.15207	144274
21.16018	188385
21.16832	237804
21.17643	299228
21.18455	354061
21.19268	368838
21.20080	327558
21.20893	274809
21.21705	224809
21.22517	192201
21.23330	174614
21.24142	166539
21.24955	148494
21.25767	144513
21.26578	134107
21.27392	123808
21.28203	112607
21.29015	115240
21.29828	106974
21.30640	109177
21.31453	111101
21.32265	107964
21.33077	106104
21.33890	107795
21.34702	103271
21.35515	101522
21.36327	107540
21.37138	99509
21.37952	111455
21.38763	109423
21.39575	126496
21.40388	147143
21.41200	181734
21.42013	240558
21.42825	291977
21.43637	321053
21.44450	324744
21.45262	294120
21.46075	244635
21.46887	209586
21.47698	177267
21.48512	167694
21.49323	149967
21.50137	141263
21.50948	130274
21.51760	125254
21.52573	119174
21.53385	112037
21.54197	103817
21.55010	105359
21.55822	106646
21.56635	103926
21.57447	107294
21.58258	109526
21.59072	114409
21.59883	146501
21.60697	162921
21.61508	183775
21.62320	174968
21.63133	182514
21.63945	157530
21.64758	160784
21.65570	157101
21.66382	181621
21.67195	203469
21.68007	220230
21.68818	256518
21.69632	264674
21.70443	265820
21.71257	262310
21.72068	232383
21.72880	198843
21.73693	159513
21.74505	143769
21.75318	133361
21.76130	123329
21.76942	121428
21.77755	114140
21.78567	109690
21.79378	111521
21.80192	108576
21.81003	105715
21.81817	101883
21.82628	106358
21.83440	103761
21.84253	108228
21.85065	125032
21.85878	132368
21.86690	155404
21.87502	159752
21.88315	167865
21.89127	161029
21.89940	148057
21.90752	133811
21.91563	127914
21.92377	120593
21.93188	119636
21.94000	125050
21.94813	117515
21.95625	102165
21.96438	100408
21.97250	92002
21.98062	91731
21.98875	89964
21.99687	82216
22.00500	87232
22.01312	79439
22.02123	85795
22.02937	82732
22.03748	84159
22.04560	94172
22.05373	99169
22.06185	106180
22.06998	104549
22.07810	108597
22.08622	98747
22.09435	98031
22.10247	94207
22.11060	89445
22.11872	87461
22.12683	88516
22.13497	84882
22.14308	84953
22.15122	80960
22.15933	84311
22.16745	78133
22.17558	76176
22.18370	78999
22.19182	80323
22.19995	76290
22.20807	76334
22.21620	73592
22.22432	81417
22.23243	74641
22.24057	81175
22.24868	85823
22.25682	84907
22.26493	93685
22.27305	98335
22.28118	97121
22.28930	99579
22.29743	104988
22.30555	109881
22.31367	109323
22.32180	114846
22.32992	112910
22.33803	104934
22.34617	102092
22.35428	103009
22.36242	97028
22.37053	95066
22.37865	98661
22.38678	91539
22.39490	96469
22.40303	114702
22.41115	150574
22.41927	212246
22.42740	304681
22.43552	398881
22.44363	436430
22.45177	443442
22.45988	394573
22.46802	298293
22.47613	228400
22.48425	176742
22.49238	156342
22.50050	164068
22.50863	169464
22.51675	198752
22.52487	214738
22.53300	210807
22.54112	204820
22.54925	188447
22.55737	171378
22.56548	152552
22.57362	130642
22.58173	116343
22.58985	106823
22.59798	97211
22.60610	90109
22.61423	84961
22.62235	82922
22.63047	78153
22.63860	77374
22.64672	84109
22.65485	82223
22.66297	84606
22.67108	89295
22.67922	98529
22.68733	97537
22.69547	108007
22.70358	121756
22.71170	158827
22.71983	200743
22.72795	253684
22.73607	307111
22.74420	329064
22.75232	294791
22.76045	266118
22.76857	221857
22.77668	178657
22.78482	175173
22.79293	185323
22.80107	241663
22.80918	342793
22.81730	454566
22.82543	565146
22.83355	636609
22.84167	646628
22.84980	577106
22.85792	447872
22.86605	347303
22.87417	269743
22.88228	233837
22.89042	214580
22.89853	211695
22.90667	220452
22.91478	232221
22.92290	255343
22.93103	302726
22.93915	369558
22.94728	460179
22.95540	483764
22.96352	481480
22.97165	425464
22.97977	333851
22.98788	287813
22.99602	215731
23.00413	189886
23.01227	163754
23.02038	154241
23.02850	139562
23.03663	123108
23.04475	114085
23.05288	100667
23.06100	95429
23.06912	100180
23.07725	97655
23.08537	94179
23.09348	96321
23.10162	98191
23.10973	93902
23.11787	95110
23.12598	91257
23.13410	88684
23.14223	86942
23.15035	86081
23.15848	79961
23.16660	78935
23.17472	80328
23.18285	75200
23.19097	78958
23.19910	75148
23.20722	70992
23.21533	69007
23.22347	68479
23.23158	70428
23.23970	67489
23.24783	69408
23.25595	71832
23.26408	90171
23.27220	109970
23.28032	128857
23.28845	149139
23.29657	155439
23.30470	148475
23.31282	126469
23.32093	106057
23.32907	94208
23.33718	90354
23.34532	96735
23.35343	120052
23.36155	149098
23.36968	199233
23.37780	251048
23.38592	295466
23.39405	305889
23.40217	283724
23.41030	260815
23.41842	222658
23.42653	177732
23.43467	152883
23.44278	143854
23.45092	132286
23.45903	131100
23.46715	127371
23.47528	125486
23.48340	115554
23.49153	111789
23.49965	104063
23.50777	102395
23.51590	99567
23.52402	90185
23.53213	96662
23.54027	92264
23.54838	91463
23.55652	90049
23.56463	100252
23.57275	109132
23.58088	112192
23.58900	129924
23.59713	152615
23.60525	185885
23.61337	214569
23.62150	242213
23.62962	235339
23.63773	216515
23.64587	184989
23.65398	144462
23.66212	127377
23.67023	111400
23.67835	113146
23.68648	111958
23.69460	110889
23.70273	103047
23.71085	98647
23.71897	91440
23.72710	77991
23.73522	76856
23.74335	78118
23.75147	72542
23.75958	71745
23.76772	82690
23.77583	119053
23.78395	217095
23.79208	452895
23.80020	804148
23.80833	1211828
23.81645	1553672
23.82457	1615882
23.83270	1498532
23.84082	1201801
23.84895	931647
23.85707	700579
23.86518	541529
23.87332	428946
23.88143	354079
23.88955	319548
23.89768	277356
23.90580	255774
23.91393	272896
23.92205	292108
23.93017	322372
23.93830	344135
23.94642	345093
23.95455	331563
23.96267	263411
23.97078	233707
23.97892	189136
23.98703	169968
23.99517	158074
24.00328	140920
24.01140	132844
24.01953	139733
24.02765	130038
24.03577	130957
24.04390	139292
24.05202	142631
24.06015	140566
24.06827	135260
24.07638	126846
24.08452	116775
24.09263	107093
24.10077	106133
24.10888	101341
24.11700	92478
24.12513	95377
24.13325	102825
24.14138	98710
24.14950	101589
24.15762	108014
24.16575	126269
24.17387	129998
24.18198	140024
24.19012	148433
24.19823	148750
24.20637	141606
24.21448	144456
24.22260	145489
24.23073	134293
24.23885	130145
24.24698	123511
24.25510	119751
24.26322	116473
24.27135	104630
24.27947	106976
24.28758	100865
24.29572	102304
24.30383	95830
24.31197	96495
24.32008	99027
24.32820	103167
24.33633	112747
24.34445	103148
24.35258	106065
24.36070	105742
24.36882	95199
24.37695	96068
24.38507	92530
24.39320	86694
24.40132	87598
24.40943	92039
24.41757	105449
24.42568	118302
24.43380	127887
24.44193	127159
24.45005	123384
24.45818	112254
24.46630	105981
24.47442	95688
24.48255	90078
24.49067	90417
24.49880	86362
24.50692	89236
24.51503	96468
24.52317	94818
24.53128	97171
24.53942	101756
24.54753	116138
24.55565	129985
24.56378	148153
24.57190	164272
24.58002	169427
24.58815	167718
24.59627	170291
24.60440	155251
24.61252	145728
24.62063	132191
24.62877	119322
24.63688	108418
24.64502	95563
24.65313	89776
24.66125	85642
24.66938	86591
24.67750	81141
24.68562	87919
24.69375	92067
24.70187	95026
24.71000	95410
24.71812	97722
24.72623	102310
24.73437	100400
24.74248	112252
24.75062	112139
24.75873	109821
24.76685	107205
24.77498	117925
24.78310	120558
24.79123	135723
24.79935	145826
24.80747	159632
24.81560	161103
24.82372	156682
24.83183	150004
24.83997	153848
24.84808	177286
24.85622	246509
24.86433	328793
24.87245	473970
24.88058	706645
24.88870	1110914
24.89683	1602521
24.90495	2186494
24.91307	2611586
24.92120	2609127
24.92932	2302105
24.93743	1733102
24.94557	1163324
24.95368	691315
24.96182	412538
24.96993	261954
24.97805	180478
24.98618	153710
24.99430	124297
25.00243	117205
25.01055	98815
25.01867	94506
25.02680	92645
25.03492	91452
25.04305	91818
25.05117	87231
25.05928	85288
25.06742	82332
25.07553	90235
25.08365	83517
25.09178	94435
25.09990	106738
25.10803	134597
25.11615	257676
25.12427	572779
25.13240	1411805
25.14052	3151287
25.14865	5700031
25.15677	8813454
25.16488	1.122794E+07
25.17302	1.200744E+07
25.18113	1.104815E+07
25.18927	8708780
25.19738	5682258
25.20550	3291231
25.21363	1715533
25.22175	903319
25.22987	495525
25.23800	309926
25.24612	242238
25.25425	242475
25.26237	299051
25.27048	382190
25.27862	485992
25.28673	584684
25.29487	622592
25.30298	580370
25.31110	488103
25.31923	382650
25.32735	267072
25.33547	196892
25.34360	154263
25.35172	130209
25.35985	118566
25.36797	109255
25.37608	98676
25.38422	91495
25.39233	91812
25.40047	88056
25.40858	79147
25.41670	80008
25.42483	74480
25.43295	77517
25.44108	74793
25.44920	77987
25.45732	81219
25.46545	79324
25.47357	93258
25.48168	106619
25.48982	112122
25.49793	101883
25.50607	85573
25.51418	84761
25.52230	84536
25.53043	82125
25.53855	80215
25.54668	76109
25.55480	76654
25.56292	76765
25.57105	74561
25.57917	71781
25.58730	70897
25.59542	76295
25.60353	71292
25.61167	76040
25.61978	75476
25.62790	72331
25.63603	69843
25.64415	65195
25.65228	64413
25.66040	65755
25.66852	66572
25.67665	61491
25.68477	70357
25.69290	69130
25.70102	67372
25.70913	74964
25.71727	78901
25.72538	75459
25.73350	76721
25.74163	79448
25.74975	76370
25.75788	73117
25.76600	76261
25.77412	68868
25.78225	66764
25.79037	62114
25.79850	65804
25.80662	65145
25.81473	62978
25.82287	69221
25.83098	66676
25.83912	67116
25.84723	67705
25.85535	72270
25.86348	74665
25.87160	79308
25.87972	99388
25.88785	157388
25.89597	231340
25.90410	289834
25.91222	317771
25.92033	336463
25.92847	354370
25.93658	359443
25.94472	362923
25.95283	361416
25.96095	383725
25.96908	377049
25.97720	389392
25.98532	373819
25.99345	378757
26.00157	373281
26.00970	373976
26.01782	377930
26.02593	370678
26.03407	361399
26.04218	361290
26.05032	380463
26.05843	371317
26.06655	377246
26.07468	382993
26.08280	374591
26.09093	373849
26.09905	369941
26.10717	387261
26.11530	376652
26.12342	370446
26.13153	376755
26.13967	359169
26.14778	367347
26.15592	378476
26.16403	376749
26.17215	372304
26.18028	368930
26.18840	373267
26.19653	381389
26.20465	374600
26.21277	363030
26.22090	364438
26.22902	360169
26.23715	357485
26.24527	347900
26.25338	341090
26.26152	334919
26.26963	339304
26.27775	328520
26.28588	328544
26.29400	324863
26.30213	326676
26.31025	322921
26.31837	320583
26.32650	317961
26.33462	308490
26.34275	308970
26.35087	303630
26.35898	317546
26.36712	305970
26.37523	320093
26.38335	343959
26.39148	382744
26.39960	416162
26.40773	465604
26.41585	508902
26.42397	512654
26.43210	503035
26.44022	469550
26.44835	430770
26.45647	374575
26.46458	346368
26.47272	330153
26.48083	320153
26.48897	324837
26.49708	313447
26.50520	306592
26.51333	302999
26.52145	298384
26.52957	292217
26.53770	273061
26.54582	282375
26.55395	264337
26.56207	263219
26.57018	255880
26.57832	257294
26.58643	250124
26.59457	249487
26.60268	251106
26.61080	243704
26.61893	247217
26.62705	242951
26.63518	247341
26.64330	238107
26.65142	242292
26.65955	250681
26.66767	244691
26.67578	239458
26.68392	237633
26.69203	234748
26.70017	233894
26.70828	233668
26.71640	232553
26.72453	220826
26.73265	233499
26.74078	222327
26.74890	229896
26.75702	221146
26.76515	220117
26.77327	222594
26.78138	219929
26.78952	209745
26.79763	211568
26.80577	217503
26.81388	218916
26.82200	225853
26.83013	227330
26.83825	220445
26.84638	219080
26.85450	218371
26.86262	210168
26.87075	214184
26.87887	207485
26.88700	213274
26.89512	201761
26.90323	200762
26.91137	199857
26.91948	197813
26.92760	198134
26.93573	189419
26.94385	190076
26.95198	185411
26.96010	193969
26.96822	191554
26.97635	194880
26.98447	212463
26.99260	231594
27.00072	276170
27.00883	336755
27.01697	478703
27.02508	647142
27.03322	804941
27.04133	964782
27.04945	961087
27.05758	910630
27.06570	785017
27.07382	655124
27.08195	539007
27.09007	457727
27.09820	379888
27.10632	343325
27.11443	322439
27.12257	292296
27.13068	293625
27.13882	289732
27.14693	278529
27.15505	266949
27.16318	271577
27.17130	258479
27.17942	265323
27.18755	287913
27.19567	286090
27.20380	309342
27.21192	312497
27.22003	303341
27.22817	287236
27.23628	263451
27.24442	242747
27.25253	227883
27.26065	208362
27.26878	201233
27.27690	185866
27.28503	177586
27.29315	182027
27.30127	172520
27.30940	177020
27.31752	163158
27.32563	167071
27.33377	166039
27.34188	161746
27.35002	163879
27.35813	163741
27.36625	176061
27.37438	177384
27.38250	184998
27.39063	182592
27.39875	179855
27.40687	177834
27.41500	163061
27.42312	159503
27.43123	155041
27.43937	156974
27.44748	152640
27.45562	149330
27.46373	155716
27.47185	155954
27.47998	152428
27.48810	144837
27.49623	146986
27.50435	144402
27.51247	140446
27.52060	137743
27.52872	139599
27.53685	138775
27.54497	136099
27.55308	139466
27.56122	138471
27.56933	139772
27.57745	142326
27.58558	154371
27.59370	177445
27.60183	204539
27.60995	243473
27.61807	264369
27.62620	257790
27.63432	254222
27.64245	204060
27.65057	177992
27.65868	159903
27.66682	143309
27.67493	143858
27.68307	131477
27.69118	128988
27.69930	125522
27.70743	126898
27.71555	124946
27.72367	130421
27.73180	127350
27.73992	118878
27.74805	109279
27.75617	111894
27.76428	108079
27.77242	106602
27.78053	108165
27.78867	118175
27.79678	129358
27.80490	132172
27.81303	126542
27.82115	128576
27.82927	126078
27.83740	120184
27.84552	111391
27.85365	111756
27.86177	111054
27.86988	104366
27.87802	104076
27.88613	100203
27.89427	99813
27.90238	95585
27.91050	97841
27.91863	99133
27.92675	100958
27.93488	101154
27.94300	93224
27.95112	95228
27.95925	89377
27.96737	87422
27.97548	89632
27.98362	90562
27.99173	91598
27.99987	91064
28.00798	95967
28.01610	95821
28.02423	103898
28.03235	100974
28.04048	102673
28.04860	122483
28.05672	132270
28.06485	138105
28.07297	140263
28.08110	140925
28.08922	125600
28.09733	113942
28.10547	101791
28.11358	95430
28.12170	91540
28.12983	86017
28.13795	85191
28.14608	86015
28.15420	82774
28.16232	82880
28.17045	79458
28.17857	81628
28.18670	83710
28.19482	85861
28.20293	100075
28.21107	125836
28.21918	165579
28.22730	201812
28.23543	238326
28.24355	255074
28.25168	255741
28.25980	234627
28.26792	194576
28.27605	164486
28.28417	131443
28.29230	113400
28.30042	96054
28.30853	95359
28.31667	103727
28.32478	112815
28.33292	128031
28.34103	147015
28.34915	150781
28.35728	147748
28.36540	142503
28.37352	139956
28.38165	150245
28.38977	149492
28.39790	165781
28.40602	165750
28.41413	176443
28.42227	177300
28.43038	183010
28.43852	170693
28.44663	163964
28.45475	141209
28.46288	136842
28.47100	127295
28.47912	114457
28.48725	113008
28.49537	110507
28.50350	111051
28.51162	105589
28.51973	107661
28.52787	111924
28.53598	109354
28.54412	102036
28.55223	102456
28.56035	91589
28.56848	90733
28.57660	90357
28.58473	91403
28.59285	87011
28.60097	86959
28.60910	91381
28.61722	88099
28.62533	81359
28.63347	86989
28.64158	94621
28.64972	93760
28.65783	103876
28.66595	98844
28.67408	101593
28.68220	97318
28.69033	95778
28.69845	96838
28.70657	93885
28.71470	90741
28.72282	89096
28.73095	83823
28.73907	88205
28.74718	81744
28.75532	80044
28.76343	77287
28.77155	77509
28.77968	81559
28.78780	83819
28.79593	90930
28.80405	105135
28.81217	115855
28.82030	131318
28.82842	131687
28.83655	132027
28.84467	125004
28.85278	121354
28.86092	110472
28.86903	108235
28.87717	101947
28.88528	102112
28.89340	111198
28.90153	131100
28.90965	159110
28.91777	170391
28.92590	171124
28.93402	160739
28.94215	144434
28.95027	119432
28.95838	103430
28.96652	93225
28.97463	87692
28.98277	82129
28.99088	83004
28.99900	77896
29.00713	83262
29.01525	75434
29.02337	73570
29.03150	73540
29.03962	74315
29.04775	75057
29.05587	71502
29.06398	75909
29.07212	75471
29.08023	81194
29.08837	84434
29.09648	90476
29.10460	93670
29.11273	97032
29.12085	102584
29.12898	92306
29.13710	82372
29.14522	76969
29.15335	77262
29.16147	77353
29.16958	74498
29.17772	75929
29.18583	78666
29.19397	94479
29.20208	110878
29.21020	147618
29.21833	208648
29.22645	263804
29.23458	317954
29.24270	337003
29.25082	284044
29.25895	237526
29.26707	193182
29.27518	168674
29.28332	132346
29.29143	113174
29.29957	94782
29.30768	88029
29.31580	76199
29.32393	78234
29.33205	80118
29.34018	72730
29.34830	72732
29.35642	68704
29.36455	72429
29.37267	71127
29.38080	67000
29.38892	70309
29.39703	71258
29.40517	65309
29.41328	67738
29.42140	72611
29.42953	75259
29.43765	72657
29.44578	76758
29.45390	74927
29.46202	74118
29.47015	74578
29.47827	71407
29.48640	67586
29.49452	65844
29.50263	69181
29.51077	73301
29.51888	83522
29.52702	77421
29.53513	83100
29.54325	78903
29.55138	81937
29.55950	80494
29.56762	76578
29.57575	77932
29.58387	74753
29.59200	73695
29.60012	70444
29.60823	66560
29.61637	69894
29.62448	71980
29.63262	71752
29.64073	70956
29.64885	72355
29.65698	72197
29.66510	70052
29.67322	68045
29.68135	70260
29.68947	73552
29.69760	82751
29.70572	85968
29.71383	94434
29.72197	102433
29.73008	98400
29.73822	91383
29.74633	78408
29.75445	70944
29.76258	67949
29.77070	72314
29.77883	66822
29.78695	66638
29.79507	69214
29.80320	62249
29.81132	67014
29.81943	61006
29.82757	62163
29.83568	61480
29.84382	63947
29.85193	63022
29.86005	65949
29.86818	66389
29.87630	67534
29.88443	74644
29.89255	98306
29.90067	121715
29.90880	155507
29.91692	192805
29.92505	203428
29.93317	196203
29.94128	153390
29.94942	124050
29.95753	96717
29.96565	82900
29.97378	77044
29.98190	75764
29.99003	72855
29.99815	78104
30.00627	76896
30.01440	88812
30.02252	93566
30.03065	98677
30.03877	101518
30.04688	107266
30.05502	108940
30.06313	110500
30.07125	114752
30.07938	108974
30.08750	108748
30.09563	98216
30.10375	102704
30.11187	101805
30.12000	99698
30.12812	98150
30.13625	94346
30.14437	89678
30.15248	90187
30.16062	87741
30.16873	82377
30.17687	85669
30.18498	79747
30.19310	83109
30.20123	80970
30.20935	81868
30.21747	86230
30.22560	86735
30.23372	85543
30.24185	81266
30.24997	85191
30.25808	77660
30.26622	72956
30.27433	75681
30.28247	70125
30.29058	72983
30.29870	71004
30.30683	67235
30.31495	69350
30.32307	67031
30.33120	70962
30.33932	71883
30.34745	68273
30.35557	73194
30.36368	70761
30.37182	71373
30.37993	78149
30.38807	72248
30.39618	73536
30.40430	72790
30.41243	66040
30.42055	67542
30.42868	64130
30.43680	64325
30.44492	63210
30.45305	65907
30.46117	64225
30.46928	62829
30.47742	62353
30.48553	62333
30.49367	60678
30.50178	65658
30.50990	66451
30.51803	64484
30.52615	64804
30.53428	65130
30.54240	62141
30.55052	64262
30.55865	62863
30.56677	67621
30.57490	71301
30.58302	68855
30.59113	67894
30.59927	66873
30.60738	68166
30.61550	67108
30.62363	66108
30.63175	68104
30.63988	63171
30.64800	59265
30.65612	63725
30.66425	65125
30.67237	61997
30.68050	61566
30.68862	57253
30.69673	54881
30.70487	56405
30.71298	55981
30.72110	61834
30.72923	55742
30.73735	62072
30.74548	62338
30.75360	61488
30.76172	63136
30.76985	64395
30.77797	62299
30.78610	67145
30.79422	85756
30.80233	116233
30.81047	155966
30.81858	222416
30.82672	278617
30.83483	297936
30.84295	279683
30.85108	219571
30.85920	178243
30.86732	127657
30.87545	96044
30.88357	79813
30.89170	73625
30.89982	71267
30.90793	72537
30.91607	69581
30.92418	65787
30.93232	69580
30.94043	65547
30.94855	64216
30.95668	61312
30.96480	64989
30.97293	61929
30.98105	62418
30.98917	66212
30.99730	64028
31.00542	66666
31.01353	60667
31.02167	60934
31.02978	64797
31.03792	68100
31.04603	64796
31.05415	60759
31.06228	64501
31.07040	64434
31.07853	65151
31.08665	68353
31.09477	72467
31.10290	78195
31.11102	89249
31.11913	104937
31.12727	107545
31.13538	115865
31.14352	108542
31.15163	99841
31.15975	96612
31.16788	99271
31.17600	102169
31.18413	102114
31.19225	105337
31.20037	103890
31.20850	109300
31.21662	111072
31.22475	128534
31.23287	139906
31.24098	147698
31.24912	141205
31.25723	125037
31.26535	126048
31.27348	96957
31.28160	86985
31.28973	78098
31.29785	72716
31.30597	67641
31.31410	72299
31.32222	72148
31.33035	74604
31.33847	82049
31.34658	89740
31.35472	99021
31.36283	97233
31.37097	92425
31.37908	87725
31.38720	81399
31.39533	75465
31.40345	68666
31.41157	67258
31.41970	67789
31.42782	61040
31.43595	62097
31.44407	63137
31.45218	67677
31.46032	65894
31.46843	65046
31.47657	69832
31.48468	65550
31.49280	64404
31.50093	66218
31.50905	63211
31.51717	72656
31.52530	67662
31.53342	68109
31.54155	69821
31.54967	71690
31.55778	71410
31.56592	70468
31.57403	77446
31.58217	71109
31.59028	66717
31.59840	68189
31.60653	65007
31.61465	63571
31.62278	61299
31.63090	59831
31.63902	64572
31.64715	63479
31.65527	63437
31.66338	71233
31.67152	76872
31.67963	91713
31.68777	97733
31.69588	99638
31.70400	104307
31.71213	101676
31.72025	91023
31.72838	84288
31.73650	76895
31.74462	70492
31.75275	63515
31.76087	64049
31.76898	61156
31.77712	64419
31.78523	64472
31.79337	63878
31.80148	63569
31.80960	67083
31.81773	59876
31.82585	67783
31.83398	63058
31.84210	64931
31.85022	65193
31.85835	69001
31.86647	76327
31.87460	79202
31.88272	79573
31.89083	87382
31.89897	80696
31.90708	80405
31.91520	73871
31.92333	70552
31.93145	65687
31.93958	63738
31.94770	66322
31.95582	66291
31.96395	74909
31.97207	78683
31.98020	83112
31.98832	87856
31.99643	94621
32.00457	90578
32.01268	101324
32.02082	100124
32.02893	108283
32.03705	105031
32.04518	107887
32.05330	95107
32.06142	93464
32.06955	90445
32.07767	80109
32.08580	77352
32.09392	78615
32.10203	76793
32.11017	75424
32.11828	79286
32.12642	72810
32.13453	76609
32.14265	73031
32.15078	72117
32.15890	65265
32.16702	65372
32.17515	67566
32.18327	62257
32.19140	65454
32.19952	61419
32.20763	61793
32.21577	64755
32.22388	70069
32.23202	61421
32.24013	65122
32.24825	63160
32.25638	63335
32.26450	60873
32.27263	60186
32.28075	59027
32.28887	61690
32.29700	66634
32.30512	69552
32.31323	68208
32.32137	61707
32.32948	60098
32.33762	63848
32.34573	59873
32.35385	63338
32.36198	58619
32.37010	63665
32.37823	62197
32.38635	62684
32.39447	61116
32.40260	67738
32.41072	62493
32.41885	64054
32.42697	60870
32.43508	66341
32.44322	65444
32.45133	59462
32.45945	64737
32.46758	63013
32.47570	62106
32.48383	60819
32.49195	64785
32.50007	62920
32.50820	59800
32.51632	61646
32.52445	64940
32.53257	61551
32.54068	64537
32.54882	61370
32.55693	65465
32.56505	60131
32.57318	60900
32.58130	59197
32.58943	61033
32.59755	59996
32.60567	58512
32.61380	56471
32.62192	57441
32.63005	61058
32.63817	61607
32.64628	57824
32.65442	61613
32.66253	59014
32.67067	57781
32.67878	64831
32.68690	68362
32.69503	69431
32.70315	76476
32.71127	74125
32.71940	74055
32.72752	73057
32.73565	69440
32.74377	66310
32.75188	72829
32.76002	67488
32.76813	64225
32.77627	63688
32.78438	59436
32.79250	63011
32.80063	63856
32.80875	57288
32.81687	67305
32.82500	58551
32.83312	62119
32.84125	58933
32.84937	55270
32.85748	56505
32.86562	59562
32.87373	58955
32.88187	63699
32.88998	63453
32.89810	60850
32.90623	72857
32.91435	81740
32.92248	85069
32.93060	88701
32.93872	85743
32.94685	80648
32.95497	70180
32.96308	69758
32.97122	68378
32.97933	66923
32.98747	77219
32.99558	92113
33.00370	115304
33.01183	143415
33.01995	164326
33.02808	180801
33.03620	173850
33.04432	157375
33.05245	133143
33.06057	114715
33.06870	108681
33.07682	121843
33.08493	129930
33.09307	130341
33.10118	136652
33.10930	148513
33.11743	145344
33.12555	144343
33.13368	142712
33.14180	134848
33.14992	130393
33.15805	121713
33.16617	113848
33.17430	108680
33.18242	98879
33.19053	87106
33.19867	82326
33.20678	75082
33.21492	75232
33.22303	77194
33.23115	72755
33.23928	77017
33.24740	75626
33.25552	74406
33.26365	68488
33.27177	70446
33.27990	72983
33.28802	73996
33.29613	70043
33.30427	71536
33.31238	66288
33.32052	66242
33.32863	67507
33.33675	70789
33.34488	67412
33.35300	71490
33.36112	75786
33.36925	75396
33.37737	84325
33.38550	87287
33.39362	88602
33.40173	81510
33.40987	79511
33.41798	73538
33.42612	71549
33.43423	61938
33.44235	64050
33.45048	66371
33.45860	63897
33.46673	67473
33.47485	63247
33.48297	57054
33.49110	64939
33.49922	63187
33.50733	64542
33.51547	70005
33.52358	67561
33.53172	67722
33.53983	76654
33.54795	77415
33.55608	84306
33.56420	98141
33.57233	113246
33.58045	113882
33.58857	113800
33.59670	110326
33.60482	91012
33.61293	77340
33.62107	71187
33.62918	64544
33.63732	72554
33.64543	72248
33.65355	66469
33.66168	70648
33.66980	72362
33.67793	73498
33.68605	79380
33.69417	81597
33.70230	78836
33.71042	68479
33.71855	67749
33.72667	68652
33.73478	67585
33.74292	61938
33.75103	63136
33.75915	65584
33.76728	61668
33.77540	61075
33.78353	62289
33.79165	66011
33.79977	60633
33.80790	64210
33.81602	60170
33.82415	66159
33.83227	60121
33.84038	65273
33.84852	59040
33.85663	62513
33.86477	64467
33.87288	69385
33.88100	68755
33.88913	71805
33.89725	70684
33.90537	69726
33.91350	71710
33.92162	71772
33.92975	64170
33.93787	64273
33.94598	69154
33.95412	65997
33.96223	61578
33.97037	61823
33.97848	59499
33.98660	59248
33.99473	60224
34.00285	60353
34.01097	60283
34.01910	65296
34.02722	58694
34.03535	59836
34.04347	60639
34.05158	60969
34.05972	62025
34.06783	60806
34.07597	61635
34.08408	58228
34.09220	61787
34.10033	61646
34.10845	65759
34.11658	58979
34.12470	64764
34.13282	62225
34.14095	62180
34.14907	63656
34.15718	62575
34.16532	58421
34.17343	61887
34.18157	60671
34.18968	63517
34.19780	56631
34.20593	60215
34.21405	66034
34.22218	58461
34.23030	62818
34.23842	60355
34.24655	61267
34.25467	58811
34.26280	55673
34.27092	63857
34.27903	59771
34.28717	59030
34.29528	51691
34.30340	62904
34.31153	57189
34.31965	60099
34.32778	59886
34.33590	58121
34.34402	62667
34.35215	62173
34.36027	66178
34.36840	58984
34.37652	65764
34.38463	61773
34.39277	62251
34.40088	64136
34.40900	60718
34.41713	63268
34.42525	64290
34.43338	60350
34.44150	59390
34.44962	61778
34.45775	70041
34.46587	69148
34.47400	62863
34.48212	62373
34.49023	68050
34.49837	59938
34.50648	62900
34.51462	58021
34.52273	58959
34.53085	62518
34.53898	59170
34.54710	62786
34.55522	67493
34.56335	72234
34.57147	76547
34.57960	82889
34.58772	82054
34.59583	87465
34.60397	85352
34.61208	79826
34.62022	81683
34.62833	81419
34.63645	74306
34.64458	78171
34.65270	69819
34.66082	69189
34.66895	72771
34.67707	68042
34.68520	67431
34.69332	68613
34.70143	66916
34.70957	70242
34.71768	65152
34.72582	66434
34.73393	68392
34.74205	61693
34.75018	66766
34.75830	66143
34.76643	66644
34.77455	64182
34.78267	67993
34.79080	71077
34.79892	69258
34.80703	73306
34.81517	66942
34.82328	63119
34.83142	62619
34.83953	65623
34.84765	68451
34.85578	68431
34.86390	66006
34.87203	63240
34.88015	68775
34.88827	64603
34.89640	63813
34.90452	64729
34.91265	61854
34.92077	65303
34.92888	69846
34.93702	62091
34.94513	64682
34.95325	68743
34.96138	66661
34.96950	70981
34.97763	77777
34.98575	79481
34.99387	81628
35.00200	79541
35.01012	82287
35.01825	81325
35.02637	73068
35.03448	68668
35.04262	69297
35.05073	64941
35.05885	67483
35.06698	66364
35.07510	66166
35.08323	66106
35.09135	64164
35.09947	65117
35.10760	66774
35.11572	65509
35.12385	72562
35.13197	67170
35.14008	60027
35.14822	66868
35.15633	72602
35.16447	65298
35.17258	67273
35.18070	69698
35.18883	64525
35.19695	66450
35.20507	71495
35.21320	62360
35.22132	69669
35.22945	65492
35.23757	66718
35.24568	63731
35.25382	64625
35.26193	64856
35.27007	67800
35.27818	68752
35.28630	70907
35.29443	63408
35.30255	70886
35.31068	63582
35.31880	68472
35.32692	65360
35.33505	68494
35.34317	57891
35.35128	60495
35.35942	59759
35.36753	58323
35.37567	63220
35.38378	62646
35.39190	64278
35.40003	62473
35.40815	61596
35.41628	64262
35.42440	66923
35.43252	69188
35.44065	71760
35.44877	69906
35.45688	72881
35.46502	74065
35.47313	68419
35.48127	70042
35.48938	73667
35.49750	71399
35.50563	74492
35.51375	72017
35.52188	69340
35.53000	70531
35.53812	63280
35.54625	67527
35.55437	66423
35.56250	63718
35.57062	66922
35.57873	69301
35.58687	61610
35.59498	68678
35.60310	64117
35.61123	66185
35.61935	70820
35.62748	64414
35.63560	67340
35.64372	64584
35.65185	63714
35.65997	65343
35.66810	65556
35.67622	64778
35.68433	65609
35.69247	67771
35.70058	61875
35.70870	66474
35.71683	73875
35.72495	72297
35.73308	73832
35.74120	66103
35.74932	71041
35.75745	78517
35.76557	84335
35.77370	92228
35.78182	101163
35.78993	103025
35.79807	100251
35.80618	96310
35.81432	88650
35.82243	85371
35.83055	73558
35.83868	65929
35.84680	64966
35.85492	68739
35.86305	65127
35.87117	62296
35.87930	63358
35.88742	71006
35.89553	68193
35.90367	65766
35.91178	68034
35.91992	70652
35.92803	67043
35.93615	64250
35.94428	66835
35.95240	66551
35.96053	61968
35.96865	72098
35.97677	64987
35.98490	68844
35.99302	68715
36.00113	69460
36.00927	62478
36.01738	72328
36.02552	69750
36.03363	69188
36.04175	67745
36.04988	72946
36.05800	70105
36.06613	73582
36.07425	68757
36.08237	67949
36.09050	66132
36.09862	67498
36.10673	69244
36.11487	70516
36.12298	64972
36.13112	66089
36.13923	74195
36.14735	71941
36.15548	77756
36.16360	80658
36.17173	80990
36.17985	81641
36.18797	77594
36.19610	73490
36.20422	71216
36.21235	68820
36.22047	65734
36.22858	68473
36.23672	65955
36.24483	68717
36.25295	69470
36.26108	68278
36.26920	68751
36.27733	70753
36.28545	70708
36.29357	66133
36.30170	69067
36.30982	69612
36.31795	67736
36.32607	69576
36.33418	73936
36.34232	77892
36.35043	78280
36.35857	80434
36.36668	84071
36.37480	77334
36.38293	77828
36.39105	71573
36.39917	71718
36.40730	72674
36.41542	76201
36.42355	78546
36.43167	84039
36.43978	77313
36.44792	79158
36.45603	79075
36.46417	78662
36.47228	75905
36.48040	75441
36.48853	68840
36.49665	69750
36.50477	69451
36.51290	67648
36.52102	68120
36.52915	69943
36.53727	71211
36.54538	69241
36.55352	67916
36.56163	71650
36.56977	71192
36.57788	71291
36.58600	69847
36.59413	70671
36.60225	74299
36.61038	65312
36.61850	78418
36.62662	71524
36.63475	70786
36.64287	71054
36.65098	68593
36.65912	67397
36.66723	70103
36.67537	75359
36.68348	74269
36.69160	73048
36.69973	69034
36.70785	74242
36.71598	72934
36.72410	70259
36.73222	70501
36.74035	73049
36.74847	71901
36.75660	72136
36.76472	71323
36.77283	71683
36.78097	74645
36.78908	70553
36.79720	68121
36.80533	71298
36.81345	69437
36.82158	66806
36.82970	67202
36.83782	68824
36.84595	65256
36.85407	76542
36.86220	69012
36.87032	73030
36.87843	74323
36.88657	66821
36.89468	68530
36.90280	72417
36.91093	67522
36.91905	72191
36.92718	72357
36.93530	71661
36.94342	70564
36.95155	79976
36.95967	92613
36.96780	109220
36.97592	128964
36.98403	156003
36.99217	159054
37.00028	174063
37.00842	152832
37.01653	138709
37.02465	112281
37.03278	92616
37.04090	83225
37.04902	84580
37.05715	78639
37.06527	81082
37.07340	81158
37.08152	75769
37.08963	79527
37.09777	81056
37.10588	81172
37.11402	84284
37.12213	81338
37.13025	80045
37.13838	83649
37.14650	78096
37.15462	79447
37.16275	80750
37.17087	74210
37.17900	70110
37.18712	76901
37.19523	78971
37.20337	76762
37.21148	71874
37.21962	76083
37.22773	71183
37.23585	73054
37.24398	75950
37.25210	81207
37.26023	78055
37.26835	75806
37.27647	76438
37.28460	76491
37.29272	75143
37.30083	75853
37.30897	72926
37.31708	75512
37.32522	70838
37.33333	70929
37.34145	78459
37.34958	74879
37.35770	73906
37.36583	80762
37.37395	79998
37.38207	76408
37.39020	79477
37.39832	79252
37.40645	87695
37.41457	84008
37.42268	80331
37.43082	81168
37.43893	85413
37.44705	84280
37.45518	84096
37.46330	83779
37.47143	87451
37.47955	82085
37.48767	86198
