C:\MassHunter\GCMS\1\data\JTB-E02\BACandBLUE\JTB-E18-013-13.D Thu Jun 20 13:30:09 2019
Start of data points
2.09525	76537
2.10337	79934
2.11148	75983
2.11962	72684
2.12773	76389
2.13585	80038
2.14398	77001
2.15210	74797
2.16023	77015
2.16835	78453
2.17647	79305
2.18460	77636
2.19272	73607
2.20085	71086
2.20897	74494
2.21708	77876
2.22522	73236
2.23333	73391
2.24147	77309
2.24958	70356
2.25770	72107
2.26583	81705
2.27395	322334
2.28207	1163103
2.29020	1203780
2.29832	551929
2.30645	338259
2.31457	258887
2.32268	232183
2.33082	200801
2.33893	189853
2.34707	176931
2.35518	165304
2.36330	151947
2.37143	147332
2.37955	141477
2.38768	143013
2.39580	138127
2.40392	132554
2.41205	130693
2.42017	129058
2.42828	135851
2.43642	126532
2.44453	125570
2.45267	126443
2.46078	121153
2.46890	118213
2.47703	118006
2.48515	114285
2.49328	130112
2.50140	157150
2.50952	139679
2.51765	130042
2.52577	124320
2.53388	115839
2.54202	116760
2.55013	122646
2.55827	152363
2.56638	221928
2.57450	224620
2.58263	173687
2.59075	153975
2.59888	143573
2.60700	285265
2.61512	992415
2.62325	1313885
2.63137	775743
2.63950	462147
2.64762	336684
2.65573	261873
2.66387	221372
2.67198	191646
2.68010	173155
2.68823	166613
2.69635	154933
2.70448	145499
2.71260	142838
2.72072	136900
2.72885	138459
2.73697	127231
2.74510	125020
2.75322	132273
2.76133	125983
2.76947	120589
2.77758	128085
2.78572	193924
2.79383	299198
2.80195	262856
2.81008	186490
2.81820	166651
2.82632	166601
2.83445	166010
2.84257	156390
2.85070	141232
2.85882	133657
2.86693	128642
2.87507	117867
2.88318	113646
2.89132	112423
2.89943	115937
2.90755	118623
2.91568	111649
2.92380	113913
2.93192	112668
2.94005	110039
2.94817	108001
2.95630	107480
2.96442	118405
2.97253	135368
2.98067	126857
2.98878	116642
2.99692	114874
3.00503	119020
3.01315	120376
3.02128	115823
3.02940	112998
3.03753	109694
3.04565	104495
3.05377	102503
3.06190	104123
3.07002	106498
3.07813	150456
3.08627	688533
3.09438	2717457
3.10252	4887622
3.11063	5982146
3.11875	6304346
3.12688	4566740
3.13500	2881183
3.14313	2106909
3.15125	1654713
3.15937	1303456
3.16750	1064050
3.17562	916949
3.18375	835646
3.19187	941653
3.19998	1220221
3.20812	1173608
3.21623	902490
3.22435	728998
3.23248	627244
3.24060	555369
3.24873	491801
3.25685	443023
3.26497	413143
3.27310	376569
3.28122	377120
3.28935	478830
3.29747	1242775
3.30558	3441625
3.31372	6138176
3.32183	6730632
3.32995	5260727
3.33808	3598568
3.34620	2584105
3.35433	1998031
3.36245	1594813
3.37057	1345272
3.37870	1162259
3.38682	1009636
3.39495	888215
3.40307	798044
3.41118	753843
3.41932	687973
3.42743	650425
3.43557	608653
3.44368	607457
3.45180	559515
3.45993	535829
3.46805	525778
3.47617	545922
3.48430	532994
3.49242	506368
3.50055	463781
3.50867	448390
3.51678	429636
3.52492	416120
3.53303	414933
3.54117	413363
3.54928	412502
3.55740	397972
3.56553	389634
3.57365	421845
3.58178	461653
3.58990	463473
3.59802	414811
3.60615	385011
3.61427	384332
3.62238	388447
3.63052	396328
3.63863	395446
3.64677	393693
3.65488	373194
3.66300	497151
3.67113	1444591
3.67925	4300512
3.68738	6676024
3.69550	5670899
3.70362	3506267
3.71175	2331055
3.71987	1831851
3.72798	1561318
3.73612	1355947
3.74423	1203978
3.75237	1078334
3.76048	979132
3.76860	911098
3.77673	860760
3.78485	810316
3.79298	768867
3.80110	769944
3.80922	1094286
3.81735	1770961
3.82547	2185402
3.83360	1839211
3.84172	1344607
3.84983	1075164
3.85797	928940
3.86608	847210
3.87420	773759
3.88233	713545
3.89045	675621
3.89858	638086
3.90670	603358
3.91482	592450
3.92295	625191
3.93107	696960
3.93920	735250
3.94732	901122
3.95543	2229318
3.96357	5868743
3.97168	9665521
3.97980	9594167
3.98793	6347914
3.99605	4532620
4.00418	8921216
4.01230	2.230842E+07
4.02042	3.518314E+07
4.02855	3.532023E+07
4.03667	2.308464E+07
4.04480	1.149669E+07
4.05292	6127334
4.06103	3974888
4.06917	2961718
4.07728	2334946
4.08542	1936640
4.09353	1648719
4.10165	1467609
4.10978	1316152
4.11790	1200146
4.12602	1082476
4.13415	1029563
4.14227	993565
4.15040	994962
4.15852	954577
4.16663	910256
4.17477	866141
4.18288	830844
4.19102	789580
4.19913	740722
4.20725	783772
4.21538	1588315
4.22350	4598401
4.23163	1.009358E+07
4.23975	1.424244E+07
4.24787	1.410554E+07
4.25600	1.007999E+07
4.26412	6198786
4.27223	4210616
4.28037	3043941
4.28848	2377092
4.29662	1925023
4.30473	1626595
4.31285	1393258
4.32098	1230871
4.32910	1119417
4.33723	1032809
4.34535	961797
4.35347	899663
4.36160	887106
4.36972	848102
4.37783	843502
4.38597	797886
4.39408	741909
4.40222	689672
4.41033	673747
4.41845	639755
4.42658	623358
4.43470	600125
4.44283	574994
4.45095	556298
4.45907	551326
4.46720	550329
4.47532	525955
4.48345	514196
4.49157	511164
4.49968	504760
4.50782	485418
4.51593	476086
4.52405	466835
4.53218	452638
4.54030	448276
4.54843	436494
4.55655	429117
4.56467	430031
4.57280	420295
4.58092	412112
4.58905	408782
4.59717	403996
4.60528	390615
4.61342	396272
4.62153	397173
4.62967	419969
4.63778	492823
4.64590	585722
4.65403	585059
4.66215	526792
4.67027	442503
4.67840	420906
4.68652	404410
4.69465	390787
4.70277	376461
4.71088	373201
4.71902	360919
4.72713	345572
4.73527	342291
4.74338	343647
4.75150	339337
4.75963	332761
4.76775	325311
4.77587	313965
4.78400	333851
4.79212	404666
4.80025	632206
4.80837	952619
4.81648	1098910
4.82462	930176
4.83273	712974
4.84087	616552
4.84898	577232
4.85710	552607
4.86523	509779
4.87335	482548
4.88148	444089
4.88960	416048
4.89772	388183
4.90585	385082
4.91397	369781
4.92208	363647
4.93022	390089
4.93833	581495
4.94647	1241818
4.95458	2618864
4.96270	4309615
4.97083	5158977
4.97895	4731528
4.98708	3565998
4.99520	2532347
5.00332	1775458
5.01145	1340535
5.01957	1080246
5.02768	955491
5.03582	911206
5.04393	905739
5.05207	874817
5.06018	790985
5.06830	697082
5.07643	642985
5.08455	608543
5.09268	556051
5.10080	548653
5.10892	515797
5.11705	497938
5.12517	487301
5.13330	478149
5.14142	457575
5.14953	461552
5.15767	458055
5.16578	482166
5.17390	493445
5.18203	490893
5.19015	463775
5.19828	458060
5.20640	448666
5.21452	455514
5.22265	449933
5.23077	441009
5.23890	425245
5.24702	439867
5.25513	421633
5.26327	396175
5.27138	365149
5.27952	343970
5.28763	342173
5.29575	349809
5.30388	335169
5.31200	326413
5.32012	329042
5.32825	341710
5.33637	352444
5.34450	362416
5.35262	369564
5.36073	350796
5.36887	339183
5.37698	319096
5.38512	323738
5.39323	321560
5.40135	314389
5.40948	323396
5.41760	315986
5.42572	308680
5.43385	298317
5.44197	293755
5.45010	296472
5.45822	301162
5.46633	286683
5.47447	283642
5.48258	281908
5.49072	270108
5.49883	273418
5.50695	270187
5.51508	279815
5.52320	286588
5.53133	290920
5.53945	287517
5.54757	276510
5.55570	273287
5.56382	285045
5.57193	297786
5.58007	321093
5.58818	314155
5.59632	300020
5.60443	279703
5.61255	268271
5.62068	262346
5.62880	268337
5.63693	278806
5.64505	291680
5.65317	295855
5.66130	286025
5.66942	276882
5.67755	274051
5.68567	293037
5.69378	323187
5.70192	331177
5.71003	312653
5.71815	287546
5.72628	270534
5.73440	252596
5.74253	249653
5.75065	247728
5.75877	244776
5.76690	238981
5.77502	235866
5.78315	231174
5.79127	232342
5.79938	232937
5.80752	233150
5.81563	227199
5.82375	217181
5.83188	223914
5.84000	224788
5.84813	230568
5.85625	225181
5.86437	218194
5.87250	225879
5.88062	215136
5.88875	209176
5.89687	212127
5.90498	212395
5.91312	182486
5.92123	165911
5.92937	162373
5.93748	154713
5.94560	163418
5.95373	184774
5.96185	205566
5.96997	228141
5.97810	261800
5.98622	294940
5.99435	319797
6.00247	305393
6.01058	277964
6.01872	237171
6.02683	217463
6.03497	209327
6.04308	188469
6.05120	173014
6.05933	164507
6.06745	158179
6.07558	158321
6.08370	155055
6.09182	150897
6.09995	156254
6.10807	153777
6.11618	155873
6.12432	172432
6.13243	211763
6.14057	291759
6.14868	360453
6.15680	379112
6.16493	349738
6.17305	273647
6.18118	238979
6.18930	217189
6.19742	201200
6.20555	196519
6.21367	191930
6.22178	192950
6.22992	193453
6.23803	182901
6.24617	179996
6.25428	184995
6.26240	187226
6.27053	191458
6.27865	187055
6.28678	189601
6.29490	184954
6.30302	188098
6.31115	186517
6.31927	201394
6.32740	232381
6.33552	275199
6.34363	313266
6.35177	327819
6.35988	286492
6.36800	252380
6.37613	226025
6.38425	218482
6.39238	210360
6.40050	205116
6.40862	208280
6.41675	207631
6.42487	200382
6.43300	201100
6.44112	200740
6.44923	198847
6.45737	196297
6.46548	198734
6.47360	195853
6.48173	198521
6.48985	200482
6.49798	197213
6.50610	199863
6.51422	203191
6.52235	206874
6.53047	210483
6.53860	206286
6.54672	207223
6.55483	208544
6.56297	212485
6.57108	217559
6.57922	234244
6.58733	245144
6.59545	236894
6.60358	230450
6.61170	215112
6.61982	214866
6.62795	226780
6.63607	215753
6.64420	214487
6.65232	238064
6.66043	314211
6.66857	429080
6.67668	515689
6.68482	508689
6.69293	427265
6.70105	336483
6.70918	297424
6.71730	266270
6.72543	258639
6.73355	230881
6.74167	203882
6.74980	188947
6.75792	181393
6.76603	179089
6.77417	163270
6.78228	164659
6.79042	159274
6.79853	155698
6.80665	149007
6.81478	150526
6.82290	151714
6.83103	148267
6.83915	155489
6.84727	155726
6.85540	185447
6.86352	190058
6.87163	203041
6.87977	190533
6.88788	158845
6.89602	131665
6.90413	113243
6.91225	101856
6.92038	103352
6.92850	95009
6.93663	96810
6.94475	91615
6.95287	99437
6.96100	98703
6.96912	110852
6.97725	116778
6.98537	127528
6.99348	130668
7.00162	117631
7.00973	117329
7.01785	100700
7.02598	94157
7.03410	93653
7.04223	91052
7.05035	94135
7.05847	90050
7.06660	93505
7.07472	93437
7.08285	89507
7.09097	85815
7.09908	91093
7.10722	84649
7.11533	86592
7.12347	85445
7.13158	85784
7.13970	104908
7.14783	146706
7.15595	214381
7.16407	295293
7.17220	334548
7.18032	306627
7.18845	237373
7.19657	184815
7.20468	208030
7.21282	411645
7.22093	886929
7.22907	1553369
7.23718	1935996
7.24530	1718332
7.25343	1151312
7.26155	673891
7.26967	427002
7.27780	293824
7.28592	214107
7.29405	160091
7.30217	126520
7.31028	127374
7.31842	121294
7.32653	124371
7.33467	127458
7.34278	126604
7.35090	124648
7.35903	115490
7.36715	114296
7.37528	110931
7.38340	104733
7.39152	112109
7.39965	115245
7.40777	118682
7.41588	110950
7.42402	111123
7.43213	107037
7.44027	99235
7.44838	100521
7.45650	96836
7.46463	93786
7.47275	94367
7.48088	89561
7.48900	93059
7.49712	91787
7.50525	87932
7.51337	91636
7.52148	92007
7.52962	104857
7.53773	135239
7.54587	174717
7.55398	217948
7.56210	258482
7.57023	261243
7.57835	241916
7.58648	216252
7.59460	167715
7.60272	133338
7.61085	106957
7.61897	102428
7.62710	95720
7.63522	85753
7.64333	88322
7.65147	87260
7.65958	81568
7.66770	80339
7.67583	81750
7.68395	80496
7.69208	76825
7.70020	80362
7.70832	78774
7.71645	85806
7.72457	78342
7.73270	81861
7.74082	81785
7.74893	79954
7.75707	87313
7.76518	84968
7.77332	86813
7.78143	88673
7.78955	90576
7.79768	92951
7.80580	97098
7.81392	98054
7.82205	95649
7.83017	87318
7.83830	83689
7.84642	79388
7.85453	80750
7.86267	74724
7.87078	75774
7.87892	87824
7.88703	80597
7.89515	83998
7.90328	83305
7.91140	79745
7.91953	81784
7.92765	87971
7.93577	100629
7.94390	114785
7.95202	126122
7.96013	125355
7.96827	112857
7.97638	105158
7.98452	94406
7.99263	84386
8.00075	79799
8.00888	74237
8.01700	71638
8.02513	75135
8.03325	73444
8.04137	78096
8.04950	77226
8.05762	72654
8.06573	75639
8.07387	69288
8.08198	77896
8.09012	69374
8.09823	67025
8.10635	69998
8.11448	66958
8.12260	74085
8.13073	74331
8.13885	78803
8.14697	101472
8.15510	101119
8.16322	100054
8.17135	93886
8.17947	86794
8.18758	78553
8.19572	73213
8.20383	70842
8.21195	72157
8.22008	68013
8.22820	66874
8.23633	70531
8.24445	67083
8.25257	66439
8.26070	69498
8.26882	63756
8.27695	64126
8.28507	64100
8.29318	64179
8.30132	69745
8.30943	72186
8.31755	73751
8.32568	79897
8.33380	79699
8.34193	79182
8.35005	74256
8.35817	70513
8.36630	71362
8.37442	69624
8.38255	73522
8.39067	71210
8.39878	66633
8.40692	70552
8.41503	64824
8.42317	61623
8.43128	62356
8.43940	61382
8.44753	61181
8.45565	63111
8.46377	64881
8.47190	59225
8.48002	58645
8.48815	60649
8.49627	64267
8.50438	67052
8.51252	68087
8.52063	89277
8.52877	142217
8.53688	235760
8.54500	367032
8.55313	434194
8.56125	406491
8.56938	290487
8.57750	200028
8.58562	140640
8.59375	115174
8.60187	119866
8.60998	134749
8.61812	130848
8.62623	115527
8.63437	109039
8.64248	90971
8.65060	83642
8.65873	75034
8.66685	72962
8.67498	70990
8.68310	72427
8.69122	73153
8.69935	70739
8.70747	71788
8.71558	73282
8.72372	68893
8.73183	71602
8.73997	77944
8.74808	98415
8.75620	197924
8.76433	452547
8.77245	944084
8.78058	1617563
8.78870	2120034
8.79682	2091802
8.80495	1672842
8.81307	1102849
8.82120	687455
8.82932	428967
8.83743	310293
8.84557	279174
8.85368	269556
8.86180	259966
8.86993	225885
8.87805	219237
8.88618	200371
8.89430	182575
8.90242	180059
8.91055	168394
8.91867	159791
8.92680	147844
8.93492	172063
8.94303	179350
8.95117	183799
8.95928	177030
8.96742	160470
8.97553	150196
8.98365	142964
8.99178	142543
8.99990	139638
9.00802	134383
9.01615	123309
9.02427	125966
9.03240	117086
9.04052	115100
9.04863	118257
9.05677	112290
9.06488	105573
9.07302	108281
9.08113	105936
9.08925	102307
9.09738	106737
9.10550	110465
9.11362	121670
9.12175	127040
9.12987	126466
9.13800	117227
9.14612	111279
9.15423	103194
9.16237	102615
9.17048	99064
9.17862	97477
9.18673	100064
9.19485	93731
9.20298	95872
9.21110	91924
9.21923	93597
9.22735	94968
9.23547	94279
9.24360	94774
9.25172	96089
9.25983	94554
9.26797	88744
9.27608	89626
9.28422	92204
9.29233	87083
9.30045	81541
9.30858	85175
9.31670	83379
9.32483	79192
9.33295	79958
9.34107	82304
9.34920	81710
9.35732	77891
9.36543	75633
9.37357	79725
9.38168	80812
9.38982	77241
9.39793	79513
9.40605	81481
9.41418	90683
9.42230	91524
9.43043	96954
9.43855	105927
9.44667	105290
9.45480	105783
9.46292	95281
9.47105	89333
9.47917	79507
9.48728	75248
9.49542	81792
9.50353	85698
9.51165	92309
9.51978	103960
9.52790	114896
9.53603	116081
9.54415	103332
9.55227	95968
9.56040	88845
9.56852	77012
9.57665	74989
9.58477	71520
9.59288	69184
9.60102	71521
9.60913	61381
9.61727	54208
9.62538	55209
9.63350	48964
9.64163	51611
9.64975	51813
9.65787	50353
9.66600	51081
9.67412	50202
9.68225	47777
9.69037	50624
9.69848	50167
9.70662	52039
9.71473	48201
9.72287	47899
9.73098	49885
9.73910	48603
9.74723	43595
9.75535	46268
9.76347	44303
9.77160	47367
9.77972	40753
9.78785	44518
9.79597	45384
9.80408	40525
9.81222	43440
9.82033	45411
9.82847	45492
9.83658	46506
9.84470	44536
9.85283	45875
9.86095	49304
9.86908	49930
9.87720	51883
9.88532	49006
9.89345	49076
9.90157	46808
9.90968	47840
9.91782	52673
9.92593	61619
9.93407	83630
9.94218	136072
9.95030	198433
9.95843	259687
9.96655	274324
9.97468	243170
9.98280	184978
9.99092	147084
9.99905	115388
10.00717	102056
10.01530	90798
10.02342	86816
10.03153	80300
10.03967	72107
10.04778	69778
10.05590	61993
10.06403	64320
10.07215	67622
10.08028	69014
10.08840	64954
10.09652	63124
10.10465	63566
10.11277	62062
10.12090	60481
10.12902	58542
10.13713	58328
10.14527	60347
10.15338	55362
10.16150	50695
10.16963	53519
10.17775	58742
10.18588	56456
10.19400	52182
10.20212	48811
10.21025	53095
10.21837	57048
10.22650	57728
10.23462	57108
10.24273	61481
10.25087	70823
10.25898	97054
10.26712	198869
10.27523	450220
10.28335	929186
10.29148	1665609
10.29960	2471414
10.30772	3517435
10.31585	5195545
10.32397	7563946
10.33210	1.004447E+07
10.34022	1.122166E+07
10.34833	1.010979E+07
10.35647	7299496
10.36458	4721140
10.37272	3102530
10.38083	2214557
10.38895	1607173
10.39708	1137322
10.40520	824767
10.41332	633549
10.42145	521202
10.42957	449321
10.43770	406710
10.44582	373573
10.45393	350418
10.46207	334636
10.47018	313528
10.47832	289881
10.48643	252753
10.49455	249047
10.50268	231575
10.51080	222976
10.51893	215553
10.52705	206682
10.53517	202248
10.54330	205233
10.55142	196829
10.55953	191387
10.56767	179112
10.57578	174159
10.58392	167947
10.59203	149610
10.60015	153738
10.60828	147877
10.61640	141535
10.62453	143881
10.63265	141833
10.64077	125505
10.64890	131224
10.65702	126798
10.66515	121552
10.67327	118441
10.68138	125656
10.68952	112249
10.69763	117998
10.70575	120190
10.71388	115945
10.72200	107905
10.73013	109755
10.73825	117598
10.74637	104804
10.75450	108069
10.76262	100397
10.77075	98251
10.77887	99057
10.78698	94377
10.79512	92890
10.80323	87343
10.81135	91822
10.81948	87848
10.82760	91542
10.83573	85589
10.84385	86127
10.85197	82368
10.86010	81560
10.86822	83328
10.87635	78883
10.88447	79537
10.89258	72947
10.90072	75136
10.90883	78103
10.91697	78603
10.92508	74159
10.93320	76459
10.94133	74040
10.94945	67250
10.95757	75952
10.96570	75377
10.97382	73366
10.98195	72429
10.99007	74564
10.99818	70488
11.00632	69349
11.01443	68690
11.02257	67368
11.03068	68232
11.03880	67731
11.04693	63028
11.05505	65126
11.06318	65966
11.07130	65925
11.07942	63884
11.08755	65303
11.09567	69483
11.10378	63123
11.11192	63602
11.12003	60423
11.12817	59707
11.13628	57433
11.14440	55943
11.15253	53953
11.16065	54961
11.16878	59620
11.17690	61863
11.18502	62566
11.19315	63463
11.20127	60146
11.20938	62188
11.21752	56688
11.22563	55700
11.23377	52578
11.24188	48560
11.25000	49616
11.25813	48026
11.26625	42996
11.27438	43311
11.28250	46908
11.29062	48546
11.29875	52831
11.30687	63917
11.31500	75005
11.32312	104551
11.33123	142313
11.33937	174040
11.34748	206798
11.35560	209829
11.36373	182028
11.37185	142675
11.37998	106147
11.38810	87727
11.39622	76120
11.40435	71739
11.41247	66244
11.42060	67707
11.42872	58537
11.43683	55282
11.44497	51809
11.45308	54776
11.46122	51152
11.46933	55688
11.47745	57546
11.48558	70735
11.49370	87921
11.50182	105523
11.50995	107007
11.51807	105480
11.52620	93758
11.53432	92177
11.54243	75012
11.55057	67936
11.55868	69972
11.56682	66873
11.57493	59856
11.58305	61755
11.59118	63578
11.59930	81248
11.60742	107155
11.61555	132826
11.62367	153632
11.63180	140538
11.63992	110137
11.64803	94244
11.65617	86313
11.66428	67558
11.67242	66715
11.68053	64808
11.68865	64588
11.69678	59135
11.70490	60212
11.71303	62944
11.72115	57654
11.72927	59921
11.73740	58190
11.74552	55949
11.75363	54711
11.76177	53796
11.76988	50850
11.77802	50966
11.78613	51846
11.79425	51361
11.80238	53470
11.81050	48458
11.81863	52143
11.82675	51039
11.83487	49021
11.84300	50308
11.85112	51307
11.85923	49448
11.86737	44687
11.87548	47362
11.88362	42917
11.89173	45122
11.89985	45111
11.90798	48087
11.91610	51904
11.92423	55043
11.93235	58377
11.94047	59847
11.94860	59727
11.95672	51158
11.96485	52364
11.97297	65664
11.98108	115584
11.98922	240956
11.99733	451042
12.00545	675068
12.01358	855088
12.02170	855977
12.02983	728787
12.03795	485228
12.04607	317510
12.05420	213274
12.06232	164304
12.07045	141372
12.07857	129732
12.08668	127956
12.09482	111422
12.10293	109443
12.11107	108227
12.11918	104871
12.12730	102592
12.13543	103344
12.14355	99622
12.15167	100703
12.15980	89089
12.16792	88965
12.17605	88808
12.18417	80244
12.19228	76920
12.20042	75582
12.20853	72464
12.21667	76715
12.22478	74960
12.23290	75564
12.24103	73799
12.24915	73411
12.25727	70788
12.26540	68753
12.27352	71607
12.28165	65299
12.28977	63690
12.29788	59639
12.30602	68105
12.31413	61173
12.32227	62409
12.33038	64784
12.33850	61090
12.34663	63347
12.35475	59460
12.36288	59127
12.37100	56315
12.37912	59105
12.38725	59146
12.39537	70135
12.40348	75481
12.41162	82630
12.41973	90545
12.42787	101781
12.43598	98739
12.44410	94576
12.45223	84126
12.46035	75420
12.46848	76266
12.47660	69973
12.48472	65072
12.49285	63582
12.50097	61011
12.50910	59930
12.51722	64339
12.52533	67284
12.53347	116709
12.54158	219770
12.54970	417325
12.55783	715180
12.56595	972058
12.57408	1020402
12.58220	852815
12.59032	573476
12.59845	362898
12.60657	220756
12.61470	157929
12.62282	124235
12.63093	112162
12.63907	101021
12.64718	89518
12.65530	90195
12.66343	85866
12.67155	76415
12.67968	74202
12.68780	66625
12.69592	69074
12.70405	61668
12.71217	66891
12.72030	65627
12.72842	68488
12.73653	74254
12.74467	77335
12.75278	73148
12.76092	68740
12.76903	63763
12.77715	53243
12.78528	54666
12.79340	46560
12.80152	50489
12.80965	49235
12.81777	51352
12.82590	47448
12.83402	45958
12.84213	44391
12.85027	44469
12.85838	44661
12.86652	45787
12.87463	45081
12.88275	46660
12.89088	40896
12.89900	43812
12.90712	43234
12.91525	45815
12.92337	42911
12.93150	43908
12.93962	44497
12.94773	55728
12.95587	82944
12.96398	144132
12.97212	250462
12.98023	363906
12.98835	409728
12.99648	382258
13.00460	301941
13.01273	205614
13.02085	134786
13.02897	100427
13.03710	82459
13.04522	74282
13.05333	67913
13.06147	63057
13.06958	62777
13.07772	60442
13.08583	56474
13.09395	54942
13.10208	58363
13.11020	53067
13.11833	52797
13.12645	47147
13.13457	49369
13.14270	49558
13.15082	48964
13.15895	48106
13.16707	46837
13.17518	49733
13.18332	50207
13.19143	50846
13.19955	51626
13.20768	51849
13.21580	52108
13.22393	54555
13.23205	53013
13.24017	53986
13.24830	48436
13.25642	53539
13.26455	44807
13.27267	46090
13.28078	46385
13.28892	46202
13.29703	40793
13.30517	39277
13.31328	38534
13.32140	43979
13.32953	42219
13.33765	42195
13.34577	38691
13.35390	41121
13.36202	41281
13.37015	39341
13.37827	38156
13.38638	39744
13.39452	42484
13.40263	40911
13.41077	39976
13.41888	36035
13.42700	37271
13.43513	36542
13.44325	36967
13.45137	38158
13.45950	39840
13.46762	40788
13.47575	38538
13.48387	37232
13.49198	36370
13.50012	40365
13.50823	37115
13.51637	42399
13.52448	41574
13.53260	40576
13.54073	42337
13.54885	39004
13.55698	37229
13.56510	38092
13.57322	36883
13.58135	41956
13.58947	40898
13.59758	41666
13.60572	45896
13.61383	46733
13.62197	55954
13.63008	51080
13.63820	47148
13.64633	44432
13.65445	41030
13.66258	35744
13.67070	36686
13.67882	34659
13.68695	42952
13.69507	37696
13.70318	37475
13.71132	33974
13.71943	37607
13.72757	48337
13.73568	89154
13.74380	188286
13.75193	472784
13.76005	1011495
13.76818	1812306
13.77630	2560532
13.78442	2830693
13.79255	2619582
13.80067	2016534
13.80880	1346532
13.81692	866973
13.82503	626529
13.83317	502989
13.84128	458629
13.84940	412484
13.85753	374790
13.86565	333110
13.87378	290131
13.88190	260215
13.89002	246228
13.89815	225169
13.90627	210598
13.91440	198102
13.92252	195335
13.93063	191381
13.93877	181823
13.94688	200236
13.95502	196884
13.96313	220747
13.97125	259313
13.97938	300218
13.98750	312575
13.99562	322442
14.00375	276386
14.01187	231970
14.02000	197547
14.02812	177049
14.03623	167848
14.04437	157823
14.05248	153243
14.06062	149994
14.06873	145748
14.07685	148646
14.08498	149397
14.09310	140241
14.10122	135994
14.10935	134787
14.11747	137974
14.12560	140001
14.13372	161045
14.14183	178642
14.14997	199224
14.15808	214386
14.16622	219196
14.17433	216990
14.18245	234600
14.19058	294898
14.19870	374299
14.20683	460321
14.21495	476416
14.22307	444289
14.23120	367574
14.23932	303093
14.24743	247178
14.25557	227755
14.26368	198778
14.27182	170869
14.27993	150707
14.28805	140938
14.29618	129890
14.30430	129825
14.31243	115318
14.32055	110894
14.32867	108353
14.33680	102429
14.34492	102369
14.35305	101193
14.36117	92934
14.36928	79369
14.37742	77526
14.38553	64499
14.39365	66334
14.40178	71537
14.40990	74714
14.41803	77098
14.42615	78073
14.43427	80895
14.44240	75179
14.45052	68499
14.45865	64897
14.46677	60820
14.47488	60451
14.48302	61636
14.49113	58071
14.49925	64165
14.50738	66197
14.51550	74653
14.52363	74458
14.53175	79545
14.53987	73993
14.54800	69025
14.55612	67400
14.56425	59070
14.57237	54703
14.58048	54720
14.58862	53653
14.59673	49539
14.60487	51593
14.61298	48734
14.62110	48013
14.62923	50371
14.63735	47911
14.64547	46923
14.65360	48793
14.66172	47162
14.66985	44129
14.67797	44881
14.68608	43766
14.69422	48599
14.70233	47162
14.71047	51582
14.71858	45844
14.72670	48879
14.73483	48368
14.74295	49043
14.75107	52265
14.75920	56574
14.76732	54767
14.77545	59352
14.78357	69239
14.79168	114581
14.79982	262179
14.80793	656753
14.81607	1458051
14.82418	2513671
14.83230	3524718
14.84043	3925666
14.84855	3532452
14.85668	2633778
14.86480	1707575
14.87292	1031869
14.88105	653624
14.88917	480166
14.89728	365554
14.90542	301099
14.91353	261822
14.92167	232612
14.92978	206230
14.93790	190864
14.94603	180285
14.95415	186601
14.96228	174618
14.97040	175092
14.97852	176206
14.98665	176999
14.99477	161276
15.00290	145131
15.01102	132765
15.01913	113367
15.02727	117151
15.03538	109057
15.04350	109479
15.05163	98280
15.05975	100403
15.06788	88546
15.07600	91562
15.08412	83666
15.09225	85744
15.10037	87112
15.10850	84854
15.11662	84030
15.12473	84872
15.13287	92011
15.14098	101646
15.14910	98923
15.15723	95539
15.16535	90520
15.17348	74507
15.18160	68719
15.18972	68735
15.19785	59129
15.20597	59422
15.21410	51942
15.22222	49812
15.23033	52929
15.23847	49718
15.24658	49121
15.25472	50386
15.26283	49093
15.27095	45265
15.27908	44456
15.28720	45665
15.29532	46494
15.30345	44823
15.31157	44707
15.31970	39254
15.32782	42803
15.33593	43774
15.34407	41326
15.35218	42613
15.36032	41951
15.36843	44943
15.37655	43687
15.38468	45330
15.39280	44353
15.40093	51371
15.40905	49727
15.41717	54611
15.42530	56850
15.43342	53195
15.44153	48255
15.44967	50409
15.45778	44437
15.46592	45579
15.47403	48817
15.48215	52765
15.49028	61138
15.49840	67364
15.50653	77934
15.51465	83124
15.52277	83045
15.53090	93602
15.53902	103249
15.54713	108880
15.55527	104440
15.56338	101059
15.57152	86402
15.57963	73091
15.58775	60313
15.59588	50970
15.60400	45958
15.61213	41489
15.62025	43913
15.62837	43779
15.63650	43185
15.64462	44737
15.65275	44194
15.66087	44506
15.66898	39861
15.67712	37968
15.68523	38245
15.69335	39019
15.70148	39105
15.70960	43044
15.71773	35429
15.72585	39701
15.73397	38921
15.74210	45124
15.75022	47866
15.75835	68592
15.76647	100237
15.77458	167369
15.78272	229951
15.79083	282919
15.79897	301682
15.80708	262494
15.81520	203861
15.82333	157162
15.83145	113568
15.83957	85517
15.84770	76011
15.85582	66242
15.86395	64588
15.87207	64755
15.88018	61877
15.88832	59832
15.89643	58479
15.90457	56553
15.91268	55398
15.92080	56562
15.92893	54386
15.93705	59585
15.94517	58917
15.95330	79549
15.96142	105911
15.96955	129529
15.97767	162777
15.98578	170207
15.99392	158246
16.00203	139033
16.01017	115043
16.01828	104663
16.02640	92643
16.03453	89370
16.04265	83064
16.05078	80528
16.05890	67688
16.06702	63162
16.07515	62454
16.08327	57161
16.09138	54165
16.09952	56228
16.10763	52544
16.11577	50968
16.12388	48719
16.13200	56602
16.14013	54288
16.14825	55910
16.15638	55112
16.16450	55983
16.17262	53451
16.18075	51298
16.18887	50386
16.19698	47671
16.20512	47659
16.21323	49294
16.22137	46098
16.22948	51754
16.23760	52045
16.24573	48753
16.25385	46546
16.26198	44809
16.27010	44808
16.27822	44916
16.28635	48216
16.29447	47146
16.30260	51614
16.31072	51880
16.31883	54193
16.32697	49465
16.33508	53067
16.34320	60305
16.35133	79408
16.35945	114440
16.36758	158352
16.37570	202515
16.38382	229639
16.39195	223423
16.40007	185667
16.40820	148382
16.41632	108182
16.42443	89866
16.43257	84728
16.44068	80322
16.44882	107276
16.45693	179352
16.46505	342666
16.47318	560718
16.48130	804450
16.48942	906950
16.49755	835527
16.50567	656573
16.51380	435207
16.52192	289282
16.53003	194616
16.53817	148437
16.54628	126218
16.55442	109783
16.56253	98941
16.57065	95838
16.57878	92909
16.58690	93558
16.59502	96105
16.60315	95825
16.61127	103013
16.61940	109022
16.62752	101792
16.63563	99639
16.64377	92567
16.65188	86516
16.66002	75521
16.66813	67904
16.67625	65288
16.68438	68786
16.69250	62833
16.70063	59248
16.70875	57454
16.71687	57767
16.72500	54366
16.73312	55239
16.74123	54222
16.74937	57159
16.75748	55949
16.76562	60368
16.77373	60952
16.78185	57774
16.78998	55961
16.79810	57988
16.80623	48358
16.81435	47736
16.82247	48467
16.83060	50578
16.83872	46355
16.84685	46431
16.85497	48272
16.86308	44561
16.87122	38016
16.87933	41084
16.88745	44101
16.89558	42282
16.90370	41838
16.91183	43022
16.91995	44661
16.92807	45602
16.93620	45463
16.94432	43994
16.95245	42120
16.96057	43209
16.96868	38287
16.97682	43003
16.98493	38017
16.99305	43200
17.00118	40160
17.00930	43050
17.01743	40725
17.02555	42940
17.03367	41417
17.04180	45830
17.04992	46657
17.05805	48310
17.06617	50003
17.07428	51966
17.08242	50341
17.09053	52370
17.09867	60048
17.10678	60287
17.11490	65184
17.12303	73983
17.13115	72771
17.13927	74294
17.14740	68657
17.15552	62885
17.16365	57207
17.17177	47435
17.17988	50608
17.18802	40664
17.19613	43208
17.20427	40807
17.21238	44608
17.22050	38308
17.22863	40501
17.23675	42690
17.24487	43145
17.25300	39094
17.26112	44140
17.26925	43770
17.27737	45718
17.28548	43824
17.29362	43020
17.30173	41120
17.30987	42155
17.31798	44721
17.32610	54232
17.33423	58737
17.34235	68388
17.35048	76787
17.35860	77364
17.36672	74956
17.37485	76435
17.38297	75844
17.39108	68715
17.39922	65094
17.40733	58151
17.41547	60551
17.42358	53996
17.43170	51451
17.43983	53070
17.44795	50624
17.45608	50483
17.46420	47698
17.47232	46771
17.48045	49385
17.48857	46798
17.49670	49964
17.50482	45467
17.51293	43763
17.52107	42359
17.52918	45718
17.53730	46754
17.54543	45281
17.55355	53206
17.56168	60705
17.56980	78628
17.57792	131552
17.58605	194304
17.59417	295733
17.60230	419661
17.61042	491686
17.61853	503738
17.62667	452214
17.63478	350679
17.64290	274732
17.65103	251950
17.65915	238676
17.66728	248576
17.67540	242120
17.68352	211782
17.69165	184864
17.69977	147105
17.70790	121979
17.71602	102278
17.72413	88424
17.73227	88251
17.74038	79325
17.74852	76393
17.75663	74134
17.76475	68872
17.77288	72821
17.78100	75684
17.78912	94604
17.79725	131849
17.80537	244864
17.81350	415407
17.82162	651672
17.82973	840891
17.83787	921490
17.84598	810597
17.85412	629246
17.86223	459368
17.87035	337878
17.87848	250739
17.88660	208114
17.89473	172498
17.90285	143156
17.91097	136655
17.91910	121865
17.92722	110417
17.93533	103948
17.94347	96979
17.95158	95981
17.95972	89803
17.96783	90271
17.97595	85252
17.98408	81065
17.99220	82195
18.00033	76978
18.00845	74475
18.01657	80889
18.02470	91174
18.03282	104080
18.04093	108367
18.04907	122227
18.05718	166122
18.06532	289231
18.07343	534762
18.08155	934866
18.08968	1393365
18.09780	1691886
18.10593	1711448
18.11405	1450771
18.12217	1124348
18.13030	825230
18.13842	619131
18.14655	493877
18.15467	409844
18.16278	361231
18.17092	333586
18.17903	306933
18.18715	273525
18.19528	258215
18.20340	236231
18.21153	220406
18.21965	200089
18.22777	181692
18.23590	184749
18.24402	172913
18.25215	168071
18.26027	148985
18.26838	141153
18.27652	128911
18.28463	133965
18.29275	161846
18.30088	213407
18.30900	267769
18.31713	307098
18.32525	330088
18.33337	345933
18.34150	350822
18.34962	359907
18.35775	370624
18.36587	374820
18.37398	366949
18.38212	373522
18.39023	388316
18.39837	441246
18.40648	509463
18.41460	590555
18.42273	639745
18.43085	674790
18.43897	637273
18.44710	587662
18.45522	539643
18.46335	531692
18.47147	524921
18.47958	541213
18.48772	549849
18.49583	524424
18.50397	499709
18.51208	447107
18.52020	399339
18.52833	370149
18.53645	338125
18.54458	337677
18.55270	325852
18.56082	321485
18.56895	312531
18.57707	304101
18.58518	304863
18.59332	299299
18.60143	292728
18.60957	291817
18.61768	289857
18.62580	292983
18.63393	287988
18.64205	288119
18.65018	275995
18.65830	270258
18.66642	256982
18.67455	262714
18.68267	259421
18.69080	251021
18.69892	252720
18.70703	247847
18.71517	251440
18.72328	251459
18.73140	239407
18.73953	232198
18.74765	230851
18.75578	234622
18.76390	229227
18.77202	220445
18.78015	223264
18.78827	216858
18.79640	210910
18.80452	217878
18.81263	213123
18.82077	207537
18.82888	207737
18.83700	201840
18.84513	201417
18.85325	199430
18.86138	202585
18.86950	196559
18.87762	203154
18.88575	197394
18.89387	192751
18.90200	192297
18.91012	194421
18.91823	190953
18.92637	195365
18.93448	195573
18.94262	188298
18.95073	199745
18.95885	190503
18.96698	193071
18.97510	196244
18.98322	190352
18.99135	179537
18.99947	183909
19.00760	175139
19.01572	173231
19.02383	173899
19.03197	161721
19.04008	165957
19.04822	161279
19.05633	166461
19.06445	171554
19.07258	188796
19.08070	212444
19.08882	272548
19.09695	341897
19.10507	399318
19.11320	431531
19.12132	394688
19.12943	351458
19.13757	288634
19.14568	242016
19.15382	204984
19.16193	195569
19.17005	179593
19.17818	171610
19.18630	165692
19.19443	163360
19.20255	153198
19.21067	151573
19.21880	150442
19.22692	150013
19.23503	143588
19.24317	142566
19.25128	146004
19.25942	131152
19.26753	140855
19.27565	140583
19.28378	144095
19.29190	141176
19.30003	142678
19.30815	141397
19.31627	146692
19.32440	141702
19.33252	144155
19.34065	140355
19.34877	145074
19.35688	160467
19.36502	184715
19.37313	198623
19.38125	207787
19.38938	206490
19.39750	188521
19.40563	169441
19.41375	151208
19.42187	139270
19.43000	136331
19.43812	128638
19.44625	132178
19.45437	129217
19.46248	130710
19.47062	134831
19.47873	158085
19.48685	180629
19.49498	212167
19.50310	264051
19.51123	301311
19.51935	317926
19.52747	288522
19.53560	237928
19.54372	192673
19.55185	157973
19.55997	138548
19.56808	130931
19.57622	126894
19.58433	118604
19.59247	119228
19.60058	111435
19.60870	110191
19.61683	112772
19.62495	111348
19.63307	119860
19.64120	129292
19.64932	154174
19.65745	194182
19.66557	246048
19.67368	278903
19.68182	315754
19.68993	312482
19.69807	282830
19.70618	250927
19.71430	229884
19.72243	200088
19.73055	185351
19.73868	168102
19.74680	153181
19.75492	143304
19.76305	130672
19.77117	129024
19.77928	125328
19.78742	122071
19.79553	125185
19.80367	129309
19.81178	122035
19.81990	126474
19.82803	116630
19.83615	108768
19.84428	112979
19.85240	142439
19.86052	237545
19.86865	494634
19.87677	1044021
19.88488	1909851
19.89302	3005665
19.90113	3939163
19.90927	4290846
19.91738	3952725
19.92550	3165000
19.93363	2275274
19.94175	1601009
19.94988	1152799
19.95800	898901
19.96612	791239
19.97425	707619
19.98237	645585
19.99050	604226
19.99862	567051
20.00673	523812
20.01487	491678
20.02298	475542
20.03110	438961
20.03923	415517
20.04735	364488
20.05548	316541
20.06360	277949
20.07172	231100
20.07985	195724
20.08797	179625
20.09610	169569
20.10422	154467
20.11233	152054
20.12047	142998
20.12858	134658
20.13670	131724
20.14483	128944
20.15295	128282
20.16108	130610
20.16920	130866
20.17732	149590
20.18545	161440
20.19357	163478
20.20170	168625
20.20982	168963
20.21793	161745
20.22607	150945
20.23418	139874
20.24232	145957
20.25043	160215
20.25855	182770
20.26668	221328
20.27480	268380
20.28292	318962
20.29105	330503
20.29917	313210
20.30730	274848
20.31542	242283
20.32353	196820
20.33167	173061
20.33978	146997
20.34792	128195
20.35603	113646
20.36415	103659
20.37228	94138
20.38040	96668
20.38853	85390
20.39665	82069
20.40477	84860
20.41290	89838
20.42102	91714
20.42913	93271
20.43727	103667
20.44538	105021
20.45352	115633
20.46163	122706
20.46975	126260
20.47788	125542
20.48600	119119
20.49413	112410
20.50225	102442
20.51037	92801
20.51850	84239
20.52662	75938
20.53473	80248
20.54287	77733
20.55098	84718
20.55912	77039
20.56723	74535
20.57535	75919
20.58348	73890
20.59160	69395
20.59973	67587
20.60785	65178
20.61597	64689
20.62410	68403
20.63222	66562
20.64035	62955
20.64847	62319
20.65658	67096
20.66472	66210
20.67283	67503
20.68095	67882
20.68908	64094
20.69720	66033
20.70533	63394
20.71345	65295
20.72157	65099
20.72970	63266
20.73782	66027
20.74595	60777
20.75407	60639
20.76218	63083
20.77032	64209
20.77843	68979
20.78657	79409
20.79468	95510
20.80280	130117
20.81093	161945
20.81905	196129
20.82717	210928
20.83530	192416
20.84342	152856
20.85155	121328
20.85967	90676
20.86778	77925
20.87592	65994
20.88403	66042
20.89217	63579
20.90028	68749
20.90840	65014
20.91653	67023
20.92465	64295
20.93277	63599
20.94090	64700
20.94902	68437
20.95715	70690
20.96527	67599
20.97338	61264
20.98152	65526
20.98963	60757
20.99777	56947
21.00588	55501
21.01400	58302
21.02213	62207
21.03025	60849
21.03838	59211
21.04650	62865
21.05462	60681
21.06275	61531
21.07087	59813
21.07898	65954
21.08712	71229
21.09523	64219
21.10337	63845
21.11148	64420
21.11960	55209
21.12773	59975
21.13585	62997
21.14398	72492
21.15210	79451
21.16022	88740
21.16835	90375
21.17647	91646
21.18460	87535
21.19272	82010
21.20083	71721
21.20897	68708
21.21708	63220
21.22520	66107
21.23333	66016
21.24145	62346
21.24958	60732
21.25770	60260
21.26582	60526
21.27395	59099
21.28207	57574
21.29020	54361
21.29832	56003
21.30643	57499
21.31457	57824
21.32268	55984
21.33080	53885
21.33893	55680
21.34705	59086
21.35518	56383
21.36330	51116
21.37142	57198
21.37955	56104
21.38767	62202
21.39580	73122
21.40392	77784
21.41203	84460
21.42017	96351
21.42828	85809
21.43642	86820
21.44453	72721
21.45265	66546
21.46078	64060
21.46890	64105
21.47702	60076
21.48515	62273
21.49327	57858
21.50140	55401
21.50952	57034
21.51763	56035
21.52577	58272
21.53388	54015
21.54202	52409
21.55013	53454
21.55825	55001
21.56638	58601
21.57450	56996
21.58262	62311
21.59075	69997
21.59887	71081
21.60700	71469
21.61512	73611
21.62323	78212
21.63137	82022
21.63948	93243
21.64762	90568
21.65573	90356
21.66385	100828
21.67198	90889
21.68010	89287
21.68823	85035
21.69635	79604
21.70447	72243
21.71260	66083
21.72072	63350
21.72883	58910
21.73697	60885
21.74508	57726
21.75322	54648
21.76133	58013
21.76945	58040
21.77758	61300
21.78570	61839
21.79383	62964
21.80195	67919
21.81007	67660
21.81820	74589
21.82632	75229
21.83445	80224
21.84257	85216
21.85068	87051
21.85882	72796
21.86693	79714
21.87505	73564
21.88318	67817
21.89130	60823
21.89943	56216
21.90755	61309
21.91567	57680
21.92380	55458
21.93192	53835
21.94005	55315
21.94817	51313
21.95628	43794
21.96442	52022
21.97253	48302
21.98065	44538
21.98878	45055
21.99690	47625
22.00503	46287
22.01315	47184
22.02127	49521
22.02940	52454
22.03752	52542
22.04565	51357
22.05377	49268
22.06188	49331
22.07002	50447
22.07813	48970
22.08627	49773
22.09438	48738
22.10250	45161
22.11063	47632
22.11875	50150
22.12687	49587
22.13500	50616
22.14312	45425
22.15125	48014
22.15937	49453
22.16748	52240
22.17562	48429
22.18373	49037
22.19187	47488
22.19998	52180
22.20810	50620
22.21623	52487
22.22435	52771
22.23248	52169
22.24060	54021
22.24872	53342
22.25685	51077
22.26497	49592
22.27308	48087
22.28122	50263
22.28933	56040
22.29747	54958
22.30558	57478
22.31370	56366
22.32183	57567
22.32995	53714
22.33808	59850
22.34620	54859
22.35432	53706
22.36245	50037
22.37057	51074
22.37868	55132
22.38682	56956
22.39493	67233
22.40307	81068
22.41118	94697
22.41930	107447
22.42743	121102
22.43555	112481
22.44368	100517
22.45180	92731
22.45992	76072
22.46805	67524
22.47617	66180
22.48430	74473
22.49242	79603
22.50053	75572
22.50867	81001
22.51678	81496
22.52490	75261
22.53303	75452
22.54115	69396
22.54928	66866
22.55740	67277
22.56552	62498
22.57365	63657
22.58177	57292
22.58990	55317
22.59802	56091
22.60613	51996
22.61427	53308
22.62238	52558
22.63050	51866
22.63863	52166
22.64675	47879
22.65488	55874
22.66300	51007
22.67112	52613
22.67925	52524
22.68737	51615
22.69550	53969
22.70362	59849
22.71173	62177
22.71987	61727
22.72798	65495
22.73612	60863
22.74423	61346
22.75235	58324
22.76048	54162
22.76860	56138
22.77672	53680
22.78485	58858
22.79297	70526
22.80110	77857
22.80922	84532
22.81733	85299
22.82547	84807
22.83358	83901
22.84172	74707
22.84983	67476
22.85795	62439
22.86608	65166
22.87420	65506
22.88233	67237
22.89045	69940
22.89857	79944
22.90670	93602
22.91482	104285
22.92293	124350
22.93107	130695
22.93918	142931
22.94732	136671
22.95543	124594
22.96355	113180
22.97168	105853
22.97980	97486
22.98793	97437
22.99605	92788
23.00417	86095
23.01230	87767
23.02042	88884
23.02855	83370
23.03667	80061
23.04478	80532
23.05292	80710
23.06103	75446
23.06915	76560
23.07728	80390
23.08540	77575
23.09353	75100
23.10165	73798
23.10977	72772
23.11790	70928
23.12602	69549
23.13415	72334
23.14227	70311
23.15038	69669
23.15852	67854
23.16663	74050
23.17475	75794
23.18288	78212
23.19100	72028
23.19913	69908
23.20725	72832
23.21537	67120
23.22350	65894
23.23162	66004
23.23975	74945
23.24787	69485
23.25598	70362
23.26412	70942
23.27223	78566
23.28037	79967
23.28848	73149
23.29660	68192
23.30473	68812
23.31285	69560
23.32097	67456
23.32910	72755
23.33722	80810
23.34535	104020
23.35347	148863
23.36158	201709
23.36972	292870
23.37783	415027
23.38597	561943
23.39408	711981
23.40220	818235
23.41033	916573
23.41845	988074
23.42657	988604
23.43470	996326
23.44282	990947
23.45095	911287
23.45907	866541
23.46718	822233
23.47532	752021
23.48343	694902
23.49157	638567
23.49968	575942
23.50780	533549
23.51593	487436
23.52405	442287
23.53218	409970
23.54030	381257
23.54842	363606
23.55655	335803
23.56467	314675
23.57278	313415
23.58092	307277
23.58903	311785
23.59717	320054
23.60528	317608
23.61340	319315
23.62153	299037
23.62965	273240
23.63778	252382
23.64590	249628
23.65402	244463
23.66215	237398
23.67027	244385
23.67840	240391
23.68652	222852
23.69463	206161
23.70277	189743
23.71088	166024
23.71900	152034
23.72713	149019
23.73525	142271
23.74338	148559
23.75150	182139
23.75962	278543
23.76775	493344
23.77587	823369
23.78400	1314189
23.79212	1776127
23.80023	2076465
23.80837	2051409
23.81648	1817714
23.82460	1528063
23.83273	1178120
23.84085	923322
23.84898	732480
23.85710	590461
23.86522	508461
23.87335	431285
23.88147	381907
23.88960	345760
23.89772	325335
23.90583	299042
23.91397	285077
23.92208	253818
23.93022	250611
23.93833	231086
23.94645	213930
23.95458	206100
23.96270	191210
23.97082	184911
23.97895	175773
23.98707	178995
23.99520	176946
24.00332	221098
24.01143	311591
24.01957	487321
24.02768	728405
24.03582	921619
24.04393	996818
24.05205	873102
24.06018	663558
24.06830	452713
24.07643	308017
24.08455	223212
24.09267	181853
24.10080	152787
24.10892	137724
24.11703	129439
24.12517	131762
24.13328	128724
24.14142	126737
24.14953	128015
24.15765	122841
24.16578	124216
24.17390	119234
24.18203	124156
24.19015	116005
24.19827	120181
24.20640	121423
24.21452	113947
24.22263	116369
24.23077	106163
24.23888	103413
24.24702	100088
24.25513	92942
24.26325	95587
24.27138	93314
24.27950	90546
24.28763	89269
24.29575	86327
24.30387	90542
24.31200	87251
24.32012	87236
24.32825	89538
24.33637	83530
24.34448	84089
24.35262	81436
24.36073	84445
24.36885	87198
24.37698	103004
24.38510	118109
24.39323	138325
24.40135	160323
24.40947	162790
24.41760	159784
24.42572	156649
24.43385	146082
24.44197	140212
24.45008	147077
24.45822	144370
24.46633	157285
24.47445	164552
24.48258	178327
24.49070	188226
24.49883	188562
24.50695	199610
24.51507	196064
24.52320	203281
24.53132	195021
24.53945	195688
24.54757	191650
24.55568	189414
24.56382	191871
24.57193	186549
24.58007	190245
24.58818	173552
24.59630	178135
24.60443	174768
24.61255	178426
24.62067	176986
24.62880	185893
24.63692	178594
24.64505	191148
24.65317	194168
24.66128	197142
24.66942	198577
24.67753	194600
24.68567	194903
24.69378	190620
24.70190	188720
24.71003	193938
24.71815	188427
24.72628	188841
24.73440	186490
24.74252	187446
24.75065	178888
24.75877	182036
24.76688	182142
24.77502	181128
24.78313	185222
24.79127	182225
24.79938	187300
24.80750	178450
24.81563	180599
24.82375	185228
24.83188	184541
24.84000	198055
24.84812	228032
24.85625	260383
24.86437	303617
24.87248	371266
24.88062	471044
24.88873	566606
24.89687	597093
24.90498	565404
24.91310	488206
24.92123	382952
24.92935	293827
24.93748	230349
24.94560	192011
24.95372	167328
24.96185	148073
24.96997	127169
24.97810	107732
24.98622	98559
24.99433	100164
25.00247	93835
25.01058	92520
25.01870	87446
25.02683	82562
25.03495	87508
25.04308	75704
25.05120	77676
25.05932	75459
25.06745	76780
25.07557	77437
25.08370	81661
25.09182	92220
25.09993	117133
25.10807	204042
25.11618	392704
25.12432	764597
25.13243	1354164
25.14055	1918205
25.14868	2241942
25.15680	2301513
25.16492	1985634
25.17305	1429813
25.18117	883063
25.18930	521745
25.19742	299133
25.20553	183632
25.21367	133515
25.22178	113391
25.22992	109413
25.23803	111281
25.24615	119401
25.25428	135363
25.26240	152905
25.27052	167594
25.27865	171341
25.28677	158700
25.29490	144901
25.30302	120142
25.31113	106153
25.31927	97338
25.32738	93544
25.33552	87044
25.34363	80211
25.35175	78270
25.35988	77576
25.36800	73339
25.37613	71901
25.38425	77925
25.39237	105930
25.40050	139241
25.40862	174412
25.41673	216235
25.42487	232020
25.43298	254610
25.44112	263584
25.44923	276076
25.45735	270448
25.46548	280679
25.47360	277783
25.48173	283598
25.48985	285420
25.49797	285425
25.50610	277452
25.51422	279703
25.52233	278870
25.53047	274860
25.53858	272728
25.54672	278385
25.55483	277519
25.56295	274286
25.57108	264675
25.57920	271936
25.58733	275034
25.59545	264278
25.60357	261583
25.61170	263215
25.61982	270782
25.62795	281649
25.63607	281041
25.64418	298574
25.65232	294598
25.66043	292156
25.66855	278569
25.67668	261006
25.68480	249814
25.69293	240856
25.70105	232330
25.70917	224543
25.71730	228901
25.72542	224301
25.73355	217206
25.74167	210576
25.74978	207592
25.75792	211002
25.76603	205431
25.77417	203849
25.78228	206073
25.79040	203217
25.79853	208181
25.80665	202728
25.81477	203635
25.82290	199736
25.83102	210309
25.83915	215888
25.84727	221538
25.85538	226232
25.86352	224385
25.87163	207806
25.87977	196584
25.88788	189029
25.89600	184554
25.90413	174658
25.91225	169946
25.92037	165790
25.92850	162092
25.93662	162265
25.94475	164081
25.95287	152496
25.96098	157066
25.96912	149131
25.97723	149002
25.98537	141909
25.99348	147033
26.00160	138371
26.00973	139326
26.01785	131777
26.02598	133809
26.03410	136530
26.04222	133452
26.05035	131105
26.05847	129791
26.06658	124962
26.07472	125137
26.08283	124805
26.09097	132647
26.09908	125896
26.10720	125611
26.11533	126210
26.12345	119274
26.13158	124973
26.13970	124364
26.14782	122803
26.15595	120552
26.16407	125842
26.17220	127134
26.18032	121903
26.18843	124359
26.19657	110733
26.20468	115518
26.21280	109256
26.22093	104565
26.22905	107423
26.23718	100349
26.24530	108666
26.25342	105749
26.26155	109011
26.26967	105290
26.27780	96082
26.28592	99185
26.29403	97190
26.30217	95963
26.31028	93175
26.31840	90968
26.32653	90492
26.33465	87730
26.34278	86099
26.35090	82440
26.35902	88295
26.36715	91347
26.37527	96349
26.38340	103470
26.39152	97664
26.39963	104814
26.40777	102333
26.41588	106222
26.42402	98233
26.43213	89343
26.44025	87417
26.44838	88490
26.45650	83747
26.46462	87322
26.47275	86624
26.48087	85484
26.48900	88664
26.49712	83897
26.50523	85131
26.51337	80257
26.52148	78248
26.52962	72002
26.53773	70890
26.54585	72290
26.55398	67933
26.56210	72496
26.57023	74766
26.57835	72052
26.58647	68787
26.59460	70333
26.60272	68178
26.61083	72220
26.61897	67043
26.62708	68902
26.63522	70359
26.64333	67180
26.65145	70227
26.65958	73966
26.66770	77375
26.67583	79535
26.68395	78545
26.69207	71342
26.70020	71664
26.70832	66030
26.71643	64574
26.72457	63780
26.73268	58316
26.74082	61881
26.74893	62379
26.75705	59803
26.76518	65891
26.77330	60851
26.78143	65814
26.78955	63685
26.79767	60048
26.80580	67569
26.81392	66725
26.82205	60246
26.83017	62340
26.83828	67641
26.84642	61757
26.85453	64726
26.86265	63820
26.87078	64525
26.87890	58278
26.88703	58004
26.89515	58413
26.90327	57830
26.91140	53504
26.91952	54589
26.92765	54158
26.93577	54936
26.94388	53605
26.95202	56915
26.96013	54944
26.96825	66070
26.97638	76814
26.98450	98070
26.99263	132453
27.00075	191550
27.00887	274137
27.01700	355385
27.02512	414013
27.03325	441938
27.04137	446345
27.04948	434124
27.05762	347591
27.06573	303488
27.07387	269847
27.08198	213696
27.09010	193596
27.09823	181949
27.10635	161921
27.11447	153588
27.12260	142488
27.13072	133036
27.13885	124811
27.14697	125178
27.15508	117429
27.16322	117202
27.17133	109014
27.17947	110445
27.18758	111371
27.19570	106990
27.20383	101008
27.21195	103046
27.22008	97165
27.22820	96646
27.23632	91885
27.24445	91441
27.25257	87179
27.26068	91100
27.26882	86491
27.27693	84137
27.28507	79511
27.29318	77365
27.30130	77123
27.30943	77395
27.31755	74334
27.32568	75038
27.33380	67399
27.34192	67611
27.35005	68304
27.35817	68649
27.36628	67935
27.37442	70911
27.38253	72556
27.39067	67865
27.39878	68438
27.40690	60195
27.41503	59665
27.42315	65822
27.43128	57594
27.43940	58120
27.44752	61749
27.45565	58363
27.46377	62002
27.47190	58769
27.48002	60786
27.48813	59534
27.49627	61437
27.50438	60927
27.51250	53683
27.52063	54738
27.52875	61414
27.53688	62104
27.54500	58248
27.55312	59374
27.56125	58740
27.56937	59823
27.57750	65023
27.58562	65089
27.59373	73248
27.60187	77345
27.60998	79759
27.61812	75384
27.62623	71438
27.63435	63753
27.64248	62172
27.65060	57424
27.65872	54421
27.66685	52255
27.67497	56458
27.68310	55312
27.69122	52646
27.69933	54322
27.70747	56530
27.71558	53021
27.72372	59096
27.73183	50330
27.73995	51935
27.74808	48592
27.75620	50286
27.76432	52427
27.77245	54617
27.78057	50301
27.78870	50827
27.79682	57065
27.80493	57563
27.81307	55664
27.82118	50168
27.82932	57458
27.83743	55041
27.84555	56208
27.85368	52693
27.86180	50046
27.86993	49475
27.87805	47636
27.88617	49407
27.89430	49344
27.90242	47255
27.91053	50220
27.91867	51801
27.92678	45980
27.93492	54621
27.94303	47761
27.95115	47024
27.95928	44312
27.96740	40227
27.97553	44436
27.98365	49246
27.99177	48485
27.99990	46945
28.00802	49196
28.01613	51276
28.02427	52225
28.03238	51157
28.04052	54920
28.04863	52590
28.05675	57662
28.06488	60745
28.07300	52169
28.08113	55942
28.08925	54542
28.09737	56690
28.10550	56946
28.11362	54829
28.12175	51598
28.12987	48420
28.13798	45870
28.14612	46308
28.15423	48337
28.16235	42789
28.17048	46857
28.17860	47191
28.18673	51776
28.19485	61616
28.20297	67559
28.21110	76581
28.21922	85415
28.22735	76864
28.23547	81172
28.24358	73577
28.25172	73777
28.25983	58650
28.26797	52624
28.27608	51470
28.28420	53500
28.29233	55056
28.30045	55408
28.30857	57252
28.31670	66519
28.32482	77407
28.33295	84892
28.34107	95642
28.34918	113885
28.35732	131486
28.36543	141800
28.37357	150566
28.38168	159426
28.38980	173952
28.39793	180825
28.40605	174569
28.41418	173963
28.42230	157115
28.43042	155555
28.43855	146139
28.44667	142101
28.45478	129047
28.46292	117054
28.47103	104660
28.47917	103962
28.48728	106990
28.49540	96794
28.50353	91138
28.51165	85317
28.51978	82969
28.52790	83268
28.53602	83114
28.54415	76255
28.55227	74218
28.56038	76453
28.56852	70898
28.57663	67850
28.58477	70398
28.59288	64832
28.60100	64058
28.60913	67657
28.61725	65934
28.62538	65105
28.63350	70192
28.64162	67229
28.64975	70438
28.65787	68370
28.66600	73274
28.67412	70364
28.68223	63950
28.69037	62731
28.69848	67552
28.70660	68594
28.71473	64709
28.72285	63369
28.73098	63893
28.73910	60765
28.74722	64378
28.75535	71434
28.76347	73549
28.77160	84911
28.77972	87704
28.78783	85507
28.79597	79623
28.80408	71766
28.81220	73697
28.82033	69886
28.82845	72505
28.83658	61433
28.84470	59591
28.85282	57459
28.86095	58115
28.86907	55302
28.87720	64146
28.88532	62761
28.89343	68516
28.90157	65302
28.90968	67964
28.91782	68245
28.92593	62294
28.93405	60397
28.94218	64402
28.95030	58411
28.95842	60612
28.96655	60195
28.97467	60781
28.98280	57916
28.99092	55707
28.99903	53833
29.00717	52907
29.01528	54495
29.02342	53015
29.03153	53961
29.03965	49088
29.04778	46080
29.05590	49876
29.06403	45052
29.07215	50989
29.08027	54374
29.08840	52798
29.09652	51757
29.10463	53056
29.11277	55387
29.12088	55289
29.12902	52095
29.13713	52053
29.14525	50578
29.15338	49592
29.16150	49410
29.16963	51764
29.17775	56109
29.18587	60748
29.19400	68338
29.20212	79529
29.21023	84761
29.21837	95325
29.22648	96693
29.23462	90106
29.24273	91073
29.25085	95378
29.25898	99282
29.26710	107053
29.27523	105395
29.28335	104288
29.29147	92399
29.29960	78357
29.30772	68731
29.31585	64808
29.32397	55145
29.33208	50507
29.34022	53617
29.34833	47729
29.35645	56701
29.36458	48461
29.37270	45653
29.38083	49521
29.38895	47245
29.39707	50114
29.40520	52693
29.41332	56799
29.42145	65039
29.42957	63600
29.43768	67852
29.44582	64507
29.45393	58957
29.46207	56898
29.47018	53351
29.47830	49822
29.48643	53686
29.49455	57318
29.50267	54294
29.51080	53354
29.51892	54909
29.52705	55844
29.53517	52776
29.54328	53117
29.55142	46031
29.55953	49501
29.56767	47078
29.57578	48826
29.58390	48768
29.59203	47963
29.60015	45264
29.60827	46620
29.61640	41978
29.62452	45835
29.63265	44257
29.64077	46062
29.64888	47036
29.65702	47026
29.66513	45465
29.67327	43824
29.68138	45196
29.68950	48476
29.69763	49043
29.70575	49985
29.71388	52508
29.72200	49731
29.73012	54907
29.73825	47918
29.74637	45135
29.75448	44398
29.76262	47879
29.77073	42992
29.77887	42955
29.78698	42583
29.79510	42509
29.80323	42644
29.81135	40922
29.81948	41042
29.82760	39795
29.83572	40544
29.84385	45769
29.85197	43034
29.86008	46147
29.86822	50769
29.87633	55664
29.88447	68077
29.89258	74255
29.90070	77331
29.90883	83203
29.91695	77112
29.92508	76137
29.93320	66081
29.94132	58171
29.94945	55669
29.95757	62979
29.96570	60633
29.97382	63839
29.98193	71773
29.99007	77066
29.99818	74185
30.00630	82547
30.01443	94479
30.02255	95898
30.03068	97662
30.03880	102317
30.04692	104450
30.05505	108090
30.06317	106639
30.07130	95389
30.07942	99903
30.08753	102239
30.09567	99524
30.10378	99331
30.11192	97737
30.12003	96394
30.12815	98554
30.13628	88249
30.14440	83251
30.15252	89223
30.16065	78115
30.16877	78216
30.17690	87010
30.18502	78045
30.19313	71770
30.20127	71764
30.20938	66990
30.21752	62325
30.22563	66998
30.23375	63894
30.24188	65541
30.25000	60909
30.25812	56777
30.26625	56989
30.27437	54421
30.28250	55246
30.29062	57978
30.29873	56683
30.30687	53824
30.31498	54097
30.32312	50263
30.33123	54364
30.33935	53078
30.34748	53296
30.35560	49920
30.36373	50479
30.37185	51552
30.37997	53294
30.38810	49187
30.39622	46622
30.40433	47933
30.41247	47090
30.42058	44448
30.42872	48091
30.43683	45659
30.44495	48180
30.45308	51181
30.46120	54618
30.46933	46558
30.47745	47526
30.48557	53374
30.49370	48888
30.50182	48614
30.50995	45293
30.51807	44628
30.52618	47649
30.53432	49803
30.54243	40931
30.55055	50653
30.55868	42628
30.56680	45762
30.57493	44699
30.58305	42258
30.59117	43801
30.59930	41735
30.60742	46376
30.61555	45458
30.62367	41016
30.63178	48045
30.63992	43043
30.64803	48076
30.65615	60010
30.66428	57807
30.67240	60127
30.68053	74650
30.68865	73390
30.69677	72942
30.70490	72974
30.71302	75055
30.72115	78451
30.72927	85147
30.73738	80245
30.74552	83784
30.75363	83333
30.76177	84780
30.76988	92120
30.77800	102069
30.78613	121594
30.79425	141875
30.80237	163391
30.81050	182990
30.81862	191372
30.82675	183803
30.83487	154677
30.84298	133213
30.85112	115741
30.85923	108631
30.86737	98359
30.87548	98185
30.88360	100050
30.89173	91464
30.89985	93891
30.90798	90544
30.91610	95694
30.92422	86384
30.93235	92425
30.94047	92654
30.94858	86463
30.95672	82289
30.96483	88250
30.97297	89204
30.98108	85554
30.98920	84366
30.99733	89296
31.00545	88523
31.01358	84245
31.02170	86362
31.02982	85098
31.03795	87107
31.04607	90417
31.05418	89852
31.06232	85526
31.07043	90825
31.07857	92100
31.08668	94970
31.09480	103107
31.10293	117769
31.11105	104372
31.11918	105888
31.12730	101149
31.13542	95544
31.14355	89905
31.15167	92725
31.15980	83868
31.16792	87566
31.17603	90530
31.18417	96641
31.19228	98129
31.20040	110888
31.20853	131096
31.21665	143786
31.22478	150731
31.23290	155438
31.24102	144831
31.24915	124946
31.25727	111535
31.26540	90963
31.27352	81882
31.28163	75231
31.28977	76343
31.29788	68517
31.30600	72915
31.31413	74374
31.32225	72100
31.33038	74453
31.33850	72912
31.34662	74772
31.35475	67590
31.36287	70735
31.37100	71347
31.37912	71854
31.38723	75236
31.39537	71167
31.40348	69965
31.41162	74343
31.41973	66834
31.42785	67632
31.43598	69230
31.44410	63560
31.45222	60783
31.46035	64961
31.46847	64210
31.47660	62189
31.48472	61514
31.49283	61259
31.50097	62266
31.50908	61155
31.51722	59600
31.52533	62553
31.53345	63683
31.54158	58887
31.54970	63858
31.55783	61966
31.56595	59916
31.57407	56772
31.58220	60079
31.59032	62077
31.59843	53932
31.60657	57386
31.61468	60584
31.62282	58769
31.63093	55854
31.63905	55166
31.64718	61650
31.65530	62128
31.66343	67398
31.67155	62359
31.67967	64822
31.68780	60718
31.69592	59870
31.70403	59559
31.71217	55192
31.72028	58589
31.72842	55330
31.73653	54589
31.74465	55084
31.75278	58380
31.76090	53014
31.76903	54790
31.77715	51601
31.78527	52711
31.79340	52908
31.80152	55069
31.80965	56850
31.81777	54741
31.82588	58756
31.83402	53404
31.84213	55399
31.85025	52345
31.85838	56067
31.86650	55470
31.87463	56330
31.88275	61391
31.89087	64235
31.89900	67534
31.90712	66283
31.91525	77360
31.92337	80119
31.93148	78585
31.93962	86732
31.94773	88957
31.95587	91819
31.96398	94160
31.97210	105872
31.98023	102625
31.98835	101981
31.99647	101452
32.00460	109054
32.01272	100494
32.02085	96029
32.02897	102880
32.03708	94075
32.04522	87314
32.05333	89408
32.06147	89586
32.06958	83630
32.07770	84870
32.08583	80249
32.09395	79515
32.10207	72610
32.11020	69647
32.11832	67034
32.12645	64761
32.13457	63079
32.14268	65016
32.15082	60631
32.15893	61079
32.16707	58507
32.17518	61108
32.18330	59806
32.19143	61183
32.19955	57820
32.20768	63164
32.21580	58086
32.22392	58365
32.23205	53972
32.24017	60511
32.24828	57987
32.25642	62276
32.26453	58493
32.27267	61277
32.28078	60488
32.28890	58192
32.29703	57117
32.30515	54309
32.31328	52957
32.32140	57121
32.32952	53169
32.33765	51994
32.34577	53326
32.35388	52617
32.36202	55362
32.37013	54191
32.37827	58950
32.38638	53877
32.39450	53798
32.40263	50815
32.41075	48761
32.41888	51841
32.42700	50294
32.43512	48390
32.44325	46604
32.45137	50938
32.45950	51044
32.46762	52209
32.47573	48590
32.48387	49799
32.49198	53322
32.50010	48919
32.50823	45909
32.51635	50491
32.52448	50453
32.53260	51780
32.54072	52507
32.54885	51686
32.55697	50154
32.56510	53198
32.57322	51476
32.58133	51234
32.58947	48691
32.59758	50017
32.60572	50421
32.61383	49393
32.62195	49619
32.63008	47832
32.63820	50135
32.64632	54748
32.65445	57984
32.66257	68910
32.67070	63083
32.67882	64697
32.68693	62857
32.69507	60726
32.70318	57949
32.71132	54764
32.71943	53231
32.72755	55064
32.73568	51287
32.74380	50406
32.75193	49019
32.76005	49536
32.76817	47461
32.77630	49527
32.78442	48019
32.79253	46956
32.80067	50049
32.80878	47343
32.81692	48897
32.82503	50327
32.83315	47591
32.84128	46677
32.84940	44443
32.85753	47961
32.86565	38505
32.87377	48585
32.88190	46170
32.89002	46144
32.89813	50523
32.90627	45980
32.91438	49987
32.92252	48774
32.93063	45572
32.93875	46718
32.94688	50565
32.95500	51415
32.96313	46824
32.97125	48081
32.97937	52173
32.98750	63319
32.99562	66536
33.00375	72810
33.01187	75118
33.01998	66543
33.02812	69383
33.03623	62974
33.04435	60183
33.05248	58700
33.06060	58897
33.06873	64055
33.07685	62123
33.08497	65982
33.09310	69078
33.10122	66043
33.10935	67001
33.11747	75234
33.12558	77203
33.13372	72386
33.14183	67375
33.14995	64847
33.15808	59529
33.16620	54786
33.17433	51497
33.18245	52664
33.19057	49189
33.19870	55361
33.20682	52831
33.21495	50982
33.22307	54808
33.23118	50250
33.23932	49404
33.24743	49014
33.25557	48851
33.26368	49104
33.27180	45487
33.27993	45820
33.28805	44442
33.29617	47231
33.30430	47453
33.31242	47864
33.32055	52312
33.32867	49059
33.33678	50377
33.34492	49145
33.35303	48447
33.36117	54063
33.36928	58167
33.37740	54754
33.38553	49732
33.39365	50510
33.40178	48895
33.40990	47401
33.41802	45780
33.42615	47804
33.43427	46588
33.44238	43640
33.45052	49220
33.45863	46426
33.46677	50783
33.47488	44164
33.48300	47971
33.49113	49599
33.49925	51026
33.50738	50485
33.51550	51234
33.52362	54691
33.53175	54088
33.53987	54143
33.54798	58106
33.55612	60000
33.56423	56923
33.57237	55361
33.58048	56716
33.58860	51127
33.59673	50901
33.60485	44415
33.61298	47214
33.62110	49540
33.62922	48419
33.63735	49868
33.64547	53591
33.65360	50654
33.66172	55368
33.66983	51859
33.67797	51216
33.68608	53353
33.69420	49604
33.70233	45520
33.71045	46762
33.71858	46965
33.72670	52988
33.73482	44732
33.74295	45133
33.75107	46076
33.75920	47684
33.76732	46629
33.77543	44668
33.78357	44844
33.79168	44526
33.79982	45475
33.80793	46146
33.81605	47284
33.82418	45983
33.83230	43532
33.84042	47396
33.84855	49258
33.85667	51326
33.86480	50393
33.87292	50160
33.88103	47320
33.88917	45280
33.89728	49436
33.90542	48151
33.91353	53191
33.92165	50519
33.92978	49733
33.93790	50135
33.94602	49218
33.95415	47568
33.96227	50251
33.97040	48136
33.97852	46607
33.98663	42779
33.99477	45147
34.00288	49503
34.01102	48907
34.01913	46417
34.02725	46195
34.03538	51380
34.04350	48840
34.05163	50506
34.05975	50844
34.06787	46094
34.07600	48186
34.08412	48539
34.09223	48620
34.10037	45975
34.10848	50599
34.11662	48347
34.12473	47413
34.13285	54115
34.14098	46056
34.14910	50715
34.15723	52920
34.16535	48800
34.17347	47580
34.18160	50168
34.18972	48082
34.19783	49186
34.20597	47110
34.21408	48055
34.22222	48527
34.23033	51654
34.23845	48982
34.24658	50321
34.25470	46134
34.26283	51306
34.27095	46987
34.27907	47458
34.28720	47828
34.29532	56481
34.30345	51336
34.31157	47464
34.31968	46301
34.32782	47764
34.33593	46729
34.34405	50884
34.35218	51165
34.36030	50299
34.36843	49276
34.37655	46480
34.38467	50370
34.39280	50599
34.40092	49087
34.40905	47088
34.41717	57027
34.42528	50108
34.43342	46432
34.44153	47136
34.44967	44201
34.45778	47216
34.46590	45440
34.47403	45419
34.48215	49788
34.49027	54280
34.49840	50174
34.50652	53380
34.51465	60922
34.52277	63710
34.53088	76426
34.53902	73060
34.54713	88424
34.55527	90239
34.56338	99609
34.57150	96805
34.57963	91311
34.58775	88352
34.59587	82113
34.60400	78314
34.61212	69850
34.62025	75911
34.62837	73712
34.63648	71246
34.64462	65441
34.65273	64285
34.66087	62286
34.66898	63048
34.67710	66762
34.68523	60094
34.69335	57723
34.70148	60644
34.70960	56878
34.71772	60767
34.72585	56713
34.73397	55425
34.74208	50795
34.75022	55992
34.75833	56565
34.76647	57211
34.77458	56026
34.78270	49639
34.79083	54743
34.79895	55592
34.80708	57773
34.81520	58491
34.82332	56159
34.83145	58008
34.83957	52777
34.84770	59941
34.85582	55291
34.86393	53665
34.87207	53925
34.88018	55479
34.88830	49950
34.89643	56385
34.90455	54262
34.91268	51482
34.92080	59161
34.92892	58816
34.93705	59295
34.94517	55966
34.95330	64861
34.96142	61012
34.96953	63875
34.97767	64118
34.98578	66127
34.99390	61379
35.00203	61038
35.01015	61906
35.01828	59439
35.02640	53210
35.03452	56956
35.04265	55805
35.05077	54282
35.05890	49738
35.06702	52417
35.07513	53333
35.08327	51611
35.09138	48859
35.09952	53631
35.10763	51175
35.11575	53167
35.12388	50393
35.13200	54516
35.14012	57434
35.14825	53186
35.15637	54035
35.16450	55367
35.17262	54943
35.18073	52573
35.18887	54103
35.19698	52881
35.20512	52513
35.21323	53392
35.22135	48046
35.22948	50783
35.23760	52181
35.24572	53519
35.25385	53254
35.26197	52270
35.27010	55783
35.27822	58138
35.28633	53923
35.29447	56556
35.30258	53581
35.31072	51210
35.31883	53239
35.32695	51022
35.33508	49207
35.34320	49790
35.35133	48378
35.35945	51720
35.36757	50170
35.37570	49912
35.38382	55333
35.39193	48536
35.40007	51313
35.40818	51335
35.41632	52155
35.42443	54210
35.43255	54732
35.44068	55743
35.44880	56812
35.45693	54982
35.46505	59374
35.47317	57764
35.48130	54984
35.48942	58900
35.49755	56884
35.50567	56559
35.51378	56167
35.52192	51355
35.53003	54893
35.53815	54362
35.54628	54037
35.55440	51493
35.56253	61260
35.57065	59512
35.57877	55142
35.58690	57472
35.59502	55985
35.60315	54726
35.61127	55814
35.61938	52421
35.62752	52560
35.63563	53301
35.64375	49127
35.65188	53261
35.66000	54541
35.66813	58072
35.67625	54436
35.68437	55710
35.69250	57766
35.70062	53054
35.70875	56500
35.71687	55893
35.72498	58194
35.73312	55902
35.74123	57324
35.74937	61390
35.75748	59263
35.76560	61027
35.77373	64376
35.78185	61809
35.78997	57574
35.79810	59824
35.80622	57471
35.81435	53480
35.82247	52925
35.83058	53814
35.83872	55550
35.84683	57308
35.85497	56646
35.86308	51950
35.87120	54744
35.87933	54897
35.88745	55575
35.89558	51463
35.90370	54620
35.91182	51728
35.91995	51085
35.92807	54527
35.93618	54998
35.94432	57296
35.95243	53644
35.96057	53965
35.96868	57122
35.97680	53266
35.98493	56466
35.99305	56061
36.00118	53462
36.00930	55370
36.01742	61769
36.02555	58337
36.03367	58833
36.04178	60527
36.04992	57756
36.05803	57223
36.06617	54062
36.07428	52183
36.08240	56812
36.09053	54462
36.09865	56193
36.10678	58578
36.11490	57886
36.12302	56872
36.13115	56512
36.13927	59055
36.14740	58823
36.15552	58853
36.16363	52744
36.17177	57732
36.17988	63967
36.18800	56071
36.19613	55467
36.20425	58670
36.21238	64725
36.22050	65660
36.22862	67988
36.23675	71395
36.24487	69144
36.25300	74457
36.26112	71406
36.26923	73578
36.27737	81015
36.28548	78058
36.29362	81412
36.30173	84464
36.30985	85580
36.31798	88913
36.32610	93016
36.33422	93049
36.34235	83563
36.35047	86292
36.35860	83338
36.36672	78251
36.37483	79905
36.38297	79080
36.39108	80609
36.39922	74254
36.40733	78534
36.41545	82063
36.42358	78622
36.43170	84385
36.43982	80881
36.44795	74660
36.45607	76395
36.46420	77837
36.47232	80745
36.48043	84325
36.48857	76077
36.49668	75394
36.50482	78632
36.51293	76545
36.52105	75943
36.52918	74119
36.53730	74898
36.54543	73549
36.55355	72336
36.56167	77503
36.56980	71579
36.57792	75133
36.58603	70951
36.59417	71022
36.60228	75327
36.61042	74311
36.61853	73204
36.62665	72467
36.63478	73846
36.64290	68439
36.65103	70933
36.65915	70353
36.66727	69510
36.67540	71267
36.68352	68004
36.69163	68473
36.69977	68590
36.70788	67129
36.71602	68669
36.72413	72436
36.73225	70046
36.74038	70892
36.74850	71303
36.75663	68965
36.76475	77025
36.77287	70094
36.78100	68373
36.78912	70432
36.79725	65378
36.80537	64226
36.81348	67302
36.82162	69826
36.82973	67031
36.83785	70767
36.84598	71175
36.85410	66435
36.86223	65176
36.87035	64998
36.87847	68545
36.88660	64411
36.89472	67549
36.90285	67913
36.91097	71070
36.91908	67351
36.92722	70014
36.93533	73866
36.94347	69943
36.95158	72107
36.95970	77494
36.96783	79328
36.97595	83681
36.98407	80461
36.99220	76261
37.00032	72398
37.00845	70075
37.01657	68840
37.02468	68391
37.03282	64231
37.04093	67784
37.04907	72747
37.05718	66437
37.06530	63268
37.07343	66740
37.08155	68017
37.08967	65868
37.09780	65735
37.10592	72856
37.11405	72090
37.12217	69080
37.13028	70060
37.13842	70502
37.14653	72952
37.15467	70834
37.16278	73812
37.17090	67763
37.17903	68795
37.18715	67731
37.19528	69753
37.20340	70321
37.21152	66897
37.21965	66080
37.22777	70116
37.23588	65573
37.24402	64641
37.25213	68996
37.26027	68356
37.26838	64471
37.27650	68458
37.28463	67719
37.29275	66838
37.30088	68396
37.30900	71215
37.31712	70577
37.32525	79115
37.33337	88661
37.34150	92696
37.34962	92314
37.35773	103514
37.36587	103579
37.37398	106428
37.38210	97496
37.39023	101979
37.39835	88522
37.40648	94643
37.41460	85334
37.42272	83681
37.43085	82223
37.43897	84813
37.44710	84834
37.45522	79855
37.46333	76461
37.47147	81426
37.47958	78512
37.48770	80197
