D:\MassHunter\GCMS\1\data\JTB-E02\BACandSTRAW\JTB-E02-207-13.D Wed Mar 13 15:18:37 2019
Start of data points
2.09522	194128
2.10333	189639
2.11147	201015
2.11958	191173
2.12770	185561
2.13583	190890
2.14395	181604
2.15208	176026
2.16020	163009
2.16832	158561
2.17645	156409
2.18457	151645
2.19268	142220
2.20082	138190
2.20893	135229
2.21707	126967
2.22518	130485
2.23330	126029
2.24143	125554
2.24955	117837
2.25768	127569
2.26580	121557
2.27392	115458
2.28205	114266
2.29017	113262
2.29828	120685
2.30642	112366
2.31453	111945
2.32267	121268
2.33078	106433
2.33890	103966
2.34703	121220
2.35515	107303
2.36328	103049
2.37140	114646
2.37952	108394
2.38765	103337
2.39577	153502
2.40390	1259066
2.41202	4556697
2.42013	3682399
2.42827	1569338
2.43638	971447
2.44450	777449
2.45263	691289
2.46075	600803
2.46888	547704
2.47700	513660
2.48512	470197
2.49325	431078
2.50137	406044
2.50950	386345
2.51762	374461
2.52573	358032
2.53387	351460
2.54198	347117
2.55012	340832
2.55823	345244
2.56635	402581
2.57448	349566
2.58260	316681
2.59072	322909
2.59885	300729
2.60697	292739
2.61510	283920
2.62322	275947
2.63133	274340
2.63947	286504
2.64758	276089
2.65572	263432
2.66383	251356
2.67195	263557
2.68008	253097
2.68820	257388
2.69632	252394
2.70445	243831
2.71257	248075
2.72070	244783
2.72882	241873
2.73693	231654
2.74507	229973
2.75318	240026
2.76132	272043
2.76943	327295
2.77755	290857
2.78568	261155
2.79380	233381
2.80193	227372
2.81005	218033
2.81817	216750
2.82630	207815
2.83442	198510
2.84253	207277
2.85067	206267
2.85878	208001
2.86692	198532
2.87503	205964
2.88315	204372
2.89128	203506
2.89940	202991
2.90753	207562
2.91565	205135
2.92377	201603
2.93190	202120
2.94002	206017
2.94815	209517
2.95627	228428
2.96438	206582
2.97252	195544
2.98063	195904
2.98875	191882
2.99688	190143
3.00500	185138
3.01313	197688
3.02125	181592
3.02937	181891
3.03750	188416
3.04562	184988
3.05375	186622
3.06187	183686
3.06998	186017
3.07812	179507
3.08623	173410
3.09437	179426
3.10248	170180
3.11060	171953
3.11873	175050
3.12685	172972
3.13497	180709
3.14310	184508
3.15122	175624
3.15935	177108
3.16747	180208
3.17558	168518
3.18372	174873
3.19183	170395
3.19997	173311
3.20808	168779
3.21620	168178
3.22433	173359
3.23245	166876
3.24057	170024
3.24870	170276
3.25682	166821
3.26495	165015
3.27307	173385
3.28118	358054
3.28932	1220105
3.29743	1942896
3.30557	1512932
3.31368	1047688
3.32180	831426
3.32993	716389
3.33805	621181
3.34618	530101
3.35430	497167
3.36242	535551
3.37055	1297586
3.37867	2976814
3.38678	3168131
3.39492	2222117
3.40303	1690326
3.41117	1435475
3.41928	1238104
3.42740	1092391
3.43553	957967
3.44365	857702
3.45178	790112
3.45990	788160
3.46802	1361116
3.47615	3842646
3.48427	7466940
3.49240	8054605
3.50052	5841067
3.50863	4003022
3.51677	3112334
3.52488	2572844
3.53300	2145310
3.54113	1881277
3.54925	1646526
3.55738	1513428
3.56550	1370062
3.57362	1229390
3.58175	1149831
3.58987	1071979
3.59800	1001158
3.60612	934618
3.61423	871292
3.62237	815651
3.63048	766584
3.63860	740854
3.64673	712077
3.65485	673248
3.66298	645004
3.67110	633702
3.67922	603700
3.68735	608350
3.69547	582275
3.70360	546664
3.71172	511860
3.71983	522232
3.72797	515550
3.73608	486183
3.74422	476472
3.75233	467451
3.76045	442390
3.76858	423635
3.77670	420162
3.78482	409692
3.79295	385089
3.80107	377872
3.80920	368533
3.81732	362943
3.82543	368171
3.83357	366214
3.84168	361378
3.84982	361232
3.85793	356278
3.86605	376731
3.87418	500922
3.88230	834111
3.89043	1050832
3.89855	881870
3.90667	684408
3.91480	579712
3.92292	520949
3.93103	489505
3.93917	460257
3.94728	437913
3.95542	420232
3.96353	409323
3.97165	404623
3.97978	393900
3.98790	561585
3.99603	1188396
4.00415	2003090
4.01227	1894223
4.02040	1207835
4.02852	810567
4.03663	634969
4.04477	559887
4.05288	506144
4.06102	478777
4.06913	452765
4.07725	421427
4.08538	406728
4.09350	424120
4.10163	442438
4.10975	427747
4.11787	382953
4.12600	375063
4.13412	360179
4.14225	339883
4.15037	335991
4.15848	329661
4.16662	322650
4.17473	309024
4.18285	311295
4.19098	305279
4.19910	295393
4.20723	292536
4.21535	299442
4.22347	284801
4.23160	287336
4.23972	283390
4.24785	290529
4.25597	272189
4.26408	273815
4.27222	273513
4.28033	268147
4.28847	270675
4.29658	272114
4.30470	250406
4.31283	266679
4.32095	258204
4.32907	256346
4.33720	249541
4.34532	248544
4.35345	255690
4.36157	259475
4.36968	257095
4.37782	309171
4.38593	509666
4.39407	813972
4.40218	857585
4.41030	635399
4.41843	452535
4.42655	376682
4.43468	345343
4.44280	310822
4.45092	282799
4.45905	285655
4.46717	334099
4.47528	475709
4.48342	601605
4.49153	547555
4.49967	447713
4.50778	368591
4.51590	323238
4.52403	303047
4.53215	288667
4.54028	284438
4.54840	263512
4.55652	265951
4.56465	264410
4.57277	262563
4.58088	251844
4.58902	247559
4.59713	238960
4.60527	241690
4.61338	237168
4.62150	236695
4.62963	229251
4.63775	228853
4.64588	223081
4.65400	225552
4.66212	223045
4.67025	219513
4.67837	214107
4.68650	213647
4.69462	213841
4.70273	212855
4.71087	216101
4.71898	210618
4.72710	216468
4.73523	211871
4.74335	208748
4.75148	211383
4.75960	210267
4.76772	208276
4.77585	215548
4.78397	226546
4.79210	223260
4.80022	217442
4.80833	212110
4.81647	201236
4.82458	193699
4.83272	198597
4.84083	205486
4.84895	211714
4.85708	217578
4.86520	201786
4.87332	202878
4.88145	200563
4.88957	205716
4.89770	193921
4.90582	201171
4.91393	203710
4.92207	193219
4.93018	193023
4.93832	191529
4.94643	194721
4.95455	194680
4.96268	190729
4.97080	190552
4.97892	191799
4.98705	193124
4.99517	188077
5.00330	191020
5.01142	188075
5.01953	185202
5.02767	182130
5.03578	190866
5.04392	202421
5.05203	205145
5.06015	205152
5.06828	204250
5.07640	194568
5.08453	198207
5.09265	212335
5.10077	207412
5.10890	211748
5.11702	197776
5.12513	201418
5.13327	214229
5.14138	257013
5.14952	386432
5.15763	710791
5.16575	1273668
5.17388	1766017
5.18200	1837258
5.19013	1547303
5.19825	1258338
5.20637	1187742
5.21450	1931589
5.22262	4591236
5.23075	8370093
5.23887	9494941
5.24698	6974960
5.25512	4173238
5.26323	2827593
5.27135	2186373
5.27948	1948090
5.28760	1670611
5.29573	1483910
5.30385	1370349
5.31197	1258772
5.32010	1153922
5.32822	1082383
5.33635	1019155
5.34447	955676
5.35258	905608
5.36072	860801
5.36883	824044
5.37695	809122
5.38508	787530
5.39320	760856
5.40133	726669
5.40945	712845
5.41757	697772
5.42570	645296
5.43382	631931
5.44195	588181
5.45007	575163
5.45818	551211
5.46632	505317
5.47443	504731
5.48257	500176
5.49068	507539
5.49880	522589
5.50693	512914
5.51505	511131
5.52317	522115
5.53130	482971
5.53942	479214
5.54755	473299
5.55567	470821
5.56378	450184
5.57192	431774
5.58003	422249
5.58817	424903
5.59628	414666
5.60440	420043
5.61253	419829
5.62065	423296
5.62878	407982
5.63690	408234
5.64502	414963
5.65315	476719
5.66127	619594
5.66938	666002
5.67752	635612
5.68563	524732
5.69377	448259
5.70188	409383
5.71000	396916
5.71813	395599
5.72625	399675
5.73438	395572
5.74250	386422
5.75062	355240
5.75875	356008
5.76687	346162
5.77500	339709
5.78312	326704
5.79123	333756
5.79937	327046
5.80748	321082
5.81560	333978
5.82373	378858
5.83185	510033
5.83998	694580
5.84810	783615
5.85622	732109
5.86435	593764
5.87247	485798
5.88060	414855
5.88872	379720
5.89683	354960
5.90497	350384
5.91308	334940
5.92120	337812
5.92933	322173
5.93745	312817
5.94558	310255
5.95370	301853
5.96182	314959
5.96995	330534
5.97807	355905
5.98620	368971
5.99432	354290
6.00243	324748
6.01057	302074
6.01868	288949
6.02682	277498
6.03493	276757
6.04305	277770
6.05118	274207
6.05930	265611
6.06742	254309
6.07555	228861
6.08367	232733
6.09180	225947
6.09992	224099
6.10803	214020
6.11617	212972
6.12428	221908
6.13242	210145
6.14053	207594
6.14865	207484
6.15678	207073
6.16490	210952
6.17303	299556
6.18115	648346
6.18927	1472631
6.19740	2434083
6.20552	2707249
6.21363	2035808
6.22177	1191843
6.22988	711013
6.23802	507532
6.24613	435215
6.25425	409920
6.26238	464537
6.27050	721857
6.27863	1291137
6.28675	1874710
6.29487	1981953
6.30300	1557358
6.31112	984621
6.31923	656042
6.32737	476434
6.33548	416873
6.34362	386497
6.35173	345562
6.35985	329712
6.36798	320240
6.37610	304036
6.38423	280721
6.39235	282150
6.40047	272610
6.40860	278928
6.41672	264236
6.42485	273320
6.43297	250594
6.44108	265060
6.44922	245564
6.45733	243018
6.46545	247242
6.47358	241450
6.48170	233400
6.48983	244537
6.49795	240993
6.50607	236493
6.51420	241214
6.52232	238386
6.53045	249064
6.53857	262776
6.54668	304132
6.55482	305347
6.56293	302959
6.57107	292962
6.57918	264749
6.58730	254970
6.59543	254478
6.60355	245883
6.61167	247059
6.61980	249940
6.62792	265886
6.63605	250621
6.64417	254835
6.65228	258145
6.66042	247784
6.66853	258026
6.67667	257887
6.68478	263501
6.69290	259259
6.70103	270904
6.70915	270785
6.71727	272122
6.72540	274765
6.73352	266019
6.74165	271632
6.74977	274070
6.75788	285725
6.76602	277835
6.77413	288885
6.78227	290483
6.79038	292721
6.79850	285470
6.80663	290574
6.81475	298439
6.82288	303829
6.83100	300838
6.83912	290462
6.84725	300675
6.85537	310365
6.86348	315248
6.87162	383419
6.87973	434096
6.88787	445201
6.89598	418705
6.90410	383987
6.91223	350680
6.92035	342856
6.92848	340561
6.93660	329005
6.94472	361496
6.95285	405667
6.96097	524260
6.96910	635445
6.97722	635786
6.98533	542524
6.99347	485536
7.00158	438685
7.00970	403272
7.01783	384177
7.02595	367891
7.03408	345665
7.04220	323076
7.05032	286165
7.05845	251928
7.06657	238225
7.07470	224877
7.08282	215436
7.09093	208465
7.09907	208612
7.10718	201379
7.11532	196738
7.12343	186529
7.13155	187040
7.13968	185156
7.14780	177474
7.15592	182431
7.16405	182770
7.17217	195773
7.18030	204764
7.18842	196364
7.19653	186947
7.20467	180331
7.21278	168325
7.22092	171291
7.22903	163190
7.23715	161214
7.24528	166597
7.25340	156877
7.26152	163082
7.26965	177996
7.27777	205353
7.28590	232940
7.29402	238020
7.30213	215925
7.31027	185431
7.31838	156719
7.32652	154275
7.33463	133280
7.34275	140384
7.35088	140014
7.35900	133049
7.36713	132031
7.37525	129691
7.38337	131949
7.39150	137490
7.39962	129347
7.40773	127678
7.41587	127242
7.42398	127280
7.43212	126390
7.44023	130732
7.44835	125865
7.45648	130802
7.46460	124288
7.47273	124193
7.48085	120594
7.48897	129959
7.49710	124045
7.50522	123159
7.51335	116211
7.52147	117197
7.52958	121280
7.53772	119687
7.54583	126196
7.55395	127184
7.56208	128115
7.57020	129036
7.57833	128044
7.58645	121544
7.59457	140294
7.60270	123908
7.61082	120352
7.61895	125188
7.62707	125125
7.63518	124412
7.64332	114037
7.65143	116617
7.65955	109290
7.66768	110343
7.67580	111508
7.68393	110026
7.69205	108972
7.70017	114534
7.70830	106601
7.71642	111913
7.72455	117230
7.73267	112531
7.74078	123287
7.74892	111041
7.75703	120231
7.76517	113755
7.77328	112090
7.78140	122045
7.78953	120289
7.79765	128307
7.80577	122878
7.81390	126012
7.82202	121563
7.83015	115106
7.83827	117305
7.84638	110662
7.85452	108982
7.86263	100663
7.87077	103991
7.87888	115221
7.88700	105778
7.89513	105438
7.90325	102743
7.91138	107318
7.91950	104958
7.92762	116044
7.93575	134989
7.94387	127992
7.95198	117530
7.96012	115072
7.96823	120004
7.97637	112693
7.98448	94899
7.99260	102020
8.00073	95711
8.00885	89636
8.01698	97184
8.02510	101434
8.03322	97836
8.04135	99290
8.04947	93543
8.05758	96937
8.06572	91085
8.07383	94247
8.08197	103757
8.09008	91212
8.09820	90316
8.10633	91888
8.11445	90817
8.12258	82928
8.13070	89033
8.13882	99936
8.14695	96721
8.15507	108384
8.16320	152744
8.17132	216167
8.17943	291631
8.18757	340262
8.19568	370839
8.20380	420223
8.21193	451891
8.22005	437959
8.22818	348934
8.23630	247883
8.24442	171919
8.25255	143727
8.26067	126225
8.26880	126762
8.27692	127723
8.28503	111617
8.29317	119443
8.30128	114260
8.30942	100479
8.31753	106285
8.32565	105617
8.33378	106049
8.34190	103251
8.35002	106374
8.35815	104198
8.36627	104028
8.37440	108959
8.38252	102476
8.39063	93310
8.39877	95010
8.40688	94920
8.41502	96812
8.42313	107266
8.43125	109212
8.43938	120701
8.44750	112867
8.45563	117635
8.46375	98709
8.47187	112236
8.48000	101549
8.48812	96581
8.49623	109813
8.50437	100213
8.51248	95762
8.52062	103920
8.52873	97370
8.53685	96646
8.54498	99628
8.55310	106230
8.56123	102242
8.56935	97814
8.57747	96166
8.58560	95113
8.59372	89126
8.60183	92932
8.60997	96750
8.61808	85894
8.62622	88887
8.63433	90992
8.64245	87013
8.65058	101370
8.65870	95495
8.66683	97318
8.67495	101358
8.68307	97665
8.69120	92368
8.69932	88097
8.70745	92223
8.71557	95351
8.72368	95088
8.73182	100574
8.73993	101866
8.74805	96471
8.75618	108299
8.76430	101595
8.77243	120061
8.78055	134433
8.78867	162560
8.79680	165882
8.80492	130863
8.81305	113206
8.82117	111509
8.82928	102030
8.83742	94621
8.84553	94207
8.85367	93397
8.86178	86590
8.86990	90132
8.87803	93812
8.88615	91867
8.89427	99261
8.90240	108405
8.91052	137483
8.91865	146459
8.92677	138735
8.93488	125113
8.94302	108819
8.95113	90019
8.95927	91317
8.96738	93135
8.97550	93730
8.98363	87810
8.99175	90602
8.99987	94665
9.00800	114731
9.01612	166264
9.02425	276786
9.03237	457072
9.04048	576575
9.04862	587247
9.05673	513077
9.06487	402204
9.07298	321974
9.08110	264819
9.08923	247810
9.09735	253226
9.10548	242982
9.11360	237749
9.12172	214146
9.12985	224494
9.13797	211805
9.14608	200873
9.15422	198088
9.16233	177472
9.17047	184344
9.17858	181198
9.18670	182227
9.19483	163648
9.20295	165499
9.21108	169701
9.21920	170335
9.22732	172621
9.23545	167550
9.24357	161185
9.25170	158092
9.25982	152574
9.26793	148724
9.27607	145894
9.28418	149129
9.29230	151996
9.30043	155281
9.30855	161562
9.31668	149026
9.32480	152811
9.33292	150448
9.34105	151507
9.34917	141686
9.35730	136459
9.36542	136896
9.37353	130556
9.38167	141128
9.38978	123997
9.39790	126497
9.40603	123014
9.41415	120840
9.42228	130078
9.43040	125557
9.43852	122236
9.44665	145228
9.45477	139399
9.46290	128994
9.47102	131386
9.47913	120855
9.48727	125788
9.49538	115588
9.50352	113433
9.51163	109264
9.51975	116977
9.52788	119428
9.53600	125183
9.54412	121547
9.55225	117356
9.56037	126989
9.56850	114144
9.57662	108422
9.58473	105854
9.59287	109833
9.60098	116267
9.60912	116326
9.61723	119777
9.62535	128056
9.63348	136967
9.64160	129872
9.64973	120326
9.65785	111924
9.66597	109724
9.67410	105674
9.68222	99384
9.69033	104821
9.69847	102902
9.70658	99525
9.71472	103253
9.72283	100799
9.73095	97963
9.73908	101546
9.74720	100875
9.75533	103029
9.76345	95537
9.77157	100762
9.77970	99490
9.78782	91838
9.79595	82946
9.80407	79101
9.81218	75552
9.82032	74728
9.82843	74473
9.83655	73048
9.84468	80430
9.85280	69310
9.86093	80662
9.86905	77999
9.87717	85422
9.88530	91369
9.89342	93730
9.90155	90048
9.90967	81496
9.91778	77041
9.92592	78965
9.93403	78783
9.94215	87042
9.95028	86204
9.95840	81638
9.96653	79733
9.97465	93086
9.98277	170787
9.99090	475151
9.99902	1375055
10.00715	3323179
10.01527	5904600
10.02338	7949167
10.03152	7823108
10.03963	5872069
10.04777	3384602
10.05588	1621053
10.06400	730386
10.07213	414985
10.08025	359490
10.08837	407207
10.09650	487902
10.10462	527848
10.11275	509922
10.12087	501759
10.12898	453558
10.13712	408954
10.14523	368973
10.15337	336918
10.16148	321919
10.16960	311701
10.17773	297211
10.18585	286805
10.19398	267417
10.20210	281555
10.21022	276001
10.21835	263799
10.22647	276742
10.23458	265541
10.24272	269033
10.25083	252701
10.25897	272100
10.26708	266538
10.27520	257560
10.28333	243621
10.29145	254521
10.29958	228975
10.30770	224226
10.31582	217108
10.32395	217482
10.33207	212602
10.34018	206125
10.34832	204336
10.35643	201824
10.36457	184863
10.37268	185091
10.38080	182482
10.38893	179752
10.39705	171678
10.40518	163473
10.41330	161261
10.42142	154938
10.42955	165938
10.43767	162632
10.44580	157122
10.45392	150322
10.46203	163832
10.47017	150893
10.47828	161949
10.48640	158015
10.49453	150593
10.50265	142887
10.51078	143978
10.51890	136801
10.52702	144384
10.53515	128151
10.54327	136360
10.55140	136854
10.55952	140112
10.56763	141145
10.57577	158088
10.58388	155468
10.59202	150507
10.60013	146436
10.60825	136685
10.61638	136757
10.62450	127538
10.63262	122656
10.64075	135131
10.64887	123592
10.65700	131854
10.66512	137293
10.67323	142340
10.68137	165513
10.68948	169399
10.69762	177798
10.70573	162355
10.71385	187257
10.72198	193419
10.73010	194348
10.73822	179255
10.74635	154561
10.75447	139155
10.76260	127764
10.77072	117727
10.77883	112303
10.78697	114651
10.79508	110661
10.80322	112091
10.81133	113401
10.81945	109009
10.82758	109215
10.83570	110989
10.84383	114704
10.85195	116688
10.86007	124988
10.86820	119387
10.87632	113027
10.88443	113980
10.89257	113131
10.90068	108430
10.90882	110591
10.91693	101224
10.92505	105877
10.93318	105299
10.94130	124858
10.94943	134108
10.95755	171921
10.96567	202404
10.97380	195960
10.98192	178811
10.99005	141044
10.99817	108670
11.00628	91412
11.01442	76755
11.02253	75047
11.03065	78731
11.03878	72160
11.04690	74970
11.05503	75553
11.06315	82743
11.07127	75055
11.07940	66368
11.08752	68809
11.09565	65413
11.10377	69494
11.11188	71072
11.12002	72609
11.12813	85505
11.13627	84512
11.14438	76275
11.15250	73203
11.16063	70467
11.16875	64620
11.17687	69148
11.18500	70334
11.19312	69039
11.20125	67133
11.20937	70871
11.21748	68641
11.22562	69950
11.23373	66288
11.24187	65639
11.24998	67232
11.25810	63254
11.26623	68002
11.27435	65704
11.28247	66643
11.29060	71163
11.29872	76134
11.30685	82928
11.31497	87300
11.32308	94856
11.33122	85049
11.33933	71953
11.34747	71012
11.35558	69516
11.36370	74309
11.37183	71807
11.37995	77786
11.38808	105712
11.39620	168628
11.40432	311179
11.41245	541573
11.42057	924346
11.42868	1407098
11.43682	1785540
11.44493	1877177
11.45307	1558721
11.46118	1068971
11.46930	619729
11.47743	333637
11.48555	229950
11.49368	196918
11.50180	194966
11.50992	197116
11.51805	190118
11.52617	160485
11.53430	152671
11.54242	147281
11.55053	142024
11.55867	135999
11.56678	121143
11.57490	123823
11.58303	115262
11.59115	115809
11.59928	107842
11.60740	108577
11.61552	96100
11.62365	101256
11.63177	92636
11.63990	94759
11.64802	102397
11.65613	96409
11.66427	90728
11.67238	86408
11.68050	89704
11.68863	88786
11.69675	97339
11.70488	87430
11.71300	84654
11.72112	87477
11.72925	86065
11.73737	78693
11.74550	81295
11.75362	81940
11.76173	81859
11.76987	78433
11.77798	82079
11.78612	76536
11.79423	79175
11.80235	77844
11.81048	81967
11.81860	82948
11.82672	96919
11.83485	103588
11.84297	114566
11.85110	103050
11.85922	94033
11.86733	89698
11.87547	95204
11.88358	84286
11.89172	82887
11.89983	84525
11.90795	86292
11.91608	85313
11.92420	90322
11.93233	89714
11.94045	96625
11.94857	91835
11.95670	99757
11.96482	86662
11.97293	87943
11.98107	81878
11.98918	81243
11.99732	73841
12.00543	71841
12.01355	71875
12.02168	76114
12.02980	77991
12.03793	86304
12.04605	73826
12.05417	78375
12.06230	75485
12.07042	79615
12.07853	83734
12.08667	81667
12.09478	80083
12.10292	88046
12.11103	80283
12.11915	79296
12.12728	81531
12.13540	75500
12.14353	77537
12.15165	70046
12.15977	71917
12.16790	69136
12.17602	76569
12.18415	61682
12.19227	63363
12.20038	69440
12.20852	64731
12.21663	60515
12.22475	62763
12.23288	55526
12.24100	59183
12.24913	66120
12.25725	62171
12.26537	60852
12.27350	55987
12.28162	56762
12.28975	56364
12.29787	57145
12.30598	69016
12.31412	57033
12.32223	59081
12.33037	61099
12.33848	59604
12.34660	62453
12.35473	63945
12.36285	63092
12.37097	59205
12.37910	52414
12.38722	57686
12.39535	60827
12.40347	66496
12.41158	86988
12.41972	104986
12.42783	121509
12.43597	128601
12.44408	118833
12.45220	103576
12.46033	80778
12.46845	69955
12.47658	64618
12.48470	61637
12.49282	64369
12.50095	62659
12.50907	61636
12.51718	60065
12.52532	55686
12.53343	59709
12.54157	61094
12.54968	55728
12.55780	54833
12.56593	54495
12.57405	55323
12.58218	55575
12.59030	59601
12.59842	67007
12.60655	90281
12.61467	172729
12.62278	304512
12.63092	464550
12.63903	598623
12.64717	598825
12.65528	484259
12.66340	327811
12.67153	195441
12.67965	137577
12.68778	110781
12.69590	98291
12.70402	93421
12.71215	87738
12.72027	78574
12.72840	86100
12.73652	83488
12.74463	83508
12.75277	82262
12.76088	78414
12.76900	70615
12.77713	71904
12.78525	74363
12.79338	84985
12.80150	74785
12.80962	74448
12.81775	69392
12.82587	74071
12.83400	66190
12.84212	70878
12.85023	71781
12.85837	68014
12.86648	62937
12.87462	66874
12.88273	69893
12.89085	61541
12.89898	61077
12.90710	63766
12.91522	59344
12.92335	59397
12.93147	68415
12.93960	66553
12.94772	58436
12.95583	58434
12.96397	58282
12.97208	57430
12.98022	57158
12.98833	67647
12.99645	60857
13.00458	64848
13.01270	68388
13.02082	61406
13.02895	58107
13.03707	58187
13.04520	57119
13.05332	58646
13.06143	56866
13.06957	55448
13.07768	54807
13.08582	51360
13.09393	65968
13.10205	57061
13.11018	66319
13.11830	67608
13.12643	75141
13.13455	72099
13.14267	73871
13.15080	69926
13.15892	73854
13.16703	83588
13.17517	94855
13.18328	100952
13.19142	99158
13.19953	83854
13.20765	77425
13.21578	65231
13.22390	57900
13.23203	59016
13.24015	58788
13.24827	52669
13.25640	54667
13.26452	54619
13.27265	54534
13.28077	53077
13.28888	52525
13.29702	60207
13.30513	52687
13.31325	58846
13.32138	55118
13.32950	54973
13.33763	54426
13.34575	54824
13.35387	56391
13.36200	60948
13.37012	61920
13.37825	56433
13.38637	58760
13.39448	52885
13.40262	57468
13.41073	57462
13.41885	55772
13.42698	53851
13.43510	56887
13.44323	56675
13.45135	64936
13.45947	57827
13.46760	53204
13.47572	63331
13.48385	57976
13.49197	63462
13.50008	53748
13.50822	60556
13.51633	52617
13.52447	54941
13.53258	54350
13.54070	54485
13.54883	52619
13.55695	47730
13.56507	59889
13.57320	54051
13.58132	54107
13.58945	55557
13.59757	57115
13.60568	57502
13.61382	49909
13.62193	48265
13.63007	59451
13.63818	53374
13.64630	52128
13.65443	50961
13.66255	52906
13.67068	50950
13.67880	61041
13.68692	61532
13.69505	57429
13.70317	52076
13.71128	49507
13.71942	51939
13.72753	48553
13.73567	56353
13.74378	48092
13.75190	56220
13.76003	49797
13.76815	47873
13.77628	47447
13.78440	58854
13.79252	49082
13.80065	58850
13.80877	46515
13.81690	47367
13.82502	50228
13.83313	56226
13.84127	46814
13.84938	56406
13.85750	55931
13.86563	48090
13.87375	48729
13.88188	46690
13.89000	55189
13.89812	46538
13.90625	50744
13.91437	50372
13.92250	47673
13.93062	47216
13.93873	52725
13.94687	56372
13.95498	58358
13.96310	45975
13.97123	54879
13.97935	48844
13.98748	51657
13.99560	62178
14.00372	77993
14.01185	108920
14.01997	151035
14.02810	187623
14.03622	201746
14.04433	175395
14.05247	135785
14.06058	96229
14.06872	83076
14.07683	68868
14.08495	66145
14.09308	60909
14.10120	61574
14.10932	61738
14.11745	58456
14.12557	58598
14.13370	57085
14.14182	53091
14.14993	55953
14.15807	60625
14.16618	48207
14.17432	58640
14.18243	58864
14.19055	64478
14.19868	81904
14.20680	84584
14.21493	77082
14.22305	79194
14.23117	71736
14.23930	67432
14.24742	62409
14.25553	60636
14.26367	60138
14.27178	58102
14.27992	56186
14.28803	55477
14.29615	62774
14.30428	53837
14.31240	56784
14.32053	57166
14.32865	56888
14.33677	64113
14.34490	57017
14.35302	58572
14.36115	54776
14.36927	50793
14.37738	51231
14.38552	51582
14.39363	57520
14.40175	50117
14.40988	48258
14.41800	53666
14.42613	54064
14.43425	50085
14.44237	53054
14.45050	56587
14.45862	68895
14.46675	97322
14.47487	128536
14.48298	163626
14.49112	197290
14.49923	208490
14.50735	197979
14.51548	173498
14.52360	157375
14.53173	136194
14.53985	129601
14.54797	149093
14.55610	164519
14.56422	176424
14.57235	178829
14.58047	150792
14.58858	131365
14.59672	119405
14.60483	105136
14.61297	93596
14.62108	91795
14.62920	93465
14.63733	89185
14.64545	93732
14.65357	116198
14.66170	150345
14.66982	153856
14.67795	141797
14.68607	121278
14.69418	98938
14.70232	75792
14.71043	69672
14.71857	68210
14.72668	55361
14.73480	60974
14.74293	60830
14.75105	63225
14.75918	63625
14.76730	59734
14.77542	64899
14.78355	63731
14.79167	59439
14.79978	58619
14.80792	60620
14.81603	59094
14.82417	59402
14.83228	57191
14.84040	53007
14.84853	57311
14.85665	54911
14.86478	52836
14.87290	55746
14.88102	58591
14.88915	50795
14.89727	51693
14.90538	54879
14.91352	52913
14.92163	56962
14.92977	60099
14.93788	63862
14.94600	54840
14.95413	52254
14.96225	56157
14.97038	57573
14.97850	50861
14.98662	51853
14.99475	48336
15.00287	50033
15.01100	49081
15.01912	51031
15.02723	51706
15.03537	46307
15.04348	57973
15.05160	46725
15.05973	49647
15.06785	47870
15.07598	48455
15.08410	44952
15.09222	47343
15.10035	42578
15.10847	51135
15.11660	48892
15.12472	46071
15.13283	48646
15.14097	57105
15.14908	47268
15.15722	54474
15.16533	49237
15.17345	50162
15.18158	54183
15.18970	50340
15.19782	49328
15.20595	41867
15.21407	49287
15.22220	49986
15.23032	48246
15.23843	53161
15.24657	59160
15.25468	72469
15.26282	84313
15.27093	95952
15.27905	85892
15.28718	85314
15.29530	71548
15.30343	64507
15.31155	58293
15.31967	54316
15.32780	55579
15.33592	54474
15.34403	53642
15.35217	55047
15.36028	54966
15.36842	52333
15.37653	60009
15.38465	48310
15.39278	53081
15.40090	54381
15.40903	52170
15.41715	51362
15.42527	52443
15.43340	50975
15.44152	51580
15.44963	49900
15.45777	50750
15.46588	50645
15.47402	65302
15.48213	56997
15.49025	55329
15.49838	56407
15.50650	55765
15.51463	54111
15.52275	54482
15.53087	51032
15.53900	49468
15.54712	55737
15.55525	49780
15.56337	49675
15.57148	47371
15.57962	45791
15.58773	51617
15.59585	47310
15.60398	46666
15.61210	46397
15.62023	45203
15.62835	46052
15.63647	47691
15.64460	54077
15.65272	47096
15.66085	53864
15.66897	50421
15.67708	49024
15.68522	45719
15.69333	49623
15.70147	46570
15.70958	43918
15.71770	44910
15.72583	44110
15.73395	45744
15.74207	46724
15.75020	56764
15.75832	44782
15.76645	46506
15.77457	50030
15.78268	43636
15.79082	54603
15.79893	54540
15.80707	46666
15.81518	47269
15.82330	45447
15.83143	49703
15.83955	53699
15.84767	53276
15.85580	48146
15.86392	44112
15.87205	47438
15.88017	45605
15.88828	50730
15.89642	43894
15.90453	44374
15.91267	45647
15.92078	46996
15.92890	46756
15.93703	48204
15.94515	44021
15.95328	45517
15.96140	45060
15.96952	48346
15.97765	50380
15.98577	51663
15.99388	53892
16.00202	59753
16.01013	53039
16.01827	49543
16.02638	49022
16.03450	46541
16.04263	47044
16.05075	53237
16.05888	39731
16.06700	54358
16.07512	49650
16.08325	43082
16.09137	42645
16.09950	43432
16.10762	42742
16.11573	44836
16.12387	43356
16.13198	45725
16.14010	44950
16.14823	44596
16.15635	46009
16.16448	53823
16.17260	45801
16.18072	46466
16.18885	45535
16.19697	50406
16.20510	50414
16.21322	58540
16.22133	74704
16.22947	77735
16.23758	82294
16.24570	79105
16.25383	69544
16.26195	63755
16.27008	52375
16.27820	49317
16.28632	49799
16.29445	48927
16.30257	52302
16.31070	55547
16.31882	55535
16.32693	60947
16.33507	75944
16.34318	73950
16.35132	77218
16.35943	72809
16.36755	65862
16.37568	62404
16.38380	59592
16.39192	53459
16.40005	54953
16.40817	56873
16.41630	62949
16.42442	77220
16.43253	86851
16.44067	101563
16.44878	100995
16.45692	85489
16.46503	84013
16.47315	69570
16.48128	64391
16.48940	65737
16.49753	57862
16.50565	53654
16.51377	53650
16.52190	59380
16.53002	53424
16.53813	49917
16.54627	57161
16.55438	56673
16.56252	50829
16.57063	48142
16.57875	59369
16.58688	52713
16.59500	49837
16.60313	52290
16.61125	53556
16.61937	47138
16.62750	49879
16.63562	49453
16.64375	54255
16.65187	51810
16.65998	49115
16.66812	50952
16.67623	50776
16.68435	48711
16.69248	50015
16.70060	47252
16.70873	53299
16.71685	49510
16.72497	48247
16.73310	46872
16.74122	49999
16.74935	48547
16.75747	49230
16.76558	45614
16.77372	52630
16.78183	56716
16.78995	48711
16.79808	54571
16.80620	54026
16.81433	58723
16.82245	58334
16.83057	61332
16.83870	54911
16.84682	54043
16.85495	54501
16.86307	52763
16.87118	53094
16.87932	61817
16.88743	50060
16.89557	57908
16.90368	55150
16.91180	54081
16.91993	51044
16.92805	51227
16.93617	53844
16.94430	55037
16.95242	55009
16.96055	54703
16.96867	50276
16.97678	52841
16.98492	42281
16.99303	48089
17.00117	49479
17.00928	55381
17.01740	47197
17.02553	51058
17.03365	58913
17.04178	48054
17.04990	47632
17.05802	50088
17.06615	47544
17.07427	52381
17.08238	54022
17.09052	49175
17.09863	58099
17.10677	57986
17.11488	56799
17.12300	59360
17.13113	51066
17.13925	56512
17.14738	52738
17.15550	53534
17.16362	58995
17.17175	66446
17.17987	69532
17.18798	71733
17.19612	68753
17.20423	58927
17.21237	64398
17.22048	53029
17.22860	56774
17.23673	46185
17.24485	47656
17.25298	54246
17.26110	45983
17.26922	44039
17.27735	45403
17.28547	54786
17.29360	52947
17.30172	45902
17.30983	46199
17.31797	46169
17.32608	44417
17.33420	44674
17.34233	44877
17.35045	50310
17.35858	45570
17.36670	46254
17.37482	44912
17.38295	46812
17.39107	47683
17.39920	44966
17.40732	47441
17.41543	44762
17.42357	47297
17.43168	48358
17.43982	44192
17.44793	43915
17.45605	43687
17.46418	44465
17.47230	45363
17.48042	46589
17.48855	43234
17.49667	44253
17.50480	45235
17.51292	46035
17.52103	47276
17.52917	44029
17.53728	46911
17.54542	46020
17.55353	44442
17.56165	53479
17.56978	47087
17.57790	48564
17.58602	47419
17.59415	47458
17.60227	44356
17.61040	47048
17.61852	50567
17.62663	45346
17.63477	46023
17.64288	50833
17.65102	50848
17.65913	49302
17.66725	50294
17.67538	47867
17.68350	53318
17.69163	58048
17.69975	48799
17.70787	55220
17.71600	51736
17.72412	51948
17.73223	44526
17.74037	47815
17.74848	47734
17.75662	47296
17.76473	51349
17.77285	51895
17.78098	56759
17.78910	55866
17.79723	54958
17.80535	59377
17.81347	61164
17.82160	50801
17.82972	51570
17.83785	54474
17.84597	58050
17.85408	51617
17.86222	51859
17.87033	50080
17.87845	56343
17.88658	51149
17.89470	53873
17.90283	50968
17.91095	51338
17.91907	49221
17.92720	50486
17.93532	52047
17.94345	50239
17.95157	52110
17.95968	46174
17.96782	50779
17.97593	54995
17.98407	49762
17.99218	52588
18.00030	50114
18.00843	53766
18.01655	48701
18.02467	52816
18.03280	50747
18.04092	48425
18.04905	55240
18.05717	53140
18.06528	50725
18.07342	56990
18.08153	55687
18.08967	59669
18.09778	56658
18.10590	56034
18.11403	54404
18.12215	57160
18.13027	54060
18.13840	51128
18.14652	58159
18.15465	52430
18.16277	51058
18.17088	52244
18.17902	49504
18.18713	48666
18.19527	53038
18.20338	52544
18.21150	50831
18.21963	58766
18.22775	50641
18.23588	56427
18.24400	55069
18.25212	50516
18.26025	52395
18.26837	51380
18.27648	51620
18.28462	53573
18.29273	52834
18.30087	53485
18.30898	50627
18.31710	51470
18.32523	56246
18.33335	56365
18.34148	46159
18.34960	46874
18.35772	48139
18.36585	45768
18.37397	51181
18.38210	52442
18.39022	55447
18.39833	50872
18.40647	53161
18.41458	54089
18.42270	50154
18.43083	62301
18.43895	52331
18.44708	50374
18.45520	46516
18.46332	49160
18.47145	46294
18.47957	46927
18.48770	51274
18.49582	49854
18.50393	48300
18.51207	57393
18.52018	50683
18.52830	52386
18.53643	56853
18.54455	56544
18.55268	55925
18.56080	56113
18.56892	57609
18.57705	55329
18.58517	56125
18.59330	52729
18.60142	47981
18.60953	48598
18.61767	51839
18.62578	54405
18.63392	49166
18.64203	46650
18.65015	47830
18.65828	45504
18.66640	47163
18.67452	51951
18.68265	51793
18.69077	51900
18.69890	57568
18.70702	61670
18.71513	67275
18.72327	78763
18.73138	72104
18.73952	83448
18.74763	78818
18.75575	75517
18.76388	86409
18.77200	75185
18.78013	74131
18.78825	77587
18.79637	71321
18.80450	74757
18.81262	65328
18.82073	69948
18.82887	74594
18.83698	68153
18.84512	65851
18.85323	68256
18.86135	62185
18.86948	66266
18.87760	62719
18.88573	64768
18.89385	61444
18.90197	61005
18.91010	60212
18.91822	63603
18.92633	60507
18.93447	63731
18.94258	69168
18.95072	76158
18.95883	72371
18.96695	68334
18.97508	63484
18.98320	66764
18.99133	60402
18.99945	64374
19.00757	64695
19.01570	70112
19.02382	72220
19.03195	79826
19.04007	84133
19.04818	82336
19.05632	78687
19.06443	66954
19.07255	64565
19.08068	58841
19.08880	54533
19.09693	53304
19.10505	54115
19.11317	61890
19.12130	52187
19.12942	50965
19.13755	49248
19.14567	50575
19.15378	50380
19.16192	51301
19.17003	47568
19.17817	50939
19.18628	50974
19.19440	55428
19.20253	52715
19.21065	53495
19.21877	56660
19.22690	61030
19.23502	55446
19.24315	50861
19.25127	47569
19.25938	54559
19.26752	44460
19.27563	50665
19.28377	49838
19.29188	45428
19.30000	47815
19.30813	52483
19.31625	49788
19.32438	47627
19.33250	51877
19.34062	53651
19.34875	52753
19.35687	46007
19.36498	51044
19.37312	47152
19.38123	57225
19.38937	48352
19.39748	45336
19.40560	49679
19.41373	54478
19.42185	50454
19.42998	55947
19.43810	45531
19.44622	49126
19.45435	45675
19.46247	48386
19.47058	50440
19.47872	45549
19.48683	47114
19.49497	45665
19.50308	50746
19.51120	45918
19.51933	51356
19.52745	51833
19.53558	59779
19.54370	70759
19.55182	76595
19.55995	87198
19.56807	88314
19.57620	84629
19.58432	83458
19.59243	81346
19.60057	72898
19.60868	72207
19.61680	76335
19.62493	71012
19.63305	75757
19.64118	66313
19.64930	63522
19.65742	67140
19.66555	62403
19.67367	58764
19.68180	56990
19.68992	63523
19.69803	58458
19.70617	68605
19.71428	80304
19.72242	79024
19.73053	79988
19.73865	82749
19.74678	70465
19.75490	69901
19.76302	61096
19.77115	64338
19.77927	69380
19.78740	79984
19.79552	103351
19.80363	128384
19.81177	147946
19.81988	146624
19.82802	125799
19.83613	107441
19.84425	84014
19.85238	68044
19.86050	65183
19.86862	57732
19.87675	54200
19.88487	51447
19.89300	50104
19.90112	54579
19.90923	54581
19.91737	52985
19.92548	49828
19.93362	56228
19.94173	47894
19.94985	51326
19.95798	53499
19.96610	51904
19.97423	47412
19.98235	47350
19.99047	53907
19.99860	51322
20.00672	60408
20.01483	79485
20.02297	134104
20.03108	225557
20.03922	397355
20.04733	576611
20.05545	739299
20.06358	801210
20.07170	700689
20.07983	550172
20.08795	397802
20.09607	290136
20.10420	236395
20.11232	189620
20.12045	147125
20.12857	134166
20.13668	115852
20.14482	97321
20.15293	94474
20.16105	82029
20.16918	84419
20.17730	78368
20.18543	69960
20.19355	68123
20.20167	69147
20.20980	62480
20.21792	64178
20.22605	63304
20.23417	63635
20.24228	64169
20.25042	63638
20.25853	62693
20.26665	58419
20.27478	56760
20.28290	58714
20.29103	62424
20.29915	65056
20.30727	59534
20.31540	55467
20.32352	63144
20.33165	55494
20.33977	53811
20.34788	53975
20.35602	57381
20.36413	68645
20.37227	86265
20.38038	95272
20.38850	89920
20.39663	98464
20.40475	91864
20.41287	88443
20.42100	88778
20.42912	83656
20.43725	94246
20.44537	87242
20.45348	81971
20.46162	78963
20.46973	77479
20.47787	88560
20.48598	75686
20.49410	75210
20.50223	71440
20.51035	72464
20.51848	70376
20.52660	66911
20.53472	66167
20.54285	59108
20.55097	57891
20.55908	59222
20.56722	56447
20.57533	58060
20.58347	78166
20.59158	111818
20.59970	174209
20.60783	266185
20.61595	377214
20.62408	432416
20.63220	426363
20.64032	388872
20.64845	298284
20.65657	237716
20.66470	183212
20.67282	138429
20.68093	119064
20.68907	98940
20.69718	85674
20.70530	77423
20.71343	82351
20.72155	70672
20.72968	68965
20.73780	70210
20.74592	70992
20.75405	74899
20.76217	84059
20.77030	107844
20.77842	144024
20.78653	169053
20.79467	184100
20.80278	165155
20.81090	142683
20.81903	123248
20.82715	100705
20.83528	97226
20.84340	87717
20.85152	78418
20.85965	72019
20.86777	77927
20.87590	68749
20.88402	68069
20.89213	68421
20.90027	59739
20.90838	59130
20.91652	58470
20.92463	60319
20.93275	64488
20.94088	53076
20.94900	56245
20.95712	56217
20.96525	51714
20.97337	55468
20.98150	53000
20.98962	56714
20.99773	50991
21.00587	54938
21.01398	52832
21.02212	54440
21.03023	51643
21.03835	62410
21.04648	48780
21.05460	52139
21.06273	54225
21.07085	49373
21.07897	51705
21.08710	49508
21.09522	59348
21.10333	47821
21.11147	47342
21.11958	55047
21.12772	49116
21.13583	50537
21.14395	52265
21.15208	52453
21.16020	49696
21.16833	55299
21.17645	57827
21.18457	60440
21.19270	50536
21.20082	51347
21.20893	55259
21.21707	57487
21.22518	72041
21.23332	121082
21.24143	205569
21.24955	374477
21.25768	551593
21.26580	702724
21.27393	698448
21.28205	574062
21.29017	397876
21.29830	248534
21.30642	163403
21.31455	126527
21.32267	92949
21.33078	84178
21.33892	76812
21.34703	74749
21.35515	61742
21.36328	61407
21.37140	61326
21.37953	61523
21.38765	60116
21.39577	59565
21.40390	51161
21.41202	60874
21.42015	51846
21.42827	53443
21.43638	56691
21.44452	55493
21.45263	58761
21.46077	56080
21.46888	62166
21.47700	57737
21.48513	54934
21.49325	57258
21.50137	54240
21.50950	51141
21.51762	54339
21.52575	60080
21.53387	52377
21.54198	49474
21.55012	53116
21.55823	50689
21.56637	59075
21.57448	49703
21.58260	55124
21.59073	53620
21.59885	52940
21.60697	53577
21.61510	55910
21.62322	71428
21.63135	67208
21.63947	62036
21.64758	60299
21.65572	53501
21.66383	55818
21.67197	57011
21.68008	51446
21.68820	53744
21.69633	60602
21.70445	54662
21.71258	57406
21.72070	61986
21.72882	58447
21.73695	63213
21.74507	55964
21.75318	55490
21.76132	52667
21.76943	53984
21.77757	55257
21.78568	58054
21.79380	53159
21.80193	51061
21.81005	52706
21.81818	51299
21.82630	58913
21.83442	51681
21.84255	56857
21.85067	50096
21.85880	53400
21.86692	53060
21.87503	51164
21.88317	51352
21.89128	56658
21.89940	52084
21.90753	52575
21.91565	53138
21.92378	61373
21.93190	78082
21.94002	103506
21.94815	123953
21.95627	149481
21.96440	154334
21.97252	149045
21.98063	118315
21.98877	97302
21.99688	85577
22.00502	74329
22.01313	79184
22.02125	65188
22.02938	61389
22.03750	58053
22.04562	59044
22.05375	56993
22.06187	53275
22.07000	59644
22.07812	59618
22.08623	61325
22.09437	52519
22.10248	56716
22.11062	59945
22.11873	66226
22.12685	63519
22.13498	73458
22.14310	97166
22.15122	121444
22.15935	146691
22.16747	146210
22.17560	138333
22.18372	113745
22.19183	98925
22.19997	83300
22.20808	76852
22.21622	64679
22.22433	68321
22.23245	65775
22.24058	65402
22.24870	63462
22.25683	70076
22.26495	66155
22.27307	73956
22.28120	58943
22.28932	58089
22.29743	56428
22.30557	58088
22.31368	57247
22.32182	57479
22.32993	60797
22.33805	62411
22.34618	66877
22.35430	55261
22.36243	56806
22.37055	56369
22.37867	54136
22.38680	58046
22.39492	53643
22.40305	57396
22.41117	55878
22.41928	61177
22.42742	59411
22.43553	59639
22.44365	59659
22.45178	61860
22.45990	61429
22.46803	61902
22.47615	62610
22.48427	57497
22.49240	55470
22.50052	58241
22.50865	54907
22.51677	58140
22.52488	67123
22.53302	69599
22.54113	77350
22.54925	90747
22.55738	104563
22.56550	112526
22.57363	115733
22.58175	121483
22.58987	122237
22.59800	110099
22.60612	91456
22.61425	82667
22.62237	73636
22.63048	71176
22.63862	64420
22.64673	59105
22.65487	61922
22.66298	64791
22.67110	64911
22.67923	59332
22.68735	57339
22.69547	61996
22.70360	58551
22.71172	61282
22.71985	55723
22.72797	55154
22.73608	62722
22.74422	61303
22.75233	54875
22.76047	53386
22.76858	57254
22.77670	54777
22.78483	56572
22.79295	60457
22.80108	54196
22.80920	54616
22.81732	56041
22.82545	58774
22.83357	56195
22.84168	63132
22.84982	61391
22.85793	58323
22.86607	55784
22.87418	61494
22.88230	63664
22.89043	56597
22.89855	54567
22.90668	54970
22.91480	56869
22.92292	54524
22.93105	57033
22.93917	55586
22.94728	50791
22.95542	54632
22.96353	53746
22.97167	53532
22.97978	50271
22.98790	54534
22.99603	57795
23.00415	54291
23.01228	56852
23.02040	54960
23.02852	56305
23.03665	52991
23.04477	46634
23.05290	53510
23.06102	56722
23.06913	52067
23.07727	50310
23.08538	54725
23.09350	48120
23.10163	48930
23.10975	54064
23.11788	54452
23.12600	51723
23.13412	53881
23.14225	53288
23.15037	53074
23.15850	61747
23.16662	67649
23.17473	58420
23.18287	61735
23.19098	64370
23.19912	65653
23.20723	62834
23.21535	65531
23.22348	63759
23.23160	58951
23.23972	60538
23.24785	55895
23.25597	55674
23.26410	51852
23.27222	59530
23.28033	50149
23.28847	53457
23.29658	53874
23.30472	50660
23.31283	57095
23.32095	61386
23.32908	63864
23.33720	59393
23.34533	64264
23.35345	61787
23.36157	75199
23.36970	70497
23.37782	66852
23.38593	68619
23.39407	70912
23.40218	68955
23.41032	63459
23.41843	63839
23.42655	70282
23.43468	70594
23.44280	75224
23.45093	94555
23.45905	101748
23.46717	106658
23.47530	122090
23.48342	120693
23.49153	136524
23.49967	133126
23.50778	120544
23.51592	112454
23.52403	106456
23.53215	94970
23.54028	93388
23.54840	77759
23.55653	81341
23.56465	69137
23.57277	65131
23.58090	57871
23.58902	59370
23.59715	61657
23.60527	62621
23.61338	64608
23.62152	53892
23.62963	67366
23.63775	55576
23.64588	63305
23.65400	57554
23.66213	54197
23.67025	57792
23.67837	54280
23.68650	52721
23.69462	61898
23.70275	54817
23.71087	57679
23.71898	55794
23.72712	49753
23.73523	53133
23.74337	52464
23.75148	56689
23.75960	51533
23.76773	54069
23.77585	52083
23.78397	53521
23.79210	52386
23.80022	53393
23.80835	64556
23.81647	55679
23.82458	50676
23.83272	49304
23.84083	59566
23.84897	53469
23.85708	52281
23.86520	50183
23.87333	52274
23.88145	47046
23.88957	50877
23.89770	55063
23.90582	51381
23.91395	49937
23.92207	51168
23.93018	56375
23.93832	48394
23.94643	49796
23.95457	50005
23.96268	53119
23.97080	52716
23.97893	49349
23.98705	51114
23.99518	51303
24.00330	52352
24.01142	55446
24.01955	62792
24.02767	55375
24.03578	64863
24.04392	61038
24.05203	58898
24.06017	60417
24.06828	61227
24.07640	62994
24.08453	64659
24.09265	63802
24.10078	59492
24.10890	63267
24.11702	64394
24.12515	62701
24.13327	63948
24.14140	68984
24.14952	70543
24.15763	72295
24.16577	64395
24.17388	72311
24.18200	73822
24.19013	78205
24.19825	84394
24.20638	73268
24.21450	84395
24.22262	114134
24.23075	259800
24.23887	739791
24.24700	2099614
24.25512	4810760
24.26323	8083874
24.27137	1.023998E+07
24.27948	1.064914E+07
24.28760	9514023
24.29573	7684821
24.30385	5924309
24.31198	4438366
24.32010	3321640
24.32822	2536404
24.33635	1938270
24.34447	1524534
24.35260	1216533
24.36072	992991
24.36883	820023
24.37697	680963
24.38508	594703
24.39322	508692
24.40133	447741
24.40945	397888
24.41758	337872
24.42570	314994
24.43382	296967
24.44195	286396
24.45007	269885
24.45820	242835
24.46632	233329
24.47443	205775
24.48257	190625
24.49068	175240
24.49882	169416
24.50693	154612
24.51505	155593
24.52318	166501
24.53130	169972
24.53943	166105
24.54755	159163
24.55567	162257
24.56380	147204
24.57192	135102
24.58003	116426
24.58817	113278
24.59628	110768
24.60442	110267
24.61253	107880
24.62065	113819
24.62878	100412
24.63690	103664
24.64503	95368
24.65315	103147
24.66127	109720
24.66940	106571
24.67752	114096
24.68565	119754
24.69377	141424
24.70188	156862
24.71002	162920
24.71813	165278
24.72625	143068
24.73438	133861
24.74250	118221
24.75063	103879
24.75875	97427
24.76687	96745
24.77500	103980
24.78312	90641
24.79125	92100
24.79937	105673
24.80748	114767
24.81562	118866
24.82373	131724
24.83185	119042
24.83998	106494
24.84810	101639
24.85623	95851
24.86435	88695
24.87247	84213
24.88060	82956
24.88872	76911
24.89685	75855
24.90497	76707
24.91308	82605
24.92122	74803
24.92933	79191
24.93747	76207
24.94558	75471
24.95370	82726
24.96183	77157
24.96995	77179
24.97807	70793
24.98620	76023
24.99432	75697
25.00245	70706
25.01057	74551
25.01868	81210
25.02682	70940
25.03493	71100
25.04307	70820
25.05118	69867
25.05930	76329
25.06743	73623
25.07555	78010
25.08368	68308
25.09180	71643
25.09992	69530
25.10805	83970
25.11617	70706
25.12428	70606
25.13242	75083
25.14053	77674
25.14867	81827
25.15678	86996
25.16490	94451
25.17303	91867
25.18115	86984
25.18928	84824
25.19740	77981
25.20552	81698
25.21365	70535
25.22177	71984
25.22988	68186
25.23802	68824
25.24613	70077
25.25427	67882
25.26238	81666
25.27050	69132
25.27863	73563
25.28675	71216
25.29488	72281
25.30300	69302
25.31112	66907
25.31925	71821
25.32737	66931
25.33550	62957
25.34362	72482
25.35173	66420
25.35987	65059
25.36798	67130
25.37610	68882
25.38423	64921
25.39235	64519
25.40048	66546
25.40860	67578
25.41672	66894
25.42485	70037
25.43297	71890
25.44110	66264
25.44922	67348
25.45733	61929
25.46547	70162
25.47358	76094
25.48172	66343
25.48983	68220
25.49795	65708
25.50608	62842
25.51420	67032
25.52232	66809
25.53045	65444
25.53857	67978
25.54670	68935
25.55482	67123
25.56293	70031
25.57107	70236
25.57918	62970
25.58732	66706
25.59543	63951
25.60355	67163
25.61168	65409
25.61980	67406
25.62793	71241
25.63605	74977
25.64417	75619
25.65230	74541
25.66042	79851
25.66853	73245
25.67667	71201
25.68478	68832
25.69292	75049
25.70103	64509
25.70915	64378
25.71728	61688
25.72540	63562
25.73353	61639
25.74165	62551
25.74977	71909
25.75790	64507
25.76602	72110
25.77413	67447
25.78227	79134
25.79038	76553
25.79852	77521
25.80663	85662
25.81475	83077
25.82288	84865
25.83100	86628
25.83913	78217
25.84725	84150
25.85537	69312
25.86350	69544
25.87162	71800
25.87975	65303
25.88787	74670
25.89598	65834
25.90412	61620
25.91223	70854
25.92035	66272
25.92848	73461
25.93660	64093
25.94473	66497
25.95285	59988
25.96097	65369
25.96910	59284
25.97722	61034
25.98535	67324
25.99347	63902
26.00158	63143
26.00972	59317
26.01783	64274
26.02597	59778
26.03408	61124
26.04220	59617
26.05033	62607
26.05845	64460
26.06657	60000
26.07470	62068
26.08282	59928
26.09095	58501
26.09907	65968
26.10718	64856
26.11532	57445
26.12343	57414
26.13157	59589
26.13968	59830
26.14780	60662
26.15593	63189
26.16405	55174
26.17217	70440
26.18030	58973
26.18842	59791
26.19655	57316
26.20467	60056
26.21278	59496
26.22092	61788
26.22903	59173
26.23717	65205
26.24528	55501
26.25340	58648
26.26153	59592
26.26965	58789
26.27778	57366
26.28590	61167
26.29402	67976
26.30215	60080
26.31027	67132
26.31838	70364
26.32652	71662
26.33463	86754
26.34277	94177
26.35088	106322
26.35900	112125
26.36713	116839
26.37525	117210
26.38338	101760
26.39150	97208
26.39962	84774
26.40775	81739
26.41587	84807
26.42400	96258
26.43212	97023
26.44023	106307
26.44837	104898
26.45648	83525
26.46460	72568
26.47273	77012
26.48085	70270
26.48898	62897
26.49710	62525
26.50522	66285
26.51335	67769
26.52147	58137
26.52960	60160
26.53772	60550
26.54583	70451
26.55397	66973
26.56208	63805
26.57022	64135
26.57833	63257
26.58645	63647
26.59458	63217
26.60270	58911
26.61082	65181
26.61895	61738
26.62707	60217
26.63520	66871
26.64332	68379
26.65143	69358
26.65957	73832
26.66768	79829
26.67582	75110
26.68393	79774
26.69205	76067
26.70018	77265
26.70830	82748
26.71642	70716
26.72455	78075
26.73267	63803
26.74080	66012
26.74892	66828
26.75703	60157
26.76517	60201
26.77328	57984
26.78142	57020
26.78953	60899
26.79765	63756
26.80578	59273
26.81390	61208
26.82203	56516
26.83015	59577
26.83827	61171
26.84640	65154
26.85452	66065
26.86263	60153
26.87077	56792
26.87888	66077
26.88702	62448
26.89513	62042
26.90325	58066
26.91138	59376
26.91950	68111
26.92763	61509
26.93575	58611
26.94387	57146
26.95200	61078
26.96012	63845
26.96825	64352
26.97637	63075
26.98448	78469
26.99262	69262
27.00073	70464
27.00885	71594
27.01698	78817
27.02510	67154
27.03323	66715
27.04135	74755
27.04947	63858
27.05760	63099
27.06572	69102
27.07385	61678
27.08197	62397
27.09008	63971
27.09822	61495
27.10633	63087
27.11445	60170
27.12258	65980
27.13070	64743
27.13883	74230
27.14695	63598
27.15507	65512
27.16320	76962
27.17132	69728
27.17945	74813
27.18757	76748
27.19568	76133
27.20382	73371
27.21193	66315
27.22007	69751
27.22818	76053
27.23630	73482
27.24443	71822
27.25255	71168
27.26067	68871
27.26880	69841
27.27692	68351
27.28505	69512
27.29317	68260
27.30128	68235
27.30942	71696
27.31753	71802
27.32567	70055
27.33378	67367
27.34190	68443
27.35003	64104
27.35815	74543
27.36628	71520
27.37440	70007
27.38252	66705
27.39065	73049
27.39877	87122
27.40688	131017
27.41502	241862
27.42313	510819
27.43127	1034569
27.43938	1802189
27.44750	2872630
27.45563	3568174
27.46375	3897126
27.47188	3662344
27.48000	3241515
27.48812	2730512
27.49625	2197091
27.50437	1777299
27.51250	1415654
27.52062	1096160
27.52873	887963
27.53687	721136
27.54498	595660
27.55310	496909
27.56123	414054
27.56935	345462
27.57748	314993
27.58560	264827
27.59372	237246
27.60185	210590
27.60997	191097
27.61810	171901
27.62622	161022
27.63433	145713
27.64247	144607
27.65058	135399
27.65870	145064
27.66683	137671
27.67495	134758
27.68308	127736
27.69120	126923
27.69932	125651
27.70745	123582
27.71557	115565
27.72370	112303
27.73182	106844
27.73993	97682
27.74807	98568
27.75618	96255
27.76432	94644
27.77243	99404
27.78055	90221
27.78868	85051
27.79680	88260
27.80492	88270
27.81305	90307
27.82117	98150
27.82930	98872
27.83742	90457
27.84553	96318
27.85367	95469
27.86178	89687
27.86992	83062
27.87803	80701
27.88615	82972
27.89428	85336
27.90240	85044
27.91053	80871
27.91865	83390
27.92677	87514
27.93490	83359
27.94302	86215
27.95113	77760
27.95927	76678
27.96738	76782
27.97552	80414
27.98363	78932
27.99175	75336
27.99988	76154
28.00800	72692
28.01613	76112
28.02425	75268
28.03237	74799
28.04050	73826
28.04862	74352
28.05673	71418
28.06487	72742
28.07298	73360
28.08112	69800
28.08923	82032
28.09735	68162
28.10548	72945
28.11360	74037
28.12173	71942
28.12985	82628
28.13797	72281
28.14610	76037
28.15422	79325
28.16235	75076
28.17047	74393
28.17858	71941
28.18672	72043
28.19483	69866
28.20295	70166
28.21108	76846
28.21920	79291
28.22733	71117
28.23545	74921
28.24357	69711
28.25170	71365
28.25982	68106
28.26795	69509
28.27607	67792
28.28418	70434
28.29232	77748
28.30043	75647
28.30857	70001
28.31668	67193
28.32480	81474
28.33293	76900
28.34105	71493
28.34917	73206
28.35730	72876
28.36542	74113
28.37355	71271
28.38167	71110
28.38978	68929
28.39792	69537
28.40603	71791
28.41417	66372
28.42228	75840
28.43040	70341
28.43853	72303
28.44665	71017
28.45477	70852
28.46290	77139
28.47102	69766
28.47915	74990
28.48727	73063
28.49538	78046
28.50352	86566
28.51163	89799
28.51977	90480
28.52788	90274
28.53600	84043
28.54413	84112
28.55225	77221
28.56038	71084
28.56850	79256
28.57662	71568
28.58475	75270
28.59287	80351
28.60098	75641
28.60912	71472
28.61723	77575
28.62537	72241
28.63348	76142
28.64160	75742
28.64973	70691
28.65785	69815
28.66598	74274
28.67410	79312
28.68222	75244
28.69035	86611
28.69847	106358
28.70660	139785
28.71472	192500
28.72283	274950
28.73097	357640
28.73908	427675
28.74720	500598
28.75533	545077
28.76345	555805
28.77158	574716
28.77970	578706
28.78782	554047
28.79595	538986
28.80407	513532
28.81220	502866
28.82032	472375
28.82843	429023
28.83657	422778
28.84468	386094
28.85282	347445
28.86093	334905
28.86905	308320
28.87718	289179
28.88530	279583
28.89342	260594
28.90155	243711
28.90967	230069
28.91780	213940
28.92592	204687
28.93403	192565
28.94217	178161
28.95028	171214
28.95842	165032
28.96653	154141
28.97465	159141
28.98278	140417
28.99090	142650
28.99902	136311
29.00715	128329
29.01527	121506
29.02340	127116
29.03152	120092
29.03963	121216
29.04777	109353
29.05588	106763
29.06402	113265
29.07213	116067
29.08025	115029
29.08838	122913
29.09650	130974
29.10463	130684
29.11275	116819
29.12087	117452
29.12900	104370
29.13712	103068
29.14523	95747
29.15337	91368
29.16148	92029
29.16962	100786
29.17773	107112
29.18585	98216
29.19398	102860
29.20210	114477
29.21023	100233
29.21835	93325
29.22647	90152
29.23460	83705
29.24272	81713
29.25085	84007
29.25897	80249
29.26708	76681
29.27522	78377
29.28333	82503
29.29145	79799
29.29958	81601
29.30770	87240
29.31583	80918
29.32395	85227
29.33207	77694
29.34020	78859
29.34832	76402
29.35645	76034
29.36457	75452
29.37268	86412
29.38082	73413
29.38893	75231
29.39705	73530
29.40518	71466
29.41330	77753
29.42143	79706
29.42955	74329
29.43767	75192
29.44580	77476
29.45392	76323
29.46205	79725
29.47017	75995
29.47828	78183
29.48642	77808
29.49453	83403
29.50267	85722
29.51078	77492
29.51890	77568
29.52703	78925
29.53515	81255
29.54327	75112
29.55140	81922
29.55952	76626
29.56765	73244
29.57577	73165
29.58388	72613
29.59202	81852
29.60013	77950
29.60827	72538
29.61638	80939
29.62450	74718
29.63263	75210
29.64075	69090
29.64888	74479
29.65700	73798
29.66512	69405
29.67325	69695
29.68137	73269
29.68948	72415
29.69762	81716
29.70573	80017
29.71387	76797
29.72198	73994
29.73010	80973
29.73823	74331
29.74635	77095
29.75448	75103
29.76260	72724
29.77072	74732
29.77885	80417
29.78697	83564
29.79508	79812
29.80322	78962
29.81133	81560
29.81947	77876
29.82758	75563
29.83570	73385
29.84383	78447
29.85195	77330
29.86008	80385
29.86820	76178
29.87632	74023
29.88445	75280
29.89257	70645
29.90070	69116
29.90882	71586
29.91693	71539
29.92507	70499
29.93318	66301
29.94130	71675
29.94943	72334
29.95755	71132
29.96568	84487
29.97380	82190
29.98192	73722
29.99005	75311
29.99817	74540
30.00630	71921
30.01442	77310
30.02253	83392
30.03067	87278
30.03878	83711
30.04692	92352
30.05503	84940
30.06315	88597
30.07128	87159
30.07940	82191
30.08752	85129
30.09565	97347
30.10377	86578
30.11190	92750
30.12002	91741
30.12813	93675
30.13627	101999
30.14438	100244
30.15252	109671
30.16063	101597
30.16875	107490
30.17688	117261
30.18500	106206
30.19313	111811
30.20125	104518
30.20937	108533
30.21750	107480
30.22562	114317
30.23373	116571
30.24187	107506
30.24998	112938
30.25812	113436
30.26623	108935
30.27435	109096
30.28248	111373
30.29060	108428
30.29873	122308
30.30685	133953
30.31497	154372
30.32310	177225
30.33122	204480
30.33933	240811
30.34747	257903
30.35558	273057
30.36372	298685
30.37183	308761
30.37995	310070
30.38808	293982
30.39620	295244
30.40433	284492
30.41245	293499
30.42057	279327
30.42870	283430
30.43682	281828
30.44495	268588
30.45307	255202
30.46118	239386
30.46932	236038
30.47743	218210
30.48555	210774
30.49368	199961
30.50180	189847
30.50993	181027
30.51805	173453
30.52617	169669
30.53430	157430
30.54242	152456
30.55055	158433
30.55867	142764
30.56678	142438
30.57492	140338
30.58303	137836
30.59117	141517
30.59928	135483
30.60740	123980
30.61553	117836
30.62365	120260
30.63177	118101
30.63990	115391
30.64802	114783
30.65615	117911
30.66427	111909
30.67238	108366
30.68052	112371
30.68863	113384
30.69677	102360
30.70488	99548
30.71300	104720
30.72113	96458
30.72925	94244
30.73737	91665
30.74550	95559
30.75362	99433
30.76175	99881
30.76987	95895
30.77798	88716
30.78612	87650
30.79423	90908
30.80237	94730
30.81048	91508
30.81860	90852
30.82673	89566
30.83485	87053
30.84298	85347
30.85110	87047
30.85922	89122
30.86735	84567
30.87547	84881
30.88358	89458
30.89172	85781
30.89983	86603
30.90797	83318
30.91608	85725
30.92420	84946
30.93233	82669
30.94045	86706
30.94858	75648
30.95670	77717
30.96482	89579
30.97295	82482
30.98107	84680
30.98920	82453
30.99732	84137
31.00543	82679
31.01357	77197
31.02168	77644
31.02980	80391
31.03793	79506
31.04605	85767
31.05418	88711
31.06230	73108
31.07042	90042
31.07855	78076
31.08667	85302
31.09480	77317
31.10292	82261
31.11103	78058
31.11917	82138
31.12728	79903
31.13540	85648
31.14353	82066
31.15165	80060
31.15978	77402
31.16790	82120
31.17602	77975
31.18415	80329
31.19227	83484
31.20040	79101
31.20852	81992
31.21663	81149
31.22477	85245
31.23288	87318
31.24102	83136
31.24913	74256
31.25725	74849
31.26538	81319
31.27350	78675
31.28162	74854
31.28975	76262
31.29787	77185
31.30600	74544
31.31412	75551
31.32223	85251
31.33037	88110
31.33848	92991
31.34662	84172
31.35473	81939
31.36285	86033
31.37098	80417
31.37910	79904
31.38723	77238
31.39535	81786
31.40347	81466
31.41160	78673
31.41972	83722
31.42783	85305
31.43597	82679
31.44408	84893
31.45222	81877
31.46033	79291
31.46845	80429
31.47658	82004
31.48470	89671
31.49283	76479
31.50095	88031
31.50907	80532
31.51720	82508
31.52532	80603
31.53345	82219
31.54157	85806
31.54968	81185
31.55782	81610
31.56593	86443
31.57405	81180
31.58218	84527
31.59030	81928
31.59843	79551
31.60655	86044
31.61467	89704
31.62280	111873
31.63092	130385
31.63905	146563
31.64717	178173
31.65528	193306
31.66342	224970
31.67153	209430
31.67965	190970
31.68778	163057
31.69590	126261
31.70403	114358
31.71215	98948
31.72027	90425
31.72840	94872
31.73652	92236
31.74465	89761
31.75277	90557
31.76088	86643
31.76902	84687
31.77713	85072
31.78527	85042
31.79338	84535
31.80150	81762
31.80963	80048
31.81775	82784
31.82587	85643
31.83400	83792
31.84212	85443
31.85025	84784
31.85837	84448
31.86648	83094
31.87462	82206
31.88273	75188
31.89087	77853
31.89898	78787
31.90710	79026
31.91523	83018
31.92335	86266
31.93148	81898
31.93960	78448
31.94772	92585
31.95585	84444
31.96397	80510
31.97208	89481
31.98022	89246
31.98833	84613
31.99647	84733
32.00458	81183
32.01270	93421
32.02083	85737
32.02895	86946
32.03708	84114
32.04520	78980
32.05332	81647
32.06145	88486
32.06957	89442
32.07768	84030
32.08582	81518
32.09393	83297
32.10207	80552
32.11018	79434
32.11830	79583
32.12643	81375
32.13455	81458
32.14268	86451
32.15080	91832
32.15892	89654
32.16705	84284
32.17517	86477
32.18330	88925
32.19142	94587
32.19953	86560
32.20767	87532
32.21578	87637
32.22390	87116
32.23203	95108
32.24015	102162
32.24828	115743
32.25640	139883
32.26452	154498
32.27265	189117
32.28077	195529
32.28890	218446
32.29702	220933
32.30513	231754
32.31327	215092
32.32138	216116
32.32952	212313
32.33763	199831
32.34575	202303
32.35388	191155
32.36200	183371
32.37012	177942
32.37825	178918
32.38637	169153
32.39450	170846
32.40262	150986
32.41073	145501
32.41887	140374
32.42698	147550
32.43512	146498
32.44323	138090
32.45135	135532
32.45948	139349
32.46760	123916
32.47572	118305
32.48385	112398
32.49197	106814
32.50010	106159
32.50822	99222
32.51633	106147
32.52447	102168
32.53258	101490
32.54072	101108
32.54883	97283
32.55695	98423
32.56508	102869
32.57320	101214
32.58133	94140
32.58945	93836
32.59757	101548
32.60570	98000
32.61382	95101
32.62193	91255
32.63007	99664
32.63818	91688
32.64632	92771
32.65443	89763
32.66255	91764
32.67068	96019
32.67880	94477
32.68693	91300
32.69505	93712
32.70317	86423
32.71130	92516
32.71942	91217
32.72755	88942
32.73567	93579
32.74378	98197
32.75192	100397
32.76003	98164
32.76815	101109
32.77628	102308
32.78440	104170
32.79253	96184
32.80065	93417
32.80877	93563
32.81690	88804
32.82502	99830
32.83315	97613
32.84127	100058
32.84938	92581
32.85752	95627
32.86563	102821
32.87377	98233
32.88188	94071
32.89000	95113
32.89813	93554
32.90625	96060
32.91437	90364
32.92250	102888
32.93062	97501
32.93875	97956
32.94687	102779
32.95498	111725
32.96312	103033
32.97123	97411
32.97937	105939
32.98748	116862
32.99560	111188
33.00373	113194
33.01185	105456
33.01997	106861
33.02810	103056
33.03622	98681
33.04435	93249
33.05247	98888
33.06058	93916
33.06872	93205
33.07683	90863
33.08497	88188
33.09308	89179
33.10120	88349
33.10933	91529
33.11745	93299
33.12558	96063
33.13370	94335
33.14182	89825
33.14995	96425
33.15807	92428
33.16618	86246
33.17432	94201
33.18243	94860
33.19057	87554
33.19868	99605
33.20680	90906
33.21493	94875
33.22305	99157
33.23118	95715
33.23930	95641
33.24742	97713
33.25555	93165
33.26367	104549
33.27180	103259
33.27992	93494
33.28803	103406
33.29617	103767
33.30428	94369
33.31240	95757
33.32053	89157
33.32865	96988
33.33678	92320
33.34490	94909
33.35302	100641
33.36115	98054
33.36927	93197
33.37740	96195
33.38552	94102
33.39363	95835
33.40177	96091
33.40988	94688
33.41800	86583
33.42613	88303
33.43425	91761
33.44238	94696
33.45050	94944
33.45862	93521
33.46675	100771
33.47487	91808
33.48300	93567
33.49112	98236
33.49923	101139
33.50737	98889
33.51548	100441
33.52362	106595
33.53173	100458
33.53985	98839
33.54798	95969
33.55610	108157
33.56422	95420
33.57235	93788
33.58047	92634
33.58860	96629
33.59672	98062
33.60483	97614
33.61297	99670
33.62108	103448
33.62922	102114
33.63733	112629
33.64545	117846
33.65358	131808
33.66170	135964
33.66983	123818
33.67795	120284
33.68607	115540
33.69420	105175
33.70232	97263
33.71043	101259
33.71857	98019
33.72668	92876
33.73482	99624
33.74293	99434
33.75105	99000
33.75918	94248
33.76730	101311
33.77543	100204
33.78355	93145
33.79167	97620
33.79980	99160
33.80792	94696
33.81603	93454
33.82417	100882
33.83228	100925
33.84042	96432
33.84853	100095
33.85665	99631
33.86478	98813
33.87290	98954
33.88103	99020
33.88915	99560
33.89727	104550
33.90540	101026
33.91352	97680
33.92165	99750
33.92977	99924
33.93788	101673
33.94602	103455
33.95413	101440
33.96225	99816
33.97038	100350
33.97850	98944
33.98663	107464
33.99475	101380
34.00287	100188
34.01100	97292
34.01912	97698
34.02725	98929
34.03537	101654
34.04348	101523
34.05162	103806
34.05973	98723
34.06787	107938
34.07598	107326
34.08410	104593
34.09223	101091
34.10035	106225
34.10847	110326
34.11660	107454
34.12472	105954
34.13285	111043
34.14097	104799
34.14908	109233
34.15722	108196
34.16533	108386
34.17347	109583
34.18158	109164
34.18970	107669
34.19783	103499
34.20595	107167
34.21408	101908
34.22220	113598
34.23032	113560
34.23845	110589
34.24657	117507
34.25468	125080
34.26282	119717
34.27093	106488
34.27907	110247
34.28718	109088
34.29530	105747
34.30343	114977
34.31155	118269
34.31968	103839
34.32780	108090
34.33592	106238
34.34405	103335
34.35217	99289
34.36028	111229
34.36842	107483
34.37653	106297
34.38467	106708
34.39278	112722
34.40090	113172
34.40903	118648
34.41715	110746
34.42528	103995
34.43340	109906
34.44152	113261
34.44965	112101
34.45777	108814
34.46590	109672
34.47402	104325
34.48213	102528
34.49027	104829
34.49838	113743
34.50650	115831
34.51463	109056
34.52275	104608
34.53088	103254
34.53900	103172
34.54712	114628
34.55525	115272
34.56337	117403
34.57150	130341
34.57962	129897
34.58773	128782
34.59587	131226
34.60398	114137
34.61212	111949
34.62023	114765
34.62835	113208
34.63648	110433
34.64460	115325
34.65272	113815
34.66085	109532
34.66897	116857
34.67710	105733
34.68522	109629
34.69333	108251
34.70147	113900
34.70958	111162
34.71772	109949
34.72583	118278
34.73395	110176
34.74208	108651
34.75020	111885
34.75832	105850
34.76645	109751
34.77457	119410
34.78270	109694
34.79082	107003
34.79893	113663
34.80707	108095
34.81518	109123
34.82332	112656
34.83143	117949
34.83955	114806
34.84768	125902
34.85580	135598
34.86393	153288
34.87205	204211
34.88017	215181
34.88830	233505
34.89642	243829
34.90453	232655
34.91267	230938
34.92078	200180
34.92892	199410
34.93703	183863
34.94515	164556
34.95328	162998
34.96140	148077
34.96953	154306
34.97765	140042
34.98577	137719
34.99390	144612
35.00202	131117
35.01015	134066
35.01827	133657
35.02638	134625
35.03452	131086
35.04263	130433
35.05075	137493
35.05888	126144
35.06700	130106
35.07513	127235
35.08325	125674
35.09137	124825
35.09950	126194
35.10762	124952
35.11575	130420
35.12387	117322
35.13198	124798
35.14012	121387
35.14823	119151
35.15635	120064
35.16448	123782
35.17260	117612
35.18073	119308
35.18885	120962
35.19697	123480
35.20510	120336
35.21322	115467
35.22135	120209
35.22947	122144
35.23758	119650
35.24572	119093
35.25383	120056
35.26197	132455
35.27008	131893
35.27820	123021
35.28633	122609
35.29445	117911
35.30257	125655
35.31070	124875
35.31882	126326
35.32695	125603
35.33507	123810
35.34318	118323
35.35132	129490
35.35943	131795
35.36757	125334
35.37568	122814
35.38380	125839
35.39193	122505
35.40005	123069
35.40818	126817
35.41630	126793
35.42442	127387
35.43255	132501
35.44067	123115
35.44878	129615
35.45692	130444
35.46503	132186
35.47317	138306
35.48128	134067
35.48940	139976
35.49753	142247
35.50565	142228
35.51378	151566
35.52190	144059
35.53002	140057
35.53815	148454
35.54627	133320
35.55440	135963
35.56252	143990
35.57063	151634
35.57877	143449
35.58688	144328
35.59500	138799
35.60313	141899
35.61125	154089
35.61938	144651
35.62750	149011
35.63562	152948
35.64375	143454
35.65187	149519
35.66000	149996
35.66812	157600
35.67623	139689
35.68437	144760
35.69248	137836
35.70060	145997
35.70873	147181
35.71685	139334
35.72498	145488
35.73310	135617
35.74122	140729
35.74935	141837
35.75747	135631
35.76560	132852
35.77372	135432
35.78183	136545
35.78997	136742
35.79808	137455
35.80622	137969
35.81433	137698
35.82245	133349
35.83058	142128
35.83870	140155
35.84682	137887
35.85495	131832
35.86307	142735
35.87120	137053
35.87932	131393
35.88743	135777
35.89557	134437
35.90368	132138
35.91182	133764
35.91993	137839
35.92805	138222
35.93618	127765
35.94430	134694
35.95243	134188
35.96055	142525
35.96867	140769
35.97680	151598
35.98492	148575
35.99303	151587
36.00117	158643
36.00928	159861
36.01742	167571
36.02553	156802
36.03365	157452
36.04178	154261
36.04990	161304
36.05803	150813
36.06615	148195
36.07427	146183
36.08240	154357
36.09052	144341
36.09863	141385
36.10677	158922
36.11488	142632
36.12302	152448
36.13113	143673
36.13925	140731
36.14738	142515
36.15550	146413
36.16363	141060
36.17175	143059
36.17987	145503
36.18800	141935
36.19612	143741
36.20425	141257
36.21237	143484
36.22048	140133
36.22862	146451
36.23673	146119
36.24485	149652
36.25298	153053
36.26110	157847
36.26923	171517
36.27735	167724
36.28547	158263
36.29360	161603
36.30172	152558
36.30985	149034
36.31797	153135
36.32608	155205
36.33422	148265
36.34233	150055
36.35047	144909
36.35858	150711
36.36670	144826
36.37483	154310
36.38295	146014
36.39107	144102
36.39920	148272
36.40732	147351
36.41545	143005
36.42357	146076
36.43168	143246
36.43982	143303
36.44793	145106
36.45607	144787
36.46418	145181
36.47230	142643
36.48043	144451
36.48855	153572
36.49667	151175
36.50480	143591
36.51292	142251
36.52105	145973
36.52917	151687
36.53728	146259
36.54542	149158
36.55353	145268
36.56167	153030
36.56978	157709
36.57790	158906
36.58603	160716
36.59415	163647
36.60228	165859
36.61040	166901
36.61852	160657
36.62665	161806
36.63477	175890
36.64288	171697
36.65102	170165
36.65913	184641
36.66727	164361
36.67538	168474
36.68350	157873
36.69163	161397
36.69975	156239
36.70788	152716
36.71600	158758
36.72412	152179
36.73225	158986
36.74037	149758
36.74850	154006
36.75662	156152
36.76473	150797
36.77287	160974
36.78098	146801
36.78910	159961
36.79723	155243
36.80535	149358
36.81348	154842
36.82160	154474
36.82972	151833
36.83785	154437
36.84597	149972
36.85410	157803
36.86222	156986
36.87033	149913
36.87847	152186
36.88658	152926
36.89472	155714
36.90283	156496
36.91095	156970
36.91908	161565
36.92720	158812
36.93532	161807
36.94345	167126
36.95157	183630
36.95970	190832
36.96782	206102
36.97593	240563
36.98407	270232
36.99218	279086
37.00032	249953
37.00843	246433
37.01655	209700
37.02468	198883
37.03280	180712
37.04092	179875
37.04905	172771
37.05717	175722
37.06530	174805
37.07342	175528
37.08153	178432
37.08967	168122
37.09778	173890
37.10592	174688
37.11403	175319
37.12215	173253
37.13028	178347
37.13840	170745
37.14653	173268
37.15465	168285
37.16277	168028
37.17090	180564
37.17902	179788
37.18713	164326
37.19527	168315
37.20338	169307
37.21152	170618
37.21963	167593
37.22775	161623
37.23588	168071
37.24400	165284
37.25213	171036
37.26025	165572
37.26837	175930
37.27650	180659
37.28462	176493
37.29275	186905
37.30087	193670
37.30898	212235
37.31712	210425
37.32523	221218
37.33335	226043
37.34148	250930
37.34960	254193
37.35773	272735
37.36585	286521
37.37397	298383
37.38210	308723
37.39022	295892
37.39835	304405
37.40647	287742
37.41458	281359
37.42272	266378
37.43083	252836
37.43895	252475
37.44708	228239
37.45520	217096
37.46333	200846
37.47145	206730
37.47957	198988
37.48770	195825
