Z:\data\JTB-E02\BACandBLUE\JTB-E18-005-06.D Wed Apr 10 10:17:14 2019
Start of data points
2.09510,21110
2.10322,26438
2.11135,28586
2.11947,33181
2.12760,42524
2.13572,49597
2.14383,53911
2.15197,59760
2.16008,61225
2.16820,66077
2.17633,63264
2.18445,58164
2.19258,56119
2.20070,51909
2.20882,49578
2.21695,48401
2.22507,44998
2.23320,43793
2.24132,41751
2.24943,37976
2.25757,39519
2.26568,98665
2.27382,1360045
2.28193,4185831
2.29005,3197663
2.29818,1456686
2.30630,885210
2.31442,680858
2.32255,595710
2.33067,524735
2.33880,594006
2.34692,553929
2.35503,459157
2.36317,371114
2.37128,333214
2.37942,312432
2.38753,315278
2.39565,280593
2.40378,300755
2.41190,352507
2.42003,419831
2.42815,685524
2.43627,485135
2.44440,376054
2.45252,353669
2.46063,303815
2.46877,260485
2.47688,234799
2.48502,216660
2.49313,265731
2.50125,279116
2.50938,236380
2.51750,217731
2.52563,204751
2.53375,185110
2.54187,181506
2.55000,206909
2.55812,229042
2.56623,264445
2.57437,234522
2.58248,182499
2.59062,155501
2.59873,148007
2.60685,152095
2.61498,174719
2.62310,170329
2.63123,154050
2.63935,139881
2.64747,134785
2.65560,130666
2.66372,130196
2.67185,119195
2.67997,122027
2.68808,118010
2.69622,115296
2.70433,110989
2.71245,112708
2.72058,105965
2.72870,97619
2.73683,102112
2.74495,96115
2.75307,95789
2.76120,95492
2.76932,91068
2.77745,89795
2.78557,89626
2.79368,90817
2.80182,92908
2.80993,101217
2.81805,99824
2.82618,96912
2.83430,95755
2.84243,88391
2.85055,92744
2.85867,92146
2.86680,92177
2.87492,93008
2.88305,83365
2.89117,86270
2.89928,88141
2.90742,89199
2.91553,81006
2.92367,78700
2.93178,81224
2.93990,77456
2.94803,74563
2.95615,76150
2.96427,78706
2.97240,76761
2.98052,80070
2.98865,77827
2.99677,77539
3.00488,81576
3.01302,79228
3.02113,78074
3.02927,75813
3.03738,76325
3.04550,74198
3.05363,76075
3.06175,75768
3.06988,72363
3.07800,74956
3.08612,70732
3.09425,74457
3.10237,88881
3.11048,127819
3.11862,152027
3.12673,146513
3.13487,119021
3.14298,111263
3.15110,100831
3.15923,95112
3.16735,91095
3.17548,86895
3.18360,88031
3.19172,77923
3.19985,78914
3.20797,74369
3.21608,78555
3.22422,73554
3.23233,74730
3.24047,65104
3.24858,72332
3.25670,66169
3.26483,68648
3.27295,70448
3.28108,158464
3.28920,1112258
3.29732,6838942
3.30545,2.028305E+07
3.31357,3.056466E+07
3.32170,3.181736E+07
3.32982,2.656712E+07
3.33793,1.997465E+07
3.34607,1.455127E+07
3.35418,1.099516E+07
3.36230,8571830
3.37043,6943646
3.37855,5660485
3.38668,4738408
3.39480,4045151
3.40292,3486040
3.41105,3038437
3.41917,2750551
3.42730,2464246
3.43542,2223041
3.44353,2078131
3.45167,1915518
3.45978,1767360
3.46792,1664245
3.47603,1569396
3.48415,1460003
3.49228,1391025
3.50040,1295864
3.50852,1223354
3.51665,1185938
3.52477,1100853
3.53290,1058340
3.54102,1005016
3.54913,951613
3.55727,922069
3.56538,887219
3.57352,857859
3.58163,814894
3.58975,817318
3.59788,784089
3.60600,778848
3.61412,740444
3.62225,752992
3.63037,725685
3.63850,712025
3.64662,663031
3.65473,649452
3.66287,635354
3.67098,611706
3.67912,606573
3.68723,605571
3.69535,577447
3.70348,569439
3.71160,551160
3.71973,536136
3.72785,532718
3.73597,521199
3.74410,515305
3.75222,493574
3.76033,493074
3.76847,485266
3.77658,484319
3.78472,461440
3.79283,456198
3.80095,466544
3.80908,458141
3.81720,458996
3.82533,446216
3.83345,454431
3.84157,446370
3.84970,425926
3.85782,429714
3.86593,415825
3.87407,406099
3.88218,401338
3.89032,392376
3.89843,391318
3.90655,390894
3.91468,369695
3.92280,372079
3.93093,367460
3.93905,365374
3.94717,369351
3.95530,357556
3.96342,349340
3.97155,347570
3.97967,338134
3.98778,338198
3.99592,333334
4.00403,338877
4.01215,338391
4.02028,337539
4.02840,333201
4.03653,329345
4.04465,318504
4.05277,323808
4.06090,308366
4.06902,305256
4.07715,314307
4.08527,310197
4.09338,301444
4.10152,297865
4.10963,292511
4.11777,287966
4.12588,290979
4.13400,303427
4.14213,385733
4.15025,548724
4.15837,679015
4.16650,640187
4.17462,550838
4.18275,480770
4.19087,429666
4.19898,373449
4.20712,361013
4.21523,341793
4.22337,336024
4.23148,331203
4.23960,329411
4.24773,304644
4.25585,296717
4.26398,290486
4.27210,279637
4.28022,268930
4.28835,274557
4.29647,271894
4.30458,264626
4.31272,257700
4.32083,281331
4.32897,282843
4.33708,280299
4.34520,276658
4.35333,283296
4.36145,283588
4.36958,292453
4.37770,293219
4.38582,292165
4.39395,278455
4.40207,276782
4.41018,260969
4.41832,257046
4.42643,242135
4.43457,239813
4.44268,245673
4.45080,235264
4.45893,233030
4.46705,230287
4.47518,223884
4.48330,220176
4.49142,228787
4.49955,219741
4.50767,223665
4.51580,217107
4.52392,221015
4.53203,227087
4.54017,211144
4.54828,216842
4.55640,207405
4.56453,217545
4.57265,216991
4.58078,215848
4.58890,212110
4.59702,209044
4.60515,206635
4.61327,211544
4.62140,199527
4.62952,203394
4.63763,196138
4.64577,203257
4.65388,195706
4.66200,199132
4.67013,197071
4.67825,193981
4.68638,192723
4.69450,187412
4.70262,197623
4.71075,188501
4.71887,180624
4.72700,188749
4.73512,182917
4.74323,184468
4.75137,182984
4.75948,174632
4.76762,179574
4.77573,186840
4.78385,180022
4.79198,188894
4.80010,175289
4.80822,179388
4.81635,175644
4.82447,179699
4.83260,178661
4.84072,178960
4.84883,183990
4.85697,179213
4.86508,178787
4.87322,178202
4.88133,176414
4.88945,175764
4.89758,173396
4.90570,176176
4.91383,169345
4.92195,185219
4.93007,283864
4.93820,809976
4.94632,2699844
4.95443,6897167
4.96257,1.226431E+07
4.97068,1.528883E+07
4.97882,1.481227E+07
4.98693,1.184099E+07
4.99505,8576289
5.00318,6002374
5.01130,4320173
5.01943,3299439
5.02755,2676185
5.03567,2203183
5.04380,1880815
5.05192,1626844
5.06003,1445038
5.06817,1301140
5.07628,1185223
5.08442,1086217
5.09253,1014358
5.10065,932460
5.10878,879439
5.11690,830568
5.12503,789345
5.13315,753580
5.14127,718354
5.14940,692960
5.15752,660812
5.16565,652570
5.17377,619394
5.18188,610312
5.19002,600716
5.19813,584861
5.20625,564959
5.21438,544446
5.22250,544799
5.23063,534693
5.23875,542626
5.24687,531302
5.25500,518337
5.26312,503261
5.27125,488668
5.27937,463961
5.28748,454206
5.29562,437764
5.30373,430548
5.31187,421018
5.31998,416861
5.32810,400121
5.33623,395306
5.34435,385417
5.35247,385496
5.36060,390918
5.36872,375872
5.37685,371913
5.38497,363085
5.39308,354758
5.40122,352278
5.40933,349015
5.41747,336148
5.42558,342012
5.43370,325805
5.44183,322742
5.44995,314715
5.45807,325691
5.46620,320897
5.47432,310660
5.48245,298789
5.49057,301072
5.49868,305475
5.50682,302608
5.51493,281330
5.52307,284263
5.53118,289652
5.53930,279188
5.54743,286373
5.55555,285217
5.56368,270693
5.57180,272917
5.57992,277376
5.58805,274296
5.59617,270884
5.60428,273681
5.61242,264960
5.62053,274208
5.62867,298173
5.63678,326389
5.64490,309273
5.65303,291639
5.66115,284682
5.66928,290984
5.67740,299984
5.68552,333908
5.69365,358944
5.70177,361208
5.70988,327471
5.71802,294074
5.72613,269323
5.73427,255913
5.74238,244069
5.75050,234915
5.75863,228970
5.76675,241162
5.77488,242169
5.78300,227765
5.79112,220137
5.79925,229616
5.80737,223012
5.81550,219691
5.82362,216771
5.83173,223226
5.83987,211833
5.84798,209396
5.85610,209682
5.86423,208526
5.87235,207726
5.88048,204914
5.88860,199587
5.89672,201631
5.90485,196135
5.91297,188712
5.92110,157530
5.92922,138508
5.93733,140319
5.94547,139857
5.95358,136853
5.96172,140482
5.96983,159579
5.97795,179730
5.98608,193958
5.99420,205455
6.00232,189238
6.01045,171398
6.01857,154244
6.02670,152599
6.03482,155549
6.04293,142933
6.05107,140724
6.05918,137322
6.06732,140416
6.07543,141024
6.08355,131607
6.09168,131090
6.09980,134561
6.10792,126439
6.11605,129644
6.12417,128013
6.13230,128616
6.14042,130590
6.14853,127544
6.15667,126449
6.16478,123110
6.17292,124073
6.18103,125464
6.18915,122610
6.19728,126221
6.20540,120651
6.21353,120444
6.22165,112421
6.22977,115045
6.23790,112224
6.24602,111945
6.25413,115101
6.26227,117277
6.27038,115329
6.27852,117276
6.28663,112367
6.29475,112800
6.30288,107471
6.31100,108599
6.31913,108330
6.32725,108284
6.33537,112877
6.34350,107117
6.35162,111093
6.35975,104330
6.36787,107313
6.37598,108156
6.38412,106178
6.39223,103119
6.40035,101940
6.40848,105343
6.41660,98766
6.42473,104255
6.43285,104308
6.44097,106798
6.44910,114951
6.45722,112891
6.46535,110864
6.47347,114153
6.48158,106537
6.48972,110970
6.49783,113241
6.50595,104289
6.51408,100963
6.52220,97047
6.53033,97009
6.53845,96791
6.54657,98881
6.55470,100965
6.56282,94831
6.57095,98163
6.57907,106320
6.58718,110227
6.59532,102637
6.60343,104507
6.61157,103980
6.61968,100113
6.62780,103691
6.63593,96835
6.64405,101105
6.65217,93941
6.66030,104952
6.66842,101404
6.67655,100181
6.68467,103169
6.69278,97853
6.70092,99174
6.70903,98595
6.71717,92016
6.72528,94786
6.73340,92211
6.74153,94399
6.74965,97089
6.75777,88792
6.76590,88995
6.77402,88853
6.78215,88527
6.79027,91335
6.79838,90082
6.80652,86725
6.81463,89184
6.82277,87327
6.83088,87718
6.83900,85122
6.84713,87729
6.85525,85568
6.86338,78844
6.87150,73902
6.87962,76008
6.88775,72591
6.89587,68234
6.90398,62439
6.91212,62479
6.92023,55268
6.92837,55531
6.93648,55939
6.94460,51196
6.95273,49897
6.96085,50270
6.96898,45771
6.97710,49716
6.98522,49153
6.99335,47102
7.00147,44038
7.00960,46620
7.01772,50763
7.02583,46153
7.03397,43851
7.04208,46707
7.05020,49222
7.05833,46318
7.06645,46966
7.07458,43494
7.08270,49153
7.09082,48076
7.09895,41794
7.10707,43617
7.11520,40557
7.12332,44837
7.13143,46074
7.13957,43250
7.14768,44933
7.15580,43975
7.16393,45259
7.17205,47324
7.18018,48844
7.18830,48254
7.19642,49729
7.20455,47481
7.21267,47199
7.22080,44486
7.22892,46813
7.23703,40395
7.24517,43936
7.25328,44001
7.26142,47295
7.26953,39085
7.27765,45703
7.28578,45202
7.29390,42490
7.30202,46137
7.31015,40242
7.31827,40852
7.32640,42256
7.33452,44494
7.34263,41314
7.35077,41535
7.35888,41532
7.36702,40895
7.37513,44160
7.38325,41344
7.39138,42410
7.39950,47584
7.40763,47364
7.41575,51932
7.42387,59481
7.43200,66818
7.44012,66818
7.44823,65346
7.45637,60083
7.46448,56234
7.47262,49661
7.48073,43208
7.48885,41807
7.49698,42154
7.50510,43581
7.51323,44022
7.52135,44384
7.52947,45092
7.53760,50865
7.54572,41707
7.55383,42087
7.56197,40273
7.57008,43715
7.57822,41995
7.58633,45188
7.59445,40138
7.60258,44019
7.61070,43557
7.61883,41947
7.62695,44269
7.63507,45183
7.64320,44053
7.65132,42929
7.65945,41229
7.66757,47307
7.67568,44782
7.68382,44653
7.69193,45118
7.70005,43657
7.70818,44590
7.71630,46384
7.72443,43724
7.73255,45684
7.74067,44610
7.74880,50987
7.75692,46716
7.76505,50244
7.77317,45999
7.78128,47046
7.78942,48995
7.79753,48202
7.80567,49033
7.81378,47886
7.82190,46643
7.83003,47122
7.83815,43093
7.84627,48981
7.85440,46805
7.86252,49316
7.87065,45677
7.87877,49099
7.88688,45371
7.89502,46373
7.90313,44429
7.91127,41501
7.91938,40601
7.92750,41766
7.93563,45663
7.94375,45726
7.95187,46686
7.96000,53030
7.96812,56191
7.97625,59742
7.98437,55112
7.99248,57966
8.00062,56829
8.00873,50759
8.01687,47748
8.02498,45791
8.03310,42353
8.04123,43974
8.04935,45055
8.05748,43789
8.06560,49359
8.07372,48189
8.08185,46768
8.08997,51284
8.09808,53295
8.10622,53171
8.11433,49382
8.12247,52198
8.13058,51206
8.13870,45754
8.14683,48867
8.15495,58719
8.16308,58317
8.17120,57094
8.17932,61564
8.18745,59038
8.19557,55850
8.20368,52510
8.21182,52571
8.21993,49974
8.22807,49028
8.23618,46597
8.24430,45899
8.25243,47017
8.26055,46797
8.26868,54769
8.27680,49037
8.28492,47887
8.29305,51250
8.30117,48986
8.30930,52568
8.31742,49932
8.32553,55826
8.33367,61731
8.34178,68934
8.34990,73886
8.35803,78514
8.36615,67980
8.37428,64704
8.38240,54438
8.39052,54085
8.39865,49786
8.40677,48090
8.41490,48499
8.42302,46583
8.43113,50275
8.43927,50871
8.44738,48860
8.45552,52061
8.46363,51119
8.47175,45198
8.47988,48223
8.48800,50257
8.49612,46309
8.50425,51791
8.51237,56434
8.52050,64105
8.52862,70513
8.53673,69788
8.54487,65317
8.55298,63408
8.56112,52745
8.56923,55641
8.57735,53883
8.58548,49290
8.59360,49484
8.60172,48646
8.60985,52827
8.61797,50535
8.62610,51283
8.63422,49575
8.64233,50266
8.65047,48391
8.65858,49165
8.66672,49274
8.67483,46196
8.68295,50704
8.69108,49289
8.69920,46801
8.70733,45307
8.71545,47904
8.72357,48888
8.73170,47585
8.73982,49092
8.74793,51992
8.75607,62156
8.76418,109773
8.77232,259504
8.78043,614928
8.78855,1321941
8.79668,2236104
8.80480,2823446
8.81293,2695620
8.82105,2091223
8.82917,1509689
8.83730,1169049
8.84542,937688
8.85355,761795
8.86167,636718
8.86978,540696
8.87792,469486
8.88603,416232
8.89415,383473
8.90228,345595
8.91040,319244
8.91853,309706
8.92665,283187
8.93477,276268
8.94290,252821
8.95102,249890
8.95915,226605
8.96727,224825
8.97538,221031
8.98352,212265
8.99163,210246
8.99975,203548
9.00788,195455
9.01600,184368
9.02413,180949
9.03225,181660
9.04037,170194
9.04850,167378
9.05662,159402
9.06475,157422
9.07287,156391
9.08098,151641
9.08912,147047
9.09723,145044
9.10537,141319
9.11348,143580
9.12160,138080
9.12973,136856
9.13785,141405
9.14597,142904
9.15410,142144
9.16222,145856
9.17035,150869
9.17847,150126
9.18658,149226
9.19472,148568
9.20283,142219
9.21097,135709
9.21908,133385
9.22720,118807
9.23533,124776
9.24345,120734
9.25157,115561
9.25970,122205
9.26782,119436
9.27595,113877
9.28407,109680
9.29218,109099
9.30032,105584
9.30843,105136
9.31657,106619
9.32468,100713
9.33280,97574
9.34093,99055
9.34905,94848
9.35718,95935
9.36530,93708
9.37342,93024
9.38155,87424
9.38967,93198
9.39778,92587
9.40592,87217
9.41403,88453
9.42217,90952
9.43028,88066
9.43840,83159
9.44653,88725
9.45465,86036
9.46278,84980
9.47090,83119
9.47902,80657
9.48715,85020
9.49527,86317
9.50340,82520
9.51152,85072
9.51963,93892
9.52777,97597
9.53588,101694
9.54400,108521
9.55213,112557
9.56025,96900
9.56838,87047
9.57650,83057
9.58462,77305
9.59275,80035
9.60087,80607
9.60900,76397
9.61712,74451
9.62523,69715
9.63337,69923
9.64148,68758
9.64962,65722
9.65773,65312
9.66585,63441
9.67398,65425
9.68210,63014
9.69022,59725
9.69835,56202
9.70647,57500
9.71460,60783
9.72272,59881
9.73083,59355
9.73897,55120
9.74708,59110
9.75522,59154
9.76333,52233
9.77145,54637
9.77958,61300
9.78770,55643
9.79582,55055
9.80395,51931
9.81207,52508
9.82020,57279
9.82832,58013
9.83643,66355
9.84457,74171
9.85268,77458
9.86082,71491
9.86893,73604
9.87705,64480
9.88518,61893
9.89330,56487
9.90143,54489
9.90955,56601
9.91767,54549
9.92580,57449
9.93392,58291
9.94203,54600
9.95017,60894
9.95828,57519
9.96642,64524
9.97453,66650
9.98265,71803
9.99078,73593
9.99890,86586
10.00703,107388
10.01515,126648
10.02327,146004
10.03140,152014
10.03952,148811
10.04763,132578
10.05577,117514
10.06388,109861
10.07202,98396
10.08013,90263
10.08825,84393
10.09638,82498
10.10450,77273
10.11263,75979
10.12075,69749
10.12887,70848
10.13700,64731
10.14512,65753
10.15325,64650
10.16137,60785
10.16948,65416
10.17762,66680
10.18573,60860
10.19385,65753
10.20198,58332
10.21010,61413
10.21823,67900
10.22635,71234
10.23447,87731
10.24260,86583
10.25072,88669
10.25885,85051
10.26697,76445
10.27508,73594
10.28322,79803
10.29133,74148
10.29947,80221
10.30758,88673
10.31570,100160
10.32383,112431
10.33195,114436
10.34007,98599
10.34820,102311
10.35632,89859
10.36445,88712
10.37257,78265
10.38068,85002
10.38882,81698
10.39693,74864
10.40507,74847
10.41318,75526
10.42130,76538
10.42943,72472
10.43755,71022
10.44567,71680
10.45380,71121
10.46192,72708
10.47005,70847
10.47817,69868
10.48628,64548
10.49442,71082
10.50253,66500
10.51067,69255
10.51878,66046
10.52690,73667
10.53503,67517
10.54315,70412
10.55128,66512
10.55940,72208
10.56752,69380
10.57565,69982
10.58377,66281
10.59188,68184
10.60002,62352
10.60813,71593
10.61627,66862
10.62438,62124
10.63250,59698
10.64063,60110
10.64875,64966
10.65688,60843
10.66500,65432
10.67312,64467
10.68125,66130
10.68937,65918
10.69750,63326
10.70562,69841
10.71373,65547
10.72187,69469
10.72998,62000
10.73810,62597
10.74623,66452
10.75435,73176
10.76248,72402
10.77060,75991
10.77872,76728
10.78685,73421
10.79497,68642
10.80310,64850
10.81122,62512
10.81933,62310
10.82747,64838
10.83558,61221
10.84370,62120
10.85183,61187
10.85995,60453
10.86808,65544
10.87620,60970
10.88432,65099
10.89245,60410
10.90057,60259
10.90870,62526
10.91682,57448
10.92493,59197
10.93307,56201
10.94118,64368
10.94932,62727
10.95743,66802
10.96555,70270
10.97368,69823
10.98180,68244
10.98992,63264
10.99805,66839
11.00617,66391
11.01430,60468
11.02242,64296
11.03053,61022
11.03867,58353
11.04678,54528
11.05492,63411
11.06303,56875
11.07115,59918
11.07928,63536
11.08740,62646
11.09552,62198
11.10365,62103
11.11177,63839
11.11990,58849
11.12802,58846
11.13613,57568
11.14427,55996
11.15238,62042
11.16052,67231
11.16863,75259
11.17675,82367
11.18488,113436
11.19300,137882
11.20113,149817
11.20925,155928
11.21737,145642
11.22550,127750
11.23362,106430
11.24173,93350
11.24987,81596
11.25798,76143
11.26612,71644
11.27423,65751
11.28235,65389
11.29048,68250
11.29860,63591
11.30673,61461
11.31485,65634
11.32297,66457
11.33110,65646
11.33922,67615
11.34735,61705
11.35547,61853
11.36358,63521
11.37172,63340
11.37983,56350
11.38795,60890
11.39608,61372
11.40420,62002
11.41233,60774
11.42045,59539
11.42857,57530
11.43670,63123
11.44482,59401
11.45295,60212
11.46107,60206
11.46918,54909
11.47732,56796
11.48543,60696
11.49355,60729
11.50168,57285
11.50980,55035
11.51793,58938
11.52605,59030
11.53417,58786
11.54230,56974
11.55042,55935
11.55855,56995
11.56667,59831
11.57478,60976
11.58292,57455
11.59103,57645
11.59917,59851
11.60728,59951
11.61540,62105
11.62353,60181
11.63165,60415
11.63977,61493
11.64790,56939
11.65602,56503
11.66415,53575
11.67227,55666
11.68038,58641
11.68852,61742
11.69663,64670
11.70477,68260
11.71288,75629
11.72100,68978
11.72913,71204
11.73725,74803
11.74538,73051
11.75350,72988
11.76162,70464
11.76975,79518
11.77787,77668
11.78598,71379
11.79412,77844
11.80223,73995
11.81037,70300
11.81848,63726
11.82660,69568
11.83473,68379
11.84285,69476
11.85098,66530
11.85910,76547
11.86722,68925
11.87535,65521
11.88347,67376
11.89158,62887
11.89972,63547
11.90783,72501
11.91597,63583
11.92408,64530
11.93220,64551
11.94033,66352
11.94845,71655
11.95658,65915
11.96470,66391
11.97282,67111
11.98095,62421
11.98907,62003
11.99720,57054
12.00532,63479
12.01343,64891
12.02157,67221
12.02968,62902
12.03780,64097
12.04593,64907
12.05405,63654
12.06218,66051
12.07030,65197
12.07842,65102
12.08655,63095
12.09467,63821
12.10280,63525
12.11092,68788
12.11903,66298
12.12717,68142
12.13528,68988
12.14340,69773
12.15153,64292
12.15965,70875
12.16778,68055
12.17590,68538
12.18402,65686
12.19215,64688
12.20027,60830
12.20840,64888
12.21652,64504
12.22463,63143
12.23277,65383
12.24088,62559
12.24902,64384
12.25713,68538
12.26525,66428
12.27338,63592
12.28150,62981
12.28962,67704
12.29775,64147
12.30587,65958
12.31400,67776
12.32212,61988
12.33023,63631
12.33837,66789
12.34648,63634
12.35462,61870
12.36273,66585
12.37085,64607
12.37898,59679
12.38710,60863
12.39523,59267
12.40335,64193
12.41147,66182
12.41960,68726
12.42772,69085
12.43583,69668
12.44397,77675
12.45208,78876
12.46022,77698
12.46833,75583
12.47645,75804
12.48458,71952
12.49270,73005
12.50083,69662
12.50895,65570
12.51707,64914
12.52520,63434
12.53332,63390
12.54143,56992
12.54957,64616
12.55768,64172
12.56582,62937
12.57393,59986
12.58205,60603
12.59018,61338
12.59830,54051
12.60643,58304
12.61455,57724
12.62267,60032
12.63080,58302
12.63892,59041
12.64705,61723
12.65517,54358
12.66328,64228
12.67142,60292
12.67953,62104
12.68765,58646
12.69578,60429
12.70390,60089
12.71203,63560
12.72015,74164
12.72827,78005
12.73640,80479
12.74452,84541
12.75265,90164
12.76077,87543
12.76888,76957
12.77702,76249
12.78513,75790
12.79327,67030
12.80138,70682
12.80950,68537
12.81763,69952
12.82575,64508
12.83387,63628
12.84200,66184
12.85012,65840
12.85825,60334
12.86637,67620
12.87448,66495
12.88262,63486
12.89073,61093
12.89887,63297
12.90698,63197
12.91510,65887
12.92323,58120
12.93135,67348
12.93947,65327
12.94760,61865
12.95572,64898
12.96385,69336
12.97197,61687
12.98008,65838
12.98822,63556
12.99633,70532
13.00447,65995
13.01258,69412
13.02070,65781
13.02883,60874
13.03695,63997
13.04508,62620
13.05320,68023
13.06132,67502
13.06945,67014
13.07757,61582
13.08568,57643
13.09382,63092
13.10193,60088
13.11007,63396
13.11818,60453
13.12630,61881
13.13443,58149
13.14255,63089
13.15068,65909
13.15880,67404
13.16692,66245
13.17505,66827
13.18317,72488
13.19130,76846
13.19942,81808
13.20753,91666
13.21567,89920
13.22378,91941
13.23190,81869
13.24003,80339
13.24815,76698
13.25628,72177
13.26440,68207
13.27252,68892
13.28065,65551
13.28877,64062
13.29690,67831
13.30502,65072
13.31313,70207
13.32127,66207
13.32938,66921
13.33750,69424
13.34563,71893
13.35375,68434
13.36188,66716
13.37000,64359
13.37812,59003
13.38625,67195
13.39437,66205
13.40250,68723
13.41062,71194
13.41873,72214
13.42687,70511
13.43498,86887
13.44312,448506
13.45123,874771
13.45935,631040
13.46748,311351
13.47560,238513
13.48372,222787
13.49185,191338
13.49997,220206
13.50810,265458
13.51622,208110
13.52433,187057
13.53247,175830
13.54058,168097
13.54872,165437
13.55683,171972
13.56495,158289
13.57308,154513
13.58120,151956
13.58932,142210
13.59745,138021
13.60557,133837
13.61370,135355
13.62182,128705
13.62993,128982
13.63807,122759
13.64618,126739
13.65432,233834
13.66243,2584524
13.67055,9427512
13.67868,7876405
13.68680,3785094
13.69493,2289640
13.70305,1574009
13.71117,1171781
13.71930,909641
13.72742,743036
13.73553,604866
13.74367,542453
13.75178,463967
13.75992,422527
13.76803,383770
13.77615,357315
13.78428,332088
13.79240,320606
13.80053,308945
13.80865,307901
13.81677,298672
13.82490,274666
13.83302,268982
13.84115,271997
13.84927,270834
13.85738,743377
13.86552,2637647
13.87363,3601457
13.88175,2252831
13.88988,1434875
13.89800,1087383
13.90613,895505
13.91425,755391
13.92237,647886
13.93050,577105
13.93862,525134
13.94675,455903
13.95487,433380
13.96298,396293
13.97112,376386
13.97923,346452
13.98735,335118
13.99548,323189
14.00360,314024
14.01173,300821
14.01985,285770
14.02797,287489
14.03610,281587
14.04422,269367
14.05235,281724
14.06047,261334
14.06858,277376
14.07672,274332
14.08483,279808
14.09297,270367
14.10108,262890
14.10920,265284
14.11733,251124
14.12545,241907
14.13357,241744
14.14170,243262
14.14982,241034
14.15795,244421
14.16607,242556
14.17418,274583
14.18232,298837
14.19043,363261
14.19857,539065
14.20668,841121
14.21480,1169923
14.22293,1326451
14.23105,1269664
14.23918,1033643
14.24730,816663
14.25542,663246
14.26355,549067
14.27167,464954
14.27978,385004
14.28792,329280
14.29603,297224
14.30417,330010
14.31228,318412
14.32040,319572
14.32853,305384
14.33665,287155
14.34478,274370
14.35290,272222
14.36102,259922
14.36915,230878
14.37727,225281
14.38538,215437
14.39352,199576
14.40163,196125
14.40977,202930
14.41788,200191
14.42600,203297
14.43413,203269
14.44225,197006
14.45038,196970
14.45850,196532
14.46662,188112
14.47475,195596
14.48287,182889
14.49100,186693
14.49912,228208
14.50723,400031
14.51537,629397
14.52348,667826
14.53160,521216
14.53973,426730
14.54785,354153
14.55598,327214
14.56410,290171
14.57222,271075
14.58035,249222
14.58847,247159
14.59660,236963
14.60472,232261
14.61283,211522
14.62097,213476
14.62908,216600
14.63720,207007
14.64533,203320
14.65345,195470
14.66158,194964
14.66970,204456
14.67782,195542
14.68595,191139
14.69407,184755
14.70220,189653
14.71032,189870
14.71843,179281
14.72657,182253
14.73468,184322
14.74282,174372
14.75093,177920
14.75905,179848
14.76718,171988
14.77530,170609
14.78342,173996
14.79155,168061
14.79967,174804
14.80780,168057
14.81592,168716
14.82403,174596
14.83217,167726
14.84028,170286
14.84842,174616
14.85653,170041
14.86465,167766
14.87278,169652
14.88090,174866
14.88903,171684
14.89715,173538
14.90527,168115
14.91340,166888
14.92152,174332
14.92963,166943
14.93777,169414
14.94588,167229
14.95402,165896
14.96213,162714
14.97025,164710
14.97838,157955
14.98650,162784
14.99463,155421
15.00275,166123
15.01087,164143
15.01900,161147
15.02712,164598
15.03525,171381
15.04337,173082
15.05148,167892
15.05962,175091
15.06773,176633
15.07585,168938
15.08398,172786
15.09210,169193
15.10023,167395
15.10835,161546
15.11647,171004
15.12460,166939
15.13272,165184
15.14085,171513
15.14897,168080
15.15708,160018
15.16522,166016
15.17333,170766
15.18145,166676
15.18958,162055
15.19770,163416
15.20583,166287
15.21395,162489
15.22207,157281
15.23020,167380
15.23832,173379
15.24645,172248
15.25457,161303
15.26268,160459
15.27082,165969
15.27893,159530
15.28707,164742
15.29518,168163
15.30330,164631
15.31143,162090
15.31955,159887
15.32767,154869
15.33580,158342
15.34392,165174
15.35205,160027
15.36017,161225
15.36828,147900
15.37642,155941
15.38453,154767
15.39267,148148
15.40078,154004
15.40890,149222
15.41703,149618
15.42515,151501
15.43327,148250
15.44140,158755
15.44952,161518
15.45765,157439
15.46577,157456
15.47388,159140
15.48202,168724
15.49013,164901
15.49827,165530
15.50638,175638
15.51450,191003
15.52263,198398
15.53075,191467
15.53888,183466
15.54700,172345
15.55512,169631
15.56325,167639
15.57137,169053
15.57948,170965
15.58762,166132
15.59573,170167
15.60387,165051
15.61198,166431
15.62010,166490
15.62823,165417
15.63635,165444
15.64448,156341
15.65260,158582
15.66072,155979
15.66885,158539
15.67697,156243
15.68510,155588
15.69322,159397
15.70133,159539
15.70947,159965
15.71758,152030
15.72570,157981
15.73383,157194
15.74195,157190
15.75008,154079
15.75820,154269
15.76632,153427
15.77445,153676
15.78257,151752
15.79070,156689
15.79882,155986
15.80693,147411
15.81507,159171
15.82318,158494
15.83130,158193
15.83943,152288
15.84755,154556
15.85568,156715
15.86380,161057
15.87192,157589
15.88005,159295
15.88817,156813
15.89630,147890
15.90442,161049
15.91253,155095
15.92067,153542
15.92878,147285
15.93692,152335
15.94503,153382
15.95315,151596
15.96128,153114
15.96940,153832
15.97752,158655
15.98565,155130
15.99377,164196
16.00190,166674
16.01002,190656
16.01813,217738
16.02627,237304
16.03438,258879
16.04252,262813
16.05063,256266
16.05875,238162
16.06688,211566
16.07500,201505
16.08313,200680
16.09125,184132
16.09937,191662
16.10750,180315
16.11562,175319
16.12373,177990
16.13187,179145
16.13998,173088
16.14812,168996
16.15623,167482
16.16435,164588
16.17248,163060
16.18060,165392
16.18873,166451
16.19685,154203
16.20497,154710
16.21310,164971
16.22122,153415
16.22933,156041
16.23747,156046
16.24558,157627
16.25372,158378
16.26183,153414
16.26995,150252
16.27808,150741
16.28620,159006
16.29433,157606
16.30245,148357
16.31057,154509
16.31870,155483
16.32682,149282
16.33495,147801
16.34307,152231
16.35118,147695
16.35932,147747
16.36743,146312
16.37555,147419
16.38368,148481
16.39180,152950
16.39993,151504
16.40805,151084
16.41617,145949
16.42430,148666
16.43242,146664
16.44055,147570
16.44867,146399
16.45678,145815
16.46492,155317
16.47303,162126
16.48115,186820
16.48928,198666
16.49740,195181
16.50553,185568
16.51365,181504
16.52177,169250
16.52990,165520
16.53802,158050
16.54615,160755
16.55427,157790
16.56238,149409
16.57052,151719
16.57863,148367
16.58677,147496
16.59488,149521
16.60300,147052
16.61113,152077
16.61925,141517
16.62737,142603
16.63550,142746
16.64362,143156
16.65175,138910
16.65987,138821
16.66798,138658
16.67612,142998
16.68423,138449
16.69237,133227
16.70048,140288
16.70860,138498
16.71673,138815
16.72485,134445
16.73298,127887
16.74110,134787
16.74922,138610
16.75735,134350
16.76547,131280
16.77358,141117
16.78172,139823
16.78983,140509
16.79797,142746
16.80608,131501
16.81420,131523
16.82233,134643
16.83045,130112
16.83858,135814
16.84670,124295
16.85482,130403
16.86295,126836
16.87107,134911
16.87918,142145
16.88732,132524
16.89543,135294
16.90357,135598
16.91168,133042
16.91980,133652
16.92793,122891
16.93605,134808
16.94418,129190
16.95230,129389
16.96042,129459
16.96855,125346
16.97667,133100
16.98480,133793
16.99292,129715
17.00103,125346
17.00917,126236
17.01728,126566
17.02540,130214
17.03353,124883
17.04165,123954
17.04978,133085
17.05790,125350
17.06602,122886
17.07415,125235
17.08227,133829
17.09040,124615
17.09852,126439
17.10663,125784
17.11477,124024
17.12288,132751
17.13102,124038
17.13913,128971
17.14725,125040
17.15538,123013
17.16350,122989
17.17162,128613
17.17975,122613
17.18787,124205
17.19600,118195
17.20412,120505
17.21223,117027
17.22037,124853
17.22848,122147
17.23662,116123
17.24473,120617
17.25285,122251
17.26098,117085
17.26910,120970
17.27722,125071
17.28535,120680
17.29347,120887
17.30160,113908
17.30972,114713
17.31783,114329
17.32597,118624
17.33408,121974
17.34222,119098
17.35033,121434
17.35845,128453
17.36658,142704
17.37470,142252
17.38283,150735
17.39095,150706
17.39907,143075
17.40720,138590
17.41532,137234
17.42343,133816
17.43157,127732
17.43968,127587
17.44782,128924
17.45593,131309
17.46405,131551
17.47218,128125
17.48030,121690
17.48843,127999
17.49655,127064
17.50467,128549
17.51280,132102
17.52092,132245
17.52903,135764
17.53717,141730
17.54528,130839
17.55342,139501
17.56153,128186
17.56965,129764
17.57778,128088
17.58590,126749
17.59403,126219
17.60215,127507
17.61027,121147
17.61840,120799
17.62652,121770
17.63465,126964
17.64277,119089
17.65088,126015
17.65902,128253
17.66713,125065
17.67525,133748
17.68338,140133
17.69150,133754
17.69963,136375
17.70775,133184
17.71587,131044
17.72400,139348
17.73212,138682
17.74025,136370
17.74837,132995
17.75648,132254
17.76462,133005
17.77273,127852
17.78087,121628
17.78898,126364
17.79710,127161
17.80523,127267
17.81335,129997
17.82147,126386
17.82960,128010
17.83772,134586
17.84585,132718
17.85397,130510
17.86208,132422
17.87022,122332
17.87833,129815
17.88647,130595
17.89458,121523
17.90270,122218
17.91083,126455
17.91895,122605
17.92707,119604
17.93520,124850
17.94332,117066
17.95145,119118
17.95957,121389
17.96768,119417
17.97582,117238
17.98393,117427
17.99207,113293
18.00018,117031
18.00830,124456
18.01643,118443
18.02455,117282
18.03268,115244
18.04080,121979
18.04892,121638
18.05705,115069
18.06517,119765
18.07328,120136
18.08142,128541
18.08953,126803
18.09767,131458
18.10578,136138
18.11390,125726
18.12203,128817
18.13015,128725
18.13828,122598
18.14640,119901
18.15452,126108
18.16265,123271
18.17077,130027
18.17890,122373
18.18702,124136
18.19513,121690
18.20327,119499
18.21138,115186
18.21950,118539
18.22763,116333
18.23575,118775
18.24388,131338
18.25200,135249
18.26012,154101
18.26825,161358
18.27637,162578
18.28450,151602
18.29262,149572
18.30073,140755
18.30887,127092
18.31698,125114
18.32510,129752
18.33323,123736
18.34135,124705
18.34948,117153
18.35760,124147
18.36572,118288
18.37385,120077
18.38197,120090
18.39010,121209
18.39822,118948
18.40633,112515
18.41447,111246
18.42258,115613
18.43072,111038
18.43883,117107
18.44695,118020
18.45508,109087
18.46320,116876
18.47132,109709
18.47945,114363
18.48757,112269
18.49570,113953
18.50382,111961
18.51193,114624
18.52007,114158
18.52818,114289
18.53632,106732
18.54443,107454
18.55255,115510
18.56068,120192
18.56880,119405
18.57693,121679
18.58505,119061
18.59317,114662
18.60130,113960
18.60942,120715
18.61753,116356
18.62567,117896
18.63378,114149
18.64192,113432
18.65003,112750
18.65815,113319
18.66628,116090
18.67440,118127
18.68253,116532
18.69065,116158
18.69877,115215
18.70690,110145
18.71502,119964
18.72313,108334
18.73127,113334
18.73938,109560
18.74752,112639
18.75563,114872
18.76375,115605
18.77188,109505
18.78000,109000
18.78813,103291
18.79625,112105
18.80437,113774
18.81250,111679
18.82062,107136
18.82875,113014
18.83687,107648
18.84498,113144
18.85312,106850
18.86123,107553
18.86935,106278
18.87748,106551
18.88560,107045
18.89373,108208
18.90185,107714
18.90997,103440
18.91810,108300
18.92622,111665
18.93435,112311
18.94247,107729
18.95058,105058
18.95872,104421
18.96683,108102
18.97495,111131
18.98308,110178
18.99120,110052
18.99933,112509
19.00745,122511
19.01557,132017
19.02370,121838
19.03182,121507
19.03995,119724
19.04807,128017
19.05618,126259
19.06432,129719
19.07243,129845
19.08057,133242
19.08868,145986
19.09680,151827
19.10493,167773
19.11305,177303
19.12117,178246
19.12930,172067
19.13742,164932
19.14555,162034
19.15367,160853
19.16178,145384
19.16992,148965
19.17803,146667
19.18617,151210
19.19428,143492
19.20240,150371
19.21053,144928
19.21865,140642
19.22678,147926
19.23490,139211
19.24302,141744
19.25115,140773
19.25927,146615
19.26738,151265
19.27552,164276
19.28363,172988
19.29177,189714
19.29988,213876
19.30800,217093
19.31613,205597
19.32425,202630
19.33238,184214
19.34050,173120
19.34862,166512
19.35675,162959
19.36487,166601
19.37298,156659
19.38112,149389
19.38923,154318
19.39737,150326
19.40548,148287
19.41360,147088
19.42173,142736
19.42985,144678
19.43798,143953
19.44610,150385
19.45422,137556
19.46235,135462
19.47047,139935
19.47860,148260
19.48672,156172
19.49483,176341
19.50297,232553
19.51108,284273
19.51920,361840
19.52733,414545
19.53545,411741
19.54358,366990
19.55170,295880
19.55982,246149
19.56795,204754
19.57607,183434
19.58420,167083
19.59232,161427
19.60043,165230
19.60857,160360
19.61668,159265
19.62482,165466
19.63293,196863
19.64105,265049
19.64918,384459
19.65730,559363
19.66542,763407
19.67355,879268
19.68167,942565
19.68980,830068
19.69792,648084
19.70603,482713
19.71417,356854
19.72228,286680
19.73042,255149
19.73853,220721
19.74665,210675
19.75478,205577
19.76290,188744
19.77102,185985
19.77915,167762
19.78727,154415
19.79540,162683
19.80352,156915
19.81163,157104
19.81977,151671
19.82788,151395
19.83602,154783
19.84413,151004
19.85225,151117
19.86038,151590
19.86850,160636
19.87663,182903
19.88475,226174
19.89287,308331
19.90100,410386
19.90912,494104
19.91723,591055
19.92537,627557
19.93348,651811
19.94162,874174
19.94973,1280163
19.95785,1116677
19.96598,798757
19.97410,683920
19.98223,664809
19.99035,662989
19.99847,605270
20.00660,572865
20.01472,564665
20.02283,537700
20.03097,492595
20.03908,459730
20.04722,477697
20.05533,2285092
20.06345,7442646
20.07158,4882935
20.07970,2787201
20.08783,1947488
20.09595,1467782
20.10407,1191761
20.11220,1013670
20.12032,1356580
20.12845,2822406
20.13657,2327074
20.14468,1630522
20.15282,1254410
20.16093,1065452
20.16905,925392
20.17718,820270
20.18530,766944
20.19343,709279
20.20155,655475
20.20967,584442
20.21780,554738
20.22592,516615
20.23405,503794
20.24217,492170
20.25028,510450
20.25842,541693
20.26653,635012
20.27467,739185
20.28278,837955
20.29090,855462
20.29903,791758
20.30715,741728
20.31527,841031
20.32340,710177
20.33152,580713
20.33965,574195
20.34777,563894
20.35588,514611
20.36402,466970
20.37213,445223
20.38027,420672
20.38838,403799
20.39650,406803
20.40463,383218
20.41275,387678
20.42088,399514
20.42900,411097
20.43712,437345
20.44525,450867
20.45337,443018
20.46148,439313
20.46962,421213
20.47773,390994
20.48587,377587
20.49398,355570
20.50210,343173
20.51023,318838
20.51835,310427
20.52648,314074
20.53460,310043
20.54272,304275
20.55085,298002
20.55897,302089
20.56708,305481
20.57522,319628
20.58333,302852
20.59147,283240
20.59958,286348
20.60770,280399
20.61583,276655
20.62395,279683
20.63208,270809
20.64020,279142
20.64832,272779
20.65645,278410
20.66457,264109
20.67270,272393
20.68082,273331
20.68893,298429
20.69707,321220
20.70518,332818
20.71330,343641
20.72143,336236
20.72955,324550
20.73768,306905
20.74580,295852
20.75392,299931
20.76205,297234
20.77017,288275
20.77830,277934
20.78642,274600
20.79453,266467
20.80267,262907
20.81078,253393
20.81890,252101
20.82703,252030
20.83515,249492
20.84328,245942
20.85140,246634
20.85952,249128
20.86765,242940
20.87577,235781
20.88390,236637
20.89202,234039
20.90013,240422
20.90827,235181
20.91638,234590
20.92452,222700
20.93263,224189
20.94075,229212
20.94888,247349
20.95700,264129
20.96512,258540
20.97325,242536
20.98137,243314
20.98950,235874
20.99762,232835
21.00573,227382
21.01387,231699
21.02198,236249
21.03012,245568
21.03823,246027
21.04635,254730
21.05448,259794
21.06260,252349
21.07073,241560
21.07885,238020
21.08697,226873
21.09510,217602
21.10322,207221
21.11133,210670
21.11947,201206
21.12758,196375
21.13572,191714
21.14383,198290
21.15195,202810
21.16008,197282
21.16820,204227
21.17633,207808
21.18445,197981
21.19257,215093
21.20070,201278
21.20882,205639
21.21693,195325
21.22507,204258
21.23318,197459
21.24132,192450
21.24943,194994
21.25755,195381
21.26568,210059
21.27380,211600
21.28193,196683
21.29005,202340
21.29817,206450
21.30630,198911
21.31442,195090
21.32255,190824
21.33067,192451
21.33878,189206
21.34692,183672
21.35503,193623
21.36315,188801
21.37128,207551
21.37940,228555
21.38753,274799
21.39565,341792
21.40377,389362
21.41190,418711
21.42002,415329
21.42815,406737
21.43627,403355
21.44438,391103
21.45252,377051
21.46063,376752
21.46877,364246
21.47688,354565
21.48500,353630
21.49313,353529
21.50125,340402
21.50937,338127
21.51750,326791
21.52562,328157
21.53375,324049
21.54187,320471
21.54998,316915
21.55812,320169
21.56623,309034
21.57437,310829
21.58248,312622
21.59060,297549
21.59873,305110
21.60685,302029
21.61497,310312
21.62310,344289
21.63122,366805
21.63935,402630
21.64747,421535
21.65558,423296
21.66372,393315
21.67183,369467
21.67997,353817
21.68808,318508
21.69620,294785
21.70433,287081
21.71245,283859
21.72058,277850
21.72870,273498
21.73682,278562
21.74495,275038
21.75307,272563
21.76118,275624
21.76932,267609
21.77743,265619
21.78557,261990
21.79368,264791
21.80180,266439
21.80993,270701
21.81805,283571
21.82618,305108
21.83430,326811
21.84242,344077
21.85055,347541
21.85867,342582
21.86678,314229
21.87492,303454
21.88303,278937
21.89117,270270
21.89928,255425
21.90740,250679
21.91553,242707
21.92365,242684
21.93178,244769
21.93990,242694
21.94802,243856
21.95615,240050
21.96427,244525
21.97240,237856
21.98052,231457
21.98863,228309
21.99677,226646
22.00488,226745
22.01300,224085
22.02113,213558
22.02925,228167
22.03738,216923
22.04550,222415
22.05362,209216
22.06175,224956
22.06987,221893
22.07800,213379
22.08612,231257
22.09423,236870
22.10237,225662
22.11048,231319
22.11862,223217
22.12673,218697
22.13485,219747
22.14298,220068
22.15110,217824
22.15922,209496
22.16735,208687
22.17547,219969
22.18360,214780
22.19172,208192
22.19983,209588
22.20797,216581
22.21608,219066
22.22422,220988
22.23233,227201
22.24045,233951
22.24858,217785
22.25670,214116
22.26482,208530
22.27295,204313
22.28107,205568
22.28920,206380
22.29732,216294
22.30543,207405
22.31357,209214
22.32168,202435
22.32982,194128
22.33793,200049
22.34605,206479
22.35418,210930
22.36230,204906
22.37043,193239
22.37855,196941
22.38667,204620
22.39480,199639
22.40292,202234
22.41103,198377
22.41917,196565
22.42728,196326
22.43542,190019
22.44353,187706
22.45165,189596
22.45978,193328
22.46790,186105
22.47603,193033
22.48415,192007
22.49227,181938
22.50040,192091
22.50852,187825
22.51665,188484
22.52477,189347
22.53288,193973
22.54102,187590
22.54913,182389
22.55725,186911
22.56538,182100
22.57350,184943
22.58163,186625
22.58975,178033
22.59787,178116
22.60600,172547
22.61412,179374
22.62225,182032
22.63037,170909
22.63848,173878
22.64662,181602
22.65473,183362
22.66285,178892
22.67098,176614
22.67910,175063
22.68723,174831
22.69535,181368
22.70347,174403
22.71160,174017
22.71972,179427
22.72785,172900
22.73597,177598
22.74408,175591
22.75222,172014
22.76033,170538
22.76847,159287
22.77658,166292
22.78470,173907
22.79283,172844
22.80095,166686
22.80907,172288
22.81720,174981
22.82532,171872
22.83345,185277
22.84157,173903
22.84968,176337
22.85782,186680
22.86593,182722
22.87407,184351
22.88218,187574
22.89030,188057
22.89843,192187
22.90655,201401
22.91467,203314
22.92280,224540
22.93092,238293
22.93905,257372
22.94717,258113
22.95528,262161
22.96342,253980
22.97153,250657
22.97967,240771
22.98778,239876
22.99590,240574
23.00403,221763
23.01215,212765
23.02028,199657
23.02840,189860
23.03652,177515
23.04465,171128
23.05277,175873
23.06088,178091
23.06902,169368
23.07713,167810
23.08527,172056
23.09338,172623
23.10150,170985
23.10963,172799
23.11775,167685
23.12588,163056
23.13400,163099
23.14212,164349
23.15025,167530
23.15837,160248
23.16650,167480
23.17462,169504
23.18273,165342
23.19087,166064
23.19898,160368
23.20710,161717
23.21523,163238
23.22335,165210
23.23148,158733
23.23960,157976
23.24772,155462
23.25585,155092
23.26397,154069
23.27210,159436
23.28022,152121
23.28833,166183
23.29647,178600
23.30458,198681
23.31270,214740
23.32083,225257
23.32895,203687
23.33708,197567
23.34520,185817
23.35332,179285
23.36145,195583
23.36957,183076
23.37770,206180
23.38582,214439
23.39393,208058
23.40207,198276
23.41018,190088
23.41832,188651
23.42643,184372
23.43455,173535
23.44268,178349
23.45080,164334
23.45892,171644
23.46705,172199
23.47517,174028
23.48330,174970
23.49142,176891
23.49953,168633
23.50767,169027
23.51578,165042
23.52392,169756
23.53203,167339
23.54015,163346
23.54828,170986
23.55640,167615
23.56453,162500
23.57265,171509
23.58077,177885
23.58890,174373
23.59702,170822
23.60513,167160
23.61327,161264
23.62138,159893
23.62952,163998
23.63763,165854
23.64575,172041
23.65388,176518
23.66200,193440
23.67013,204622
23.67825,203871
23.68637,210813
23.69450,210374
23.70262,213410
23.71073,207410
23.71887,202893
23.72698,197810
23.73512,194068
23.74323,222179
23.75135,325721
23.75948,596184
23.76760,1149331
23.77573,2050036
23.78385,3096088
23.79197,4010609
23.80010,4308478
23.80822,3821817
23.81635,2908718
23.82447,2096133
23.83258,1475649
23.84072,1073911
23.84883,834819
23.85695,694448
23.86508,583164
23.87320,523521
23.88133,465626
23.88945,439237
23.89757,413146
23.90570,382847
23.91382,383479
23.92195,357626
23.93007,345178
23.93818,336929
23.94632,315661
23.95443,311772
23.96257,299665
23.97068,279713
23.97880,275456
23.98693,275115
23.99505,273643
24.00317,266385
24.01130,254014
24.01942,253994
24.02755,262829
24.03567,248978
24.04378,256458
24.05192,246111
24.06003,243524
24.06817,248581
24.07628,247680
24.08440,244582
24.09253,241813
24.10065,236621
24.10877,234670
24.11690,233438
24.12502,234740
24.13315,240473
24.14127,258415
24.14938,252610
24.15752,258286
24.16563,262139
24.17377,249712
24.18188,244319
24.19000,238399
24.19813,236905
24.20625,242433
24.21438,283479
24.22250,371253
24.23062,471705
24.23875,640864
24.24687,801737
24.25498,914671
24.26312,917175
24.27123,837411
24.27937,709161
24.28748,575102
24.29560,479644
24.30373,413598
24.31185,353825
24.31998,324924
24.32810,305424
24.33622,278951
24.34435,275849
24.35247,268347
24.36058,262139
24.36872,257541
24.37683,251823
24.38497,250556
24.39308,275604
24.40120,298894
24.40933,330995
24.41745,345187
24.42558,347749
24.43370,330968
24.44182,315212
24.44995,286094
24.45807,273690
24.46620,262520
24.47432,240657
24.48243,249631
24.49057,241570
24.49868,256401
24.50680,278020
24.51493,294015
24.52305,302959
24.53118,309079
24.53930,306271
24.54742,283150
24.55555,268377
24.56367,251409
24.57180,242808
24.57992,247997
24.58803,239413
24.59617,222738
24.60428,221507
24.61242,216057
24.62053,217644
24.62865,214717
24.63678,211886
24.64490,215704
24.65302,217182
24.66115,214939
24.66927,216875
24.67740,212467
24.68552,225514
24.69363,216119
24.70177,217496
24.70988,215789
24.71802,206584
24.72613,204115
24.73425,203641
24.74238,202156
24.75050,199092
24.75862,189067
24.76675,192190
24.77487,195329
24.78300,190873
24.79112,193741
24.79923,188975
24.80737,187364
24.81548,189230
24.82362,191582
24.83173,186824
24.83985,193548
24.84798,181172
24.85610,179476
24.86423,179315
24.87235,181903
24.88047,188359
24.88860,180521
24.89672,180411
24.90483,186523
24.91297,179624
24.92108,177713
24.92922,172522
24.93733,175132
24.94545,174603
24.95358,183790
24.96170,177919
24.96983,169091
24.97795,175331
24.98607,170539
24.99420,174016
25.00232,167135
25.01045,171212
25.01857,170160
25.02668,167166
25.03482,173301
25.04293,166973
25.05105,170047
25.05918,163544
25.06730,169152
25.07543,168925
25.08355,169648
25.09167,171792
25.09980,176684
25.10792,166937
25.11605,179014
25.12417,160808
25.13228,166095
25.14042,173818
25.14853,173465
25.15665,171140
25.16478,174622
25.17290,167634
25.18103,175090
25.18915,174878
25.19727,184818
25.20540,177267
25.21352,173105
25.22165,176031
25.22977,170936
25.23788,170228
25.24602,170107
25.25413,168326
25.26227,172391
25.27038,171159
25.27850,172776
25.28663,181107
25.29475,195868
25.30287,208852
25.31100,219821
25.31912,227823
25.32725,231577
25.33537,222378
25.34348,207144
25.35162,191560
25.35973,185811
25.36787,173900
25.37598,171213
25.38410,167037
25.39223,168273
25.40035,164073
25.40847,160367
25.41660,162926
25.42472,163912
25.43285,164300
25.44097,157928
25.44908,167753
25.45722,160067
25.46533,168600
25.47347,176884
25.48158,178926
25.48970,186801
25.49783,184800
25.50595,185609
25.51408,184146
25.52220,180363
25.53032,174312
25.53845,170685
25.54657,162666
25.55468,169353
25.56282,157829
25.57093,157750
25.57907,158104
25.58718,155844
25.59530,158460
25.60343,152046
25.61155,156156
25.61968,154892
25.62780,166898
25.63592,156976
25.64405,160024
25.65217,158132
25.66030,162796
25.66842,160077
25.67653,162676
25.68467,164160
25.69278,164058
25.70090,194401
25.70903,261364
25.71715,408945
25.72528,623152
25.73340,839167
25.74152,951521
25.74965,871129
25.75777,741045
25.76590,587567
25.77402,461533
25.78213,385710
25.79027,323633
25.79838,284604
25.80650,261820
25.81463,247720
25.82275,240324
25.83088,217723
25.83900,208561
25.84712,204763
25.85525,204498
25.86337,201866
25.87150,193658
25.87962,187156
25.88773,187230
25.89587,197267
25.90398,186149
25.91212,179571
25.92023,182203
25.92835,179453
25.93648,179762
25.94460,172073
25.95272,175335
25.96085,175541
25.96897,167666
25.97710,169544
25.98522,167298
25.99333,166197
26.00147,164402
26.00958,165356
26.01772,163614
26.02583,159364
26.03395,159317
26.04208,157822
26.05020,150699
26.05833,155183
26.06645,156188
26.07457,159751
26.08270,148911
26.09082,155806
26.09893,151697
26.10707,151919
26.11518,162721
26.12332,175091
26.13143,192099
26.13955,194390
26.14768,206242
26.15580,203553
26.16393,195460
26.17205,184117
26.18017,174781
26.18830,165977
26.19642,155995
26.20453,153081
26.21267,146876
26.22078,145066
26.22892,146654
26.23703,144328
26.24515,140639
26.25328,141671
26.26140,148260
26.26953,149817
26.27765,145415
26.28577,145708
26.29390,144624
26.30202,142586
26.31015,145977
26.31827,142687
26.32638,145309
26.33452,142101
26.34263,146181
26.35075,146874
26.35888,146590
26.36700,145268
26.37513,143382
26.38325,146107
26.39137,141259
26.39950,145818
26.40762,139412
26.41575,142346
26.42387,143985
26.43198,137951
26.44012,146858
26.44823,136598
26.45637,135694
26.46448,145729
26.47260,142159
26.48073,139529
26.48885,139582
26.49697,139899
26.50510,137757
26.51322,138740
26.52135,136579
26.52947,132805
26.53758,138599
26.54572,136102
26.55383,134070
26.56197,141137
26.57008,144380
26.57820,141644
26.58633,136841
26.59445,139230
26.60257,135711
26.61070,135414
26.61882,137558
26.62695,139377
26.63507,139084
26.64318,135585
26.65132,141780
26.65943,147134
26.66757,146727
26.67568,149398
26.68380,147765
26.69193,142194
26.70005,148526
26.70818,143677
26.71630,145462
26.72442,143095
26.73255,142673
26.74067,141807
26.74878,143404
26.75692,143323
26.76503,143919
26.77317,139199
26.78128,142154
26.78940,141338
26.79753,142428
26.80565,142274
26.81378,144298
26.82190,147437
26.83002,148815
26.83815,136914
26.84627,148386
26.85440,144610
26.86252,153005
26.87063,158145
26.87877,163221
26.88688,153706
26.89500,149551
26.90313,147058
26.91125,150151
26.91938,161862
26.92750,151744
26.93562,178437
26.94375,222640
26.95187,339962
26.96000,651642
26.96812,1367479
26.97623,3083640
26.98437,6193090
26.99248,1.041619E+07
27.00060,1.375295E+07
27.00873,1.551927E+07
27.01685,1.444633E+07
27.02498,1.242808E+07
27.03310,9559030
27.04122,6964885
27.04935,5074783
27.05747,3484589
27.06560,2533756
27.07372,1961597
27.08183,1579438
27.08997,1306524
27.09808,1130874
27.10622,984477
27.11433,899241
27.12245,808455
27.13058,771236
27.13870,780015
27.14682,850758
27.15495,1067808
27.16307,1391389
27.17120,1825075
27.17932,2240344
27.18743,2483289
27.19557,2571746
27.20368,2389452
27.21182,2073194
27.21993,1744034
27.22805,1438352
27.23618,1166300
27.24430,991094
27.25242,830684
27.26055,720917
27.26867,642997
27.27680,583242
27.28492,552134
27.29303,513338
27.30117,498171
27.30928,478546
27.31742,447011
27.32553,427448
27.33365,422750
27.34178,411485
27.34990,397577
27.35803,392532
27.36615,386397
27.37427,369616
27.38240,366410
27.39052,364674
27.39863,359279
27.40677,342236
27.41488,346923
27.42302,326974
27.43113,318832
27.43925,301577
27.44738,310045
27.45550,304557
27.46363,297526
27.47175,296393
27.47987,280055
27.48800,290947
27.49612,276646
27.50425,283305
27.51237,274686
27.52048,278836
27.52862,285243
27.53673,287486
27.54485,283567
27.55298,275326
27.56110,277405
27.56923,269398
27.57735,262944
27.58547,265107
27.59360,261331
27.60172,259889
27.60985,263244
27.61797,263645
27.62608,265452
27.63422,259940
27.64233,251543
27.65045,256659
27.65858,246510
27.66670,233815
27.67483,244611
27.68295,232678
27.69107,239032
27.69920,228055
27.70732,229884
27.71545,221826
27.72357,225204
27.73168,227517
27.73982,221827
27.74793,211936
27.75607,220968
27.76418,230842
27.77230,217552
27.78043,219666
27.78855,210509
27.79667,218248
27.80480,222003
27.81292,208868
27.82105,215730
27.82917,206502
27.83728,204663
27.84542,210713
27.85353,211591
27.86167,197694
27.86978,206504
27.87790,201973
27.88603,203500
27.89415,203826
27.90228,219308
27.91040,259833
27.91852,370483
27.92665,516599
27.93477,751588
27.94288,1025888
27.95102,1255955
27.95913,1438274
27.96727,1452857
27.97538,1423249
27.98350,1262601
27.99163,1085806
27.99975,928536
28.00788,792337
28.01600,686148
28.02412,581487
28.03225,517851
28.04037,462562
28.04848,411675
28.05662,386043
28.06473,351841
28.07287,337403
28.08098,319641
28.08910,304655
28.09723,285895
28.10535,281005
28.11348,269042
28.12160,267273
28.12972,249562
28.13785,248110
28.14597,240137
28.15410,240185
28.16222,238620
28.17033,238320
28.17847,236904
28.18658,235822
28.19470,244571
28.20283,245468
28.21095,259153
28.21908,275653
28.22720,280219
28.23532,277283
28.24345,263773
28.25157,266316
28.25970,253583
28.26782,255386
28.27593,287387
28.28407,360129
28.29218,541083
28.30030,794799
28.30843,1223613
28.31655,1934315
28.32468,2802030
28.33280,3669100
28.34092,4517678
28.34905,5187916
28.35717,5379973
28.36530,5177758
28.37342,4797183
28.38153,4226526
28.38967,3675073
28.39778,3197750
28.40592,2764162
28.41403,2331670
28.42215,2028366
28.43028,1777919
28.43840,1592713
28.44652,1524540
28.45465,1482630
28.46277,1453534
28.47090,1435248
28.47902,1369882
28.48713,1316994
28.49527,1246816
28.50338,1164043
28.51152,1096214
28.51963,1004630
28.52775,942749
28.53588,881846
28.54400,803162
28.55213,747158
28.56025,676347
28.56837,647203
28.57650,609928
28.58462,573721
28.59273,537882
28.60087,508377
28.60898,493784
28.61712,483048
28.62523,473972
28.63335,445462
28.64148,450686
28.64960,444537
28.65773,447429
28.66585,453969
28.67397,445031
28.68210,431273
28.69022,403007
28.69833,400030
28.70647,374360
28.71458,364756
28.72272,358111
28.73083,359084
28.73895,339482
28.74708,340175
28.75520,328290
28.76333,339004
28.77145,359607
28.77957,368360
28.78770,370515
28.79582,376986
28.80395,364130
28.81207,352015
28.82018,344163
28.82832,335813
28.83643,323102
28.84455,301922
28.85268,298404
28.86080,299468
28.86893,292927
28.87705,288258
28.88517,276407
28.89330,277639
28.90142,273947
28.90955,276273
28.91767,274532
28.92578,281367
28.93392,281234
28.94203,290522
28.95017,293929
28.95828,308990
28.96640,329241
28.97453,337883
28.98265,386093
28.99077,414225
28.99890,448860
29.00702,475013
29.01515,507270
29.02327,525651
29.03138,531602
29.03952,556432
29.04763,558645
29.05577,545097
29.06388,536791
29.07200,535886
29.08013,515945
29.08825,509459
29.09637,479911
29.10450,464352
29.11262,443096
29.12075,441307
29.12887,407058
29.13698,396140
29.14512,377856
29.15323,366775
29.16137,358792
29.16948,347749
29.17760,337721
29.18573,324868
29.19385,321126
29.20198,314305
29.21010,306971
29.21822,301722
29.22635,292888
29.23447,284190
29.24258,287556
29.25072,280421
29.25883,276600
29.26697,269715
29.27508,272142
29.28320,278339
29.29133,269934
29.29945,267432
29.30758,261963
29.31570,253712
29.32382,253025
29.33195,260957
29.34007,251359
29.34820,246796
29.35632,250961
29.36443,247224
29.37257,242861
29.38068,237510
29.38880,239485
29.39693,232824
29.40505,234155
29.41318,227720
29.42130,234413
29.42942,227256
29.43755,221530
29.44567,228032
29.45380,224543
29.46192,218990
29.47003,214868
29.47817,236638
29.48628,233725
29.49440,244269
29.50253,248943
29.51065,255933
29.51878,250110
29.52690,244260
29.53502,239175
29.54315,234811
29.55127,221522
29.55940,217892
29.56752,222379
29.57563,209109
29.58377,217937
29.59188,209999
29.60002,200604
29.60813,208003
29.61625,202518
29.62438,206544
29.63250,210981
29.64062,215011
29.64875,202458
29.65687,209267
29.66500,199233
29.67312,199428
29.68123,198507
29.68937,194898
29.69748,195060
29.70562,185942
29.71373,191196
29.72185,195778
29.72998,191308
29.73810,194446
29.74622,196141
29.75435,190180
29.76247,200542
29.77060,192597
29.77872,191018
29.78683,194558
29.79497,191571
29.80308,188157
29.81122,189716
29.81933,186332
29.82745,193036
29.83558,184291
29.84370,187809
29.85183,192659
29.85995,191822
29.86807,192958
29.87620,196014
29.88432,201687
29.89243,212423
29.90057,221424
29.90868,231172
29.91682,230585
29.92493,244199
29.93305,253984
29.94118,287441
29.94930,347236
29.95743,422805
29.96555,524904
29.97367,693529
29.98180,835035
29.98992,984399
29.99805,1154461
30.00617,1295059
30.01428,1448398
30.02242,1558213
30.03053,1607269
30.03865,1610504
30.04678,1644742
30.05490,1607823
30.06303,1568754
30.07115,1523594
30.07927,1426353
30.08740,1342677
30.09552,1258017
30.10365,1134633
30.11177,1060935
30.11988,974537
30.12802,908865
30.13613,849741
30.14425,788646
30.15238,734298
30.16050,690270
30.16863,631184
30.17675,600057
30.18487,553069
30.19300,531755
30.20112,507231
30.20925,481989
30.21737,452071
30.22548,427911
30.23362,411670
30.24173,389449
30.24987,382130
30.25798,361200
30.26610,350041
30.27423,341169
30.28235,334047
30.29047,325392
30.29860,316341
30.30672,305414
30.31485,312744
30.32297,304818
30.33108,308034
30.33922,304932
30.34733,303874
30.35547,311210
30.36358,315911
30.37170,321280
30.37983,337105
30.38795,339943
30.39608,343049
30.40420,362830
30.41232,354646
30.42045,359120
30.42857,363432
30.43668,365901
30.44482,358710
30.45293,371166
30.46107,361236
30.46918,361394
30.47730,360809
30.48543,349769
30.49355,341990
30.50168,349094
30.50980,340863
30.51792,333816
30.52605,327991
30.53417,313065
30.54228,301600
30.55042,296624
30.55853,300781
30.56667,293075
30.57478,277437
30.58290,280782
30.59103,270884
30.59915,268725
30.60728,264939
30.61540,254709
30.62352,247782
30.63165,251958
30.63977,245492
30.64790,243876
30.65602,241038
30.66413,244150
30.67227,234571
30.68038,226145
30.68850,225797
30.69663,234123
30.70475,226980
30.71288,226269
30.72100,217947
30.72912,223491
30.73725,216166
30.74537,216626
30.75350,217941
30.76162,217576
30.76973,216538
30.77787,208478
30.78598,214052
30.79410,225486
30.80223,231508
30.81035,235902
30.81848,243221
30.82660,238242
30.83472,232353
30.84285,229972
30.85097,215863
30.85910,203081
30.86722,207605
30.87533,199035
30.88347,202761
30.89158,196503
30.89972,205981
30.90783,202996
30.91595,196539
30.92408,198323
30.93220,196696
30.94032,200840
30.94845,197619
30.95657,197270
30.96470,202021
30.97282,199512
30.98093,206257
30.98907,206344
30.99718,207940
31.00532,203336
31.01343,207196
31.02155,202283
31.02968,211477
31.03780,205004
31.04593,205808
31.05405,202462
31.06217,202614
31.07030,201911
31.07842,195633
31.08653,206073
31.09467,209855
31.10278,221639
31.11092,226602
31.11903,224765
31.12715,213320
31.13528,206549
31.14340,198997
31.15153,189524
31.15965,192790
31.16777,192069
31.17590,191896
31.18402,201976
31.19215,203274
31.20027,204896
31.20838,221956
31.21652,233724
31.22463,237145
31.23275,246168
31.24088,245530
31.24900,236231
31.25713,222656
31.26525,220228
31.27337,213728
31.28150,200809
31.28962,197349
31.29775,200959
31.30587,196161
31.31398,205318
31.32212,205769
31.33023,201208
31.33835,210739
31.34648,203327
31.35460,201467
31.36273,196754
31.37085,191716
31.37897,186735
31.38710,180745
31.39522,178943
31.40335,182283
31.41147,184601
31.41958,189255
31.42772,192830
31.43583,200845
31.44397,192175
31.45208,187355
31.46020,188994
31.46833,178619
31.47645,178616
31.48457,172840
31.49270,177503
31.50082,170122
31.50895,173288
31.51707,169969
31.52518,169677
31.53332,175750
31.54143,164665
31.54957,167349
31.55768,166357
31.56580,167133
31.57393,172246
31.58205,167863
31.59017,163663
31.59830,161173
31.60642,170095
31.61455,159111
31.62267,176127
31.63078,168956
31.63892,162459
31.64703,163641
31.65517,171713
31.66328,171793
31.67140,168290
31.67953,167079
31.68765,162878
31.69578,166313
31.70390,162686
31.71202,164562
31.72015,165235
31.72827,156884
31.73638,159788
31.74452,160730
31.75263,162952
31.76077,165382
31.76888,169107
31.77700,163466
31.78513,179919
31.79325,173887
31.80138,181203
31.80950,178691
31.81762,173022
31.82575,178595
31.83387,173321
31.84200,173127
31.85012,170089
31.85823,175213
31.86637,176151
31.87448,175412
31.88260,184137
31.89073,196477
31.89885,225724
31.90698,257645
31.91510,323639
31.92322,381963
31.93135,495527
31.93947,581734
31.94760,690898
31.95572,826022
31.96383,912085
31.97197,977348
31.98008,1030406
31.98820,1082997
31.99633,1063871
32.00445,1026610
32.01258,969973
32.02070,917001
32.02882,879088
32.03695,821330
32.04507,743443
32.05320,700628
32.06132,627786
32.06943,589108
32.07757,550102
32.08568,540783
32.09382,512361
32.10193,483897
32.11005,458530
32.11818,436760
32.12630,402981
32.13442,387629
32.14255,382726
32.15067,375009
32.15880,371230
32.16692,365553
32.17503,376114
32.18317,372589
32.19128,375586
32.19942,364441
32.20753,366600
32.21565,359497
32.22378,358120
32.23190,351375
32.24003,351059
32.24815,333103
32.25627,328079
32.26440,330889
32.27252,318883
32.28063,303640
32.28877,305458
32.29688,289429
32.30502,279640
32.31313,279115
32.32125,274978
32.32938,266786
32.33750,264404
32.34563,267953
32.35375,258276
32.36187,257696
32.37000,253713
32.37812,249282
32.38623,246326
32.39437,233649
32.40248,237789
32.41062,234502
32.41873,231276
32.42685,234400
32.43498,225038
32.44310,229546
32.45123,235733
32.45935,232445
32.46747,220670
32.47560,224392
32.48372,214798
32.49185,217637
32.49997,215898
32.50808,210423
32.51622,217755
32.52433,206469
32.53245,213489
32.54058,206716
32.54870,207559
32.55683,211416
32.56495,209607
32.57307,211631
32.58120,200491
32.58932,200349
32.59745,197331
32.60557,200038
32.61368,196133
32.62182,189722
32.62993,192813
32.63805,195718
32.64618,190820
32.65430,204910
32.66243,214864
32.67055,226116
32.67867,239732
32.68680,240674
32.69492,240676
32.70305,238796
32.71117,224825
32.71928,217496
32.72742,219502
32.73553,208869
32.74367,207227
32.75178,208450
32.75990,194909
32.76803,193482
32.77615,192020
32.78427,185445
32.79240,182069
32.80052,183551
32.80865,185202
32.81677,192477
32.82488,182102
32.83302,183688
32.84113,179363
32.84927,185888
32.85738,186512
32.86550,178760
32.87363,185099
32.88175,179399
32.88988,184643
32.89800,175847
32.90612,184035
32.91425,179937
32.92237,181998
32.93048,182581
32.93862,175501
32.94673,173812
32.95487,172628
32.96298,177348
32.97110,177749
32.97923,178354
32.98735,175420
32.99548,175965
33.00360,176533
33.01172,164458
33.01985,171900
33.02797,167253
33.03608,165273
33.04422,164944
33.05233,175234
33.06047,170176
33.06858,173157
33.07670,164602
33.08483,167324
33.09295,176121
33.10108,189386
33.10920,194839
33.11732,200959
33.12545,214392
33.13357,213475
33.14170,204361
33.14982,194333
33.15793,182584
33.16607,178297
33.17418,166260
33.18230,172138
33.19043,183621
33.19855,192714
33.20668,194380
33.21480,197086
33.22292,202570
33.23105,202805
33.23917,203979
33.24730,195859
33.25542,187136
33.26353,187899
33.27167,186013
33.27978,181494
33.28792,177117
33.29603,178561
33.30415,175498
33.31228,179812
33.32040,170342
33.32852,172241
33.33665,168313
33.34477,170634
33.35290,163193
33.36102,166115
33.36913,166702
33.37727,167147
33.38538,162218
33.39352,163166
33.40163,165329
33.40975,168241
33.41788,157075
33.42600,168225
33.43412,164082
33.44225,174400
33.45037,166966
33.45850,163157
33.46662,159683
33.47473,159033
33.48287,156377
33.49098,166365
33.49912,165351
33.50723,164034
33.51535,163918
33.52348,159828
33.53160,168239
33.53973,160651
33.54785,165047
33.55597,169859
33.56410,165694
33.57222,163467
33.58033,154966
33.58847,163706
33.59658,153551
33.60472,155074
33.61283,161916
33.62095,154873
33.62908,155739
33.63720,152475
33.64533,153016
33.65345,162087
33.66157,154071
33.66970,160988
33.67782,153365
33.68593,156500
33.69407,160639
33.70218,152184
33.71032,152715
33.71843,150514
33.72655,150815
33.73468,154497
33.74280,150553
33.75093,147807
33.75905,153717
33.76717,144048
33.77530,150248
33.78342,149716
33.79155,146478
33.79967,147736
33.80778,155931
33.81592,155138
33.82403,154446
33.83215,155224
33.84028,155447
33.84840,164115
33.85653,169026
33.86465,170162
33.87277,166575
33.88090,163868
33.88902,165822
33.89715,159143
33.90527,161711
33.91338,150407
33.92152,165153
33.92963,160868
33.93777,163788
33.94588,168997
33.95400,170463
33.96213,170633
33.97025,177281
33.97837,174088
33.98650,168292
33.99462,164473
34.00275,169542
34.01087,155248
34.01898,163648
34.02712,162308
34.03523,162060
34.04337,157451
34.05148,160226
34.05960,156829
34.06773,160549
34.07585,154212
34.08397,158544
34.09210,157519
34.10022,151949
34.10835,157111
34.11647,153013
34.12458,155034
34.13272,155160
34.14083,156054
34.14897,156676
34.15708,144028
34.16520,140543
34.17333,152630
34.18145,147417
34.18958,147128
34.19770,149214
34.20582,152354
34.21395,148230
34.22207,148665
34.23018,147094
34.23832,149854
34.24643,147044
34.25457,142295
34.26268,150407
34.27080,145001
34.27893,143154
34.28705,151892
34.29518,153642
34.30330,148148
34.31142,142732
34.31955,148719
34.32767,144964
34.33580,144655
34.34392,146612
34.35203,148434
34.36017,151390
34.36828,154144
34.37640,145155
34.38453,153429
34.39265,145310
34.40078,146766
34.40890,142257
34.41702,147533
34.42515,145529
34.43327,142569
34.44140,150339
34.44952,142918
34.45763,144910
34.46577,154705
34.47388,147555
34.48200,145168
34.49013,154036
34.49825,158192
34.50638,183218
34.51450,227096
34.52262,298549
34.53075,394895
34.53887,507918
34.54700,645513
34.55512,751958
34.56323,840695
34.57137,859686
34.57948,828157
34.58762,775934
34.59573,708223
34.60385,643608
34.61198,570377
34.62010,526095
34.62822,487152
34.63635,449549
34.64447,445873
34.65260,424560
34.66072,416482
34.66883,404645
34.67697,392793
34.68508,370814
34.69322,353405
34.70133,334176
34.70945,325216
34.71758,329789
34.72570,304846
34.73383,305005
34.74195,293977
34.75007,289507
34.75820,270525
34.76632,269320
34.77443,264338
34.78257,262213
34.79068,265423
34.79882,251334
34.80693,246101
34.81505,241076
34.82318,245461
34.83130,226877
34.83943,230728
34.84755,231082
34.85567,227029
34.86380,219214
34.87192,218207
34.88003,224181
34.88817,212880
34.89628,211307
34.90442,205102
34.91253,214178
34.92065,205078
34.92878,215283
34.93690,211063
34.94503,216672
34.95315,211305
34.96127,212758
34.96940,220535
34.97752,219576
34.98565,213783
34.99377,213024
35.00188,214939
35.01002,211984
35.01813,209938
35.02625,205786
35.03438,207352
35.04250,211674
35.05063,207798
35.05875,202946
35.06687,204935
35.07500,204069
35.08312,201816
35.09125,196899
35.09937,198886
35.10748,190766
35.11562,193833
35.12373,192050
35.13185,191868
35.13998,198516
35.14810,204621
35.15623,205922
35.16435,212470
35.17247,217830
35.18060,220719
35.18872,216442
35.19685,203282
35.20497,201303
35.21308,201115
35.22122,198556
35.22933,190766
35.23747,188281
35.24558,193149
35.25370,197323
35.26183,191124
35.26995,192955
35.27807,192762
35.28620,199430
35.29432,186530
35.30245,185214
35.31057,187258
35.31868,180625
35.32682,176616
35.33493,184650
35.34307,178241
35.35118,184722
35.35930,185132
35.36743,173524
35.37555,175764
35.38368,173757
35.39180,186218
35.39992,180234
35.40805,169767
35.41617,178620
35.42428,175488
35.43242,169327
35.44053,175422
35.44867,176399
35.45678,182949
35.46490,191535
35.47303,193332
35.48115,191282
35.48928,192979
35.49740,183102
35.50552,183067
35.51365,174057
35.52177,186145
35.52988,174006
35.53802,178281
35.54613,181009
35.55427,175201
35.56238,186366
35.57050,188935
35.57863,189011
35.58675,186101
35.59488,187366
35.60300,179820
35.61112,181359
35.61925,182406
35.62737,176806
35.63550,170930
35.64362,162683
35.65173,169789
35.65987,181628
35.66798,190843
35.67610,196862
35.68423,210642
35.69235,212224
35.70048,218924
35.70860,211787
35.71672,210338
35.72485,202855
35.73297,199676
35.74110,198750
35.74922,185991
35.75733,182597
35.76547,186743
35.77358,182744
35.78172,182756
35.78983,177744
35.79795,178508
35.80608,182486
35.81420,178164
35.82232,178359
35.83045,191447
35.83857,181088
35.84670,180884
35.85482,180618
35.86293,178630
35.87107,182370
35.87918,176130
35.88732,174297
35.89543,174405
35.90355,176900
35.91168,173187
35.91980,174903
35.92792,172040
35.93605,166030
35.94417,172645
35.95230,163607
35.96042,167762
35.96853,170689
35.97667,169051
35.98478,173402
35.99292,172096
36.00103,170760
36.00915,192631
36.01728,186763
36.02540,185702
36.03353,195628
36.04165,182385
36.04977,185173
36.05790,174174
36.06602,178018
36.07413,179767
36.08227,173738
36.09038,177199
36.09852,180198
36.10663,172268
36.11475,177239
36.12288,172732
36.13100,178102
36.13913,177354
36.14725,175675
36.15537,176069
36.16350,180604
36.17162,171151
36.17973,175788
36.18787,178829
36.19598,179089
36.20412,180533
36.21223,181344
36.22035,170840
36.22848,170035
36.23660,166402
36.24473,168116
36.25285,165240
36.26097,171104
36.26910,174353
36.27722,163546
36.28535,170647
36.29347,171062
36.30158,181242
36.30972,192732
36.31783,195465
36.32595,214465
36.33408,220652
36.34220,227957
36.35033,213906
36.35845,204448
36.36657,199553
36.37470,202023
36.38282,197854
36.39095,202130
36.39907,195728
36.40718,191722
36.41532,180243
36.42343,181986
36.43157,177621
36.43968,170462
36.44780,174479
36.45593,173390
36.46405,173213
36.47217,169645
36.48030,160393
36.48842,171618
36.49655,158352
36.50467,170198
36.51278,170604
36.52092,167248
36.52903,167382
36.53717,155323
36.54528,161627
36.55340,166232
36.56153,165457
36.56965,165601
36.57778,164007
36.58590,169067
36.59402,169250
36.60215,157587
36.61027,158359
36.61838,161195
36.62652,163204
36.63463,161309
36.64277,162761
36.65088,165499
36.65900,170893
36.66713,177469
36.67525,177884
36.68338,173231
36.69150,180895
36.69962,175954
36.70775,175312
36.71587,176308
36.72398,168130
36.73212,175916
36.74023,159378
36.74837,162748
36.75648,162891
36.76460,165957
36.77273,161657
36.78085,160014
36.78898,160152
36.79710,157158
36.80522,166775
36.81335,164399
36.82147,163226
36.82960,157550
36.83772,162822
36.84583,159352
36.85397,158128
36.86208,163951
36.87020,160056
36.87833,163219
36.88645,157892
36.89458,161560
36.90270,163534
36.91082,156120
36.91895,160186
36.92707,159631
36.93520,151536
36.94332,161663
36.95143,155638
36.95957,151025
36.96768,154972
36.97580,152368
36.98393,154626
36.99205,151236
37.00018,159745
37.00830,161419
37.01642,159024
37.02455,163173
37.03267,157441
37.04080,161493
37.04892,155616
37.05703,158744
37.06517,165074
37.07328,156097
37.08142,160963
37.08953,167894
37.09765,156191
37.10578,161090
37.11390,155357
37.12202,153892
37.13015,153576
37.13827,164012
37.14640,159976
37.15452,158656
37.16263,167478
37.17077,157225
37.17888,162324
37.18702,161839
37.19513,169461
37.20325,171322
37.21138,169533
37.21950,171773
37.22763,167751
37.23575,167266
37.24387,169050
37.25200,166217
37.26012,164916
37.26823,159020
37.27637,163386
37.28448,154445
37.29262,162744
37.30073,160279
37.30885,161710
37.31698,172248
37.32510,208517
37.33323,249747
37.34135,308353
37.34947,384117
37.35760,465623
37.36572,522384
37.37383,536250
37.38197,542593
37.39008,529428
37.39822,497036
37.40633,458918
37.41445,418517
37.42258,396726
37.43070,375586
37.43883,352964
37.44695,338200
37.45507,327162
37.46320,314618
37.47132,305478
37.47945,299658
37.48757,297098
