Z:\data\JTB-E02\BACandBLUE\JTB-E02-193-14.D Wed Dec 19 13:01:27 2018
Start of data points
2.09528	81122
2.10340	74171
2.11153	78902
2.11965	77406
2.12777	80912
2.13590	79904
2.14402	78878
2.15215	70288
2.16027	77958
2.16838	77116
2.17652	77936
2.18463	77264
2.19277	70296
2.20088	73835
2.20900	71952
2.21713	69934
2.22525	64680
2.23337	66809
2.24150	63810
2.24962	67438
2.25775	71752
2.26587	140258
2.27398	700413
2.28212	1538162
2.29023	1460626
2.29837	785871
2.30648	518200
2.31460	402679
2.32273	352436
2.33085	313104
2.33897	280726
2.34710	255223
2.35522	242722
2.36335	227029
2.37147	216039
2.37958	204196
2.38772	198388
2.39583	197422
2.40397	190059
2.41208	189644
2.42020	190300
2.42833	188203
2.43645	175133
2.44458	169083
2.45270	169109
2.46082	165521
2.46895	156363
2.47707	154271
2.48518	151745
2.49332	162092
2.50143	157199
2.50957	158123
2.51768	154551
2.52580	148097
2.53393	150551
2.54205	146116
2.55018	158248
2.55830	167645
2.56642	160855
2.57455	153342
2.58267	136573
2.59078	134298
2.59892	157129
2.60703	340557
2.61517	653713
2.62328	660140
2.63140	440038
2.63953	296576
2.64765	233895
2.65578	199427
2.66390	176401
2.67202	162932
2.68015	160712
2.68827	139658
2.69640	136659
2.70452	132710
2.71263	130040
2.72077	132211
2.72888	127311
2.73700	121830
2.74513	122581
2.75325	120445
2.76138	116856
2.76950	155276
2.77762	773991
2.78575	2550781
2.79387	3439087
2.80200	2400943
2.81012	1328104
2.81823	932231
2.82637	776947
2.83448	614599
2.84262	496749
2.85073	406347
2.85885	348175
2.86698	301761
2.87510	268312
2.88322	253007
2.89135	228324
2.89947	214668
2.90760	208183
2.91572	181037
2.92383	176387
2.93197	174018
2.94008	164551
2.94822	155267
2.95633	159953
2.96445	169464
2.97258	177294
2.98070	157498
2.98882	157647
2.99695	152471
3.00507	156941
3.01320	163153
3.02132	155740
3.02943	148780
3.03757	142227
3.04568	133548
3.05382	130248
3.06193	124818
3.07005	139563
3.07818	196126
3.08630	630218
3.09443	1608329
3.10255	3104382
3.11067	5158208
3.11880	5762646
3.12692	4254066
3.13503	2652349
3.14317	1829469
3.15128	1373161
3.15942	1088021
3.16753	984384
3.17565	1029501
3.18378	1771590
3.19190	4416050
3.20003	7028346
3.20815	6675460
3.21627	4572722
3.22440	3240938
3.23252	2453675
3.24065	1982671
3.24877	1629190
3.25688	1370636
3.26502	1164531
3.27313	1017695
3.28125	904557
3.28938	971729
3.29750	1836032
3.30563	4048361
3.31375	6611161
3.32187	7296307
3.33000	5894539
3.33812	4131340
3.34625	2972298
3.35437	2321202
3.36248	1893514
3.37062	1596339
3.37873	1395714
3.38685	1225889
3.39498	1106893
3.40310	1013080
3.41123	941097
3.41935	880866
3.42747	824736
3.43560	848179
3.44372	836490
3.45185	788761
3.45997	749489
3.46808	861082
3.47622	1034609
3.48433	1022423
3.49247	844835
3.50058	672033
3.50870	595648
3.51683	530376
3.52495	526810
3.53307	549671
3.54120	613741
3.54932	646866
3.55745	584971
3.56557	519129
3.57368	459287
3.58182	424534
3.58993	414012
3.59807	389714
3.60618	380880
3.61430	376299
3.62243	382860
3.63055	395629
3.63867	408445
3.64680	413462
3.65492	581314
3.66305	3144411
3.67117	1.617411E+07
3.67928	3.78537E+07
3.68742	5.088134E+07
3.69553	4.952428E+07
3.70367	3.752981E+07
3.71178	2.6124E+07
3.71990	1.959934E+07
3.72803	1.595914E+07
3.73615	1.334905E+07
3.74428	1.128944E+07
3.75240	9772566
3.76052	8561616
3.76865	7558840
3.77677	6655170
3.78488	5989960
3.79302	5530935
3.80113	5189293
3.80927	5127243
3.81738	5394676
3.82550	5550991
3.83363	5129053
3.84175	4453785
3.84988	3948225
3.85800	3599476
3.86612	3300157
3.87425	3065370
3.88237	2903982
3.89050	2731551
3.89862	2614686
3.90673	2473371
3.91487	2487776
3.92298	2814074
3.93110	3364762
3.93923	3611936
3.94735	3234811
3.95548	2948173
3.96360	3313269
3.97172	3892651
3.97985	3736537
3.98797	2944898
3.99610	2404038
4.00422	2519977
4.01233	3485593
4.02047	4423148
4.02858	4280787
4.03670	3181745
4.04483	2269282
4.05295	1780010
4.06108	1546574
4.06920	1392145
4.07732	1330441
4.08545	1252772
4.09357	1232231
4.10170	1185836
4.10982	1141580
4.11793	1110588
4.12607	1042244
4.13418	1022194
4.14232	1021785
4.15043	1042163
4.15855	1045533
4.16668	1037277
4.17480	1023688
4.18292	1009581
4.19105	987312
4.19917	945814
4.20730	1163404
4.21542	2878678
4.22353	8367177
4.23167	1.766938E+07
4.23978	2.582481E+07
4.24792	3.169995E+07
4.25603	3.55739E+07
4.26415	3.741324E+07
4.27228	3.371761E+07
4.28040	2.003015E+07
4.28853	1.092487E+07
4.29665	7789723
4.30477	5912032
4.31290	4855750
4.32102	3988746
4.32913	3413501
4.33727	2953730
4.34538	2598520
4.35352	2362647
4.36163	2285551
4.36975	2410755
4.37788	2494085
4.38600	2318448
4.39413	1985225
4.40225	1657821
4.41037	1441218
4.41850	1316008
4.42662	1232506
4.43473	1167677
4.44287	1097251
4.45098	1026231
4.45912	1001080
4.46723	958077
4.47535	919552
4.48348	906756
4.49160	865861
4.49973	843974
4.50785	835354
4.51597	807685
4.52410	805908
4.53222	776147
4.54035	801278
4.54847	796956
4.55658	849132
4.56472	834994
4.57283	783372
4.58095	729675
4.58908	681563
4.59720	663803
4.60533	655851
4.61345	647782
4.62157	726614
4.62970	1003640
4.63782	1751317
4.64595	2664803
4.65407	3034108
4.66218	2610437
4.67032	1875817
4.67843	1388090
4.68657	1150226
4.69468	1004621
4.70280	883569
4.71093	757177
4.71905	680181
4.72717	630784
4.73530	602685
4.74342	580954
4.75155	555180
4.75967	555354
4.76778	529951
4.77592	515577
4.78403	512414
4.79217	541524
4.80028	664961
4.80840	823799
4.81653	917637
4.82465	840287
4.83277	743284
4.84090	735628
4.84902	823834
4.85715	925797
4.86527	924383
4.87338	805329
4.88152	694545
4.88963	613358
4.89777	562660
4.90588	538443
4.91400	514299
4.92213	495334
4.93025	491531
4.93838	522070
4.94650	684912
4.95462	1139469
4.96275	1917427
4.97087	2661309
4.97898	2865084
4.98712	2539584
4.99523	2026377
5.00337	1612068
5.01148	1307433
5.01960	1185008
5.02773	1236337
5.03585	1647510
5.04398	2255382
5.05210	2614694
5.06022	2417300
5.06835	1989422
5.07647	1644081
5.08458	1417031
5.09272	1270537
5.10083	1142979
5.10897	1077218
5.11708	997940
5.12520	920861
5.13333	869323
5.14145	841029
5.14958	863424
5.15770	1043987
5.16582	1324473
5.17395	1632273
5.18207	1664346
5.19020	1479555
5.19832	1293259
5.20643	1311630
5.21457	1460407
5.22268	1471284
5.23080	1342776
5.23893	1113088
5.24705	1050865
5.25518	846909
5.26330	747592
5.27142	639599
5.27955	576001
5.28767	563767
5.29580	529674
5.30392	525086
5.31203	495940
5.32017	516048
5.32828	486418
5.33642	521907
5.34453	534305
5.35265	549236
5.36078	531184
5.36890	496560
5.37702	469662
5.38515	480276
5.39327	490949
5.40140	568843
5.40952	613707
5.41763	607318
5.42577	550033
5.43388	489901
5.44202	466884
5.45013	506782
5.45825	590860
5.46638	664432
5.47450	658658
5.48262	566334
5.49075	484109
5.49887	416225
5.50700	403807
5.51512	399404
5.52323	383702
5.53137	387918
5.53948	381353
5.54762	404555
5.55573	503092
5.56385	787252
5.57198	1251511
5.58010	1747448
5.58823	1877473
5.59635	1537401
5.60447	1070922
5.61260	749721
5.62072	570668
5.62883	481794
5.63697	448655
5.64508	429806
5.65322	414358
5.66133	401939
5.66945	369843
5.67758	390244
5.68570	416313
5.69383	487544
5.70195	574632
5.71007	595126
5.71820	557915
5.72632	488083
5.73445	426006
5.74257	385224
5.75068	357165
5.75882	348992
5.76693	332106
5.77505	324994
5.78318	319930
5.79130	313516
5.79943	305880
5.80755	301918
5.81567	299198
5.82380	307516
5.83192	303101
5.84005	305095
5.84817	301167
5.85628	303800
5.86442	302059
5.87253	301449
5.88065	286004
5.88878	281341
5.89690	284864
5.90503	283666
5.91315	300257
5.92127	322630
5.92940	352993
5.93752	343068
5.94565	346417
5.95377	362971
5.96188	458543
5.97002	570077
5.97813	727834
5.98627	990178
5.99438	1194767
6.00250	1306140
6.01063	1207042
6.01875	961102
6.02687	716003
6.03500	530538
6.04312	406598
6.05125	347114
6.05937	301923
6.06748	288962
6.07562	287895
6.08373	277887
6.09187	272600
6.09998	258305
6.10810	250859
6.11623	249198
6.12435	309384
6.13247	529021
6.14060	1088262
6.14872	1805649
6.15685	2251574
6.16497	2060079
6.17308	1575869
6.18122	1097227
6.18933	824367
6.19747	680340
6.20558	595709
6.21370	510128
6.22183	470276
6.22995	437768
6.23808	415958
6.24620	422797
6.25432	438801
6.26245	490449
6.27057	532555
6.27868	518774
6.28682	485760
6.29493	419999
6.30307	386630
6.31118	361606
6.31930	364452
6.32743	352889
6.33555	343072
6.34368	355843
6.35180	354900
6.35992	350441
6.36805	330144
6.37617	334501
6.38430	320695
6.39242	337613
6.40053	326268
6.40867	312780
6.41678	310329
6.42490	299949
6.43303	295739
6.44115	296297
6.44928	298403
6.45740	300679
6.46552	325818
6.47365	320611
6.48177	323412
6.48990	314184
6.49802	306585
6.50613	316168
6.51427	304692
6.52238	316645
6.53052	320314
6.53863	320305
6.54675	320865
6.55488	308290
6.56300	364505
6.57112	525569
6.57925	905795
6.58737	1349140
6.59550	1514571
6.60362	1267724
6.61173	866366
6.61987	605718
6.62798	451568
6.63612	407617
6.64423	363188
6.65235	344123
6.66048	302729
6.66860	294951
6.67672	293143
6.68485	277432
6.69297	263660
6.70110	231428
6.70922	223230
6.71733	216853
6.72547	220904
6.73358	218570
6.74172	211775
6.74983	207935
6.75795	200275
6.76608	210766
6.77420	210229
6.78233	198052
6.79045	199380
6.79857	194405
6.80670	178884
6.81482	179370
6.82293	173450
6.83107	171917
6.83918	166167
6.84732	175301
6.85543	176986
6.86355	207550
6.87168	223665
6.87980	247100
6.88793	249610
6.89605	239766
6.90417	201447
6.91230	173247
6.92042	158080
6.92853	147170
6.93667	141690
6.94478	133595
6.95292	140389
6.96103	136960
6.96915	148896
6.97728	169979
6.98540	198042
6.99353	211825
7.00165	209235
7.00977	177170
7.01790	169836
7.02602	166006
7.03415	171481
7.04227	168965
7.05038	160016
7.05852	171262
7.06663	200284
7.07475	273342
7.08288	329041
7.09100	375454
7.09913	373806
7.10725	324860
7.11537	263379
7.12350	203651
7.13162	190163
7.13975	179088
7.14787	194245
7.15598	226513
7.16412	281147
7.17223	316080
7.18037	380879
7.18848	640827
7.19660	1666721
7.20473	4028828
7.21285	7680323
7.22097	1.073293E+07
7.22910	1.115772E+07
7.23722	8414408
7.24535	4649397
7.25347	2017920
7.26158	802906
7.26972	370518
7.27783	229314
7.28597	197990
7.29408	184669
7.30220	181020
7.31033	187413
7.31845	199016
7.32657	199552
7.33470	245698
7.34282	290563
7.35095	356855
7.35907	375854
7.36718	363737
7.37532	308623
7.38343	257551
7.39157	210144
7.39968	177853
7.40780	166691
7.41593	159748
7.42405	157168
7.43218	152615
7.44030	155047
7.44842	145348
7.45655	144892
7.46467	149771
7.47278	160390
7.48092	164245
7.48903	164535
7.49717	145686
7.50528	142205
7.51340	132870
7.52153	150678
7.52965	184206
7.53778	316888
7.54590	691184
7.55402	1485742
7.56215	2862668
7.57027	4694278
7.57840	6326729
7.58652	7059495
7.59463	6620005
7.60277	5245602
7.61088	3554782
7.61900	2154668
7.62713	1220633
7.63525	726043
7.64338	477830
7.65150	353478
7.65962	268688
7.66775	228194
7.67587	192490
7.68400	166485
7.69212	148108
7.70023	138261
7.70837	134347
7.71648	153409
7.72460	164534
7.73273	185685
7.74085	217745
7.74898	224408
7.75710	236118
7.76522	223631
7.77335	195243
7.78147	184251
7.78960	180574
7.79772	181274
7.80583	206391
7.81397	241164
7.82208	309742
7.83022	317963
7.83833	273141
7.84645	235404
7.85458	190360
7.86270	178328
7.87082	193784
7.87895	212801
7.88707	260112
7.89520	333470
7.90332	393336
7.91143	417777
7.91957	385545
7.92768	308756
7.93582	268669
7.94393	272809
7.95205	300792
7.96018	332632
7.96830	309273
7.97642	286276
7.98455	239587
7.99267	199377
8.00080	169565
8.00892	142616
8.01703	135469
8.02517	122130
8.03328	120159
8.04142	121461
8.04953	116035
8.05765	115538
8.06578	122077
8.07390	121684
8.08203	119479
8.09015	116372
8.09827	114758
8.10640	117467
8.11452	113875
8.12263	110283
8.13077	119102
8.13888	162840
8.14702	244627
8.15513	331876
8.16325	408960
8.17138	410938
8.17950	345756
8.18763	275362
8.19575	207217
8.20387	170694
8.21200	152801
8.22012	144827
8.22825	129722
8.23637	126131
8.24448	115111
8.25262	116856
8.26073	117821
8.26885	101727
8.27698	106223
8.28510	105636
8.29323	102206
8.30135	100911
8.30947	97349
8.31760	104089
8.32572	117296
8.33385	125418
8.34197	134891
8.35008	135098
8.35822	118403
8.36633	112510
8.37445	101280
8.38258	90530
8.39070	89005
8.39883	91129
8.40695	92164
8.41507	87090
8.42320	84528
8.43132	83071
8.43945	85614
8.44757	89109
8.45568	90263
8.46382	85189
8.47193	81667
8.48007	81351
8.48818	79843
8.49630	86847
8.50443	79891
8.51255	82094
8.52067	105459
8.52880	151410
8.53692	233069
8.54505	299411
8.55317	319705
8.56128	266533
8.56942	188828
8.57753	124387
8.58567	109722
8.59378	96671
8.60190	97459
8.61003	121531
8.61815	139362
8.62628	183454
8.63440	200124
8.64252	199487
8.65065	186398
8.65877	155304
8.66688	126324
8.67502	100241
8.68313	93046
8.69127	87115
8.69938	91404
8.70750	85176
8.71563	90316
8.72375	81928
8.73188	84248
8.74000	78920
8.74812	80971
8.75625	82500
8.76437	85191
8.77248	110658
8.78062	194210
8.78873	339957
8.79687	558105
8.80498	739103
8.81310	811695
8.82123	721221
8.82935	569306
8.83748	421553
8.84560	363810
8.85372	305705
8.86185	286496
8.86997	280990
8.87810	263743
8.88622	243530
8.89433	230937
8.90247	212733
8.91058	210399
8.91870	223405
8.92683	270416
8.93495	376183
8.94308	495916
8.95120	553022
8.95932	507480
8.96745	414606
8.97557	337475
8.98370	308488
8.99182	346588
8.99993	368657
9.00807	351780
9.01618	325016
9.02432	270954
9.03243	224761
9.04055	195816
9.04868	183417
9.05680	165630
9.06492	162173
9.07305	161440
9.08117	157329
9.08930	163529
9.09742	180244
9.10553	228204
9.11367	317067
9.12178	424055
9.12992	513595
9.13803	524418
9.14615	448134
9.15428	348807
9.16240	274637
9.17052	227055
9.17865	198792
9.18677	184229
9.19490	180186
9.20302	171634
9.21113	171624
9.21927	168408
9.22738	169903
9.23552	173117
9.24363	172806
9.25175	177404
9.25988	165337
9.26800	162981
9.27613	164210
9.28425	144007
9.29237	137345
9.30050	146223
9.30862	149577
9.31673	140421
9.32487	146282
9.33298	140352
9.34112	133659
9.34923	128082
9.35735	125846
9.36548	127160
9.37360	126158
9.38173	123892
9.38985	137730
9.39797	160962
9.40610	200665
9.41422	270800
9.42233	328570
9.43047	387368
9.43858	469988
9.44672	558567
9.45483	612767
9.46295	597820
9.47108	509730
9.47920	398473
9.48733	294670
9.49545	210844
9.50357	181146
9.51170	168616
9.51982	184952
9.52795	212578
9.53607	249062
9.54418	244917
9.55232	238537
9.56043	204695
9.56855	176504
9.57668	149679
9.58480	131608
9.59293	121950
9.60105	122005
9.60917	112369
9.61730	115856
9.62542	100601
9.63355	101618
9.64167	92643
9.64978	89037
9.65792	91478
9.66603	94177
9.67417	89376
9.68228	93486
9.69040	90963
9.69853	92816
9.70665	91525
9.71477	94634
9.72290	98743
9.73102	98863
9.73915	99447
9.74727	91673
9.75538	85883
9.76352	83453
9.77163	76747
9.77977	83079
9.78788	75950
9.79600	73271
9.80413	75144
9.81225	76765
9.82037	74379
9.82850	76510
9.83662	81508
9.84475	71915
9.85287	74770
9.86098	79523
9.86912	79297
9.87723	81055
9.88537	79100
9.89348	75605
9.90160	71459
9.90973	73009
9.91785	76193
9.92598	79743
9.93410	95564
9.94222	133283
9.95035	208864
9.95847	335393
9.96658	492882
9.97472	618355
9.98283	650095
9.99097	573541
9.99908	421099
10.00720	295583
10.01533	198434
10.02345	160344
10.03158	142055
10.03970	139350
10.04782	142799
10.05595	153791
10.06407	162622
10.07220	179599
10.08032	179626
10.08843	173643
10.09657	173898
10.10468	157992
10.11280	154139
10.12093	148611
10.12905	146671
10.13718	139588
10.14530	134599
10.15342	128971
10.16155	126648
10.16967	128147
10.17780	119101
10.18592	119060
10.19403	120225
10.20217	115935
10.21028	108345
10.21840	119829
10.22653	109645
10.23465	113635
10.24278	113851
10.25090	128103
10.25902	177616
10.26715	360255
10.27527	940186
10.28340	2280937
10.29152	4557472
10.29963	7732462
10.30777	1.149152E+07
10.31588	1.533737E+07
10.32402	1.939062E+07
10.33213	2.467028E+07
10.34025	3.140782E+07
10.34838	4.010103E+07
10.35650	4.871289E+07
10.36462	5.581448E+07
10.37275	5.887786E+07
10.38087	5.046574E+07
10.38900	2.874001E+07
10.39712	1.224303E+07
10.40523	5959946
10.41337	3593823
10.42148	2351385
10.42962	1596793
10.43773	1272917
10.44585	1136176
10.45398	1093830
10.46210	1112945
10.47022	1121617
10.47835	1120654
10.48647	1033121
10.49460	882338
10.50272	752618
10.51083	653879
10.51897	594544
10.52708	552337
10.53522	549745
10.54333	580558
10.55145	589720
10.55958	608863
10.56770	603149
10.57583	531482
10.58395	486806
10.59207	471890
10.60020	452484
10.60832	410461
10.61643	387457
10.62457	371873
10.63268	349860
10.64082	322001
10.64893	322955
10.65705	309114
10.66518	284167
10.67330	295998
10.68143	286212
10.68955	283398
10.69767	290226
10.70580	302421
10.71392	306727
10.72205	297666
10.73017	305122
10.73828	297183
10.74642	283208
10.75453	264689
10.76265	259304
10.77078	243762
10.77890	228349
10.78703	226925
10.79515	231184
10.80327	217618
10.81140	243867
10.81952	251456
10.82765	269298
10.83577	269877
10.84388	259320
10.85202	236686
10.86013	207562
10.86825	188675
10.87638	181827
10.88450	180151
10.89263	168279
10.90075	170005
10.90887	168046
10.91700	169732
10.92512	171035
10.93325	168066
10.94137	162971
10.94948	158489
10.95762	162484
10.96573	159131
10.97387	154774
10.98198	155894
10.99010	153771
10.99823	157718
11.00635	159256
11.01447	177230
11.02260	185213
11.03072	189394
11.03885	191653
11.04697	177544
11.05508	173655
11.06322	156677
11.07133	156270
11.07947	174161
11.08758	191906
11.09570	213839
11.10383	225171
11.11195	216104
11.12008	207615
11.12820	194255
11.13632	173132
11.14445	150666
11.15257	134536
11.16068	126793
11.16882	130926
11.17693	128253
11.18507	125831
11.19318	127293
11.20130	118008
11.20943	114882
11.21755	114407
11.22568	103255
11.23380	103529
11.24192	95446
11.25005	88910
11.25817	95423
11.26628	86355
11.27442	86846
11.28253	84828
11.29067	87368
11.29878	89233
11.30690	117986
11.31503	233374
11.32315	534532
11.33128	1171257
11.33940	2211276
11.34752	3487769
11.35565	4540482
11.36377	4949850
11.37190	4383838
11.38002	3450032
11.38813	2421415
11.39627	1686561
11.40438	1241805
11.41250	1019469
11.42063	826390
11.42875	685716
11.43688	577105
11.44500	469157
11.45312	388410
11.46125	340168
11.46937	308058
11.47750	276554
11.48562	268100
11.49373	293806
11.50187	358731
11.50998	456556
11.51810	538838
11.52623	577458
11.53435	568441
11.54248	519880
11.55060	469093
11.55872	411841
11.56685	372579
11.57497	338631
11.58310	312708
11.59122	312741
11.59933	352988
11.60747	468093
11.61558	629268
11.62372	833720
11.63183	940620
11.63995	843967
11.64808	701179
11.65620	502650
11.66432	352446
11.67245	256621
11.68057	191739
11.68870	173200
11.69682	178172
11.70493	167203
11.71307	174811
11.72118	162421
11.72932	168598
11.73743	171008
11.74555	163498
11.75368	148313
11.76180	133962
11.76993	126657
11.77805	116010
11.78617	115132
11.79430	102599
11.80242	102917
11.81053	97697
11.81867	91758
11.82678	97132
11.83492	95201
11.84303	95024
11.85115	94546
11.85928	93881
11.86740	88958
11.87553	82267
11.88365	81788
11.89177	81249
11.89990	79370
11.90802	87529
11.91615	84956
11.92427	92111
11.93238	93955
11.94052	105824
11.94863	102720
11.95675	100805
11.96488	89666
11.97300	78735
11.98113	79748
11.98925	76410
11.99737	71018
12.00550	67072
12.01362	65183
12.02175	69588
12.02987	68539
12.03798	69948
12.04612	70349
12.05423	72468
12.06235	70495
12.07048	81246
12.07860	86872
12.08673	84272
12.09485	96628
12.10297	129338
12.11110	181972
12.11922	317849
12.12735	586450
12.13547	967695
12.14358	1377029
12.15172	1612046
12.15983	1570820
12.16797	1294688
12.17608	905359
12.18420	636815
12.19233	469357
12.20045	403880
12.20857	369438
12.21670	360422
12.22482	324647
12.23295	302272
12.24107	286088
12.24918	269751
12.25732	252934
12.26543	235520
12.27357	223676
12.28168	223939
12.28980	201062
12.29793	209711
12.30605	185698
12.31417	186828
12.32230	174823
12.33042	163150
12.33855	171297
12.34667	160421
12.35478	162213
12.36292	149481
12.37103	153355
12.37917	147928
12.38728	142885
12.39540	152934
12.40353	179450
12.41165	239464
12.41978	344652
12.42790	467325
12.43602	590709
12.44415	606420
12.45227	546699
12.46038	429508
12.46852	333442
12.47663	267480
12.48477	217259
12.49288	191804
12.50100	178187
12.50913	168107
12.51725	160452
12.52538	161559
12.53350	173039
12.54162	202945
12.54975	272467
12.55787	334352
12.56600	409921
12.57412	427179
12.58223	407806
12.59037	335716
12.59848	259459
12.60660	219663
12.61473	183883
12.62285	158633
12.63098	150532
12.63910	140977
12.64722	138101
12.65535	132403
12.66347	129787
12.67160	123323
12.67972	125762
12.68783	123709
12.69597	115334
12.70408	117759
12.71220	119843
12.72033	114227
12.72845	107709
12.73658	111848
12.74470	126843
12.75282	125900
12.76095	120801
12.76907	125492
12.77720	112834
12.78532	108690
12.79343	104564
12.80157	102429
12.80968	101752
12.81782	91149
12.82593	79850
12.83405	87025
12.84218	73690
12.85030	72871
12.85842	67510
12.86655	67492
12.87467	64479
12.88280	63745
12.89092	65922
12.89903	67006
12.90717	64384
12.91528	67990
12.92342	67743
12.93153	61339
12.93965	59707
12.94778	62728
12.95590	64012
12.96403	69190
12.97215	74277
12.98027	80013
12.98840	92662
12.99652	97438
13.00463	92843
13.01277	83289
13.02088	77071
13.02902	72820
13.03713	69612
13.04525	63801
13.05338	68482
13.06150	64506
13.06963	69346
13.07775	69775
13.08587	73460
13.09400	72806
13.10212	82028
13.11023	89380
13.11837	76430
13.12648	70719
13.13462	66597
13.14273	66340
13.15085	68024
13.15898	67486
13.16710	68637
13.17523	74631
13.18335	77026
13.19147	80789
13.19960	81370
13.20772	81578
13.21585	87918
13.22397	95088
13.23208	99055
13.24022	108074
13.24833	102832
13.25645	102568
13.26458	106310
13.27270	101382
13.28083	94544
13.28895	88775
13.29707	93891
13.30520	78599
13.31332	69317
13.32145	66597
13.32957	63554
13.33768	63107
13.34582	64253
13.35393	62648
13.36205	58775
13.37018	66872
13.37830	70038
13.38643	62876
13.39455	60408
13.40267	61748
13.41080	64839
13.41892	62170
13.42705	57371
13.43517	58785
13.44328	53599
13.45142	58609
13.45953	61828
13.46767	68091
13.47578	66791
13.48390	69568
13.49203	69363
13.50015	68745
13.50827	70429
13.51640	67526
13.52452	80178
13.53265	85444
13.54077	92150
13.54888	85844
13.55702	80417
13.56513	76930
13.57327	68453
13.58138	73634
13.58950	83942
13.59763	99229
13.60575	117971
13.61388	140362
13.62200	162177
13.63012	184622
13.63825	182008
13.64637	161065
13.65448	131289
13.66262	103610
13.67073	80935
13.67887	70530
13.68698	65561
13.69510	57373
13.70323	63249
13.71135	57288
13.71948	58203
13.72760	55505
13.73572	59758
13.74385	60365
13.75197	64995
13.76008	85855
13.76822	118911
13.77633	173390
13.78447	254485
13.79258	365734
13.80070	528808
13.80883	681773
13.81695	824432
13.82508	948697
13.83320	1137892
13.84132	1361433
13.84945	1572831
13.85757	1596379
13.86570	1417451
13.87382	1131730
13.88193	817461
13.89007	560370
13.89818	385537
13.90630	271105
13.91443	187455
13.92255	153794
13.93068	128860
13.93880	120853
13.94692	104663
13.95505	103558
13.96317	99127
13.97130	85659
13.97942	82658
13.98753	86076
13.99567	85017
14.00378	90664
14.01192	100261
14.02003	100771
14.02815	94462
14.03628	94051
14.04440	87347
14.05252	84189
14.06065	76989
14.06877	71209
14.07690	74963
14.08502	77870
14.09313	77321
14.10127	78643
14.10938	72983
14.11752	70893
14.12563	68997
14.13375	68595
14.14188	69203
14.15000	76252
14.15812	85815
14.16625	95329
14.17437	99858
14.18250	108751
14.19062	108300
14.19873	118238
14.20687	126826
14.21498	166193
14.22312	219408
14.23123	265196
14.23935	298030
14.24748	314356
14.25560	342357
14.26373	361877
14.27185	363825
14.27997	333561
14.28810	298035
14.29622	245208
14.30433	201574
14.31247	169045
14.32058	149956
14.32872	148628
14.33683	136985
14.34495	137029
14.35308	130422
14.36120	139163
14.36933	128795
14.37745	116192
14.38557	107498
14.39370	99681
14.40182	109248
14.40995	122964
14.41807	172100
14.42618	235267
14.43432	281868
14.44243	307454
14.45055	279333
14.45868	237385
14.46680	179574
14.47493	153852
14.48305	146373
14.49117	144816
14.49930	137129
14.50742	135078
14.51555	132764
14.52367	112129
14.53178	106143
14.53992	98809
14.54803	91347
14.55615	95442
14.56428	92260
14.57240	82688
14.58053	78359
14.58865	76539
14.59677	71900
14.60490	68815
14.61302	67317
14.62115	64308
14.62927	61184
14.63738	57566
14.64552	57784
14.65363	60646
14.66177	56751
14.66988	64058
14.67800	52741
14.68613	51715
14.69425	58484
14.70237	58786
14.71050	58592
14.71862	60978
14.72675	59400
14.73487	62082
14.74298	66593
14.75112	67865
14.75923	70572
14.76737	69639
14.77548	78795
14.78360	82854
14.79173	113181
14.79985	230875
14.80797	661093
14.81610	1916090
14.82422	4523038
14.83235	9054549
14.84047	1.508236E+07
14.84858	2.106602E+07
14.85672	2.542151E+07
14.86483	2.582769E+07
14.87297	2.141148E+07
14.88108	1.408438E+07
14.88920	7772063
14.89733	4141755
14.90545	2580670
14.91358	1936078
14.92170	1600367
14.92982	1359993
14.93795	1182417
14.94607	1080694
14.95418	1004024
14.96232	921133
14.97043	835465
14.97857	746609
14.98668	714067
14.99480	673091
15.00293	626102
15.01105	594921
15.01918	574239
15.02730	543636
15.03542	502414
15.04355	476371
15.05167	458376
15.05980	436450
15.06792	405662
15.07603	391950
15.08417	367862
15.09228	346767
15.10040	328603
15.10853	323636
15.11665	313042
15.12478	305256
15.13290	327496
15.14102	375097
15.14915	435945
15.15727	503663
15.16540	516413
15.17352	460913
15.18163	370525
15.18977	273359
15.19788	197452
15.20600	160621
15.21413	140208
15.22225	124650
15.23038	120607
15.23850	117081
15.24662	108516
15.25475	106713
15.26287	107941
15.27100	100423
15.27912	102102
15.28723	93264
15.29537	88133
15.30348	94991
15.31162	93737
15.31973	91157
15.32785	86013
15.33598	83317
15.34410	83221
15.35222	85361
15.36035	84902
15.36847	87049
15.37660	83887
15.38472	89415
15.39283	102922
15.40097	98107
15.40908	94472
15.41722	90420
15.42533	84780
15.43345	84236
15.44158	83009
15.44970	78701
15.45783	77788
15.46595	93197
15.47407	106049
15.48220	151834
15.49032	249651
15.49843	380302
15.50657	532057
15.51468	671700
15.52282	758702
15.53093	724041
15.53905	635437
15.54718	509469
15.55530	396044
15.56343	309194
15.57155	227746
15.57967	180709
15.58780	147693
15.59592	130321
15.60403	120428
15.61217	118563
15.62028	107778
15.62842	110936
15.63653	99146
15.64465	102267
15.65278	98432
15.66090	95359
15.66903	96649
15.67715	88970
15.68527	85874
15.69340	75468
15.70152	72518
15.70965	73325
15.71777	67063
15.72588	67419
15.73402	68182
15.74213	67883
15.75025	77521
15.75838	109780
15.76650	188115
15.77463	405623
15.78275	808531
15.79087	1399540
15.79900	1996372
15.80712	2190072
15.81525	2037066
15.82337	1581440
15.83148	1036428
15.83962	635089
15.84773	419510
15.85585	306838
15.86398	250372
15.87210	226489
15.88023	203093
15.88835	187609
15.89647	183253
15.90460	165736
15.91272	161400
15.92085	149566
15.92897	140609
15.93708	136343
15.94522	128599
15.95333	132294
15.96147	125075
15.96958	120687
15.97770	113909
15.98583	110988
15.99395	111348
16.00207	116432
16.01020	121734
16.01832	142610
16.02645	165027
16.03457	185685
16.04268	180401
16.05082	186376
16.05893	161797
16.06707	142355
16.07518	117254
16.08330	102719
16.09143	94547
16.09955	97917
16.10768	89101
16.11580	87712
16.12392	91608
16.13205	102560
16.14017	120885
16.14828	143410
16.15642	163405
16.16453	170525
16.17267	175076
16.18078	169878
16.18890	143134
16.19703	119626
16.20515	108293
16.21328	104120
16.22140	108819
16.22952	109610
16.23765	110124
16.24577	106091
16.25388	98251
16.26202	91910
16.27013	82204
16.27827	87173
16.28638	89175
16.29450	102493
16.30263	125163
16.31075	136790
16.31888	149133
16.32700	153008
16.33512	145324
16.34325	138896
16.35137	126138
16.35950	122820
16.36762	120330
16.37573	116185
16.38387	101880
16.39198	99061
16.40010	94800
16.40823	93003
16.41635	86473
16.42448	87513
16.43260	90456
16.44072	101710
16.44885	134036
16.45697	256776
16.46510	611036
16.47322	1477055
16.48133	2937256
16.48947	4676005
16.49758	5985098
16.50572	6370206
16.51383	5292772
16.52195	3744364
16.53008	2232730
16.53820	1273296
16.54632	783063
16.55445	558394
16.56257	448884
16.57070	393724
16.57882	352716
16.58693	311870
16.59507	301719
16.60318	279546
16.61132	258831
16.61943	244009
16.62755	211375
16.63568	206213
16.64380	199042
16.65192	176731
16.66005	168386
16.66817	159645
16.67630	156330
16.68442	152034
16.69253	147886
16.70067	143064
16.70878	132210
16.71692	123320
16.72503	123983
16.73315	106275
16.74128	104759
16.74940	109085
16.75753	123251
16.76565	146391
16.77377	179619
16.78190	198984
16.79002	196045
16.79813	175584
16.80627	140284
16.81438	111044
16.82252	92250
16.83063	88086
16.83875	74641
16.84688	75736
16.85500	73438
16.86313	72307
16.87125	70789
16.87937	72308
16.88750	69021
16.89562	62680
16.90373	64073
16.91187	65649
16.91998	62095
16.92812	63842
16.93623	64941
16.94435	66013
16.95248	69027
16.96060	66541
16.96873	68437
16.97685	63573
16.98497	66185
16.99310	66919
17.00122	74234
17.00935	76032
17.01747	76735
17.02558	71876
17.03372	80149
17.04183	91461
17.04995	115857
17.05808	142261
17.06620	165670
17.07433	187609
17.08245	183595
17.09057	155691
17.09870	138982
17.10682	109135
17.11495	95530
17.12307	93677
17.13118	91332
17.13932	98248
17.14743	101662
17.15557	100387
17.16368	97590
17.17180	99126
17.17993	94382
17.18805	92072
17.19617	84182
17.20430	82628
17.21242	76343
17.22055	75161
17.22867	72857
17.23678	69505
17.24492	67969
17.25303	68023
17.26117	72013
17.26928	74422
17.27740	74699
17.28553	72841
17.29365	68000
17.30178	66207
17.30990	65842
17.31802	74963
17.32615	96482
17.33427	130557
17.34238	172814
17.35052	233084
17.35863	268960
17.36677	285400
17.37488	265428
17.38300	250270
17.39113	211282
17.39925	195225
17.40738	184983
17.41550	165358
17.42362	171002
17.43175	167560
17.43987	173196
17.44798	164953
17.45612	162661
17.46423	151011
17.47237	133854
17.48048	123035
17.48860	115156
17.49673	106011
17.50485	101808
17.51298	102400
17.52110	100122
17.52922	103419
17.53735	97320
17.54547	100599
17.55360	108930
17.56172	116278
17.56983	171127
17.57797	349706
17.58608	773301
17.59420	1714581
17.60233	3148909
17.61045	4642366
17.61858	5913343
17.62670	6364558
17.63482	5547077
17.64295	4160967
17.65107	2714099
17.65920	1604662
17.66732	886122
17.67543	521716
17.68357	345440
17.69168	265056
17.69980	225573
17.70793	207225
17.71605	192095
17.72418	182002
17.73230	180771
17.74042	171199
17.74855	156074
17.75667	148130
17.76480	124391
17.77292	124408
17.78103	109610
17.78917	103330
17.79728	106185
17.80542	92648
17.81353	94317
17.82165	94695
17.82978	93645
17.83790	103088
17.84602	108965
17.85415	139534
17.86227	188089
17.87040	238439
17.87852	280478
17.88663	309253
17.89477	292199
17.90288	242616
17.91102	174728
17.91913	136176
17.92725	108474
17.93538	94971
17.94350	87310
17.95163	83206
17.95975	81578
17.96787	81748
17.97600	70183
17.98412	80912
17.99223	72406
18.00037	74547
18.00848	72020
18.01662	95328
18.02473	122656
18.03285	182056
18.04098	274908
18.04910	382997
18.05723	489496
18.06535	638548
18.07347	1038683
18.08160	1960970
18.08972	3691069
18.09783	5974116
18.10597	7868273
18.11408	8870009
18.12222	8281464
18.13033	6808779
18.13845	5122863
18.14658	3724837
18.15470	2845215
18.16283	2247620
18.17095	1959549
18.17907	1682469
18.18720	1456924
18.19532	1294527
18.20345	1146325
18.21157	992229
18.21968	922613
18.22782	859075
18.23593	777247
18.24405	717431
18.25218	673207
18.26030	620879
18.26843	578799
18.27655	530430
18.28467	462351
18.29280	393686
18.30092	313078
18.30905	241885
18.31717	187673
18.32528	160739
18.33342	145203
18.34153	132641
18.34967	135751
18.35778	128557
18.36590	122518
18.37403	113065
18.38215	115392
18.39027	110644
18.39840	109250
18.40652	115186
18.41465	114766
18.42277	125291
18.43088	152135
18.43902	175119
18.44713	213234
18.45527	304927
18.46338	481069
18.47150	771202
18.47963	1207525
18.48775	1771003
18.49587	2096335
18.50400	2168563
18.51212	1899446
18.52025	1444467
18.52837	942206
18.53648	559623
18.54462	336709
18.55273	231831
18.56087	174300
18.56898	139909
18.57710	124489
18.58523	120548
18.59335	106988
18.60148	111210
18.60960	119430
18.61772	130897
18.62585	137483
18.63397	143450
18.64208	153305
18.65022	161016
18.65833	142545
18.66647	126121
18.67458	109586
18.68270	103321
18.69083	90876
18.69895	86296
18.70708	87153
18.71520	81904
18.72332	84548
18.73145	80484
18.73957	71954
18.74768	72539
18.75582	75442
18.76393	79134
18.77207	72378
18.78018	72726
18.78830	73016
18.79643	69942
18.80455	71765
18.81268	75755
18.82080	89513
18.82892	108170
18.83705	154348
18.84517	220691
18.85330	253827
18.86142	266234
18.86953	294572
18.87767	295550
18.88578	305196
18.89390	314425
18.90203	320693
18.91015	315183
18.91828	320764
18.92640	327397
18.93452	338054
18.94265	357692
18.95077	377281
18.95890	407798
18.96702	429248
18.97513	452710
18.98327	449211
18.99138	436366
18.99952	405475
19.00763	378064
19.01575	349235
19.02388	332932
19.03200	312100
19.04012	298513
19.04825	297095
19.05637	289173
19.06450	293467
19.07262	286280
19.08073	292331
19.08887	288923
19.09698	306195
19.10512	338846
19.11323	378396
19.12135	386610
19.12948	402617
19.13760	373256
19.14572	346727
19.15385	327212
19.16197	293263
19.17010	281426
19.17822	270498
19.18633	265657
19.19447	247697
19.20258	255724
19.21072	261324
19.21883	254672
19.22695	259299
19.23508	255300
19.24320	267830
19.25133	257941
19.25945	253764
19.26757	262536
19.27570	254958
19.28382	267449
19.29193	257339
19.30007	266339
19.30818	283457
19.31632	285204
19.32443	274292
19.33255	272437
19.34068	264128
19.34880	262663
19.35693	281554
19.36505	332566
19.37317	407981
19.38130	504329
19.38942	582083
19.39755	617639
19.40567	586817
19.41378	499796
19.42192	415834
19.43003	358969
19.43815	311965
19.44628	301029
19.45440	290749
19.46253	288522
19.47065	278359
19.47877	278782
19.48690	270307
19.49502	275279
19.50315	287253
19.51127	309311
19.51938	329772
19.52752	370657
19.53563	415306
19.54375	437008
19.55188	436728
19.56000	416087
19.56813	373633
19.57625	347393
19.58437	307095
19.59250	278122
19.60062	248688
19.60875	237502
19.61687	224232
19.62498	219315
19.63312	222333
19.64123	231963
19.64937	266369
19.65748	336414
19.66560	493731
19.67373	702455
19.68185	941237
19.68997	1107320
19.69810	1174107
19.70622	1105596
19.71435	983960
19.72247	839761
19.73058	710446
19.73872	597047
19.74683	526796
19.75497	437043
19.76308	382228
19.77120	348937
19.77933	342476
19.78745	343694
19.79558	383409
19.80370	443426
19.81182	504819
19.81995	539913
19.82807	537891
19.83618	494534
19.84432	411957
19.85243	358272
19.86057	302283
19.86868	283160
19.87680	294081
19.88493	341370
19.89305	456388
19.90118	589652
19.90930	733158
19.91742	819882
19.92555	820066
19.93367	749837
19.94178	620466
19.94992	504874
19.95803	427655
19.96617	377617
19.97428	348899
19.98240	324840
19.99053	311766
19.99865	297740
20.00678	286132
20.01490	285726
20.02302	279781
20.03115	285936
20.03927	276246
20.04740	279844
20.05552	265105
20.06363	262438
20.07177	284164
20.07988	321785
20.08800	389721
20.09613	427511
20.10425	457076
20.11238	461515
20.12050	433344
20.12862	384980
20.13675	338981
20.14487	292420
20.15300	280316
20.16112	334115
20.16923	434307
20.17737	625347
20.18548	868957
20.19360	1177523
20.20173	1454228
20.20985	1619321
20.21798	1570098
20.22610	1375950
20.23422	1137097
20.24235	921722
20.25047	775201
20.25860	754551
20.26672	875811
20.27483	1092037
20.28297	1362915
20.29108	1583836
20.29922	1761948
20.30733	1697381
20.31545	1463281
20.32358	1187084
20.33170	902281
20.33982	655512
20.34795	482479
20.35607	373882
20.36420	321768
20.37232	270421
20.38043	245148
20.38857	227899
20.39668	217926
20.40482	210201
20.41293	200883
20.42105	196452
20.42918	201778
20.43730	217574
20.44543	252911
20.45355	277912
20.46167	309644
20.46980	328931
20.47792	330384
20.48603	308713
20.49417	278754
20.50228	248565
20.51042	215423
20.51853	202591
20.52665	190809
20.53478	183282
20.54290	188592
20.55103	196773
20.55915	199549
20.56727	189737
20.57540	197351
20.58352	191722
20.59163	183978
20.59977	170406
20.60788	170531
20.61602	161318
20.62413	167810
20.63225	152678
20.64038	170360
20.64850	166912
20.65663	172367
20.66475	176880
20.67287	190467
20.68100	178459
20.68912	190110
20.69725	177386
20.70537	167928
20.71348	158974
20.72162	156628
20.72973	146853
20.73785	148885
20.74598	142491
20.75410	146658
20.76223	163874
20.77035	181659
20.77847	201064
20.78660	245859
20.79472	313335
20.80285	495404
20.81097	853873
20.81908	1354838
20.82722	1964093
20.83533	2330125
20.84347	2243019
20.85158	1811156
20.85970	1273823
20.86783	838401
20.87595	492909
20.88407	323881
20.89220	254795
20.90032	218284
20.90845	209675
20.91657	203931
20.92468	227576
20.93282	227305
20.94093	244312
20.94907	264107
20.95718	256044
20.96530	254832
20.97343	234734
20.98155	221361
20.98967	198472
20.99780	177630
21.00592	166668
21.01405	158389
21.02217	152697
21.03028	160994
21.03842	169896
21.04653	168210
21.05467	169439
21.06278	167274
21.07090	162188
21.07903	157920
21.08715	154106
21.09528	153667
21.10340	150767
21.11152	143791
21.11965	144082
21.12777	143934
21.13588	153816
21.14402	182471
21.15213	254523
21.16027	356367
21.16838	495891
21.17650	586181
21.18463	657337
21.19275	604335
21.20088	508144
21.20900	387014
21.21712	306986
21.22525	255423
21.23337	218230
21.24148	205809
21.24962	186039
21.25773	165958
21.26587	161507
21.27398	146763
21.28210	140979
21.29023	133841
21.29835	136656
21.30648	131233
21.31460	136554
21.32272	130337
21.33085	128238
21.33897	128494
21.34710	134820
21.35522	132329
21.36333	131995
21.37147	137950
21.37958	133922
21.38770	150991
21.39583	170037
21.40395	207073
21.41208	251326
21.42020	310921
21.42832	345555
21.43645	363263
21.44457	364246
21.45270	324080
21.46082	287588
21.46893	241813
21.47707	217294
21.48518	200197
21.49332	181518
21.50143	163910
21.50955	161602
21.51768	141400
21.52580	137076
21.53392	132484
21.54205	130059
21.55017	123318
21.55830	123859
21.56642	123362
21.57453	128110
21.58267	138499
21.59078	163177
21.59892	187149
21.60703	215828
21.61515	228249
21.62328	217519
21.63140	206218
21.63953	200034
21.64765	209292
21.65577	236713
21.66390	273700
21.67202	323472
21.68013	357163
21.68827	393448
21.69638	408185
21.70452	380174
21.71263	357769
21.72075	288755
21.72888	233562
21.73700	198439
21.74513	174498
21.75325	152632
21.76137	148746
21.76950	138922
21.77762	137290
21.78573	138962
21.79387	135322
21.80198	135016
21.81012	132478
21.81823	134476
21.82635	135777
21.83448	149041
21.84260	165357
21.85073	197905
21.85885	224383
21.86697	250990
21.87510	260666
21.88322	245995
21.89135	218558
21.89947	205027
21.90758	182342
21.91572	166966
21.92383	162595
21.93195	149062
21.94008	145904
21.94820	131773
21.95633	130625
21.96445	120513
21.97257	109698
21.98070	101965
21.98882	106247
21.99695	95146
22.00507	93608
22.01318	104407
22.02132	109344
22.02943	105626
22.03755	114283
22.04568	124607
22.05380	134959
22.06193	139469
22.07005	134753
22.07817	132504
22.08630	122077
22.09442	126192
22.10255	118143
22.11067	107218
22.11878	103130
22.12692	100251
22.13503	98734
22.14317	94332
22.15128	96820
22.15940	98771
22.16753	97235
22.17565	99085
22.18377	97837
22.19190	90389
22.20002	94942
22.20815	88709
22.21627	94581
22.22438	98508
22.23252	100979
22.24063	112211
22.24877	116306
22.25688	117792
22.26500	131744
22.27313	138267
22.28125	135481
22.28938	144316
22.29750	146490
22.30562	159926
22.31375	160198
22.32187	156265
22.32998	152884
22.33812	145076
22.34623	141532
22.35437	129900
22.36248	122919
22.37060	120302
22.37873	117482
22.38685	125000
22.39498	135508
22.40310	186967
22.41122	281757
22.41935	426356
22.42747	573457
22.43558	671928
22.44372	714098
22.45183	670001
22.45997	541310
22.46808	396705
22.47620	287928
22.48433	227864
22.49245	222439
22.50058	220082
22.50870	257554
22.51682	288063
22.52495	319507
22.53307	334992
22.54120	320042
22.54932	283169
22.55743	254713
22.56557	202579
22.57368	181657
22.58180	156881
22.58993	142653
22.59805	131969
22.60618	119632
22.61430	111505
22.62242	112751
22.63055	103188
22.63867	97906
22.64680	103342
22.65492	108019
22.66303	111482
22.67117	115969
22.67928	120960
22.68742	130177
22.69553	134941
22.70365	173413
22.71178	227355
22.71990	288816
22.72802	348900
22.73615	379202
22.74427	382401
22.75240	343507
22.76052	282921
22.76863	229313
22.77677	211679
22.78488	219124
22.79302	256678
22.80113	343968
22.80925	450453
22.81738	583627
22.82550	680984
22.83362	702933
22.84175	649801
22.84987	525045
22.85800	429915
22.86612	357540
22.87423	302784
22.88237	291057
22.89048	295482
22.89862	311604
22.90673	332579
22.91485	362080
22.92298	391664
22.93110	435614
22.93923	519279
22.94735	540649
22.95547	525251
22.96360	462058
22.97172	361682
22.97983	280753
22.98797	216201
22.99608	178511
23.00422	152596
23.01233	140949
23.02045	126364
23.02858	109673
23.03670	107828
23.04483	105963
23.05295	102577
23.06107	104187
23.06920	105599
23.07732	114088
23.08543	120907
23.09357	124129
23.10168	124975
23.10982	121585
23.11793	112140
23.12605	107657
23.13418	110138
23.14230	97375
23.15043	107278
23.15855	102960
23.16667	107588
23.17480	103267
23.18292	98320
23.19105	91742
23.19917	88207
23.20728	88416
23.21542	86253
23.22353	81143
23.23165	86704
23.23978	80068
23.24790	94159
23.25603	102415
23.26415	129679
23.27227	163005
23.28040	195398
23.28852	204383
23.29665	197964
23.30477	175212
23.31288	149986
23.32102	122958
23.32913	113879
23.33727	120532
23.34538	145133
23.35350	199570
23.36163	276699
23.36975	354588
23.37787	414263
23.38600	457854
23.39412	443932
23.40225	403312
23.41037	318344
23.41848	247469
23.42662	184062
23.43473	155021
23.44287	132627
23.45098	123433
23.45910	119691
23.46723	114185
23.47535	108802
23.48347	107233
23.49160	99635
23.49972	96831
23.50785	100189
23.51597	95542
23.52408	93023
23.53222	97601
23.54033	96321
23.54847	102857
23.55658	113038
23.56470	121877
23.57283	133573
23.58095	163888
23.58908	208728
23.59720	261164
23.60532	352290
23.61345	407948
23.62157	422006
23.62968	399789
23.63782	341507
23.64593	260537
23.65407	199356
23.66218	155691
23.67030	143047
23.67843	140798
23.68655	135753
23.69468	127365
23.70280	119349
23.71092	110369
23.71905	106160
23.72717	97354
23.73530	91533
23.74342	95117
23.75153	84959
23.75967	91877
23.76778	139324
23.77590	256752
23.78403	574362
23.79215	1108179
23.80028	1808024
23.80840	2421661
23.81652	2698136
23.82465	2522728
23.83277	2066113
23.84090	1605606
23.84902	1183698
23.85713	880290
23.86527	662700
23.87338	542134
23.88150	450246
23.88963	395537
23.89775	366110
23.90588	373110
23.91400	391903
23.92212	443642
23.93025	499213
23.93837	538864
23.94650	503117
23.95462	436226
23.96273	372432
23.97087	305536
23.97898	247197
23.98712	219466
23.99523	198292
24.00335	199088
24.01148	182594
24.01960	187831
24.02772	223075
24.03585	275561
24.04397	341686
24.05210	378552
24.06022	371003
24.06833	324616
24.07647	260089
24.08458	203252
24.09272	170746
24.10083	149147
24.10895	145957
24.11708	131958
24.12520	134220
24.13333	136809
24.14145	141188
24.14957	156087
24.15770	188758
24.16582	210275
24.17393	230039
24.18207	244761
24.19018	244904
24.19832	246710
24.20643	246841
24.21455	224659
24.22268	220273
24.23080	207518
24.23893	194848
24.24705	187391
24.25517	178876
24.26330	179451
24.27142	163242
24.27953	147505
24.28767	146415
24.29578	136373
24.30392	137725
24.31203	140965
24.32015	146260
24.32828	155337
24.33640	153888
24.34453	154919
24.35265	146900
24.36077	142377
24.36890	135526
24.37702	131416
24.38515	118326
24.39327	112768
24.40138	122820
24.40952	124819
24.41763	143862
24.42575	161013
24.43388	170227
24.44200	168705
24.45013	160474
24.45825	144033
24.46637	131778
24.47450	122159
24.48262	122854
24.49075	118174
24.49887	114530
24.50698	118918
24.51512	127987
24.52323	135030
24.53135	143685
24.53948	164684
24.54760	182343
24.55573	220763
24.56385	255341
24.57197	290397
24.58010	314303
24.58822	312076
24.59635	292168
24.60447	262062
24.61258	232918
24.62072	218952
24.62883	198934
24.63697	184619
24.64508	169400
24.65320	161004
24.66133	153739
24.66945	161487
24.67757	151888
24.68570	166486
24.69382	155840
24.70195	150361
24.71007	150004
24.71818	143324
24.72632	154978
24.73443	153613
24.74257	155389
24.75068	157582
24.75880	147999
24.76693	156743
24.77505	163986
24.78318	187215
24.79130	188934
24.79942	216797
24.80755	216939
24.81567	218648
24.82378	206321
24.83192	205319
24.84003	224318
24.84817	280669
24.85628	383500
24.86440	556107
24.87253	792352
24.88065	1210890
24.88878	1750566
24.89690	2429067
24.90502	3015327
24.91315	3359332
24.92127	3186225
24.92938	2576806
24.93752	1840916
24.94563	1150879
24.95377	682268
24.96188	398900
24.97000	264793
24.97813	187571
24.98625	150060
24.99438	132508
25.00250	125111
25.01062	120045
25.01875	118500
25.02687	109854
25.03500	111247
25.04312	112829
25.05123	110855
25.05937	105171
25.06748	104416
25.07560	108186
25.08373	113685
25.09185	120290
25.09998	138940
25.10810	217321
25.11622	460671
25.12435	1143842
25.13247	2697676
25.14060	5434405
25.14872	9351076
25.15683	1.335652E+07
25.16497	1.581691E+07
25.17308	1.58053E+07
25.18122	1.384364E+07
25.18933	1.031189E+07
25.19745	6537858
25.20558	3419911
25.21370	1800157
25.22182	941985
25.22995	535383
25.23807	352815
25.24620	299922
25.25432	340715
25.26243	427132
25.27057	565231
25.27868	731162
25.28682	825454
25.29493	814282
25.30305	723111
25.31118	577233
25.31930	427970
25.32742	307330
25.33555	223577
25.34367	174104
25.35180	150178
25.35992	133646
25.36803	124078
25.37617	117964
25.38428	105973
25.39242	108326
25.40053	96296
25.40865	96093
25.41678	92917
25.42490	91956
25.43303	94586
25.44115	97868
25.44927	109270
25.45740	137233
25.46552	149849
25.47363	149065
25.48177	131489
25.48988	114060
25.49802	112074
25.50613	106520
25.51425	115885
25.52238	111739
25.53050	102844
25.53863	97550
25.54675	99450
25.55487	97642
25.56300	92566
25.57112	92659
25.57923	92351
25.58737	93676
25.59548	94575
25.60362	88290
25.61173	92373
25.61985	91947
25.62798	95907
25.63610	85508
25.64423	86768
25.65235	83864
25.66047	87412
25.66860	87199
25.67672	90326
25.68485	92817
25.69297	94041
25.70108	94648
25.70922	111063
25.71733	101980
25.72545	104407
25.73358	114942
25.74170	102851
25.74983	99526
25.75795	103625
25.76607	87019
25.77420	87813
25.78232	87630
25.79045	77904
25.79857	76475
25.80668	80813
25.81482	81751
25.82293	82930
25.83107	84677
25.83918	85310
25.84730	82655
25.85543	95682
25.86355	121510
25.87167	174077
25.87980	277591
25.88792	358952
25.89605	417041
25.90417	437745
25.91228	443940
25.92042	438045
25.92853	452686
25.93667	443601
25.94478	441742
25.95290	441650
25.96103	459789
25.96915	463474
25.97727	479867
25.98540	460792
25.99352	449885
26.00165	449440
26.00977	438470
26.01788	449290
26.02602	437760
26.03413	430202
26.04227	420739
26.05038	439084
26.05850	427156
26.06663	430662
26.07475	421859
26.08288	436347
26.09100	454300
26.09912	462298
26.10725	454844
26.11537	455365
26.12348	461740
26.13162	446910
26.13973	436834
26.14787	435460
26.15598	432575
26.16410	449274
26.17223	449342
26.18035	450690
26.18848	466198
26.19660	442182
26.20472	427899
26.21285	424954
26.22097	425890
26.22910	420429
26.23722	419422
26.24533	415498
26.25347	413293
26.26158	413589
26.26970	401556
26.27783	383665
26.28595	388753
26.29408	382960
26.30220	369146
26.31032	380370
26.31845	368968
26.32657	370897
26.33470	361741
26.34282	365960
26.35093	371644
26.35907	381279
26.36718	426164
26.37530	531203
26.38343	699703
26.39155	950629
26.39968	1273530
26.40780	1544254
26.41592	1696210
26.42405	1634785
26.43217	1430435
26.44030	1175041
26.44842	904213
26.45653	705920
26.46467	561947
26.47278	475621
26.48092	424985
26.48903	397049
26.49715	394686
26.50528	369355
26.51340	369497
26.52152	342284
26.52965	333243
26.53777	325192
26.54590	314007
26.55402	317534
26.56213	314775
26.57027	306927
26.57838	294365
26.58652	309031
26.59463	298836
26.60275	292432
26.61088	300322
26.61900	304142
26.62712	299347
26.63525	291624
26.64337	292019
26.65150	295574
26.65962	282070
26.66773	281993
26.67587	287217
26.68398	286698
26.69212	286253
26.70023	277432
26.70835	273494
26.71648	275170
26.72460	275280
26.73273	258776
26.74085	260438
26.74897	266602
26.75710	254366
26.76522	260584
26.77333	256033
26.78147	255245
26.78958	249099
26.79772	263525
26.80583	257634
26.81395	257630
26.82208	268280
26.83020	272596
26.83833	263544
26.84645	255657
26.85457	255213
26.86270	249482
26.87082	248207
26.87895	236080
26.88707	250737
26.89518	251078
26.90332	243217
26.91143	236983
26.91955	229527
26.92768	226078
26.93580	224517
26.94393	228721
26.95205	215805
26.96017	222943
26.96830	233010
26.97642	248346
26.98455	275173
26.99267	345033
27.00078	497981
27.00892	747818
27.01703	1183467
27.02517	1713080
27.03328	2144695
27.04140	2329528
27.04953	2113850
27.05765	1863121
27.06577	1514746
27.07390	1130387
27.08202	883829
27.09015	705503
27.09827	605306
27.10638	521798
27.11452	480254
27.12263	452454
27.13077	431251
27.13888	417785
27.14700	399650
27.15513	381358
27.16325	379050
27.17137	387524
27.17950	405021
27.18762	442557
27.19575	470702
27.20387	485018
27.21198	482921
27.22012	460442
27.22823	425974
27.23637	378028
27.24448	351134
27.25260	321462
27.26073	291080
27.26885	279248
27.27698	255617
27.28510	247284
27.29322	253238
27.30135	233398
27.30947	238377
27.31758	233461
27.32572	230479
27.33383	230725
27.34197	228162
27.35008	225400
27.35820	232177
27.36633	231890
27.37445	234250
27.38258	241469
27.39070	236593
27.39882	234530
27.40695	224195
27.41507	214730
27.42318	216608
27.43132	207432
27.43943	204101
27.44757	202667
27.45568	201009
27.46380	200944
27.47193	199993
27.48005	190190
27.48818	186809
27.49630	182485
27.50442	177962
27.51255	173063
27.52067	171236
27.52880	173414
27.53692	175973
27.54503	179226
27.55317	186329
27.56128	173654
27.56940	175468
27.57753	191891
27.58565	219872
27.59378	246541
27.60190	288914
27.61002	325209
27.61815	360364
27.62627	341530
27.63440	316701
27.64252	274443
27.65063	241640
27.65877	208661
27.66688	193092
27.67502	185231
27.68313	178691
27.69125	177650
27.69938	181334
27.70750	184445
27.71562	180286
27.72375	180569
27.73187	166260
27.74000	158163
27.74812	148008
27.75623	145176
27.76437	141909
27.77248	134147
27.78062	143640
27.78873	154893
27.79685	168513
27.80498	169882
27.81310	174424
27.82122	167057
27.82935	157186
27.83747	142988
27.84560	142262
27.85372	136038
27.86183	138312
27.86997	126603
27.87808	132500
27.88622	127576
27.89433	129104
27.90245	123491
27.91058	130064
27.91870	130953
27.92683	132715
27.93495	132973
27.94307	123737
27.95120	126941
27.95932	122003
27.96743	122575
27.97557	119393
27.98368	122869
27.99182	125717
27.99993	126781
28.00805	131188
28.01618	142726
28.02430	148049
28.03243	158377
28.04055	175197
28.04867	202932
28.05680	227597
28.06492	249269
28.07305	257968
28.08117	246228
28.08928	214462
28.09742	183287
28.10553	163790
28.11365	141137
28.12178	133192
28.12990	122928
28.13803	119475
28.14615	114707
28.15427	109938
28.16240	114050
28.17052	113855
28.17865	114778
28.18677	112478
28.19488	123759
28.20302	145311
28.21113	177705
28.21925	235892
28.22738	284771
28.23550	321642
28.24363	346550
28.25175	337568
28.25987	308870
28.26800	261335
28.27612	202070
28.28425	162133
28.29237	139741
28.30048	130211
28.30862	139196
28.31673	149997
28.32487	179204
28.33298	214992
28.34110	242755
28.34923	257863
28.35735	277130
28.36547	292714
28.37360	320113
28.38172	324784
28.38985	351058
28.39797	367682
28.40608	376996
28.41422	374109
28.42233	359589
28.43047	334788
28.43858	308421
28.44670	284604
28.45483	245226
28.46295	232558
28.47107	204644
28.47920	196029
28.48732	185091
28.49545	183553
28.50357	187181
28.51168	193662
28.51982	190544
28.52793	190522
28.53607	195978
28.54418	173788
28.55230	161346
28.56043	146014
28.56855	135013
28.57668	130514
28.58480	121177
28.59292	119734
28.60105	127281
28.60917	119631
28.61728	128522
28.62542	128941
28.63353	131500
28.64167	145057
28.64978	146323
28.65790	148859
28.66603	148196
28.67415	147229
28.68228	139788
28.69040	134757
28.69852	132321
28.70665	128481
28.71477	116717
28.72290	117079
28.73102	114858
28.73913	102682
28.74727	106853
28.75538	101604
28.76350	106732
28.77163	107380
28.77975	110045
28.78788	116192
28.79600	126511
28.80412	143488
28.81225	169321
28.82037	166233
28.82850	176889
28.83662	176538
28.84473	158907
28.85287	160175
28.86098	142305
28.86910	136245
28.87723	134797
28.88535	134568
28.89348	157714
28.90160	183976
28.90972	207813
28.91785	230262
28.92597	226498
28.93410	195859
28.94222	174512
28.95033	148931
28.95847	132627
28.96658	127354
28.97472	116986
28.98283	114279
28.99095	107260
28.99908	101344
29.00720	102646
29.01532	98786
29.02345	98035
29.03157	99405
29.03970	94907
29.04782	101104
29.05593	96992
29.06407	95424
29.07218	95372
29.08032	98812
29.08843	106541
29.09655	114420
29.10468	124058
29.11280	115251
29.12093	118149
29.12905	117774
29.13717	102889
29.14530	100765
29.15342	97797
29.16153	91927
29.16967	96066
29.17778	95269
29.18592	99776
29.19403	111604
29.20215	139498
29.21028	195927
29.21840	251942
29.22653	309121
29.23465	369378
29.24277	355576
29.25090	335564
29.25902	288191
29.26713	245374
29.27527	204243
29.28338	188051
29.29152	150610
29.29963	133315
29.30775	115254
29.31588	104651
29.32400	100738
29.33213	90914
29.34025	95037
29.34837	93219
29.35650	86447
29.36462	88069
29.37275	93833
29.38087	89771
29.38898	86975
29.39712	84489
29.40523	81661
29.41335	89579
29.42148	88649
29.42960	93021
29.43773	99416
29.44585	101729
29.45397	101311
29.46210	94948
29.47022	95682
29.47835	88870
29.48647	85255
29.49458	89650
29.50272	92488
29.51083	92779
29.51897	103423
29.52708	102150
29.53520	108460
29.54333	112554
29.55145	105178
29.55957	100781
29.56770	100985
29.57582	91088
29.58395	89888
29.59207	91331
29.60018	87784
29.60832	85634
29.61643	85466
29.62457	88753
29.63268	86009
29.64080	84086
29.64893	86552
29.65705	83251
29.66517	90373
29.67330	95502
29.68142	91417
29.68955	99245
29.69767	114839
29.70578	119415
29.71392	123643
29.72203	128209
29.73017	123601
29.73828	107651
29.74640	96939
29.75453	89885
29.76265	89785
29.77078	81698
29.77890	86244
29.78702	78370
29.79515	80897
29.80327	80179
29.81138	81844
29.81952	78332
29.82763	78329
29.83577	77900
29.84388	80850
29.85200	82529
29.86013	79978
29.86825	83802
29.87638	91663
29.88450	104051
29.89262	121568
29.90075	165374
29.90887	209848
29.91698	245255
29.92512	255079
29.93323	222439
29.94137	184119
29.94948	151129
29.95760	117123
29.96573	96918
29.97385	99007
29.98198	94405
29.99010	100446
29.99822	108800
30.00635	114878
30.01447	141543
30.02260	150952
30.03072	163467
30.03883	170903
30.04697	186890
30.05508	194504
30.06320	195152
30.07133	189575
30.07945	185541
30.08758	187346
30.09570	180947
30.10382	177357
30.11195	163863
30.12007	158073
30.12820	150483
30.13632	146757
30.14443	136752
30.15257	137116
30.16068	129343
30.16882	128088
30.17693	119066
30.18505	117192
30.19318	119380
30.20130	127884
30.20942	127704
30.21755	134994
30.22567	136353
30.23380	126687
30.24192	120910
30.25003	110948
30.25817	110585
30.26628	108649
30.27442	97253
30.28253	96028
30.29065	88436
30.29878	87944
30.30690	87403
30.31502	90334
30.32315	92403
30.33127	91506
30.33940	86440
30.34752	90803
30.35563	89876
30.36377	86798
30.37188	89218
30.38002	89200
30.38813	90184
30.39625	82845
30.40438	79073
30.41250	84641
30.42063	83273
30.42875	78230
30.43687	88567
30.44500	79035
30.45312	82856
30.46123	86784
30.46937	82950
30.47748	78719
30.48562	83283
30.49373	83206
30.50185	86838
30.50998	86585
30.51810	86681
30.52623	80888
30.53435	79911
30.54247	84060
30.55060	79666
30.55872	83073
30.56685	85908
30.57497	85955
30.58308	83442
30.59122	84113
30.59933	85047
30.60745	86962
30.61558	88662
30.62370	86210
30.63183	90795
30.63995	86719
30.64807	82265
30.65620	84577
30.66432	81214
30.67245	77852
30.68057	72892
30.68868	75605
30.69682	71965
30.70493	73652
30.71305	70105
30.72118	73346
30.72930	82281
30.73743	73320
30.74555	73200
30.75367	74427
30.76180	74850
30.76992	76093
30.77805	76760
30.78617	90694
30.79428	120548
30.80242	154409
30.81053	224916
30.81867	315677
30.82678	380018
30.83490	416618
30.84303	360372
30.85115	279134
30.85927	210178
30.86740	148590
30.87552	118169
30.88365	116052
30.89177	111187
30.89988	103827
30.90802	106943
30.91613	101133
30.92427	96433
30.93238	91236
30.94050	84606
30.94863	82050
30.95675	86771
30.96487	89273
30.97300	90022
30.98112	90866
30.98925	91652
30.99737	85024
31.00548	87009
31.01362	82358
31.02173	80191
31.02987	80614
31.03798	84131
31.04610	78449
31.05423	78914
31.06235	82490
31.07048	85203
31.07860	78688
31.08672	82855
31.09485	86101
31.10297	94947
31.11108	116780
31.11922	128506
31.12733	141097
31.13547	141625
31.14358	136171
31.15170	132550
31.15983	124894
31.16795	122011
31.17608	123163
31.18420	131260
31.19232	132564
31.20045	135875
31.20857	171203
31.21670	204301
31.22482	251679
31.23293	315181
31.24107	337457
31.24918	342802
31.25730	315356
31.26543	247006
31.27355	188315
31.28168	144409
31.28980	110975
31.29792	98600
31.30605	87975
31.31417	93371
31.32230	95793
31.33042	103366
31.33853	112762
31.34667	120028
31.35478	124393
31.36292	122440
31.37103	119184
31.37915	105696
31.38728	95464
31.39540	88337
31.40352	84659
31.41165	80155
31.41977	83848
31.42790	81272
31.43602	81027
31.44413	77901
31.45227	83419
31.46038	78610
31.46852	84288
31.47663	84492
31.48475	83349
31.49288	85161
31.50100	86687
31.50912	88773
31.51725	97560
31.52537	103399
31.53350	110390
31.54162	110944
31.54973	106172
31.55787	107958
31.56598	104116
31.57412	103683
31.58223	101051
31.59035	97397
31.59848	89235
31.60660	81718
31.61473	81599
31.62285	79334
31.63097	81276
31.63910	78061
31.64722	82403
31.65533	85458
31.66347	94861
31.67158	98877
31.67972	113855
31.68783	123698
31.69595	130038
31.70408	135012
31.71220	125003
31.72033	113541
31.72845	100889
31.73657	84130
31.74470	79706
31.75282	80429
31.76093	76754
31.76907	75267
31.77718	77404
31.78532	77267
31.79343	71629
31.80155	75812
31.80968	83452
31.81780	85832
31.82593	76927
31.83405	82557
31.84217	81370
31.85030	77768
31.85842	81714
31.86655	86534
31.87467	92511
31.88278	101187
31.89092	102321
31.89903	94290
31.90715	87764
31.91528	80432
31.92340	83690
31.93153	80688
31.93965	77218
31.94777	84588
31.95590	96759
31.96402	103419
31.97215	108020
31.98027	123446
31.98838	143235
31.99652	152234
32.00463	158025
32.01275	170686
32.02088	179747
32.02900	177843
32.03713	179618
32.04525	162993
32.05337	148361
32.06150	139358
32.06962	125080
32.07775	116334
32.08587	106623
32.09398	104837
32.10212	104694
32.11023	107040
32.11837	103153
32.12648	104637
32.13460	96116
32.14273	92301
32.15085	89771
32.15897	91230
32.16710	85391
32.17522	86981
32.18335	83160
32.19147	84581
32.19958	79289
32.20772	80842
32.21583	80494
32.22397	80509
32.23208	82984
32.24020	80257
32.24833	75127
32.25645	80043
32.26458	77884
32.27270	83354
32.28082	75680
32.28895	82870
32.29707	79126
32.30518	82090
32.31332	82199
32.32143	75208
32.32957	77797
32.33768	79067
32.34580	73670
32.35393	76977
32.36205	79397
32.37018	79993
32.37830	80259
32.38642	77220
32.39455	76848
32.40267	80643
32.41080	79755
32.41892	72270
32.42703	73252
32.43517	77557
32.44328	74267
32.45140	70445
32.45953	72313
32.46765	72331
32.47578	77848
32.48390	73816
32.49202	68953
32.50015	73538
32.50827	71754
32.51640	72226
32.52452	82578
32.53263	77592
32.54077	72031
32.54888	84172
32.55700	75677
32.56513	79225
32.57325	75302
32.58138	75235
32.58950	75294
32.59762	75427
32.60575	69807
32.61387	77959
32.62200	72326
32.63012	70444
32.63823	68251
32.64637	76755
32.65448	73440
32.66262	74936
32.67073	72901
32.67885	78477
32.68698	85041
32.69510	83009
32.70322	94117
32.71135	89769
32.71947	93750
32.72760	91635
32.73572	86271
32.74383	87563
32.75197	82768
32.76008	79872
32.76822	74718
32.77633	78856
32.78445	77551
32.79258	78469
32.80070	72054
32.80882	71415
32.81695	75638
32.82507	72210
32.83320	74705
32.84132	76663
32.84943	77318
32.85757	74021
32.86568	76873
32.87382	80296
32.88193	80942
32.89005	81317
32.89818	84177
32.90630	91345
32.91443	96757
32.92255	98340
32.93067	94801
32.93880	93458
32.94692	90990
32.95503	86680
32.96317	84007
32.97128	78293
32.97942	86716
32.98753	96809
32.99565	123696
33.00378	158963
33.01190	193811
33.02003	236310
33.02815	250484
33.03627	231419
33.04440	194431
33.05252	162659
33.06065	143867
33.06877	142074
33.07688	148910
33.08502	165520
33.09313	182148
33.10125	207093
33.10938	220124
33.11750	233520
33.12563	248378
33.13375	243520
33.14187	232082
33.15000	194850
33.15812	172266
33.16625	157990
33.17437	144815
33.18248	126099
33.19062	117404
33.19873	102225
33.20685	93714
33.21498	97421
33.22310	88139
33.23123	93883
33.23935	94068
33.24747	92867
33.25560	94198
33.26372	92446
33.27185	87487
33.27997	85852
33.28808	84638
33.29622	82122
33.30433	75979
33.31247	84190
33.32058	87037
33.32870	81423
33.33683	86424
33.34495	87835
33.35307	95601
33.36120	95590
33.36932	106199
33.37745	113732
33.38557	118483
33.39368	111793
33.40182	107233
33.40993	98895
33.41807	91834
33.42618	87182
33.43430	82217
33.44243	75348
33.45055	74273
33.45868	73437
33.46680	67678
33.47492	73878
33.48305	74791
33.49117	72724
33.49928	71339
33.50742	73194
33.51553	79834
33.52367	82986
33.53178	83385
33.53990	95197
33.54803	101963
33.55615	105566
33.56428	123663
33.57240	144175
33.58052	131725
33.58865	139939
33.59677	130242
33.60488	101693
33.61302	91914
33.62113	84407
33.62927	84034
33.63738	80063
33.64550	83495
33.65363	83840
33.66175	89028
33.66988	87713
33.67800	95469
33.68612	95392
33.69425	88707
33.70237	86752
33.71050	83678
33.71862	74919
33.72673	73294
33.73487	82984
33.74298	76715
33.75110	68572
33.75923	74334
33.76735	76858
33.77548	74921
33.78360	70279
33.79172	69514
33.79985	73542
33.80797	70035
33.81610	70888
33.82422	74131
33.83233	76001
33.84047	68709
33.84858	69744
33.85670	75430
33.86483	76235
33.87295	76337
33.88108	79608
33.88920	79151
33.89732	75526
33.90545	79937
33.91357	79926
33.92170	78288
33.92982	82905
33.93793	78203
33.94607	75252
33.95418	75233
33.96232	73098
33.97043	71286
33.97855	71528
33.98668	72954
33.99480	69638
34.00292	69457
34.01105	75990
34.01917	64815
34.02730	71069
34.03542	70382
34.04353	72262
34.05167	73917
34.05978	70020
34.06792	70153
34.07603	74262
34.08415	70681
34.09228	77144
34.10040	72517
34.10853	68217
34.11665	65865
34.12477	70388
34.13290	75818
34.14102	71431
34.14913	71461
34.15727	75786
34.16538	70833
34.17352	74748
34.18163	71304
34.18975	70140
34.19788	70873
34.20600	75188
34.21413	73960
34.22225	70170
34.23037	69437
34.23850	71826
34.24662	70967
34.25473	69132
34.26287	69292
34.27098	62412
34.27912	68815
34.28723	64166
34.29535	65351
34.30348	66586
34.31160	61092
34.31973	67185
34.32785	67921
34.33597	70286
34.34410	71375
34.35222	65991
34.36035	68549
34.36847	72129
34.37658	67788
34.38472	73567
34.39283	71713
34.40095	69273
34.40908	70709
34.41720	69815
34.42533	67026
34.43345	74701
34.44157	67491
34.44970	69525
34.45782	74797
34.46595	71025
34.47407	69208
34.48218	67393
34.49032	69467
34.49843	66577
34.50657	69370
34.51468	64645
34.52280	70499
34.53093	69535
34.53905	69434
34.54717	77582
34.55530	89540
34.56342	95915
34.57155	111095
34.57967	115754
34.58778	128269
34.59592	127685
34.60403	128496
34.61217	122753
34.62028	114958
34.62840	104214
34.63653	97855
34.64465	93578
34.65277	94590
34.66090	86885
34.66902	90503
34.67715	86533
34.68527	85881
34.69338	82896
34.70152	83974
34.70963	85511
34.71777	86083
34.72588	74511
34.73400	77775
34.74213	79253
34.75025	77066
34.75838	79543
34.76650	82814
34.77462	83745
34.78275	85851
34.79087	88289
34.79898	88834
34.80712	85486
34.81523	88321
34.82337	83810
34.83148	83217
34.83960	75866
34.84773	74530
34.85585	75421
34.86398	77789
34.87210	81280
34.88022	76562
34.88835	75817
34.89647	79106
34.90460	75241
34.91272	73604
34.92083	75246
34.92897	70463
34.93708	75666
34.94520	75423
34.95333	86492
34.96145	85275
34.96958	93683
34.97770	94495
34.98582	97155
34.99395	101117
35.00207	97790
35.01020	101310
35.01832	91507
35.02643	81926
35.03457	81267
35.04268	76016
35.05080	82174
35.05893	79747
35.06705	80221
35.07518	78268
35.08330	78951
35.09142	80718
35.09955	74920
35.10767	70575
35.11580	72489
35.12392	74866
35.13203	78340
35.14017	81264
35.14828	79034
35.15642	78691
35.16453	84342
35.17265	79783
35.18078	84212
35.18890	87922
35.19702	85947
35.20515	86716
35.21327	78019
35.22140	84326
35.22952	81487
35.23763	75239
35.24577	77251
35.25388	84536
35.26202	79036
35.27013	79666
35.27825	78619
35.28638	75811
35.29450	76625
35.30262	79897
35.31075	78638
35.31887	78357
35.32700	76885
35.33512	74832
35.34323	76661
35.35137	72727
35.35948	73228
35.36762	78424
35.37573	69055
35.38385	77183
35.39198	74199
35.40010	70420
35.40823	78409
35.41635	81421
35.42447	87434
35.43260	101084
35.44072	100622
35.44883	97675
35.45697	92389
35.46508	98112
35.47322	97589
35.48133	93959
35.48945	90348
35.49758	87932
35.50570	89248
35.51383	93463
35.52195	86520
35.53007	85526
35.53820	83881
35.54632	80547
35.55445	79153
35.56257	77208
35.57068	72863
35.57882	73640
35.58693	78589
35.59505	78309
35.60318	80494
35.61130	77292
35.61943	75151
35.62755	69574
35.63567	79263
35.64380	74670
35.65192	76890
35.66005	80191
35.66817	74129
35.67628	73057
35.68442	72205
35.69253	79441
35.70065	77666
35.70878	83015
35.71690	82343
35.72503	81572
35.73315	88185
35.74127	87652
35.74940	89500
35.75752	98208
35.76565	110032
35.77377	120164
35.78188	138592
35.79002	144844
35.79813	147327
35.80627	137835
35.81438	115500
35.82250	105921
35.83063	90101
35.83875	81744
35.84687	85576
35.85500	83286
35.86312	80057
35.87125	80127
35.87937	80963
35.88748	83053
35.89562	83643
35.90373	80174
35.91187	82951
35.91998	76449
35.92810	77250
35.93623	78898
35.94435	78335
35.95248	80565
35.96060	74631
35.96872	79677
35.97685	75955
35.98497	76235
35.99308	77908
36.00122	77618
36.00933	77609
36.01747	76850
36.02558	81618
36.03370	80123
36.04183	85717
36.04995	86925
36.05808	86105
36.06620	82195
36.07432	82353
36.08245	81019
36.09057	79918
36.09868	84341
36.10682	78652
36.11493	79344
36.12307	80339
36.13118	84028
36.13930	89577
36.14743	90655
36.15555	98558
36.16368	100462
36.17180	105866
36.17992	102341
36.18805	95769
36.19617	87950
36.20430	86663
36.21242	83865
36.22053	81841
36.22867	77245
36.23678	81159
36.24490	77707
36.25303	76454
36.26115	79866
36.26928	79379
36.27740	76962
36.28552	81036
36.29365	82676
36.30177	80496
36.30990	84374
36.31802	81482
36.32613	89022
36.33427	90482
36.34238	96152
36.35050	96099
36.35863	93666
36.36675	89947
36.37488	91239
36.38300	90261
36.39112	85739
36.39925	87198
36.40737	97131
36.41550	95241
36.42362	92768
36.43173	90551
36.43987	87659
36.44798	92837
36.45612	93476
36.46423	88355
36.47235	88790
36.48048	84451
36.48860	81768
36.49672	82314
36.50485	82996
36.51297	78918
36.52110	76217
36.52922	77645
36.53733	85541
36.54547	77253
36.55358	81205
36.56172	84472
36.56983	83281
36.57795	83879
36.58608	80697
36.59420	75935
36.60233	79463
36.61045	82709
36.61857	80563
36.62670	79400
36.63482	79978
36.64293	86030
36.65107	83634
36.65918	78789
36.66732	78715
36.67543	82712
36.68355	82372
36.69168	83022
36.69980	79150
36.70793	81415
36.71605	87970
36.72417	87019
36.73230	82589
36.74042	87442
36.74855	83634
36.75667	88672
36.76478	87724
36.77292	87073
36.78103	80312
36.78915	80306
36.79728	82346
36.80540	86818
36.81353	80954
36.82165	82148
36.82977	79209
36.83790	82256
36.84602	80141
36.85415	83545
36.86227	77930
36.87038	75498
36.87852	77067
36.88663	73614
36.89475	75926
36.90288	79440
36.91100	78871
36.91913	80164
36.92725	78303
36.93537	79412
36.94350	78445
36.95162	94695
36.95975	107275
36.96787	136151
36.97598	172036
36.98412	205779
36.99223	221490
37.00037	217600
37.00848	186745
37.01660	155901
37.02473	131173
37.03285	111897
37.04097	98702
37.04910	94192
37.05722	91787
37.06535	85559
37.07347	95889
37.08158	87103
37.08972	93758
37.09783	94705
37.10597	97858
37.11408	99072
37.12220	103571
37.13033	101962
37.13845	96267
37.14657	92360
37.15470	92643
37.16282	85933
37.17095	85726
37.17907	88892
37.18718	87580
37.19532	82688
37.20343	79751
37.21157	84626
37.21968	90028
37.22780	86609
37.23593	85574
37.24405	87708
37.25218	82928
37.26030	89960
37.26842	88022
37.27655	85710
37.28467	85491
37.29278	84995
37.30092	85661
37.30903	87024
37.31717	87867
37.32528	84634
37.33340	92236
37.34153	92561
37.34965	93141
37.35778	96554
37.36590	93198
37.37402	96495
37.38215	93380
37.39027	99313
37.39840	101034
37.40652	105412
37.41463	111425
37.42277	106838
37.43088	102895
37.43900	109173
37.44713	111813
37.45525	106812
37.46338	108133
37.47150	109224
37.47962	99555
37.48775	97068
