Z:\data\JTB-E02\BACandBLUE\JTB-E18-001-15.D Fri Mar 15 14:00:33 2019
Start of data points
2.09533	86907
2.10347	85748
2.11158	84950
2.11972	86236
2.12783	81914
2.13595	75315
2.14408	68727
2.15220	68463
2.16033	61734
2.16845	59661
2.17657	57864
2.18470	51129
2.19282	53957
2.20093	52692
2.20907	52044
2.21718	50888
2.22532	51031
2.23343	52315
2.24155	45993
2.24968	48241
2.25780	48241
2.26593	60257
2.27405	415351
2.28217	1842394
2.29030	1508903
2.29842	623770
2.30655	418915
2.31467	347219
2.32278	302901
2.33092	266680
2.33903	235040
2.34715	203827
2.35528	187642
2.36340	178247
2.37153	178946
2.37965	180146
2.38777	165307
2.39590	143799
2.40402	133123
2.41215	137498
2.42027	130616
2.42838	134938
2.43652	121939
2.44463	120368
2.45277	116781
2.46088	127337
2.46900	114206
2.47713	111702
2.48525	111799
2.49337	120905
2.50150	136317
2.50962	113422
2.51775	115444
2.52587	111605
2.53398	103533
2.54212	103136
2.55023	113275
2.55837	230629
2.56648	473429
2.57460	366767
2.58273	226968
2.59085	188521
2.59897	168128
2.60710	168115
2.61522	232850
2.62335	244361
2.63147	185146
2.63958	161506
2.64772	146793
2.65583	139705
2.66397	128793
2.67208	125596
2.68020	118941
2.68833	122305
2.69645	120419
2.70458	108833
2.71270	113154
2.72082	106906
2.72895	108662
2.73707	106448
2.74518	107498
2.75332	100900
2.76143	98279
2.76957	102131
2.77768	101995
2.78580	101237
2.79393	102325
2.80205	101522
2.81018	110557
2.81830	102559
2.82642	105983
2.83455	97103
2.84267	96206
2.85080	93352
2.85892	95324
2.86703	95522
2.87517	94537
2.88328	92629
2.89140	95712
2.89953	92838
2.90765	87983
2.91578	90630
2.92390	84771
2.93202	88355
2.94015	89787
2.94827	92450
2.95640	82680
2.96452	84075
2.97263	88140
2.98077	86126
2.98888	82975
2.99700	85606
3.00513	88939
3.01325	87269
3.02138	88635
3.02950	87119
3.03762	80039
3.04575	78344
3.05387	81025
3.06200	78004
3.07012	78626
3.07823	78989
3.08637	100192
3.09448	183856
3.10262	762977
3.11073	2570680
3.11885	3718217
3.12698	2596650
3.13510	1623525
3.14322	1226970
3.15135	991791
3.15947	815818
3.16760	676834
3.17572	572346
3.18383	499285
3.19197	429984
3.20008	399233
3.20822	352072
3.21633	331931
3.22445	299256
3.23258	270686
3.24070	239406
3.24882	221200
3.25695	211852
3.26507	204556
3.27320	197218
3.28132	185467
3.28943	243770
3.29757	620084
3.30568	1819377
3.31382	3244941
3.32193	3516065
3.33005	2664422
3.33818	1754825
3.34630	1248719
3.35443	984735
3.36255	840082
3.37067	708776
3.37880	639346
3.38692	560890
3.39503	509289
3.40317	467557
3.41128	437249
3.41942	413127
3.42753	382815
3.43565	366334
3.44378	341620
3.45190	326713
3.46003	309646
3.46815	301493
3.47627	319750
3.48440	305897
3.49252	294923
3.50065	264177
3.50877	259205
3.51688	256408
3.52502	238636
3.53313	234096
3.54125	227364
3.54938	211977
3.55750	212214
3.56563	201453
3.57375	201423
3.58187	203810
3.59000	198938
3.59812	188142
3.60625	192710
3.61437	183818
3.62248	192804
3.63062	188739
3.63873	182251
3.64685	180646
3.65498	176459
3.66310	171748
3.67123	187902
3.67935	228349
3.68747	257807
3.69560	228232
3.70372	197752
3.71185	184010
3.71997	177864
3.72808	163606
3.73622	160609
3.74433	158030
3.75247	162434
3.76058	154214
3.76870	157015
3.77683	153682
3.78495	161961
3.79307	178067
3.80120	309518
3.80932	938878
3.81745	2330410
3.82557	3006301
3.83368	2263146
3.84182	1383588
3.84993	979534
3.85807	806038
3.86618	688227
3.87430	588105
3.88243	536887
3.89055	484038
3.89868	448170
3.90680	413526
3.91492	371337
3.92305	356750
3.93117	333185
3.93928	315108
3.94742	303446
3.95553	330177
3.96367	420460
3.97178	511528
3.97990	488178
3.98803	385862
3.99615	348466
4.00428	491990
4.01240	906728
4.02052	1262513
4.02865	1147171
4.03677	760689
4.04488	513255
4.05302	380577
4.06113	325551
4.06927	278155
4.07738	262295
4.08550	242551
4.09363	227236
4.10175	220334
4.10988	208249
4.11800	202668
4.12612	206121
4.13425	189049
4.14237	209667
4.15050	253813
4.15862	271089
4.16673	270616
4.17487	241748
4.18298	245679
4.19110	229732
4.19923	205706
4.20735	189328
4.21548	197850
4.22360	292239
4.23172	469984
4.23985	560409
4.24797	480012
4.25610	369408
4.26422	300676
4.27233	250126
4.28047	216413
4.28858	201758
4.29672	186597
4.30483	175374
4.31295	166548
4.32108	167073
4.32920	162256
4.33732	158390
4.34545	160791
4.35357	147108
4.36170	141501
4.36982	144955
4.37793	141645
4.38607	143806
4.39418	137244
4.40232	135962
4.41043	135469
4.41855	132763
4.42668	133162
4.43480	126767
4.44292	124449
4.45105	127827
4.45917	127143
4.46730	122438
4.47542	122333
4.48353	123821
4.49167	121402
4.49978	115294
4.50792	118843
4.51603	117415
4.52415	115741
4.53228	119246
4.54040	114333
4.54853	124719
4.55665	119931
4.56477	129396
4.57290	115610
4.58102	113239
4.58913	114504
4.59727	108917
4.60538	106930
4.61352	112215
4.62163	113155
4.62975	106893
4.63788	108289
4.64600	105150
4.65413	109638
4.66225	105357
4.67037	109876
4.67850	106817
4.68662	108857
4.69473	105308
4.70287	108934
4.71098	105846
4.71912	100658
4.72723	98230
4.73535	102884
4.74348	99796
4.75160	104374
4.75973	96798
4.76785	98009
4.77597	98704
4.78410	97385
4.79222	106399
4.80035	102939
4.80847	114777
4.81658	111526
4.82472	119718
4.83283	145233
4.84095	190628
4.84908	219875
4.85720	193270
4.86533	161121
4.87345	133889
4.88157	119053
4.88970	112215
4.89782	116029
4.90595	111648
4.91407	108176
4.92218	105495
4.93032	116003
4.93843	162532
4.94657	344024
4.95468	780447
4.96280	1374611
4.97093	1886312
4.97905	1860155
4.98717	1484078
4.99530	1074029
5.00342	796642
5.01155	612836
5.01967	492966
5.02778	425139
5.03592	372582
5.04403	354088
5.05217	324436
5.06028	300860
5.06840	284557
5.07653	261040
5.08465	247107
5.09277	235347
5.10090	220997
5.10902	216207
5.11715	214023
5.12527	204925
5.13338	197569
5.14152	192517
5.14963	191207
5.15777	186741
5.16588	173990
5.17400	192485
5.18213	181723
5.19025	186868
5.19838	181174
5.20650	171374
5.21462	166296
5.22275	162847
5.23087	170106
5.23898	181496
5.24712	184082
5.25523	182512
5.26337	166138
5.27148	157724
5.27960	147251
5.28773	140855
5.29585	136863
5.30398	143614
5.31210	136730
5.32022	137311
5.32835	146169
5.33647	149879
5.34460	164179
5.35272	172995
5.36083	157318
5.36897	146239
5.37708	135765
5.38520	134298
5.39333	138535
5.40145	146011
5.40958	151625
5.41770	146324
5.42582	141925
5.43395	138253
5.44207	135447
5.45020	144507
5.45832	137736
5.46643	136847
5.47457	132094
5.48268	129913
5.49080	121586
5.49893	115171
5.50705	123357
5.51518	136205
5.52330	123835
5.53142	136307
5.53955	124997
5.54767	133315
5.55580	125986
5.56392	134103
5.57203	144946
5.58017	152022
5.58828	164383
5.59642	175334
5.60453	182750
5.61265	188867
5.62078	204770
5.62890	216811
5.63702	248418
5.64515	264425
5.65327	296909
5.66140	313526
5.66952	345653
5.67763	395641
5.68577	476595
5.69388	538313
5.70202	610728
5.71013	625984
5.71825	613496
5.72638	618032
5.73450	623494
5.74262	619388
5.75075	626714
5.75887	624605
5.76700	617149
5.77512	586175
5.78323	572295
5.79137	545780
5.79948	509898
5.80762	488874
5.81573	451039
5.82385	420793
5.83198	380076
5.84010	358690
5.84823	325085
5.85635	293126
5.86447	272100
5.87260	244406
5.88072	234290
5.88883	214596
5.89697	207538
5.90508	228604
5.91322	255594
5.92133	319122
5.92945	339064
5.93758	308176
5.94570	240003
5.95383	184937
5.96195	150852
5.97007	151185
5.97820	149522
5.98632	155504
5.99445	164328
6.00257	160486
6.01068	170967
6.01882	166265
6.02693	154259
6.03505	139318
6.04318	121071
6.05130	112034
6.05943	109396
6.06755	105021
6.07567	99382
6.08380	96298
6.09192	97275
6.10005	98436
6.10817	98254
6.11628	95419
6.12442	94033
6.13253	94324
6.14067	103218
6.14878	95233
6.15690	96775
6.16503	100422
6.17315	104817
6.18127	103053
6.18940	107216
6.19752	105773
6.20565	108474
6.21377	114022
6.22188	110834
6.23002	117967
6.23813	125688
6.24627	140295
6.25438	158527
6.26250	187796
6.27063	208064
6.27875	191293
6.28687	165548
6.29500	143673
6.30312	142235
6.31125	134133
6.31937	133854
6.32748	135921
6.33562	140552
6.34373	141112
6.35187	147059
6.35998	141930
6.36810	144337
6.37623	143992
6.38435	144192
6.39248	142395
6.40060	144557
6.40872	151551
6.41685	150981
6.42497	149537
6.43308	152004
6.44122	156102
6.44933	158650
6.45747	159078
6.46558	156900
6.47370	159495
6.48183	162925
6.48995	161671
6.49808	161083
6.50620	169527
6.51432	158582
6.52245	167381
6.53057	171626
6.53868	164691
6.54682	174688
6.55493	170684
6.56307	176498
6.57118	184558
6.57930	196980
6.58743	206904
6.59555	210823
6.60368	202144
6.61180	189823
6.61992	190795
6.62805	189359
6.63617	202484
6.64430	310507
6.65242	932841
6.66053	2937723
6.66867	6428165
6.67678	9141184
6.68490	8920774
6.69303	6447666
6.70115	3874644
6.70928	2413153
6.71740	1700898
6.72552	1312195
6.73365	1097745
6.74177	957188
6.74990	838958
6.75802	751152
6.76613	687933
6.77427	625267
6.78238	562952
6.79052	523129
6.79863	461108
6.80675	426287
6.81488	410225
6.82300	386855
6.83112	366384
6.83925	347941
6.84737	334613
6.85550	326858
6.86362	301338
6.87173	278625
6.87987	266385
6.88798	247041
6.89612	221792
6.90423	210793
6.91235	208354
6.92048	196702
6.92860	194309
6.93672	185726
6.94485	180047
6.95297	170146
6.96110	170570
6.96922	174405
6.97733	188077
6.98547	189551
6.99358	186452
7.00172	160842
7.00983	143819
7.01795	128217
7.02608	107956
7.03420	101230
7.04233	117191
7.05045	140648
7.05857	181959
7.06670	184042
7.07482	180693
7.08293	183084
7.09107	178591
7.09918	179067
7.10732	167578
7.11543	168542
7.12355	162557
7.13168	161823
7.13980	162350
7.14793	159781
7.15605	160026
7.16417	162952
7.17230	152878
7.18042	149649
7.18855	144433
7.19667	142270
7.20478	141122
7.21292	142101
7.22103	186498
7.22915	342411
7.23728	699221
7.24540	1152427
7.25353	1414499
7.26165	1299850
7.26977	878464
7.27790	537905
7.28602	352236
7.29415	269955
7.30227	225010
7.31038	179573
7.31852	145786
7.32663	129082
7.33475	116763
7.34288	112116
7.35100	116668
7.35913	114597
7.36725	107621
7.37537	114748
7.38350	113980
7.39162	112351
7.39975	110207
7.40787	109030
7.41598	110118
7.42412	104015
7.43223	98458
7.44037	97169
7.44848	96991
7.45660	99532
7.46473	101264
7.47285	94241
7.48097	95533
7.48910	99186
7.49722	88130
7.50535	96220
7.51347	84193
7.52158	88798
7.52972	80472
7.53783	83066
7.54597	91315
7.55408	79054
7.56220	80921
7.57033	77632
7.57845	79123
7.58657	79355
7.59470	82327
7.60282	78272
7.61095	80523
7.61907	78153
7.62718	79077
7.63532	75976
7.64343	73398
7.65157	78246
7.65968	73242
7.66780	75734
7.67593	72078
7.68405	72458
7.69218	75525
7.70030	75886
7.70842	77957
7.71655	70687
7.72467	72733
7.73278	74003
7.74092	77976
7.74903	70414
7.75717	71973
7.76528	70393
7.77340	73236
7.78153	79039
7.78965	73423
7.79778	73473
7.80590	68872
7.81402	66667
7.82215	67382
7.83027	70466
7.83840	72258
7.84652	67948
7.85463	73360
7.86277	73523
7.87088	74276
7.87900	74622
7.88713	77215
7.89525	71387
7.90338	75586
7.91150	70007
7.91962	82355
7.92775	100246
7.93587	133713
7.94400	197252
7.95212	236462
7.96023	236679
7.96837	187484
7.97648	139977
7.98460	101500
7.99273	88895
8.00085	73330
8.00898	66025
8.01710	65814
8.02522	62752
8.03335	59400
8.04147	66502
8.04960	61151
8.05772	61199
8.06583	59629
8.07397	56169
8.08208	57842
8.09022	58016
8.09833	58973
8.10645	56861
8.11458	55747
8.12270	61653
8.13082	61141
8.13895	58660
8.14707	59905
8.15520	63364
8.16332	61880
8.17143	60804
8.17957	57438
8.18768	58562
8.19582	51074
8.20393	57069
8.21205	52141
8.22018	53818
8.22830	57448
8.23643	57205
8.24455	55245
8.25267	52763
8.26080	49806
8.26892	49849
8.27703	52895
8.28517	52778
8.29328	54261
8.30142	54903
8.30953	58286
8.31765	59697
8.32578	60729
8.33390	57172
8.34203	60229
8.35015	57564
8.35827	63726
8.36640	58308
8.37452	60500
8.38263	58584
8.39077	54447
8.39888	54914
8.40702	54034
8.41513	50104
8.42325	45170
8.43138	45122
8.43950	46343
8.44763	47118
8.45575	52503
8.46387	54069
8.47200	56364
8.48012	54660
8.48825	54167
8.49637	46207
8.50448	47912
8.51262	45258
8.52073	48815
8.52885	61919
8.53698	96386
8.54510	183204
8.55323	277981
8.56135	369660
8.56947	368538
8.57760	299217
8.58572	202040
8.59385	131106
8.60197	86946
8.61008	87577
8.61822	69262
8.62633	66651
8.63445	63729
8.64258	59460
8.65070	54715
8.65883	53547
8.66695	52681
8.67507	54593
8.68320	56272
8.69132	50305
8.69945	51261
8.70757	53778
8.71568	51463
8.72382	48923
8.73193	48976
8.74007	50369
8.74818	58541
8.75630	90600
8.76443	201008
8.77255	419129
8.78067	782093
8.78880	1142256
8.79692	1265966
8.80505	1161488
8.81317	830046
8.82128	540748
8.82942	340925
8.83753	234077
8.84567	202483
8.85378	190604
8.86190	171556
8.87003	162570
8.87815	159368
8.88628	152102
8.89440	143816
8.90252	132321
8.91065	134945
8.91877	127078
8.92688	109143
8.93502	102099
8.94313	101293
8.95127	100684
8.95938	99899
8.96750	96545
8.97563	93763
8.98375	104689
8.99188	92512
9.00000	94483
9.00812	89509
9.01625	81500
9.02437	79371
9.03248	81793
9.04062	79477
9.04873	76576
9.05687	74217
9.06498	72479
9.07310	66579
9.08123	69058
9.08935	67282
9.09748	71031
9.10560	72668
9.11372	71639
9.12185	65350
9.12997	67713
9.13810	71737
9.14622	66911
9.15433	71320
9.16247	64898
9.17058	65575
9.17870	62538
9.18683	71447
9.19495	64343
9.20308	61693
9.21120	56257
9.21932	65959
9.22745	60916
9.23557	62783
9.24370	64696
9.25182	65639
9.25993	70039
9.26807	68173
9.27618	66549
9.28432	67729
9.29243	72501
9.30055	67541
9.30868	67943
9.31680	61670
9.32492	68702
9.33305	61753
9.34117	63568
9.34930	61278
9.35742	60290
9.36553	58899
9.37367	63684
9.38178	60164
9.38992	58335
9.39803	58817
9.40615	55992
9.41428	54059
9.42240	57831
9.43052	54016
9.43865	55859
9.44677	51568
9.45490	52492
9.46302	50767
9.47113	51624
9.47927	49871
9.48738	55295
9.49552	62822
9.50363	77018
9.51175	106955
9.51988	139958
9.52800	157749
9.53613	145829
9.54425	131751
9.55237	115128
9.56050	102914
9.56862	92997
9.57673	91181
9.58487	86737
9.59298	86520
9.60112	83159
9.60923	75990
9.61735	62417
9.62548	58253
9.63360	56481
9.64173	60552
9.64985	62749
9.65797	73124
9.66610	80791
9.67422	99395
9.68235	91188
9.69047	83316
9.69858	72768
9.70672	60107
9.71483	52799
9.72295	52249
9.73108	48610
9.73920	46530
9.74733	46743
9.75545	52017
9.76357	47836
9.77170	49493
9.77982	45995
9.78795	45600
9.79607	48170
9.80418	48032
9.81232	48400
9.82043	52487
9.82855	48663
9.83668	56609
9.84480	54218
9.85293	51141
9.86105	60617
9.86917	57867
9.87730	68235
9.88542	58906
9.89355	66343
9.90167	63135
9.90978	63195
9.91792	68164
9.92603	72856
9.93417	71154
9.94228	75331
9.95040	77367
9.95853	78069
9.96665	72850
9.97477	64213
9.98290	60031
9.99102	59803
9.99915	60053
10.00727	59786
10.01538	54204
10.02352	58115
10.03163	54108
10.03977	49893
10.04788	51697
10.05600	44188
10.06413	41092
10.07225	42046
10.08037	45524
10.08850	45593
10.09662	45420
10.10475	43337
10.11287	42751
10.12098	46339
10.12912	41588
10.13723	44913
10.14537	41786
10.15348	40045
10.16160	42302
10.16973	41929
10.17785	40745
10.18598	39723
10.19410	38879
10.20222	40354
10.21035	39687
10.21847	41133
10.22658	41919
10.23472	49993
10.24283	62256
10.25097	81731
10.25908	116724
10.26720	224835
10.27533	577088
10.28345	1466206
10.29158	3317301
10.29970	5910154
10.30782	9046580
10.31595	1.295428E+07
10.32407	1.827683E+07
10.33220	2.536999E+07
10.34032	3.344559E+07
10.34843	4.351018E+07
10.35657	5.317188E+07
10.36468	6.163992E+07
10.37280	6.836587E+07
10.38093	7.4526E+07
10.38905	7.825791E+07
10.39718	7.922323E+07
10.40530	6.77857E+07
10.41342	3.052586E+07
10.42155	7239893
10.42967	2855425
10.43780	2109415
10.44592	1856126
10.45403	1660295
10.46217	1516318
10.47028	1358936
10.47840	1279606
10.48653	1154839
10.49465	1092840
10.50278	1003028
10.51090	944581
10.51902	903567
10.52715	837774
10.53527	787047
10.54340	769938
10.55152	732868
10.55963	694437
10.56777	662631
10.57588	628778
10.58402	607941
10.59213	591961
10.60025	576473
10.60838	555455
10.61650	529645
10.62462	503216
10.63275	482304
10.64087	456568
10.64900	439527
10.65712	408237
10.66523	401907
10.67337	398654
10.68148	386579
10.68962	347943
10.69773	340367
10.70585	324491
10.71398	323667
10.72210	305254
10.73023	306034
10.73835	311090
10.74647	296069
10.75460	292204
10.76272	271666
10.77083	266642
10.77897	263798
10.78708	251765
10.79522	248756
10.80333	238954
10.81145	228105
10.81958	238060
10.82770	221282
10.83583	218406
10.84395	218055
10.85207	204844
10.86020	210142
10.86832	201083
10.87643	191255
10.88457	197764
10.89268	192388
10.90082	189415
10.90893	187021
10.91705	169414
10.92518	177920
10.93330	171991
10.94143	169270
10.94955	169306
10.95767	163195
10.96580	155342
10.97392	153245
10.98205	150855
10.99017	158334
10.99828	153276
11.00642	143911
11.01453	145636
11.02265	141302
11.03078	141556
11.03890	148178
11.04703	156580
11.05515	159374
11.06327	182357
11.07140	202075
11.07952	213108
11.08765	220089
11.09577	197477
11.10388	172077
11.11202	143201
11.12013	137330
11.12825	114190
11.13638	98392
11.14450	84116
11.15263	79972
11.16075	84565
11.16887	84568
11.17700	78368
11.18512	79079
11.19325	75627
11.20137	74012
11.20948	69236
11.21762	72836
11.22573	62744
11.23387	61840
11.24198	65717
11.25010	68162
11.25823	62499
11.26635	65791
11.27447	62091
11.28260	71549
11.29072	71530
11.29885	74411
11.30697	69485
11.31508	75913
11.32322	70868
11.33133	74043
11.33947	68373
11.34758	63717
11.35570	64034
11.36383	64055
11.37195	60105
11.38008	58417
11.38820	57067
11.39632	58526
11.40445	57413
11.41257	58601
11.42068	54950
11.42882	52453
11.43693	48381
11.44507	56989
11.45318	49481
11.46130	55193
11.46943	51018
11.47755	59840
11.48568	66796
11.49380	77449
11.50192	93891
11.51005	113062
11.51817	102252
11.52628	100956
11.53442	110136
11.54253	127346
11.55067	137065
11.55878	134451
11.56690	122724
11.57503	98497
11.58315	82104
11.59128	69630
11.59940	62968
11.60752	60688
11.61565	67811
11.62377	60276
11.63190	57197
11.64002	55821
11.64813	58547
11.65627	54343
11.66438	51914
11.67250	53642
11.68063	60999
11.68875	65995
11.69688	70970
11.70500	83805
11.71312	75222
11.72125	71326
11.72937	65517
11.73750	59562
11.74562	52986
11.75373	57656
11.76187	52421
11.76998	51167
11.77812	50378
11.78623	54286
11.79435	47897
11.80248	50672
11.81060	50382
11.81872	50302
11.82685	47376
11.83497	46616
11.84310	51035
11.85122	49846
11.85933	49961
11.86747	50777
11.87558	53719
11.88372	50777
11.89183	53760
11.89995	48282
11.90808	50535
11.91620	48725
11.92432	49069
11.93245	54205
11.94057	48680
11.94870	52804
11.95682	48126
11.96493	45588
11.97307	45207
11.98118	49753
11.98932	50135
11.99743	59623
12.00555	68397
12.01368	80623
12.02180	94719
12.02993	87245
12.03805	80011
12.04617	65241
12.05430	69947
12.06242	57401
12.07053	55550
12.07867	49028
12.08678	53343
12.09492	48958
12.10303	48405
12.11115	47699
12.11928	48990
12.12740	51242
12.13553	62002
12.14365	63818
12.15177	71043
12.15990	79034
12.16802	96287
12.17613	109613
12.18427	127124
12.19238	137846
12.20052	142576
12.20863	130858
12.21675	126011
12.22488	110235
12.23300	106021
12.24113	102762
12.24925	101036
12.25737	106338
12.26550	98893
12.27362	98777
12.28175	98681
12.28987	94878
12.29798	93968
12.30612	91933
12.31423	84079
12.32235	82068
12.33048	81339
12.33860	85413
12.34673	83779
12.35485	82116
12.36297	74725
12.37110	71497
12.37922	71825
12.38735	70350
12.39547	71633
12.40358	59553
12.41172	59469
12.41983	55125
12.42797	54879
12.43608	54381
12.44420	51541
12.45233	53917
12.46045	48379
12.46857	46963
12.47670	46304
12.48482	48093
12.49295	45421
12.50107	43248
12.50918	43676
12.51732	44492
12.52543	44906
12.53357	46172
12.54168	48344
12.54980	55702
12.55793	75911
12.56605	89473
12.57418	97928
12.58230	107868
12.59042	89561
12.59855	73679
12.60667	61177
12.61478	55158
12.62292	51938
12.63103	49927
12.63917	50956
12.64728	47860
12.65540	49031
12.66353	50437
12.67165	46114
12.67978	39144
12.68790	40496
12.69602	41748
12.70415	40264
12.71227	43388
12.72038	45163
12.72852	45303
12.73663	49863
12.74477	52616
12.75288	45505
12.76100	45954
12.76913	44731
12.77725	43747
12.78538	37297
12.79350	40553
12.80162	43432
12.80975	39433
12.81787	40174
12.82600	39691
12.83412	42836
12.84223	41683
12.85037	38869
12.85848	39201
12.86660	41094
12.87473	41053
12.88285	41753
12.89098	40531
12.89910	39433
12.90722	40010
12.91535	37722
12.92347	38828
12.93160	36416
12.93972	37515
12.94783	35628
12.95597	38130
12.96408	37145
12.97220	40167
12.98033	43214
12.98845	40639
12.99658	41764
13.00470	40527
13.01282	42360
13.02095	40482
13.02907	39174
13.03720	43248
13.04532	47105
13.05343	43250
13.06157	38442
13.06968	44471
13.07782	43061
13.08593	45257
13.09405	49974
13.10218	52480
13.11030	47386
13.11842	48910
13.12655	43628
13.13467	41169
13.14280	44538
13.15092	45533
13.15903	46150
13.16717	43966
13.17528	43793
13.18342	43966
13.19153	47258
13.19965	44093
13.20778	50234
13.21590	47113
13.22403	46874
13.23215	44079
13.24027	55214
13.24840	43002
13.25652	45817
13.26463	39925
13.27277	41461
13.28088	40751
13.28902	39457
13.29713	43831
13.30525	41024
13.31338	39021
13.32150	36516
13.32963	38406
13.33775	36743
13.34587	40707
13.35400	35860
13.36212	40630
13.37023	38334
13.37837	35761
13.38648	38997
13.39462	37645
13.40273	39202
13.41085	40688
13.41898	35944
13.42710	38299
13.43523	40690
13.44335	39651
13.45147	38775
13.45960	37616
13.46772	30505
13.47585	36285
13.48397	35255
13.49208	36566
13.50022	37722
13.50833	36354
13.51645	36882
13.52458	38207
13.53270	35423
13.54083	35485
13.54895	38761
13.55707	38002
13.56520	41899
13.57332	38924
13.58145	39911
13.58957	38717
13.59768	38034
13.60582	39838
13.61393	37244
13.62207	35004
13.63018	40556
13.63830	39318
13.64643	37125
13.65455	35437
13.66267	40514
13.67080	32278
13.67892	35918
13.68705	36719
13.69517	36360
13.70328	36768
13.71142	35281
13.71953	38848
13.72767	45033
13.73578	69370
13.74390	161962
13.75203	410043
13.76015	1036934
13.76827	2153004
13.77640	3511841
13.78452	4464403
13.79265	4590106
13.80077	3819864
13.80888	2670469
13.81702	1601441
13.82513	976132
13.83327	665573
13.84138	529232
13.84950	496880
13.85763	472938
13.86575	443240
13.87388	437199
13.88200	425126
13.89012	411510
13.89825	415262
13.90637	382624
13.91448	372080
13.92262	349596
13.93073	298981
13.93887	288080
13.94698	283500
13.95510	316227
13.96323	428256
13.97135	608775
13.97948	871513
13.98760	1171102
13.99572	1204703
14.00385	1076305
14.01197	833617
14.02008	560919
14.02822	440684
14.03633	341912
14.04447	284195
14.05258	265387
14.06070	263320
14.06883	232873
14.07695	235989
14.08508	204355
14.09320	202170
14.10132	188892
14.10945	185966
14.11757	176209
14.12570	173027
14.13382	166084
14.14193	165713
14.15007	156840
14.15818	161286
14.16630	142137
14.17443	166971
14.18255	159871
14.19068	158617
14.19880	170237
14.20692	199710
14.21505	228049
14.22317	261761
14.23130	259142
14.23942	256998
14.24753	241706
14.25567	226231
14.26378	205675
14.27192	183845
14.28003	165202
14.28815	145320
14.29628	132125
14.30440	117645
14.31252	110388
14.32065	104995
14.32877	107384
14.33690	100207
14.34502	99343
14.35313	100409
14.36127	101166
14.36938	92370
14.37752	86306
14.38563	80536
14.39375	77092
14.40188	71561
14.41000	72267
14.41812	63941
14.42625	66719
14.43437	64477
14.44250	61875
14.45062	63532
14.45873	58463
14.46687	62258
14.47498	54374
14.48312	52219
14.49123	53389
14.49935	51127
14.50748	55256
14.51560	57289
14.52373	60195
14.53185	57913
14.53997	60750
14.54810	60643
14.55622	55560
14.56433	53290
14.57247	53974
14.58058	54476
14.58872	48417
14.59683	46319
14.60495	50739
14.61308	50148
14.62120	49658
14.62933	47566
14.63745	45988
14.64557	47089
14.65370	46339
14.66182	46005
14.66995	46319
14.67807	43597
14.68618	47414
14.69432	53224
14.70243	44678
14.71055	47474
14.71868	46858
14.72680	45302
14.73493	46129
14.74305	40872
14.75117	46307
14.75930	45498
14.76742	43863
14.77555	43782
14.78367	42227
14.79178	43632
14.79992	44298
14.80803	47117
14.81615	46770
14.82428	48462
14.83240	55957
14.84053	54164
14.84865	63861
14.85677	59056
14.86490	59023
14.87302	57159
14.88115	55879
14.88927	54038
14.89738	54107
14.90552	51681
14.91363	46887
14.92177	46247
14.92988	47003
14.93800	44392
14.94613	45439
14.95425	44871
14.96237	47334
14.97050	47908
14.97862	43008
14.98675	45483
14.99487	48147
15.00298	44546
15.01112	42280
15.01923	45715
15.02737	43550
15.03548	42581
15.04360	42551
15.05173	41421
15.05985	45194
15.06797	43698
15.07610	42879
15.08422	44102
15.09235	43179
15.10047	44857
15.10858	39575
15.11672	43622
15.12483	40954
15.13297	43892
15.14108	42245
15.14920	39287
15.15733	40135
15.16545	40153
15.17358	42827
15.18170	40404
15.18982	38363
15.19795	36077
15.20607	41027
15.21418	40483
15.22232	40076
15.23043	37365
15.23857	41935
15.24668	38406
15.25480	37680
15.26293	38511
15.27105	37267
15.27918	37249
15.28730	41785
15.29542	35730
15.30355	41880
15.31167	39344
15.31980	39440
15.32792	43239
15.33603	40682
15.34417	37039
15.35228	40703
15.36040	38987
15.36853	43533
15.37665	36399
15.38478	36165
15.39290	35837
15.40102	36113
15.40915	35509
15.41727	35002
15.42540	33162
15.43352	35404
15.44163	37736
15.44977	37402
15.45788	38573
15.46600	38239
15.47413	34048
15.48225	37169
15.49038	38355
15.49850	45098
15.50662	63709
15.51475	117878
15.52287	225999
15.53100	404532
15.53912	688542
15.54723	1033688
15.55537	1279923
15.56348	1235875
15.57162	968914
15.57973	666478
15.58785	428375
15.59598	282724
15.60410	210367
15.61222	166079
15.62035	138398
15.62847	115610
15.63660	106747
15.64472	90729
15.65283	85736
15.66097	76480
15.66908	75802
15.67722	65457
15.68533	63443
15.69345	63006
15.70158	62993
15.70970	59221
15.71783	53048
15.72595	55238
15.73407	53897
15.74220	53385
15.75032	52721
15.75843	52804
15.76657	54533
15.77468	57230
15.78282	61606
15.79093	67852
15.79905	69590
15.80718	69660
15.81530	69976
15.82343	60232
15.83155	52187
15.83967	51071
15.84780	54580
15.85592	54864
15.86403	51949
15.87217	62571
15.88028	73503
15.88842	81441
15.89653	88797
15.90465	91996
15.91278	84883
15.92090	74103
15.92903	68817
15.93715	62050
15.94527	60552
15.95340	59545
15.96152	60969
15.96965	66688
15.97777	77507
15.98588	80651
15.99402	82370
16.00213	80958
16.01025	81742
16.01838	82789
16.02650	80697
16.03463	80478
16.04275	73323
16.05087	65289
16.05900	63124
16.06712	57644
16.07525	57572
16.08337	49020
16.09148	56238
16.09962	49969
16.10773	50602
16.11587	47881
16.12398	46963
16.13210	47375
16.14023	44450
16.14835	43171
16.15647	47424
16.16460	47175
16.17272	47307
16.18085	47174
16.18897	42365
16.19708	44823
16.20522	43371
16.21333	43516
16.22147	43087
16.22958	41860
16.23770	42366
16.24583	43147
16.25395	43537
16.26207	42747
16.27020	41680
16.27832	37303
16.28645	41925
16.29457	39653
16.30268	39261
16.31082	41969
16.31893	42856
16.32707	40979
16.33518	42994
16.34330	50342
16.35143	56164
16.35955	74343
16.36768	97113
16.37580	115228
16.38392	131717
16.39205	136290
16.40017	123975
16.40828	103734
16.41642	82391
16.42453	69466
16.43267	57635
16.44078	57569
16.44890	53166
16.45703	51832
16.46515	49091
16.47328	46826
16.48140	46831
16.48952	44839
16.49765	45899
16.50577	46873
16.51388	44296
16.52202	44291
16.53013	43838
16.53827	46863
16.54638	45345
16.55450	45602
16.56263	41479
16.57075	43590
16.57888	48627
16.58700	48793
16.59512	50424
16.60325	61468
16.61137	73584
16.61950	82680
16.62762	87232
16.63573	84959
16.64387	71196
16.65198	63282
16.66010	62909
16.66823	53295
16.67635	54128
16.68448	48817
16.69260	42103
16.70072	48618
16.70885	47849
16.71697	50710
16.72510	52151
16.73322	50053
16.74133	49705
16.74947	56311
16.75758	52749
16.76572	52328
16.77383	52703
16.78195	51984
16.79008	51481
16.79820	50678
16.80632	45844
16.81445	45298
16.82257	43233
16.83070	42260
16.83882	42591
16.84693	45849
16.85507	45402
16.86318	45028
16.87132	41000
16.87943	45071
16.88755	44450
16.89568	39956
16.90380	36508
16.91192	46339
16.92005	44680
16.92817	45986
16.93630	45745
16.94442	47269
16.95253	44849
16.96067	44081
16.96878	49431
16.97692	47485
16.98503	46583
16.99315	44751
17.00128	41905
17.00940	44726
17.01753	44990
17.02565	45643
17.03377	44660
17.04190	43936
17.05002	46506
17.05813	47003
17.06627	54992
17.07438	56327
17.08252	54755
17.09063	55719
17.09875	54794
17.10688	55574
17.11500	53340
17.12313	49381
17.13125	47632
17.13937	50350
17.14750	45521
17.15562	48082
17.16375	42750
17.17187	47218
17.17998	45450
17.18812	48074
17.19623	46935
17.20435	50665
17.21248	50113
17.22060	50166
17.22873	48911
17.23685	47937
17.24497	54410
17.25310	60321
17.26122	62728
17.26935	69717
17.27747	74503
17.28558	75628
17.29372	75323
17.30183	73546
17.30995	70544
17.31808	68669
17.32620	66270
17.33433	64511
17.34245	65405
17.35057	64082
17.35870	65064
17.36682	66819
17.37495	67014
17.38307	65124
17.39118	66239
17.39932	73366
17.40743	74844
17.41557	81401
17.42368	101154
17.43180	130717
17.43993	165627
17.44805	231692
17.45617	298683
17.46430	423790
17.47242	545226
17.48055	696664
17.48867	835293
17.49678	977025
17.50492	1083496
17.51303	1193094
17.52117	1226969
17.52928	1263359
17.53740	1234425
17.54553	1230367
17.55365	1239611
17.56177	1243237
17.56990	1246391
17.57802	1211140
17.58615	1204404
17.59427	1183298
17.60238	1155755
17.61052	1120655
17.61863	1138045
17.62677	1144579
17.63488	1132306
17.64300	1149593
17.65113	1189229
17.65925	1233737
17.66738	1265443
17.67550	1316893
17.68362	1290976
17.69175	1248156
17.69987	1162238
17.70798	1072232
17.71612	1044200
17.72423	955048
17.73237	867831
17.74048	758354
17.74860	634386
17.75673	516323
17.76485	392648
17.77298	306324
17.78110	234266
17.78922	176863
17.79735	138324
17.80547	127437
17.81360	105279
17.82172	99645
17.82983	98861
17.83797	93896
17.84608	87838
17.85420	90087
17.86233	80967
17.87045	81739
17.87858	79671
17.88670	75466
17.89482	71778
17.90295	72993
17.91107	64747
17.91920	70122
17.92732	66100
17.93543	64605
17.94357	63011
17.95168	59998
17.95982	63491
17.96793	64265
17.97605	61879
17.98418	62585
17.99230	65070
18.00042	60666
18.00855	58896
18.01667	58144
18.02480	59550
18.03292	60994
18.04103	61417
18.04917	60363
18.05728	62009
18.06542	62282
18.07353	63786
18.08165	59963
18.08978	65739
18.09790	58892
18.10602	63228
18.11415	64969
18.12227	64424
18.13040	63317
18.13852	61485
18.14663	57205
18.15477	59904
18.16288	64549
18.17102	63456
18.17913	66832
18.18725	72075
18.19538	64419
18.20350	67332
18.21163	75778
18.21975	63307
18.22787	58927
18.23600	57234
18.24412	55656
18.25223	58488
18.26037	55626
18.26848	59153
18.27662	57097
18.28473	59085
18.29285	59263
18.30098	58679
18.30910	57838
18.31723	61462
18.32535	60673
18.33347	56133
18.34160	55140
18.34972	54125
18.35783	60077
18.36597	58372
18.37408	57200
18.38222	53577
18.39033	51681
18.39845	53948
18.40658	51789
18.41470	51029
18.42283	57416
18.43095	50868
18.43907	51064
18.44720	46913
18.45532	54577
18.46345	56571
18.47157	48544
18.47968	47593
18.48782	45486
18.49593	51127
18.50405	52743
18.51218	52370
18.52030	46934
18.52843	52750
18.53655	45517
18.54467	46367
18.55280	49858
18.56092	48007
18.56905	48452
18.57717	52157
18.58528	55810
18.59342	55641
18.60153	58174
18.60967	61903
18.61778	62603
18.62590	67862
18.63403	71633
18.64215	97943
18.65027	109289
18.65840	121098
18.66652	153533
18.67465	167891
18.68277	170011
18.69088	157701
18.69902	147117
18.70713	131801
18.71527	114887
18.72338	99591
18.73150	96724
18.73963	85693
18.74775	80352
18.75587	76072
18.76400	75424
18.77212	74164
18.78025	67539
18.78837	70501
18.79648	58935
18.80462	58520
18.81273	57976
18.82087	55005
18.82898	52144
18.83710	52392
18.84523	54313
18.85335	50785
18.86148	53853
18.86960	52121
18.87772	53398
18.88585	52675
18.89397	55930
18.90208	52136
18.91022	51680
18.91833	53851
18.92647	54881
18.93458	61729
18.94270	73911
18.95083	86194
18.95895	96636
18.96708	110276
18.97520	104753
18.98332	108745
18.99145	93311
18.99957	75752
19.00770	68777
19.01582	63593
19.02393	57970
19.03207	57047
19.04018	54011
19.04830	54927
19.05643	53266
19.06455	52094
19.07268	53980
19.08080	60247
19.08892	68119
19.09705	75655
19.10517	79602
19.11330	86906
19.12142	81316
19.12953	79525
19.13767	73442
19.14578	73332
19.15390	72684
19.16203	71815
19.17015	73257
19.17828	73226
19.18640	79285
19.19452	76322
19.20265	68668
19.21077	69752
19.21890	61257
19.22702	62105
19.23513	64383
19.24327	70747
19.25138	84516
19.25952	96813
19.26763	135099
19.27575	152440
19.28388	150923
19.29200	148064
19.30012	129811
19.30825	100706
19.31637	90393
19.32450	82190
19.33262	74903
19.34073	76627
19.34887	70241
19.35698	67675
19.36512	64786
19.37323	59854
19.38135	62908
19.38948	57197
19.39760	56939
19.40572	56201
19.41385	64401
19.42197	53973
19.43010	55491
19.43822	54017
19.44633	55998
19.45447	51591
19.46258	55975
19.47072	50862
19.47883	50499
19.48695	51428
19.49508	63465
19.50320	70401
19.51133	83559
19.51945	100232
19.52757	108856
19.53570	111253
19.54382	99879
19.55193	86690
19.56007	71355
19.56818	58335
19.57632	54722
19.58443	50779
19.59255	51384
19.60068	46329
19.60880	47509
19.61693	47402
19.62505	49747
19.63317	51141
19.64130	64770
19.64942	82122
19.65755	107988
19.66567	130975
19.67378	162597
19.68192	178741
19.69003	167700
19.69815	158129
19.70628	130883
19.71440	121103
19.72253	121528
19.73065	148422
19.73877	193228
19.74690	239286
19.75502	287500
19.76315	313695
19.77127	314547
19.77938	299007
19.78752	250315
19.79563	203411
19.80375	171974
19.81188	154732
19.82000	135421
19.82813	114716
19.83625	92037
19.84437	91998
19.85250	85116
19.86062	88067
19.86875	104097
19.87687	158177
19.88498	250007
19.89312	414434
19.90123	616193
19.90937	846340
19.91748	1058340
19.92560	1172150
19.93373	1184713
19.94185	1195372
19.94997	1134972
19.95810	1083384
19.96622	1032417
19.97435	972004
19.98247	941937
19.99058	887343
19.99872	846392
20.00683	792312
20.01497	763788
20.02308	751058
20.03120	703150
20.03933	654295
20.04745	566652
20.05558	483805
20.06370	391580
20.07182	307323
20.07995	238626
20.08807	203888
20.09618	188235
20.10432	171233
20.11243	168730
20.12057	158720
20.12868	154475
20.13680	149970
20.14493	149472
20.15305	142559
20.16118	140869
20.16930	140125
20.17742	136974
20.18555	138157
20.19367	127572
20.20178	128494
20.20992	124334
20.21803	119272
20.22617	106294
20.23428	102694
20.24240	88390
20.25053	97903
20.25865	113111
20.26678	150482
20.27490	211666
20.28302	273710
20.29115	305732
20.29927	317252
20.30740	290948
20.31552	238777
20.32363	176132
20.33177	132972
20.33988	106790
20.34800	91428
20.35613	84301
20.36425	74976
20.37238	64208
20.38050	63321
20.38862	66494
20.39675	66620
20.40487	61240
20.41300	66566
20.42112	67897
20.42923	71581
20.43737	79176
20.44548	83167
20.45360	92387
20.46173	98869
20.46985	97191
20.47798	90313
20.48610	85521
20.49422	72674
20.50235	70080
20.51047	68311
20.51860	67753
20.52672	59540
20.53483	61947
20.54297	63209
20.55108	56841
20.55922	53886
20.56733	57241
20.57545	58282
20.58358	52907
20.59170	58165
20.59982	52973
20.60795	56744
20.61607	55420
20.62420	56692
20.63232	48990
20.64043	49992
20.64857	47434
20.65668	47381
20.66482	49084
20.67293	51242
20.68105	52048
20.68918	49691
20.69730	49946
20.70543	52822
20.71355	51268
20.72167	51420
20.72980	48235
20.73792	52834
20.74603	53409
20.75417	53439
20.76228	47001
20.77042	52921
20.77853	48349
20.78665	48871
20.79478	49400
20.80290	49934
20.81103	49296
20.81915	50877
20.82727	49398
20.83540	46580
20.84352	51652
20.85163	49939
20.85977	51736
20.86788	53610
20.87602	55214
20.88413	55992
20.89225	51780
20.90038	53783
20.90850	51968
20.91663	56786
20.92475	63180
20.93287	68589
20.94100	73537
20.94912	88825
20.95725	98928
20.96537	106950
20.97348	114192
20.98162	107037
20.98973	102454
20.99785	91782
21.00598	87467
21.01410	87394
21.02223	74525
21.03035	72782
21.03847	70078
21.04660	71494
21.05472	71897
21.06285	67696
21.07097	65311
21.07908	66388
21.08722	63972
21.09533	63052
21.10347	57852
21.11158	59738
21.11970	61106
21.12783	58059
21.13595	57697
21.14407	60644
21.15220	58114
21.16032	56246
21.16845	60500
21.17657	57896
21.18468	56450
21.19282	51346
21.20093	50422
21.20907	46014
21.21718	47557
21.22530	49928
21.23343	49928
21.24155	49538
21.24967	50570
21.25780	55016
21.26592	58553
21.27405	64611
21.28217	67783
21.29028	78283
21.29842	91342
21.30653	99475
21.31467	95909
21.32278	95962
21.33090	90856
21.33903	83750
21.34715	72715
21.35528	66949
21.36340	63035
21.37152	59884
21.37965	58232
21.38777	60759
21.39588	54944
21.40402	61359
21.41213	63217
21.42027	64606
21.42838	77110
21.43650	83388
21.44463	94882
21.45275	106841
21.46088	103677
21.46900	92369
21.47712	82630
21.48525	71506
21.49337	56663
21.50150	59207
21.50962	56240
21.51773	53811
21.52587	50868
21.53398	51387
21.54210	53164
21.55023	50973
21.55835	50337
21.56648	49704
21.57460	49885
21.58272	50063
21.59085	49073
21.59897	54180
21.60710	60846
21.61522	79339
21.62333	103240
21.63147	119437
21.63958	157554
21.64770	178577
21.65583	178457
21.66395	182950
21.67208	170800
21.68020	147620
21.68832	130738
21.69645	119783
21.70457	119249
21.71270	111018
21.72082	109813
21.72893	104430
21.73707	106503
21.74518	96790
21.75332	91231
21.76143	80872
21.76955	72394
21.77768	64377
21.78580	68810
21.79392	65771
21.80205	59757
21.81017	58780
21.81830	60232
21.82642	68761
21.83453	72584
21.84267	84758
21.85078	97312
21.85892	99794
21.86703	99697
21.87515	87294
21.88328	76817
21.89140	66617
21.89952	61175
21.90765	51481
21.91577	56417
21.92390	50374
21.93202	48469
21.94013	47217
21.94827	47275
21.95638	46291
21.96452	45601
21.97263	49252
21.98075	45450
21.98888	48033
21.99700	47370
22.00513	55294
22.01325	52872
22.02137	55165
22.02950	56034
22.03762	56267
22.04573	51680
22.05387	53477
22.06198	53085
22.07012	54273
22.07823	57840
22.08635	60714
22.09448	56979
22.10260	61725
22.11073	63953
22.11885	57474
22.12697	65172
22.13510	65750
22.14322	58684
22.15135	62322
22.15947	58106
22.16758	59068
22.17572	57856
22.18383	57673
22.19195	51692
22.20008	49721
22.20820	51519
22.21633	52256
22.22445	47146
22.23257	51335
22.24070	53328
22.24882	52659
22.25695	51393
22.26507	55414
22.27318	53252
22.28132	65618
22.28943	76057
22.29755	88892
22.30568	99413
22.31380	117702
22.32193	129837
22.33005	139270
22.33817	140139
22.34630	142539
22.35442	131493
22.36255	115403
22.37067	98721
22.37878	84944
22.38692	72802
22.39503	66630
22.40317	65060
22.41128	62543
22.41940	57608
22.42753	56028
22.43565	55674
22.44377	53413
22.45190	48044
22.46002	48869
22.46815	47759
22.47627	48503
22.48438	47742
22.49252	47500
22.50063	48996
22.50877	47310
22.51688	48836
22.52500	47203
22.53313	52035
22.54125	50669
22.54938	54810
22.55750	51348
22.56562	56491
22.57375	57578
22.58187	55862
22.58998	54680
22.59812	61695
22.60623	62578
22.61437	61536
22.62248	62953
22.63060	59633
22.63873	62102
22.64685	70050
22.65498	86343
22.66310	114994
22.67122	170506
22.67935	246793
22.68747	331997
22.69558	404510
22.70372	438270
22.71183	447717
22.71997	409503
22.72808	359044
22.73620	295717
22.74433	256727
22.75245	220468
22.76058	190746
22.76870	181779
22.77682	164167
22.78495	146721
22.79307	127556
22.80120	118569
22.80932	96284
22.81743	81210
22.82557	66267
22.83368	56029
22.84180	52517
22.84993	49955
22.85805	47117
22.86618	50408
22.87430	49069
22.88242	52092
22.89055	52026
22.89867	54256
22.90680	56068
22.91492	59761
22.92303	68794
22.93117	72907
22.93928	77756
22.94740	76922
22.95553	78214
22.96365	73023
22.97178	74552
22.97990	68580
22.98802	61831
22.99615	65988
23.00427	57026
23.01240	59900
23.02052	52431
23.02863	51559
23.03677	48871
23.04488	48022
23.05302	52425
23.06113	51049
23.06925	47257
23.07738	48441
23.08550	48269
23.09362	45330
23.10175	46117
23.10987	43905
23.11800	42513
23.12612	39905
23.13423	42111
23.14237	49048
23.15048	39741
23.15862	41797
23.16673	44234
23.17485	44133
23.18298	41814
23.19110	44639
23.19923	45354
23.20735	43336
23.21547	44552
23.22360	43565
23.23172	45975
23.23983	48064
23.24797	50980
23.25608	58792
23.26422	58276
23.27233	58953
23.28045	57605
23.28858	54698
23.29670	52416
23.30483	50644
23.31295	46477
23.32107	47569
23.32920	45173
23.33732	45525
23.34545	46573
23.35357	46527
23.36168	53202
23.36982	62267
23.37793	90456
23.38605	153561
23.39418	286551
23.40230	567991
23.41043	978320
23.41855	1434580
23.42667	1683565
23.43480	1664222
23.44292	1508835
23.45105	1244681
23.45917	904433
23.46728	672599
23.47542	531266
23.48353	433015
23.49165	366133
23.49978	327599
23.50790	294258
23.51603	271396
23.52415	254017
23.53227	227652
23.54040	209557
23.54852	195364
23.55665	181064
23.56477	174964
23.57288	169546
23.58102	160346
23.58913	163525
23.59727	166005
23.60538	176145
23.61350	175042
23.62163	180201
23.62975	183048
23.63787	203189
23.64600	255745
23.65412	328155
23.66225	442866
23.67037	514932
23.67848	540606
23.68662	497262
23.69473	414722
23.70287	332561
23.71098	262387
23.71910	216330
23.72723	187547
23.73535	158926
23.74347	160733
23.75160	171070
23.75972	242055
23.76785	431841
23.77597	781546
23.78408	1365520
23.79222	1967265
23.80033	2372577
23.80847	2453913
23.81658	2192692
23.82470	1739642
23.83283	1294185
23.84095	956183
23.84908	689435
23.85720	543313
23.86532	417025
23.87345	352392
23.88157	308384
23.88968	269358
23.89782	246893
23.90593	218824
23.91407	205413
23.92218	197068
23.93030	178718
23.93843	172631
23.94655	159252
23.95468	151910
23.96280	147914
23.97092	131888
23.97905	136181
23.98717	134130
23.99530	126516
24.00342	119837
24.01153	120002
24.01967	122307
24.02778	127646
24.03590	135805
24.04403	135474
24.05215	137387
24.06028	133771
24.06840	133729
24.07652	120140
24.08465	117222
24.09277	118253
24.10090	115483
24.10902	110407
24.11713	103486
24.12527	96365
24.13338	100985
24.14150	105940
24.14963	111146
24.15775	118922
24.16588	122573
24.17400	125780
24.18212	113030
24.19025	107724
24.19837	104699
24.20650	102592
24.21462	96037
24.22273	101691
24.23087	98498
24.23898	103496
24.24712	98153
24.25523	92124
24.26335	91356
24.27148	86541
24.27960	77744
24.28772	83336
24.29585	72017
24.30397	71998
24.31210	70892
24.32022	67523
24.32833	72862
24.33647	74656
24.34458	75251
24.35272	76617
24.36083	86243
24.36895	99177
24.37708	117736
24.38520	132402
24.39333	143695
24.40145	141403
24.40957	133118
24.41770	123403
24.42582	117554
24.43393	102866
24.44207	86825
24.45018	78998
24.45832	74256
24.46643	77809
24.47455	86252
24.48268	79182
24.49080	84738
24.49893	82925
24.50705	76688
24.51517	74583
24.52330	79120
24.53142	79074
24.53953	80131
24.54767	76521
24.55578	70492
24.56392	70501
24.57203	67435
24.58015	68277
24.58828	64858
24.59640	67747
24.60453	64332
24.61265	69873
24.62077	66511
24.62890	62749
24.63702	62779
24.64515	67338
24.65327	73644
24.66138	70868
24.66952	72711
24.67763	73790
24.68575	80506
24.69388	84975
24.70200	76666
24.71013	76693
24.71825	75836
24.72637	76176
24.73450	74969
24.74262	63016
24.75075	62295
24.75887	63363
24.76698	57091
24.77512	59426
24.78323	54529
24.79135	53931
24.79948	50348
24.80760	62609
24.81573	57019
24.82385	52108
24.83197	48743
24.84010	48298
24.84822	50633
24.85635	50690
24.86447	51460
24.87258	54404
24.88072	55789
24.88883	54530
24.89697	58835
24.90508	55760
24.91320	49430
24.92133	53883
24.92945	50665
24.93757	47334
24.94570	46959
24.95382	46977
24.96195	47531
24.97007	49646
24.97818	45169
24.98632	44158
24.99443	51827
25.00257	46792
25.01068	45048
25.01880	52404
25.02693	47852
25.03505	45058
25.04318	49096
25.05130	48901
25.05942	50561
25.06755	49348
25.07567	50484
25.08378	50453
25.09192	52436
25.10003	47792
25.10817	46200
25.11628	49598
25.12440	46889
25.13253	49258
25.14065	53030
25.14878	55432
25.15690	57010
25.16502	58726
25.17315	62828
25.18127	62780
25.18938	69664
25.19752	74821
25.20563	80704
25.21377	85395
25.22188	100030
25.23000	92739
25.23813	81873
25.24625	76311
25.25438	72523
25.26250	64400
25.27062	55871
25.27875	54966
25.28687	59290
25.29500	61662
25.30312	65414
25.31123	70199
25.31937	74084
25.32748	73872
25.33560	73171
25.34373	71656
25.35185	64211
25.35998	57512
25.36810	50302
25.37622	53035
25.38435	51223
25.39247	49688
25.40060	48561
25.40872	50045
25.41683	48910
25.42497	49527
25.43308	51351
25.44122	52242
25.44933	53490
25.45745	56616
25.46558	52550
25.47370	54125
25.48182	48865
25.48995	51679
25.49807	53711
25.50620	55003
25.51432	51741
25.52243	55296
25.53057	52122
25.53868	57656
25.54682	57800
25.55493	61001
25.56305	66386
25.57118	64057
25.57930	67460
25.58742	65226
25.59555	65466
25.60367	62052
25.61180	64130
25.61992	61701
25.62803	64434
25.63617	66849
25.64428	74146
25.65242	84028
25.66053	79390
25.66865	79972
25.67678	72128
25.68490	62576
25.69303	54635
25.70115	55785
25.70927	50005
25.71740	51219
25.72552	49219
25.73363	50126
25.74177	47782
25.74988	49957
25.75802	52842
25.76613	51009
25.77425	50904
25.78238	47466
25.79050	46783
25.79863	45970
25.80675	50656
25.81487	52254
25.82300	53265
25.83112	54414
25.83923	60210
25.84737	61167
25.85548	59132
25.86362	55334
25.87173	63404
25.87985	57753
25.88798	54935
25.89610	46493
25.90423	49298
25.91235	47362
25.92047	44841
25.92860	41635
25.93672	45844
25.94485	42584
25.95297	42746
25.96108	43083
25.96922	42930
25.97733	45119
25.98545	44390
25.99358	43357
26.00170	43132
26.00983	44951
26.01795	48667
26.02607	43016
26.03420	43071
26.04232	41094
26.05045	43770
26.05857	38024
26.06668	37707
26.07482	40867
26.08293	41745
26.09107	40878
26.09918	46370
26.10730	44791
26.11543	43509
26.12355	40516
26.13167	48872
26.13980	49042
26.14792	53472
26.15605	53946
26.16417	54560
26.17228	54837
26.18042	50027
26.18853	48172
26.19667	53388
26.20478	53658
26.21290	46256
26.22103	39759
26.22915	38716
26.23727	42400
26.24540	42227
26.25352	42688
26.26165	44705
26.26977	44197
26.27788	42225
26.28602	41579
26.29413	43146
26.30227	39525
26.31038	40839
26.31850	44039
26.32663	41164
26.33475	39196
26.34288	41185
26.35100	40379
26.35912	39246
26.36725	41310
26.37537	38406
26.38348	39330
26.39162	39143
26.39973	42792
26.40787	40822
26.41598	45447
26.42410	45175
26.43223	42059
26.44035	46662
26.44848	44636
26.45660	42376
26.46472	41290
26.47285	42751
26.48097	44827
26.48910	41116
26.49722	42808
26.50533	43961
26.51347	41483
26.52158	39191
26.52970	39416
26.53783	39444
26.54595	39400
26.55408	41353
26.56220	35056
26.57032	43115
26.57845	44670
26.58657	45613
26.59470	47061
26.60282	45125
26.61093	40933
26.61907	39381
26.62718	41528
26.63530	42237
26.64343	42342
26.65155	44804
26.65968	45872
26.66780	46385
26.67592	48428
26.68405	53719
26.69217	47096
26.70030	47762
26.70842	42958
26.71653	46032
26.72467	45770
26.73278	42822
26.74092	44110
26.74903	45275
26.75715	44708
26.76528	47277
26.77340	51214
26.78152	54727
26.78965	59077
26.79777	62914
26.80590	67426
26.81402	70185
26.82213	67402
26.83027	64667
26.83838	57315
26.84652	57718
26.85463	61555
26.86275	57766
26.87088	63631
26.87900	69810
26.88713	74940
26.89525	112390
26.90337	149276
26.91150	228000
26.91962	313686
26.92773	398553
26.93587	450154
26.94398	446169
26.95212	398455
26.96023	335854
26.96835	274845
26.97648	244067
26.98460	226030
26.99273	266524
27.00085	329773
27.00897	458956
27.01710	608827
27.02522	751763
27.03333	827317
27.04147	786325
27.04958	670776
27.05772	572350
27.06583	452639
27.07395	357047
27.08208	279170
27.09020	241191
27.09833	204862
27.10645	182352
27.11457	167762
27.12270	145595
27.13082	133878
27.13895	129322
27.14707	119492
27.15518	114650
27.16332	115814
27.17143	110602
27.17955	107640
27.18768	108335
27.19580	108134
27.20393	96879
27.21205	93215
27.22017	89819
27.22830	86979
27.23642	85002
27.24455	85271
27.25267	79589
27.26078	74712
27.26892	75810
27.27703	68100
27.28515	73560
27.29328	69664
27.30140	69542
27.30953	67874
27.31765	69739
27.32577	62124
27.33390	64978
27.34202	68338
27.35015	66355
27.35827	64768
27.36638	67179
27.37452	67643
27.38263	66439
27.39077	69709
27.39888	62790
27.40700	65788
27.41513	67381
27.42325	66929
27.43137	66511
27.43950	60652
27.44762	60114
27.45575	64965
27.46387	58227
27.47198	60116
27.48012	59787
27.48823	61584
27.49637	59816
27.50448	57035
27.51260	57869
27.52073	62003
27.52885	61449
27.53698	62575
27.54510	58995
27.55322	60668
27.56135	60720
27.56947	55575
27.57758	52756
27.58572	55133
27.59383	55955
27.60197	57346
27.61008	54757
27.61820	56617
27.62633	58141
27.63445	54160
27.64258	55134
27.65070	54049
27.65882	49333
27.66695	46727
27.67507	47390
27.68318	47921
27.69132	47470
27.69943	47342
27.70757	50695
27.71568	45975
27.72380	44782
27.73193	46536
27.74005	47273
27.74818	49482
27.75630	50271
27.76442	52039
27.77255	54629
27.78067	51138
27.78880	49749
27.79692	44468
27.80503	43206
27.81317	53894
27.82128	51809
27.82940	50792
27.83753	53453
27.84565	54602
27.85378	51951
27.86190	52966
27.87002	48475
27.87815	50230
27.88627	47816
27.89440	47629
27.90252	46550
27.91063	43708
27.91877	46063
27.92688	46570
27.93502	45341
27.94313	44405
27.95125	45958
27.95938	48968
27.96750	44419
27.97562	46058
27.98375	51654
27.99187	52179
28.00000	57694
28.00812	69428
28.01623	75201
28.02437	84116
28.03248	82539
28.04062	78905
28.04873	76924
28.05685	68543
28.06498	64024
28.07310	61313
28.08122	56759
28.08935	50015
28.09747	52854
28.10560	49294
28.11372	45629
28.12183	47392
28.12997	44303
28.13808	46648
28.14622	47472
28.15433	44093
28.16245	41816
28.17058	46239
28.17870	49320
28.18683	53369
28.19495	57814
28.20307	63765
28.21120	76274
28.21932	90312
28.22743	99033
28.23557	97214
28.24368	89608
28.25182	82361
28.25993	77785
28.26805	80390
28.27618	80353
28.28430	90341
28.29243	98398
28.30055	116149
28.30867	140072
28.31680	155553
28.32492	167887
28.33303	173237
28.34117	190509
28.34928	197478
28.35742	210363
28.36553	219069
28.37365	213475
28.38178	224698
28.38990	230687
28.39803	224238
28.40615	206555
28.41427	208421
28.42240	199509
28.43052	194817
28.43865	190683
28.44677	185762
28.45488	184087
28.46302	185074
28.47113	168895
28.47925	150465
28.48738	138925
28.49550	120302
28.50363	103781
28.51175	102036
28.51987	95197
28.52800	90684
28.53612	81916
28.54425	78996
28.55237	86599
28.56048	73534
28.56862	70920
28.57673	71194
28.58487	72388
28.59298	68785
28.60110	72984
28.60923	65812
28.61735	69563
28.62547	73720
28.63360	80976
28.64172	93065
28.64985	100829
28.65797	118267
28.66608	129336
28.67422	127062
28.68233	122806
28.69047	108189
28.69858	94377
28.70670	82177
28.71483	71020
28.72295	69228
28.73108	66016
28.73920	63174
28.74732	64655
28.75545	66843
28.76357	71412
28.77168	80432
28.77982	91978
28.78793	101853
28.79607	108634
28.80418	105399
28.81230	97815
28.82043	88561
28.82855	82792
28.83668	85401
28.84480	75779
28.85292	74973
28.86105	72433
28.86917	69022
28.87728	64519
28.88542	66117
28.89353	58371
28.90167	61250
28.90978	59154
28.91790	55696
28.92603	57600
28.93415	60589
28.94228	58607
28.95040	61001
28.95852	61633
28.96665	65698
28.97477	68085
28.98290	65918
28.99102	62322
28.99913	63442
29.00727	55894
29.01538	54084
29.02350	53103
29.03163	50663
29.03975	55648
29.04788	52474
29.05600	52899
29.06412	52144
29.07225	49718
29.08037	54279
29.08850	52862
29.09662	54163
29.10473	54158
29.11287	56078
29.12098	53239
29.12910	54781
29.13723	49064
29.14535	56304
29.15348	51314
29.16160	51940
29.16972	51418
29.17785	54768
29.18597	53975
29.19410	52987
29.20222	53506
29.21033	53938
29.21847	54784
29.22658	53930
29.23472	60189
29.24283	60199
29.25095	67221
29.25908	74381
29.26720	79474
29.27532	85427
29.28345	87586
29.29157	79494
29.29970	76371
29.30782	69051
29.31593	65846
29.32407	57962
29.33218	58967
29.34032	53699
29.34843	51269
29.35655	51891
29.36468	54239
29.37280	52631
29.38093	53091
29.38905	60838
29.39717	60364
29.40530	65410
29.41342	65653
29.42153	67657
29.42967	79828
29.43778	77784
29.44592	82360
29.45403	77075
29.46215	69603
29.47028	60745
29.47840	58998
29.48653	52379
29.49465	55676
29.50277	61544
29.51090	62315
29.51902	64273
29.52713	52860
29.53527	54438
29.54338	56687
29.55152	49659
29.55963	50336
29.56775	45685
29.57588	48740
29.58400	49504
29.59213	46392
29.60025	51732
29.60837	53728
29.61650	48568
29.62462	48202
29.63275	50132
29.64087	49506
29.64898	52533
29.65712	48985
29.66523	47477
29.67335	47577
29.68148	46419
29.68960	46448
29.69773	50612
29.70585	54385
29.71397	70084
29.72210	122626
29.73022	243887
29.73835	484000
29.74647	807738
29.75458	1207425
29.76272	1599492
29.77083	1626466
29.77897	1348474
29.78708	926156
29.79520	568625
29.80333	323933
29.81145	188609
29.81957	126299
29.82770	103905
29.83582	91907
29.84395	84003
29.85207	85759
29.86018	113968
29.86832	181303
29.87643	343934
29.88457	640901
29.89268	1037045
29.90080	1471289
29.90893	1741835
29.91705	1677324
29.92517	1302449
29.93330	834688
29.94142	499302
29.94955	300622
29.95767	194533
29.96578	152305
29.97392	147028
29.98203	157574
29.99017	167609
29.99828	177246
30.00640	182833
30.01453	196057
30.02265	207871
30.03078	213481
30.03890	212431
30.04702	214892
30.05515	218301
30.06327	206523
30.07138	197186
30.07952	186835
30.08763	176125
30.09577	166539
30.10388	153211
30.11200	147596
30.12013	141646
30.12825	140682
30.13638	131649
30.14450	124848
30.15262	124640
30.16075	112369
30.16887	113532
30.17698	106504
30.18512	101128
30.19323	96979
30.20137	91996
30.20948	88504
30.21760	82928
30.22573	82588
30.23385	77394
30.24198	83306
30.25010	76356
30.25822	75091
30.26635	71987
30.27447	72747
30.28260	67928
30.29072	69430
30.29883	68797
30.30697	73575
30.31508	67406
30.32320	68724
30.33133	65354
30.33945	67247
30.34758	60568
30.35570	62880
30.36382	62479
30.37195	57119
30.38007	62217
30.38820	61400
30.39632	57518
30.40443	54312
30.41257	61184
30.42068	59635
30.42882	55472
30.43693	54013
30.44505	52762
30.45318	53185
30.46130	57348
30.46942	53892
30.47755	53657
30.48567	51304
30.49380	56188
30.50192	54497
30.51003	55974
30.51817	53656
30.52628	50371
30.53442	50021
30.54253	52970
30.55065	56239
30.55878	53701
30.56690	49413
30.57502	49361
30.58315	48537
30.59127	53252
30.59940	48419
30.60752	50460
30.61563	55279
30.62377	54600
30.63188	51506
30.64002	54846
30.64813	73950
30.65625	110554
30.66438	183865
30.67250	323833
30.68063	536237
30.68875	792779
30.69687	963423
30.70500	993854
30.71312	857011
30.72123	607767
30.72937	392510
30.73748	243530
30.74562	161593
30.75373	116815
30.76185	101775
30.76998	112770
30.77810	155166
30.78623	247183
30.79435	408793
30.80247	672196
30.81060	873747
30.81872	1024790
30.82685	967965
30.83497	769171
30.84308	549748
30.85122	354274
30.85933	234054
30.86745	152267
30.87558	127821
30.88370	105862
30.89183	102455
30.89995	98360
30.90807	88529
30.91620	86540
30.92432	82593
30.93245	86065
30.94057	83559
30.94868	94287
30.95682	112111
30.96493	140686
30.97305	169542
30.98118	200208
30.98930	202972
30.99743	187669
31.00555	158379
31.01367	125647
31.02180	109406
31.02992	106179
31.03805	106753
31.04617	104837
31.05428	99311
31.06242	90655
31.07053	89432
31.07867	95654
31.08678	109554
31.09490	134352
31.10303	170645
31.11115	188701
31.11927	221000
31.12740	214706
31.13552	183227
31.14365	164015
31.15177	143761
31.15988	138545
31.16802	130455
31.17613	133512
31.18427	123589
31.19238	126093
31.20050	126737
31.20863	123199
31.21675	143062
31.22487	151458
31.23300	159760
31.24112	148747
31.24925	126312
31.25737	115866
31.26548	96078
31.27362	78544
31.28173	74752
31.28987	70226
31.29798	67929
31.30610	73427
31.31423	73262
31.32235	74556
31.33048	77616
31.33860	75336
31.34672	79584
31.35485	65032
31.36297	66352
31.37108	70747
31.37922	70481
31.38733	74728
31.39547	74333
31.40358	80152
31.41170	77036
31.41983	69491
31.42795	63049
31.43608	68322
31.44420	66097
31.45232	62035
31.46045	58386
31.46857	55554
31.47670	57516
31.48482	58648
31.49293	53326
31.50107	55847
31.50918	55456
31.51730	56617
31.52543	55513
31.53355	62428
31.54168	51782
31.54980	55444
31.55792	52941
31.56605	53342
31.57417	54418
31.58230	57273
31.59042	58388
31.59853	55362
31.60667	56350
31.61478	50279
31.62290	51634
31.63103	51048
31.63915	53820
31.64728	55589
31.65540	59704
31.66352	57164
31.67165	54965
31.67977	56378
31.68790	57399
31.69602	61072
31.70413	63812
31.71227	63686
31.72038	67246
31.72852	67892
31.73663	65151
31.74475	67144
31.75288	62263
31.76100	57994
31.76912	57574
31.77725	56290
31.78537	51316
31.79350	55893
31.80162	56873
31.80973	59097
31.81787	56121
31.82598	54490
31.83412	57935
31.84223	62119
31.85035	64226
31.85848	62350
31.86660	66732
31.87473	68091
31.88285	66929
31.89097	63280
31.89910	68479
31.90722	72549
31.91533	75653
31.92347	82826
31.93158	94899
31.93972	113570
31.94783	130273
31.95595	135050
31.96408	147627
31.97220	158083
31.98033	166939
31.98845	172760
31.99657	166595
32.00470	166649
32.01282	156490
32.02093	142241
32.02907	138208
32.03718	139539
32.04532	126283
32.05343	128539
32.06155	116806
32.06968	107529
32.07780	103492
32.08593	96310
32.09405	97439
32.10217	98675
32.11030	87814
32.11842	89293
32.12655	81097
32.13467	75949
32.14278	70020
32.15092	70238
32.15903	70536
32.16715	70096
32.17528	70087
32.18340	70372
32.19153	71080
32.19965	71915
32.20777	69848
32.21590	63186
32.22402	60622
32.23215	59747
32.24027	64179
32.24838	60604
32.25652	63665
32.26463	64056
32.27277	65806
32.28088	74225
32.28900	68271
32.29713	71643
32.30525	77342
32.31337	78840
32.32150	75767
32.32962	71905
32.33775	76965
32.34587	75992
32.35398	75588
32.36212	75807
32.37023	79850
32.37837	72095
32.38648	71501
32.39460	63415
32.40273	61305
32.41085	54806
32.41897	60235
32.42710	60702
32.43522	56635
32.44335	59099
32.45147	56807
32.45958	57969
32.46772	57570
32.47583	57069
32.48397	56215
32.49208	52198
32.50020	57802
32.50833	52021
32.51645	49854
32.52458	50322
32.53270	48834
32.54082	53305
32.54895	50026
32.55707	50800
32.56518	52613
32.57332	56389
32.58143	61298
32.58957	59437
32.59768	60136
32.60580	57336
32.61393	56847
32.62205	54161
32.63018	55814
32.63830	54565
32.64642	58713
32.65455	55959
32.66267	66392
32.67078	66267
32.67892	77478
32.68703	76457
32.69517	80566
32.70328	74240
32.71140	63185
32.71953	57548
32.72765	58595
32.73578	59448
32.74390	50080
32.75202	50785
32.76015	47750
32.76827	49102
32.77640	55299
32.78452	50158
32.79263	48267
32.80077	45320
32.80888	48005
32.81700	48955
32.82513	49693
32.83325	48568
32.84138	46984
32.84950	46633
32.85762	48547
32.86575	50096
32.87387	51343
32.88200	44175
32.89012	49505
32.89823	50125
32.90637	50646
32.91448	45587
32.92262	51080
32.93073	52284
32.93885	48496
32.94698	49051
32.95510	49455
32.96322	49663
32.97135	50430
32.97947	53697
32.98760	51848
32.99572	47213
33.00383	50112
33.01197	53187
33.02008	53855
33.02822	65239
33.03633	97854
33.04445	170400
33.05258	301676
33.06070	482744
33.06882	653831
33.07695	668007
33.08507	609084
33.09320	490309
33.10132	436327
33.10943	476104
33.11757	597603
33.12568	655571
33.13382	639952
33.14193	515062
33.15005	363216
33.15818	228560
33.16630	135756
33.17443	94410
33.18255	75736
33.19067	64377
33.19880	62381
33.20692	62687
33.21503	65238
33.22317	70318
33.23128	62231
33.23942	62427
33.24753	59714
33.25565	58803
33.26378	56760
33.27190	57858
33.28003	54267
33.28815	54998
33.29627	61741
33.30440	58733
33.31252	55850
33.32065	50621
33.32877	50680
33.33688	52120
33.34502	49571
33.35313	49640
33.36125	52261
33.36938	50267
33.37750	46846
33.38563	47929
33.39375	44339
33.40187	48401
33.41000	52699
33.41812	51327
33.42625	51578
33.43437	48985
33.44248	53342
33.45062	50122
33.45873	47131
33.46685	46948
33.47498	51996
33.48310	48402
33.49123	48301
33.49935	47461
33.50747	50889
33.51560	49564
33.52372	50359
33.53185	48694
33.53997	46794
33.54808	51321
33.55622	49134
33.56433	50717
33.57247	55887
33.58058	55033
33.58870	53920
33.59683	54523
33.60495	51370
33.61307	54413
33.62120	54063
33.62932	54783
33.63745	51003
33.64557	58598
33.65368	47393
33.66182	51051
33.66993	45855
33.67807	51252
33.68618	48515
33.69430	48999
33.70243	48471
33.71055	48585
33.71867	46841
33.72680	48625
33.73492	43660
33.74305	48076
33.75117	45510
33.75928	45690
33.76742	46391
33.77553	46739
33.78367	48049
33.79178	49633
33.79990	50896
33.80803	49453
33.81615	51410
33.82428	55056
33.83240	55948
33.84052	57256
33.84865	53184
33.85677	55322
33.86488	55378
33.87302	50724
33.88113	48356
33.88927	53188
33.89738	52544
33.90550	51777
33.91363	48595
33.92175	49207
33.92988	49309
33.93800	47005
33.94612	46645
33.95425	52491
33.96237	56308
33.97050	54386
33.97862	51605
33.98673	51545
33.99487	48406
34.00298	46522
34.01110	48298
34.01923	45132
34.02735	49869
34.03548	49961
34.04360	46572
34.05172	49976
34.05985	48016
34.06797	50271
34.07610	48112
34.08422	51898
34.09233	54406
34.10047	49774
34.10858	47048
34.11672	47590
34.12483	50221
34.13295	50971
34.14108	50678
34.14920	49479
34.15732	45195
34.16545	48661
34.17357	46682
34.18170	48705
34.18982	48055
34.19793	55949
34.20607	50736
34.21418	59703
34.22232	57371
34.23043	59329
34.23855	62979
34.24668	65651
34.25480	62578
34.26292	64012
34.27105	63968
34.27917	60829
34.28730	54851
34.29542	62625
34.30353	57770
34.31167	53956
34.31978	50148
34.32792	50881
34.33603	48581
34.34415	51229
34.35228	48745
34.36040	49862
34.36853	50620
34.37665	50722
34.38477	51368
34.39290	46789
34.40102	50013
34.40913	48112
34.41727	47566
34.42538	41699
34.43352	47573
34.44163	48899
34.44975	46745
34.45788	49277
34.46600	50013
34.47413	44603
34.48225	50540
34.49037	45397
34.49850	46307
34.50662	55549
34.51473	52236
34.52287	55658
34.53098	65936
34.53912	76454
34.54723	90378
34.55535	115510
34.56348	121941
34.57160	123421
34.57973	124816
34.58785	121324
34.59597	112402
34.60410	100508
34.61222	92113
34.62035	82426
34.62847	85464
34.63658	78128
34.64472	69152
34.65283	71312
34.66095	63985
34.66908	60500
34.67720	63566
34.68533	65226
34.69345	59377
34.70157	57147
34.70970	55831
34.71782	59281
34.72595	60194
34.73407	59315
34.74218	61067
34.75032	59606
34.75843	57496
34.76655	53687
34.77468	58237
34.78280	54486
34.79093	52593
34.79905	57619
34.80717	48805
34.81530	58867
34.82342	52680
34.83155	53417
34.83967	53003
34.84778	51668
34.85592	55920
34.86403	52288
34.87217	53226
34.88028	55569
34.88840	54931
34.89653	60060
34.90465	64344
34.91277	76766
34.92090	104598
34.92902	167665
34.93715	259221
34.94527	373630
34.95338	491528
34.96152	567223
34.96963	596185
34.97777	587721
34.98588	549177
34.99400	482634
35.00213	363399
35.01025	257670
35.01838	168661
35.02650	115054
35.03462	90932
35.04275	78515
35.05087	76842
35.05898	71953
35.06712	65009
35.07523	70289
35.08337	72913
35.09148	64794
35.09960	66572
35.10773	68440
35.11585	65401
35.12398	61213
35.13210	63082
35.14022	59172
35.14835	66859
35.15647	63016
35.16460	65302
35.17272	63434
35.18083	62666
35.18897	62491
35.19708	60709
35.20520	69126
35.21333	64770
35.22145	65939
35.22958	67185
35.23770	63636
35.24582	66953
35.25395	63751
35.26207	56594
35.27020	57048
35.27832	60451
35.28643	57571
35.29457	54906
35.30268	60242
35.31080	56003
35.31893	54159
35.32705	49848
35.33518	49896
35.34330	52446
35.35142	51733
35.35955	51344
35.36767	48666
35.37580	54033
35.38392	50535
35.39203	57166
35.40017	60240
35.40828	61430
35.41642	64693
35.42453	61844
35.43265	59945
35.44078	58613
35.44890	63569
35.45702	61094
35.46515	58365
35.47327	60289
35.48140	61363
35.48952	59607
35.49763	60427
35.50577	62795
35.51388	59823
35.52202	60723
35.53013	62086
35.53825	65225
35.54638	68008
35.55450	60622
35.56262	60116
35.57075	61413
35.57887	58630
35.58700	59478
35.59512	64298
35.60323	60882
35.61137	59355
35.61948	58145
35.62762	60822
35.63573	63124
35.64385	55698
35.65198	57180
35.66010	56770
35.66823	54992
35.67635	53296
35.68447	58040
35.69260	59326
35.70072	67311
35.70883	60719
35.71697	60486
35.72508	63554
35.73322	56797
35.74133	61830
35.74945	58487
35.75758	57617
35.76570	58904
35.77383	52631
35.78195	52767
35.79007	54550
35.79820	55021
35.80632	57010
35.81445	53639
35.82257	54531
35.83068	50113
35.83882	54420
35.84693	53996
35.85505	48937
35.86318	57307
35.87130	50099
35.87943	57084
35.88755	56018
35.89567	55038
35.90380	53085
35.91192	49851
35.92005	53788
35.92817	50211
35.93628	50291
35.94442	54536
35.95253	53819
35.96065	50149
35.96878	53142
35.97690	55672
35.98503	57573
35.99315	57015
36.00127	56277
36.00940	58079
36.01752	53135
36.02565	53686
36.03377	55756
36.04188	55704
36.05002	53655
36.05813	61248
36.06627	55015
36.07438	55236
36.08250	56940
36.09063	57201
36.09875	55681
36.10687	53352
36.11500	58021
36.12312	55945
36.13125	56464
36.13937	53270
36.14748	56178
36.15562	51705
36.16373	60199
36.17187	58117
36.17998	56898
36.18810	50021
36.19623	57666
36.20435	52690
36.21248	54281
36.22060	55518
36.22872	52950
36.23685	51621
36.24497	55275
36.25308	47469
36.26122	50319
36.26933	48497
36.27747	50853
36.28558	55256
36.29370	57825
36.30183	61307
36.30995	59514
36.31808	62984
36.32620	70955
36.33432	76261
36.34245	76302
36.35057	80548
36.35868	68237
36.36682	59539
36.37493	60541
36.38307	57432
36.39118	58560
36.39930	59393
36.40743	55979
36.41555	55034
36.42368	54589
36.43180	55899
36.43992	55033
36.44805	55442
36.45617	52239
36.46430	53864
36.47242	55407
36.48053	52324
36.48867	49553
36.49678	51115
36.50490	49427
36.51303	48071
36.52115	55524
36.52928	51621
36.53740	57361
36.54552	50659
36.55365	52203
36.56177	49081
36.56990	49047
36.57802	49061
36.58613	49119
36.59427	55661
36.60238	51166
36.61050	50999
36.61863	53084
36.62675	52738
36.63488	52986
36.64300	51371
36.65112	53171
36.65925	54576
36.66737	58546
36.67550	55463
36.68362	56239
36.69173	60306
36.69987	56639
36.70798	57317
36.71612	55288
36.72423	54548
36.73235	55047
36.74048	55603
36.74860	62298
36.75672	58302
36.76485	51925
36.77297	59620
36.78110	54034
36.78922	57476
36.79733	55974
36.80547	54358
36.81358	56027
36.82172	57977
36.82983	50749
36.83795	51734
36.84608	51479
36.85420	51497
36.86233	53257
36.87045	55963
36.87857	55146
36.88670	52987
36.89482	50810
36.90293	53746
36.91107	54028
36.91918	50109
36.92732	55844
36.93543	57771
36.94355	51489
36.95168	50962
36.95980	58918
36.96793	53043
36.97605	54684
36.98417	53622
36.99230	55214
37.00042	61815
37.00853	57694
37.01667	51475
37.02478	53244
37.03292	56727
37.04103	52203
37.04915	54715
37.05728	53386
37.06540	53112
37.07353	54527
37.08165	55769
37.08977	55902
37.09790	61291
37.10602	54228
37.11415	55108
37.12227	55068
37.13038	57687
37.13852	53216
37.14663	60152
37.15475	60535
37.16288	55091
37.17100	53377
37.17913	54963
37.18725	60709
37.19537	59755
37.20350	59938
37.21162	57932
37.21975	59974
37.22787	62390
37.23598	60915
37.24412	61042
37.25223	59792
37.26037	57249
37.26848	57988
37.27660	59652
37.28473	58224
37.29285	62352
37.30097	58108
37.30910	58042
37.31722	59254
37.32535	64497
37.33347	69694
37.34158	71579
37.34972	79039
37.35783	88312
37.36597	96460
37.37408	96432
37.38220	96116
37.39033	94047
37.39845	93817
37.40657	84948
37.41470	85852
37.42282	77181
37.43095	72726
37.43907	69852
37.44718	71228
37.45532	73951
37.46343	70710
37.47157	70155
37.47968	69483
37.48780	67534
