Z:\data\JTB-E02\BACandBLUE\JTB-E02-190-05.D Tue Dec 11 10:19:29 2018
Start of data points
2.09518	73045
2.10330	69972
2.11142	73526
2.11955	75924
2.12767	80011
2.13580	84832
2.14392	82999
2.15203	92452
2.16017	86096
2.16828	81740
2.17642	83754
2.18453	76560
2.19265	80552
2.20078	74646
2.20890	73953
2.21702	73808
2.22515	69648
2.23327	73409
2.24140	63895
2.24952	65420
2.25763	65982
2.26577	126657
2.27388	1114656
2.28202	2985228
2.29013	2403864
2.29825	1007850
2.30638	560877
2.31450	408537
2.32263	335817
2.33075	287687
2.33887	261258
2.34700	237361
2.35512	214810
2.36323	200431
2.37137	183071
2.37948	169709
2.38762	169801
2.39573	161088
2.40385	158187
2.41198	158771
2.42010	172810
2.42823	205905
2.43635	195382
2.44447	174553
2.45260	176358
2.46072	156975
2.46883	143478
2.47697	133850
2.48508	126101
2.49322	120430
2.50133	120157
2.50945	116009
2.51758	122415
2.52570	113921
2.53383	112169
2.54195	111984
2.55007	106776
2.55820	115402
2.56632	132386
2.57445	128822
2.58257	113313
2.59068	112883
2.59882	105978
2.60693	105982
2.61505	115590
2.62318	127236
2.63130	121741
2.63943	112105
2.64755	110946
2.65567	100678
2.66380	105810
2.67192	97952
2.68005	102778
2.68817	94409
2.69628	95476
2.70442	95001
2.71253	96398
2.72065	95025
2.72878	91768
2.73690	96111
2.74503	91770
2.75315	91137
2.76127	86804
2.76940	94172
2.77752	90552
2.78565	90562
2.79377	97262
2.80188	99417
2.81002	94667
2.81813	93592
2.82627	88735
2.83438	91748
2.84250	95530
2.85063	90774
2.85875	91121
2.86687	91361
2.87500	86684
2.88312	94250
2.89125	89638
2.89937	87780
2.90748	88856
2.91562	87883
2.92373	93852
2.93187	86018
2.93998	85580
2.94810	85198
2.95623	84404
2.96435	86800
2.97248	89511
2.98060	85716
2.98872	80781
2.99685	86283
3.00497	87228
3.01308	84746
3.02122	86527
3.02933	83959
3.03747	78745
3.04558	83126
3.05370	88169
3.06183	79331
3.06995	81259
3.07808	83219
3.08620	78392
3.09432	81151
3.10245	87092
3.11057	93283
3.11870	99769
3.12682	97361
3.13493	93896
3.14307	90324
3.15118	88096
3.15930	86401
3.16743	92944
3.17555	91341
3.18368	86830
3.19180	90025
3.19992	90155
3.20805	85476
3.21617	87628
3.22430	84085
3.23242	87025
3.24053	88515
3.24867	84381
3.25678	84364
3.26490	87568
3.27303	92715
3.28115	86703
3.28928	130543
3.29740	419979
3.30552	1451317
3.31365	3118426
3.32177	4167613
3.32990	3789297
3.33802	2918177
3.34613	2143834
3.35427	1697720
3.36238	1407707
3.37052	1195231
3.37863	1009825
3.38675	905075
3.39488	806937
3.40300	731077
3.41112	672640
3.41925	629951
3.42737	569812
3.43550	543866
3.44362	511386
3.45173	489580
3.45987	461582
3.46798	442497
3.47612	421148
3.48423	403774
3.49235	406954
3.50048	380680
3.50860	359949
3.51672	350569
3.52485	324976
3.53297	331947
3.54110	307753
3.54922	306440
3.55733	297089
3.56547	288787
3.57358	284976
3.58172	286084
3.58983	282671
3.59795	262051
3.60608	258602
3.61420	256834
3.62233	250715
3.63045	240854
3.63857	245624
3.64670	240057
3.65482	238424
3.66293	229147
3.67107	228098
3.67918	235295
3.68732	232559
3.69543	245964
3.70355	250196
3.71168	254457
3.71980	248902
3.72793	245519
3.73605	244708
3.74417	243358
3.75230	239716
3.76042	233913
3.76855	231664
3.77667	223705
3.78478	232454
3.79292	226310
3.80103	224696
3.80915	222791
3.81728	216125
3.82540	213372
3.83353	214666
3.84165	215988
3.84977	212047
3.85790	224019
3.86602	206612
3.87415	208454
3.88227	208647
3.89038	206033
3.89852	202302
3.90663	203049
3.91475	193564
3.92288	188187
3.93100	200336
3.93913	199795
3.94725	190042
3.95537	198221
3.96350	185581
3.97162	191746
3.97975	185525
3.98787	190750
3.99598	183228
4.00412	182696
4.01223	183073
4.02037	184713
4.02848	185974
4.03660	178265
4.04473	180042
4.05285	179481
4.06097	178805
4.06910	182158
4.07722	180776
4.08535	177869
4.09347	175036
4.10158	165471
4.10972	177098
4.11783	177446
4.12597	171055
4.13408	168584
4.14220	180231
4.15033	185823
4.15845	189598
4.16658	186448
4.17470	180311
4.18282	182477
4.19095	174941
4.19907	167166
4.20718	171069
4.21532	172813
4.22343	193191
4.23157	235883
4.23968	288307
4.24780	302095
4.25593	277929
4.26405	244492
4.27218	228821
4.28030	203381
4.28842	199791
4.29655	189122
4.30467	186490
4.31278	192260
4.32092	183346
4.32903	183777
4.33717	176954
4.34528	178198
4.35340	178943
4.36153	174822
4.36965	173604
4.37778	171631
4.38590	174975
4.39402	171612
4.40215	166000
4.41027	170853
4.41840	169879
4.42652	166862
4.43463	162783
4.44277	162806
4.45088	155666
4.45900	160733
4.46713	162716
4.47525	161243
4.48338	158301
4.49150	159517
4.49962	159796
4.50775	152259
4.51587	151194
4.52400	163995
4.53212	157095
4.54023	151577
4.54837	161661
4.55648	156360
4.56460	148825
4.57273	152596
4.58085	150732
4.58898	155050
4.59710	152190
4.60522	148996
4.61335	154478
4.62147	152130
4.62960	152589
4.63772	140527
4.64583	146551
4.65397	144522
4.66208	156003
4.67022	148944
4.67833	151695
4.68645	146887
4.69458	153512
4.70270	153890
4.71082	149202
4.71895	148457
4.72707	143462
4.73520	140938
4.74332	148065
4.75143	148815
4.75957	149398
4.76768	142125
4.77582	146788
4.78393	144236
4.79205	141009
4.80018	144834
4.80830	143746
4.81643	145662
4.82455	142571
4.83267	144929
4.84080	139686
4.84892	145178
4.85703	148293
4.86517	145196
4.87328	141703
4.88142	145139
4.88953	144053
4.89765	148109
4.90578	146020
4.91390	146914
4.92203	145327
4.93015	148022
4.93827	168321
4.94640	260048
4.95452	522488
4.96263	973907
4.97077	1453566
4.97888	1670466
4.98702	1534082
4.99513	1232316
5.00325	966592
5.01138	793266
5.01950	657618
5.02763	589178
5.03575	531717
5.04387	473619
5.05200	450067
5.06012	428858
5.06825	405272
5.07637	391122
5.08448	372952
5.09262	361003
5.10073	341838
5.10885	337711
5.11698	332443
5.12510	313870
5.13323	308357
5.14135	306077
5.14947	292820
5.15760	282267
5.16572	279682
5.17385	272398
5.18197	279827
5.19008	271450
5.19822	270784
5.20633	267368
5.21447	259977
5.22258	258465
5.23070	247458
5.23883	269172
5.24695	274449
5.25507	278142
5.26320	270664
5.27132	254558
5.27945	239055
5.28757	219991
5.29568	230457
5.30382	222424
5.31193	221726
5.32007	221279
5.32818	219965
5.33630	208716
5.34443	210551
5.35255	215837
5.36067	210554
5.36880	210655
5.37692	207512
5.38505	204231
5.39317	208894
5.40128	200445
5.40942	195998
5.41753	197461
5.42567	199977
5.43378	206924
5.44190	194199
5.45003	200794
5.45815	197182
5.46628	186236
5.47440	191291
5.48252	188764
5.49065	199099
5.49877	189099
5.50688	185257
5.51502	187572
5.52313	194036
5.53127	188489
5.53938	184865
5.54750	175668
5.55563	181472
5.56375	181716
5.57188	180578
5.58000	180668
5.58812	187011
5.59625	180341
5.60437	191743
5.61250	187452
5.62062	178352
5.62873	181908
5.63687	183896
5.64498	179876
5.65310	182692
5.66123	179939
5.66935	186451
5.67748	187873
5.68560	191043
5.69372	197976
5.70185	204452
5.70997	209753
5.71810	191749
5.72622	180605
5.73433	180170
5.74247	184803
5.75058	180480
5.75870	174394
5.76683	168658
5.77495	180541
5.78308	173128
5.79120	168210
5.79932	173909
5.80745	168571
5.81557	167047
5.82370	163448
5.83182	169296
5.83993	169133
5.84807	171554
5.85618	167522
5.86432	174948
5.87243	163669
5.88055	160395
5.88868	156450
5.89680	164121
5.90492	161301
5.91305	148533
5.92117	145707
5.92930	130066
5.93742	129344
5.94553	124407
5.95367	128211
5.96178	126859
5.96992	126021
5.97803	126450
5.98615	128577
5.99428	134716
6.00240	136430
6.01052	130010
6.01865	126099
6.02677	125603
6.03490	128679
6.04302	124599
6.05113	125880
6.05927	120236
6.06738	121958
6.07552	119139
6.08363	125405
6.09175	122787
6.09988	132745
6.10800	125288
6.11613	121864
6.12425	121529
6.13237	123539
6.14050	127170
6.14862	118808
6.15673	120285
6.16487	131344
6.17298	130414
6.18112	137663
6.18923	137522
6.19735	146029
6.20548	144719
6.21360	127591
6.22173	139124
6.22985	137821
6.23797	139734
6.24610	139574
6.25422	146751
6.26235	151165
6.27047	147756
6.27858	158529
6.28672	154612
6.29483	157156
6.30295	151163
6.31108	153660
6.31920	172580
6.32733	165908
6.33545	161502
6.34357	170073
6.35170	176259
6.35982	172462
6.36795	148326
6.37607	139564
6.38418	141503
6.39232	140718
6.40043	122888
6.40855	126382
6.41668	119608
6.42480	124141
6.43293	123440
6.44105	123126
6.44917	119531
6.45730	115374
6.46542	126414
6.47355	120184
6.48167	125210
6.48978	117967
6.49792	113987
6.50603	115565
6.51417	121617
6.52228	115468
6.53040	119456
6.53853	117529
6.54665	115801
6.55477	115694
6.56290	112908
6.57102	112793
6.57915	111545
6.58727	117199
6.59538	118164
6.60352	115988
6.61163	108774
6.61977	109425
6.62788	118518
6.63600	109142
6.64413	108864
6.65225	112746
6.66038	112179
6.66850	109717
6.67662	110747
6.68475	108135
6.69287	105010
6.70098	112227
6.70912	106762
6.71723	109273
6.72537	104174
6.73348	105134
6.74160	107455
6.74973	102796
6.75785	104424
6.76598	103104
6.77410	109676
6.78222	102380
6.79035	109935
6.79847	101909
6.80658	103297
6.81472	101610
6.82283	105373
6.83097	104592
6.83908	106458
6.84720	101150
6.85533	97002
6.86345	86902
6.87158	81957
6.87970	70177
6.88782	70947
6.89595	80245
6.90407	74192
6.91220	79794
6.92032	80645
6.92843	74868
6.93657	74408
6.94468	78812
6.95280	74403
6.96093	71940
6.96905	69445
6.97718	74549
6.98530	70212
6.99342	70434
7.00155	69986
7.00967	74227
7.01780	71473
7.02592	69942
7.03403	69256
7.04217	67679
7.05028	71860
7.05840	75202
7.06653	72041
7.07465	73635
7.08278	78163
7.09090	69347
7.09902	71385
7.10715	70014
7.11527	72140
7.12340	68827
7.13152	72480
7.13963	79273
7.14777	78431
7.15588	71112
7.16402	70471
7.17213	74618
7.18025	69221
7.18838	69076
7.19650	64243
7.20462	67035
7.21275	72904
7.22087	66513
7.22900	71215
7.23712	71044
7.24523	66682
7.25337	68076
7.26148	68754
7.26962	70054
7.27773	68232
7.28585	68057
7.29398	66819
7.30210	71144
7.31023	66362
7.31835	70303
7.32647	70750
7.33460	69707
7.34272	64140
7.35083	64433
7.35897	63816
7.36708	63681
7.37522	68031
7.38333	66574
7.39145	66465
7.39958	61978
7.40770	70035
7.41583	66395
7.42395	63572
7.43207	69504
7.44020	70528
7.44832	63454
7.45645	70530
7.46457	64101
7.47268	66717
7.48082	66797
7.48893	68758
7.49705	66703
7.50518	67774
7.51330	69494
7.52143	67827
7.52955	64780
7.53767	67338
7.54580	66509
7.55392	64667
7.56205	61662
7.57017	67966
7.57828	63042
7.58642	63542
7.59453	65265
7.60265	69696
7.61078	64319
7.61890	69789
7.62703	68356
7.63515	67299
7.64327	66498
7.65140	67866
7.65952	66101
7.66765	68762
7.67577	71939
7.68388	73550
7.69202	71141
7.70013	74831
7.70827	69194
7.71638	66715
7.72450	71373
7.73263	67023
7.74075	67444
7.74887	63786
7.75700	62963
7.76512	66538
7.77325	68015
7.78137	62733
7.78948	65609
7.79762	63802
7.80573	64844
7.81387	64406
7.82198	63883
7.83010	68611
7.83823	62066
7.84635	58945
7.85447	59143
7.86260	51175
7.87072	57338
7.87885	55777
7.88697	57992
7.89508	60541
7.90322	58964
7.91133	56869
7.91947	58555
7.92758	53519
7.93570	55195
7.94383	53464
7.95195	55937
7.96008	51849
7.96820	55472
7.97632	59358
7.98445	55342
7.99257	56660
8.00068	55152
8.00882	63488
8.01693	58543
8.02507	62802
8.03318	55254
8.04130	55867
8.04943	56475
8.05755	55188
8.06568	58993
8.07380	56996
8.08192	58833
8.09005	56236
8.09817	53928
8.10630	52486
8.11442	54851
8.12253	51124
8.13067	58636
8.13878	59732
8.14690	56739
8.15503	55327
8.16315	53408
8.17128	57386
8.17940	58113
8.18752	55415
8.19565	60202
8.20377	57890
8.21190	58483
8.22002	52543
8.22813	58172
8.23627	58473
8.24438	53633
8.25250	53988
8.26063	54798
8.26875	53254
8.27688	56656
8.28500	57142
8.29312	56852
8.30125	51589
8.30937	54391
8.31750	49869
8.32562	57293
8.33373	54754
8.34187	54697
8.34998	55595
8.35812	55008
8.36623	60218
8.37435	60352
8.38248	59152
8.39060	57987
8.39872	56176
8.40685	60941
8.41497	56923
8.42310	61558
8.43122	52046
8.43933	57054
8.44747	59170
8.45558	56625
8.46372	50659
8.47183	53073
8.47995	51381
8.48808	51141
8.49620	48011
8.50433	51135
8.51245	52017
8.52057	57997
8.52870	59867
8.53682	54328
8.54493	51806
8.55307	50083
8.56118	54597
8.56932	50339
8.57743	52144
8.58555	55762
8.59368	52853
8.60180	49196
8.60993	50994
8.61805	49660
8.62617	50573
8.63430	51178
8.64242	52810
8.65053	51964
8.65867	56283
8.66678	50719
8.67492	50191
8.68303	49843
8.69115	50222
8.69928	56866
8.70740	50961
8.71553	47968
8.72365	49889
8.73177	44006
8.73990	49728
8.74802	46447
8.75615	48609
8.76427	51666
8.77238	56034
8.78052	69494
8.78863	104503
8.79675	182186
8.80488	307689
8.81300	400918
8.82113	470939
8.82925	440504
8.83737	387341
8.84550	329423
8.85362	267301
8.86175	239461
8.86987	202600
8.87798	191609
8.88612	167433
8.89423	163720
8.90235	153102
8.91048	147887
8.91860	142943
8.92673	140273
8.93485	128096
8.94297	129717
8.95110	129071
8.95922	125414
8.96735	123807
8.97547	123250
8.98358	120325
8.99172	116646
8.99983	115577
9.00797	114695
9.01608	118318
9.02420	112528
9.03233	114168
9.04045	112738
9.04857	111187
9.05670	112459
9.06482	109277
9.07295	115204
9.08107	113727
9.08918	104459
9.09732	106674
9.10543	108321
9.11357	106192
9.12168	107013
9.12980	101067
9.13793	110589
9.14605	106261
9.15418	105229
9.16230	107533
9.17042	105656
9.17855	109704
9.18667	109688
9.19478	111172
9.20292	103197
9.21103	105968
9.21917	97759
9.22728	106112
9.23540	103093
9.24353	106723
9.25165	98649
9.25978	95216
9.26790	100531
9.27602	92151
9.28415	98021
9.29227	98753
9.30038	98090
9.30852	92723
9.31663	98381
9.32477	90375
9.33288	96166
9.34100	93589
9.34913	90295
9.35725	86695
9.36538	91198
9.37350	87886
9.38162	84460
9.38975	83510
9.39787	85908
9.40600	89360
9.41412	88930
9.42223	88062
9.43037	86128
9.43848	87256
9.44660	89183
9.45473	84928
9.46285	80376
9.47098	79748
9.47910	76241
9.48722	82499
9.49535	81579
9.50347	81910
9.51160	80027
9.51972	85253
9.52783	78927
9.53597	81547
9.54408	82321
9.55222	80242
9.56033	79736
9.56845	72139
9.57658	66240
9.58470	63666
9.59282	62455
9.60095	61700
9.60907	61016
9.61720	68448
9.62532	67011
9.63343	63922
9.64157	57846
9.64968	60383
9.65782	54505
9.66593	55763
9.67405	60255
9.68218	54469
9.69030	58591
9.69842	59986
9.70655	57752
9.71467	54889
9.72280	55624
9.73092	53898
9.73903	57278
9.74717	63562
9.75528	55149
9.76342	54635
9.77153	54453
9.77965	53231
9.78778	53937
9.79590	55193
9.80403	52959
9.81215	55003
9.82027	54771
9.82840	59915
9.83652	56104
9.84463	57322
9.85277	60048
9.86088	51763
9.86902	53108
9.87713	54105
9.88525	57958
9.89338	54071
9.90150	50726
9.90963	50914
9.91775	55880
9.92587	53761
9.93400	52139
9.94212	46556
9.95023	51545
9.95837	57066
9.96648	49867
9.97462	48046
9.98273	54922
9.99085	54029
9.99898	53159
10.00710	58943
10.01523	60681
10.02335	63372
10.03147	76292
10.03960	82832
10.04772	83105
10.05585	90105
10.06397	85690
10.07208	82355
10.08022	86443
10.08833	77778
10.09645	80635
10.10458	73884
10.11270	73888
10.12083	76598
10.12895	72525
10.13707	75967
10.14520	72192
10.15332	73958
10.16145	72197
10.16957	72926
10.17768	72601
10.18582	72130
10.19393	69522
10.20207	77180
10.21018	67863
10.21830	73431
10.22643	73997
10.23455	69246
10.24267	79682
10.25080	75798
10.25892	75517
10.26705	74879
10.27517	77443
10.28328	81785
10.29142	82776
10.29953	90409
10.30767	101243
10.31578	122671
10.32390	125712
10.33203	131795
10.34015	122283
10.34827	114825
10.35640	112767
10.36452	98488
10.37265	99209
10.38077	97787
10.38888	93071
10.39702	94421
10.40513	93686
10.41327	97397
10.42138	97547
10.42950	100132
10.43763	94287
10.44575	91064
10.45388	90978
10.46200	87999
10.47012	86340
10.47825	89689
10.48637	88206
10.49448	86084
10.50262	83419
10.51073	80661
10.51887	81679
10.52698	77980
10.53510	78290
10.54323	78600
10.55135	81900
10.55948	80071
10.56760	79803
10.57572	80837
10.58385	86035
10.59197	84974
10.60010	81267
10.60822	87611
10.61633	82885
10.62447	82827
10.63258	78902
10.64070	76534
10.64883	79205
10.65695	77986
10.66508	77202
10.67320	76496
10.68132	74726
10.68945	75579
10.69757	76480
10.70570	75228
10.71382	77662
10.72193	74954
10.73007	76087
10.73818	76247
10.74630	82770
10.75443	69731
10.76255	73842
10.77068	73970
10.77880	72104
10.78692	71289
10.79505	79631
10.80317	75822
10.81130	72707
10.81942	72201
10.82753	74927
10.83567	69278
10.84378	68120
10.85192	67104
10.86003	70930
10.86815	66419
10.87628	69117
10.88440	67442
10.89252	70108
10.90065	63778
10.90877	66406
10.91690	64510
10.92502	65148
10.93313	65548
10.94127	65417
10.94938	65943
10.95752	68346
10.96563	68497
10.97375	69389
10.98188	70461
10.99000	66236
10.99813	64530
11.00625	62625
11.01437	70019
11.02250	57598
11.03062	65477
11.03873	59061
11.04687	59493
11.05498	59781
11.06312	70342
11.07123	63248
11.07935	60028
11.08748	58058
11.09560	62732
11.10373	62762
11.11185	60352
11.11997	63126
11.12810	56507
11.13622	60414
11.14433	55232
11.15247	56262
11.16058	53358
11.16872	56327
11.17683	56647
11.18495	57977
11.19308	60728
11.20120	60623
11.20933	61362
11.21745	64336
11.22557	72263
11.23370	68051
11.24182	67145
11.24995	60835
11.25807	59957
11.26618	54055
11.27432	52820
11.28243	51872
11.29055	57330
11.29868	53057
11.30680	54429
11.31493	46589
11.32305	53799
11.33117	50012
11.33930	49000
11.34742	50087
11.35555	57252
11.36367	55776
11.37178	56055
11.37992	66569
11.38803	64317
11.39615	62731
11.40428	60910
11.41240	59583
11.42053	65149
11.42865	58663
11.43677	57373
11.44490	58358
11.45302	57904
11.46115	54705
11.46927	57200
11.47738	60060
11.48552	54328
11.49363	55098
11.50177	56361
11.50988	54493
11.51800	56186
11.52613	64807
11.53425	59946
11.54237	54265
11.55050	52721
11.55862	57552
11.56675	57149
11.57487	55901
11.58298	51493
11.59112	57849
11.59923	49942
11.60737	58945
11.61548	52066
11.62360	55789
11.63173	52563
11.63985	53270
11.64798	54196
11.65610	54373
11.66422	51935
11.67235	54434
11.68047	49171
11.68858	50386
11.69672	54745
11.70483	54551
11.71297	57953
11.72108	57677
11.72920	56804
11.73733	53021
11.74545	57383
11.75358	60453
11.76170	54974
11.76982	57915
11.77795	56787
11.78607	55908
11.79418	56571
11.80232	59178
11.81043	55776
11.81857	54232
11.82668	54718
11.83480	56546
11.84293	51036
11.85105	53084
11.85918	51437
11.86730	56287
11.87542	55859
11.88355	54724
11.89167	50267
11.89980	49281
11.90792	56755
11.91603	54972
11.92417	50649
11.93228	53605
11.94040	49288
11.94853	48449
11.95665	47596
11.96478	48066
11.97290	50050
11.98102	53852
11.98915	55495
11.99727	49545
12.00540	50630
12.01352	53058
12.02163	53235
12.02977	49228
12.03788	47208
12.04602	50417
12.05413	48723
12.06225	54904
12.07038	49907
12.07850	47811
12.08662	51128
12.09475	50426
12.10287	46217
12.11100	47532
12.11912	45696
12.12723	47460
12.13537	51080
12.14348	54986
12.15162	56399
12.15973	62252
12.16785	79882
12.17598	86840
12.18410	102048
12.19222	111953
12.20035	114629
12.20847	111589
12.21660	116607
12.22472	113478
12.23283	115773
12.24097	115396
12.24908	103418
12.25722	116783
12.26533	112213
12.27345	106511
12.28158	110490
12.28970	105394
12.29783	102023
12.30595	104331
12.31407	102908
12.32220	107931
12.33032	111143
12.33843	102088
12.34657	100144
12.35468	99600
12.36282	96831
12.37093	103119
12.37905	100035
12.38718	96246
12.39530	96499
12.40343	105716
12.41155	98209
12.41967	98778
12.42780	96471
12.43592	95721
12.44403	92777
12.45217	96350
12.46028	97399
12.46842	90680
12.47653	94893
12.48465	92085
12.49278	91546
12.50090	94501
12.50903	89338
12.51715	86466
12.52527	87797
12.53340	88421
12.54152	82801
12.54965	81324
12.55777	86536
12.56588	90832
12.57402	83659
12.58213	82689
12.59025	78857
12.59838	78944
12.60650	86836
12.61463	80925
12.62275	81386
12.63087	89259
12.63900	86128
12.64712	83457
12.65525	79611
12.66337	83429
12.67148	81449
12.67962	72981
12.68773	79052
12.69587	79175
12.70398	80688
12.71210	76694
12.72023	75799
12.72835	78459
12.73647	80145
12.74460	83338
12.75272	89618
12.76085	84597
12.76897	86622
12.77708	81549
12.78522	79630
12.79333	76180
12.80147	76871
12.80958	77738
12.81770	68426
12.82583	67210
12.83395	54350
12.84207	54854
12.85020	53343
12.85832	51324
12.86645	45498
12.87457	45815
12.88268	47632
12.89082	51639
12.89893	47384
12.90707	53217
12.91518	50119
12.92330	46392
12.93143	47491
12.93955	50517
12.94768	47745
12.95580	44211
12.96392	43941
12.97205	49077
12.98017	47346
12.98828	46704
12.99642	44046
13.00453	49662
13.01267	49199
13.02078	47708
13.02890	47390
13.03703	48642
13.04515	47207
13.05328	47393
13.06140	46220
13.06952	44244
13.07765	46918
13.08577	46512
13.09390	46968
13.10202	44108
13.11013	47297
13.11827	45941
13.12638	46329
13.13450	44507
13.14263	52692
13.15075	48355
13.15888	46776
13.16700	46981
13.17512	45892
13.18325	46201
13.19137	53099
13.19950	44766
13.20762	47949
13.21573	48208
13.22387	50866
13.23198	50434
13.24010	50107
13.24823	53278
13.25635	48425
13.26448	47724
13.27260	46939
13.28072	45430
13.28885	43815
13.29697	45009
13.30510	48444
13.31322	44561
13.32133	43537
13.32947	45231
13.33758	45106
13.34572	44206
13.35383	48448
13.36195	44850
13.37008	47614
13.37820	46664
13.38632	45444
13.39445	41166
13.40257	41006
13.41070	48293
13.41882	47257
13.42693	44131
13.43507	44465
13.44318	45505
13.45132	44494
13.45943	41676
13.46755	42109
13.47568	45329
13.48380	39118
13.49192	42477
13.50005	41838
13.50817	42535
13.51630	40388
13.52442	42516
13.53253	40498
13.54067	42203
13.54878	41938
13.55692	42415
13.56503	41399
13.57315	42727
13.58128	42518
13.58940	39758
13.59753	40943
13.60565	41299
13.61377	39578
13.62190	36722
13.63002	43338
13.63813	35922
13.64627	39283
13.65438	37716
13.66252	39232
13.67063	38762
13.67875	38284
13.68688	41772
13.69500	38961
13.70313	37474
13.71125	38715
13.71937	43871
13.72750	39859
13.73562	37798
13.74375	39161
13.75187	34645
13.75998	35270
13.76812	39230
13.77623	35365
13.78435	40680
13.79248	39518
13.80060	41348
13.80873	44028
13.81685	40979
13.82497	41858
13.83310	45224
13.84122	45928
13.84935	41181
13.85747	47624
13.86558	45435
13.87372	43403
13.88183	41599
13.88997	46611
13.89808	43240
13.90620	45494
13.91433	45025
13.92245	46493
13.93057	45546
13.93870	44525
13.94682	45570
13.95495	42330
13.96307	45219
13.97118	46824
13.97932	43742
13.98743	41884
13.99557	40113
14.00368	41201
14.01180	45935
14.01993	37760
14.02805	41194
14.03617	43469
14.04430	42774
14.05242	45292
14.06055	46898
14.06867	45757
14.07678	44935
14.08492	52711
14.09303	52590
14.10117	49461
14.10928	47903
14.11740	46188
14.12553	45302
14.13365	44355
14.14178	48177
14.14990	39204
14.15802	44941
14.16615	42936
14.17427	40231
14.18238	45794
14.19052	50626
14.19863	59572
14.20677	81913
14.21488	117794
14.22300	157192
14.23113	191887
14.23925	195855
14.24738	192736
14.25550	169186
14.26362	153847
14.27175	144301
14.27987	139155
14.28798	124736
14.29612	118258
14.30423	112059
14.31237	108247
14.32048	107682
14.32860	96581
14.33673	93951
14.34485	90739
14.35298	89045
14.36110	80388
14.36922	82255
14.37735	71744
14.38547	67258
14.39360	63199
14.40172	59244
14.40983	56670
14.41797	54708
14.42608	52930
14.43420	54613
14.44233	55039
14.45045	49127
14.45858	54937
14.46670	53478
14.47482	55858
14.48295	51526
14.49107	55044
14.49920	50486
14.50732	52287
14.51543	49092
14.52357	48142
14.53168	52375
14.53982	50784
14.54793	49347
14.55605	52784
14.56418	45538
14.57230	52571
14.58042	51313
14.58855	50975
14.59667	44842
14.60480	47633
14.61292	41561
14.62103	46529
14.62917	44912
14.63728	43008
14.64542	46329
14.65353	47408
14.66165	44627
14.66978	49220
14.67790	39850
14.68602	40318
14.69415	45080
14.70227	48680
14.71040	42972
14.71852	39559
14.72663	41754
14.73477	42208
14.74288	42455
14.75102	43395
14.75913	44882
14.76725	38260
14.77538	41681
14.78350	41523
14.79163	41226
14.79975	40969
14.80787	46561
14.81600	54080
14.82412	85809
14.83223	124803
14.84037	166873
14.84848	208654
14.85662	244799
14.86473	259690
14.87285	271311
14.88098	262292
14.88910	246682
14.89723	251338
14.90535	234029
14.91347	231744
14.92160	210272
14.92972	221959
14.93785	208061
14.94597	207052
14.95408	193201
14.96222	191421
14.97033	185823
14.97845	182362
14.98658	178257
14.99470	167807
15.00283	173436
15.01095	166821
15.01907	169623
15.02720	159978
15.03532	154962
15.04345	157570
15.05157	148611
15.05968	148225
15.06782	142708
15.07593	138580
15.08405	136861
15.09218	145078
15.10030	145567
15.10843	139224
15.11655	132191
15.12467	133533
15.13280	129592
15.14092	127976
15.14905	116932
15.15717	113674
15.16528	98357
15.17342	88464
15.18153	75242
15.18967	63305
15.19778	66115
15.20590	59951
15.21403	67404
15.22215	56563
15.23027	63436
15.23840	57293
15.24652	54302
15.25465	57037
15.26277	51040
15.27088	60247
15.27902	56829
15.28713	56049
15.29527	55681
15.30338	51148
15.31150	55806
15.31963	53592
15.32775	52657
15.33587	51013
15.34400	51211
15.35212	50852
15.36025	47190
15.36837	49306
15.37648	48807
15.38462	48403
15.39273	51283
15.40087	49875
15.40898	48970
15.41710	51541
15.42523	53519
15.43335	47724
15.44148	48103
15.44960	47848
15.45772	47609
15.46585	47436
15.47397	48757
15.48208	47985
15.49022	53230
15.49833	47401
15.50647	45864
15.51458	47439
15.52270	56118
15.53083	57626
15.53895	55703
15.54708	47582
15.55520	52669
15.56332	48626
15.57145	47344
15.57957	46066
15.58770	49075
15.59582	48819
15.60393	45139
15.61207	50477
15.62018	44384
15.62830	46479
15.63643	40251
15.64455	43587
15.65268	38897
15.66080	44414
15.66892	45164
15.67705	48524
15.68517	41763
15.69330	41951
15.70142	47462
15.70953	47096
15.71767	42757
15.72578	39164
15.73390	43724
15.74203	38846
15.75015	42448
15.75828	44850
15.76640	42522
15.77452	46157
15.78265	45863
15.79077	48334
15.79890	56688
15.80702	61755
15.81513	64851
15.82327	60088
15.83138	61602
15.83952	56660
15.84763	60851
15.85575	61391
15.86388	57642
15.87200	54366
15.88012	53175
15.88825	53128
15.89637	51253
15.90450	56871
15.91262	53765
15.92073	51839
15.92887	54027
15.93698	54692
15.94512	48956
15.95323	52190
15.96135	55461
15.96948	49180
15.97760	52056
15.98573	48755
15.99385	51049
16.00197	52688
16.01010	56311
16.01822	61699
16.02633	65593
16.03447	84572
16.04258	83522
16.05072	98311
16.05883	95531
16.06695	86052
16.07508	75968
16.08320	60711
16.09133	58094
16.09945	55241
16.10757	53503
16.11570	50358
16.12382	47271
16.13193	45715
16.14007	50234
16.14818	50436
16.15632	47218
16.16443	48492
16.17255	47067
16.18068	44787
16.18880	44016
16.19693	40764
16.20505	45981
16.21317	40591
16.22130	43786
16.22942	44152
16.23755	49026
16.24567	43935
16.25378	43699
16.26192	45754
16.27003	45484
16.27815	41999
16.28628	43591
16.29440	48756
16.30253	48208
16.31065	47871
16.31877	44219
16.32690	42015
16.33502	47295
16.34315	47477
16.35127	43721
16.35938	47542
16.36752	49289
16.37563	50525
16.38377	40016
16.39188	46607
16.40000	41740
16.40813	45481
16.41625	49228
16.42437	42205
16.43250	42902
16.44062	44308
16.44875	42382
16.45687	43623
16.46498	50069
16.47312	46665
16.48123	52017
16.48937	59615
16.49748	76226
16.50560	94116
16.51373	83563
16.52185	94072
16.52997	88958
16.53810	88192
16.54622	79549
16.55435	82720
16.56247	76885
16.57058	78580
16.57872	81261
16.58683	72340
16.59497	76658
16.60308	68243
16.61120	75162
16.61933	63410
16.62745	70577
16.63558	69302
16.64370	64596
16.65182	66329
16.65995	67168
16.66807	64528
16.67618	66332
16.68432	61991
16.69243	63890
16.70057	61542
16.70868	56247
16.71680	60655
16.72493	56545
16.73305	52566
16.74118	51454
16.74930	45590
16.75742	45410
16.76555	47613
16.77367	41581
16.78178	48049
16.78992	44427
16.79803	44906
16.80617	44149
16.81428	43476
16.82240	42711
16.83053	45893
16.83865	45122
16.84678	40951
16.85490	47021
16.86302	42342
16.87115	46450
16.87927	40971
16.88740	43768
16.89552	40970
16.90363	40192
16.91177	43064
16.91988	39011
16.92800	43698
16.93613	40719
16.94425	40895
16.95238	45097
16.96050	40812
16.96862	39997
16.97675	42612
16.98487	38754
16.99300	42644
17.00112	40708
17.00923	37932
17.01737	41084
17.02548	43943
17.03362	41678
17.04173	37875
17.04985	41271
17.05798	41912
17.06610	37844
17.07422	43322
17.08235	41245
17.09047	41762
17.09860	39425
17.10672	37829
17.11483	39745
17.12297	42060
17.13108	44704
17.13922	36916
17.14733	40057
17.15545	42951
17.16358	42091
17.17170	40636
17.17982	41117
17.18795	37813
17.19607	41549
17.20420	40676
17.21232	41510
17.22043	41236
17.22857	39940
17.23668	38102
17.24482	44707
17.25293	42986
17.26105	38891
17.26918	39948
17.27730	39941
17.28543	41399
17.29355	41598
17.30167	41186
17.30980	36184
17.31792	38947
17.32603	38600
17.33417	41118
17.34228	51923
17.35042	49901
17.35853	59455
17.36665	65068
17.37478	71239
17.38290	77560
17.39103	81640
17.39915	79856
17.40727	79629
17.41540	81506
17.42352	72961
17.43165	74877
17.43977	81607
17.44788	75490
17.45602	68877
17.46413	66809
17.47225	68560
17.48038	76089
17.48850	66185
17.49663	65531
17.50475	69002
17.51287	63558
17.52100	66032
17.52912	66144
17.53725	65944
17.54537	64465
17.55348	66726
17.56162	65432
17.56973	58242
17.57785	61476
17.58598	65276
17.59410	57695
17.60223	62460
17.61035	51629
17.61847	55824
17.62660	54547
17.63472	54755
17.64285	52071
17.65097	52019
17.65908	49099
17.66722	48942
17.67533	53337
17.68347	49854
17.69158	57344
17.69970	52189
17.70783	50789
17.71595	58587
17.72407	51376
17.73220	53751
17.74032	50386
17.74845	52874
17.75657	49597
17.76468	53863
17.77282	53483
17.78093	54175
17.78907	51820
17.79718	52118
17.80530	48923
17.81343	51647
17.82155	51168
17.82967	46665
17.83780	48152
17.84592	45422
17.85405	51617
17.86217	50575
17.87028	54015
17.87842	50811
17.88653	47095
17.89467	43593
17.90278	49368
17.91090	48124
17.91903	47968
17.92715	45628
17.93528	38404
17.94340	44486
17.95152	46017
17.95965	45925
17.96777	43725
17.97588	39385
17.98402	42156
17.99213	44543
18.00027	40353
18.00838	41158
18.01650	42153
18.02463	38111
18.03275	44231
18.04088	48065
18.04900	54441
18.05712	53512
18.06525	54271
18.07337	63681
18.08150	80903
18.08962	125560
18.09773	195260
18.10587	269042
18.11398	341666
18.12210	400249
18.13023	413435
18.13835	420134
18.14648	400993
18.15460	386902
18.16272	356458
18.17085	354561
18.17897	322690
18.18710	324341
18.19522	305448
18.20333	285712
18.21147	275685
18.21958	261829
18.22770	249470
18.23583	253539
18.24395	234916
18.25208	233047
18.26020	217791
18.26832	208211
18.27645	203333
18.28457	182735
18.29270	149172
18.30082	116472
18.30893	96465
18.31707	82691
18.32518	79413
18.33332	74453
18.34143	71236
18.34955	67397
18.35768	62597
18.36580	59937
18.37392	59664
18.38205	64022
18.39017	58417
18.39830	63485
18.40642	60462
18.41453	56723
18.42267	62601
18.43078	57420
18.43892	61476
18.44703	61342
18.45515	63276
18.46328	62469
18.47140	66513
18.47953	69274
18.48765	67309
18.49577	65654
18.50390	67572
18.51202	65152
18.52013	58030
18.52827	58712
18.53638	53847
18.54452	52021
18.55263	47276
18.56075	45147
18.56888	44771
18.57700	47307
18.58513	49461
18.59325	45831
18.60137	45346
18.60950	47313
18.61762	49736
18.62573	46123
18.63387	53244
18.64198	44623
18.65012	44031
18.65823	47353
18.66635	46181
18.67448	44563
18.68260	42916
18.69073	46947
18.69885	41214
18.70697	45619
18.71510	46691
18.72322	47337
18.73135	44664
18.73947	42839
18.74758	43983
18.75572	42075
18.76383	41879
18.77195	43850
18.78008	42891
18.78820	48109
18.79633	43095
18.80445	46556
18.81257	43716
18.82070	43293
18.82882	45573
18.83695	43215
18.84507	50803
18.85318	46942
18.86132	41005
18.86943	47939
18.87755	44593
18.88568	47825
18.89380	46235
18.90193	50214
18.91005	49635
18.91817	52164
18.92630	49827
18.93442	49627
18.94255	50207
18.95067	51551
18.95878	52059
18.96692	47996
18.97503	51404
18.98317	55436
18.99128	48985
18.99940	51262
19.00753	51433
19.01565	49248
19.02377	48559
19.03190	51417
19.04002	45400
19.04815	48401
19.05627	45987
19.06438	44948
19.07252	45395
19.08063	49422
19.08877	51950
19.09688	46909
19.10500	45218
19.11313	51049
19.12125	46659
19.12938	50509
19.13750	51168
19.14562	55779
19.15375	50571
19.16187	49314
19.16998	51524
19.17812	47912
19.18623	46072
19.19437	47378
19.20248	46558
19.21060	42887
19.21873	45757
19.22685	45132
19.23498	45819
19.24310	49511
19.25122	41570
19.25935	43292
19.26747	49756
19.27560	49138
19.28372	50070
19.29183	56386
19.29997	64365
19.30808	72784
19.31620	79967
19.32433	81279
19.33245	71753
19.34058	66007
19.34870	51289
19.35682	56799
19.36495	53496
19.37307	54775
19.38120	56156
19.38932	61939
19.39743	57720
19.40557	69832
19.41368	66895
19.42180	66557
19.42993	64165
19.43805	62896
19.44618	63188
19.45430	64095
19.46242	57848
19.47055	62726
19.47867	58940
19.48680	58605
19.49492	60629
19.50303	65270
19.51117	75652
19.51928	92418
19.52742	116263
19.53553	138066
19.54365	154445
19.55178	131907
19.55990	110364
19.56802	86465
19.57615	74741
19.58427	65062
19.59240	63190
19.60052	53626
19.60863	55984
19.61677	54059
19.62488	51630
19.63302	48544
19.64113	53835
19.64925	77667
19.65738	107636
19.66550	150438
19.67362	219335
19.68175	292927
19.68987	329251
19.69800	328711
19.70612	282971
19.71423	222928
19.72237	181350
19.73048	144192
19.73862	112342
19.74673	98297
19.75485	83547
19.76298	83647
19.77110	71664
19.77923	70540
19.78735	69157
19.79547	62810
19.80360	63534
19.81172	54593
19.81983	64449
19.82797	62704
19.83608	57869
19.84422	55871
19.85233	56584
19.86045	55780
19.86858	61194
19.87670	57750
19.88483	61189
19.89295	62923
19.90107	70972
19.90920	86070
19.91732	97481
19.92545	112219
19.93357	109001
19.94168	113781
19.94982	115619
19.95793	108890
19.96605	104921
19.97418	101611
19.98230	102143
19.99043	100463
19.99855	92465
20.00667	92672
20.01480	91121
20.02292	83617
20.03105	89071
20.03917	82873
20.04728	80242
20.05542	84032
20.06353	73765
20.07165	64494
20.07978	64417
20.08790	63094
20.09603	64564
20.10415	63927
20.11227	59045
20.12040	59629
20.12852	66004
20.13665	67940
20.14477	63311
20.15288	61800
20.16102	60376
20.16913	67367
20.17727	62908
20.18538	71522
20.19350	83145
20.20163	85902
20.20975	99915
20.21787	98717
20.22600	108875
20.23412	100286
20.24225	100537
20.25037	96818
20.25848	98418
20.26662	111671
20.27473	141790
20.28287	178011
20.29098	226314
20.29910	276522
20.30723	302412
20.31535	291328
20.32348	257882
20.33160	212496
20.33972	180250
20.34785	135591
20.35597	115836
20.36408	95747
20.37222	84684
20.38033	77058
20.38847	71660
20.39658	77204
20.40470	69151
20.41283	65943
20.42095	68687
20.42908	65357
20.43720	71354
20.44532	80020
20.45345	90606
20.46157	106769
20.46968	112609
20.47782	105175
20.48593	101814
20.49407	90708
20.50218	78941
20.51030	65134
20.51843	64468
20.52655	62218
20.53468	59575
20.54280	55761
20.55092	51112
20.55905	52889
20.56717	55236
20.57530	52585
20.58342	46784
20.59153	47164
20.59967	50698
20.60778	46613
20.61590	44810
20.62403	46365
20.63215	48334
20.64028	45170
20.64840	49483
20.65652	45732
20.66465	44623
20.67277	49057
20.68090	48384
20.68902	58819
20.69713	53819
20.70527	49237
20.71338	49081
20.72150	50024
20.72963	49168
20.73775	47523
20.74588	47784
20.75400	47752
20.76212	48272
20.77025	52390
20.77837	47891
20.78650	49024
20.79462	46391
20.80273	48852
20.81087	51803
20.81898	56669
20.82712	57691
20.83523	66149
20.84335	74993
20.85148	76955
20.85960	69479
20.86772	69795
20.87585	71845
20.88397	63171
20.89210	61690
20.90022	61247
20.90833	52763
20.91647	49957
20.92458	50205
20.93272	49448
20.94083	49029
20.94895	49907
20.95708	52441
20.96520	54010
20.97333	52207
20.98145	51143
20.98957	52549
20.99770	53411
21.00582	53962
21.01393	46754
21.02207	46408
21.03018	47151
21.03832	42672
21.04643	47540
21.05455	47013
21.06268	48253
21.07080	44677
21.07893	45028
21.08705	48714
21.09517	42276
21.10330	39836
21.11142	39539
21.11953	43631
21.12767	38921
21.13578	42672
21.14392	49400
21.15203	50610
21.16015	54698
21.16828	64032
21.17640	72852
21.18453	76444
21.19265	86747
21.20077	88882
21.20890	86645
21.21702	86840
21.22515	79542
21.23327	78810
21.24138	75058
21.24952	65822
21.25763	65298
21.26575	59586
21.27388	55297
21.28200	53358
21.29013	56607
21.29825	55427
21.30637	51441
21.31450	51790
21.32262	49403
21.33075	48717
21.33887	48235
21.34698	48609
21.35512	46703
21.36323	47373
21.37137	52919
21.37948	44128
21.38760	47245
21.39573	44014
21.40385	46731
21.41197	48069
21.42010	60904
21.42822	58401
21.43635	62663
21.44447	69533
21.45258	74567
21.46072	69589
21.46883	68126
21.47697	67592
21.48508	69416
21.49320	69003
21.50133	63515
21.50945	64303
21.51757	62613
21.52570	62397
21.53382	57848
21.54195	58819
21.55007	59933
21.55818	61655
21.56632	57663
21.57443	56885
21.58257	57863
21.59068	55665
21.59880	59264
21.60693	65753
21.61505	68449
21.62318	67768
21.63130	74144
21.63942	82929
21.64755	99474
21.65567	118543
21.66378	129230
21.67192	133378
21.68003	130171
21.68817	122772
21.69628	104923
21.70440	85646
21.71253	72084
21.72065	69999
21.72878	67647
21.73690	67230
21.74502	64882
21.75315	65630
21.76127	61901
21.76938	62274
21.77752	63957
21.78563	59399
21.79377	62806
21.80188	66395
21.81000	62764
21.81813	64203
21.82625	66701
21.83438	70489
21.84250	81988
21.85062	99012
21.85875	112928
21.86687	122604
21.87500	129009
21.88312	110919
21.89123	94718
21.89937	85816
21.90748	69962
21.91560	65928
21.92373	59938
21.93185	58876
21.93998	56625
21.94810	54125
21.95622	55825
21.96435	59718
21.97247	55170
21.98060	54577
21.98872	53830
21.99683	54667
22.00497	52303
22.01308	52796
22.02122	55997
22.02933	53580
22.03745	54486
22.04558	52637
22.05370	57106
22.06182	53925
22.06995	53208
22.07807	51904
22.08620	56319
22.09432	56595
22.10243	51102
22.11057	54615
22.11868	57422
22.12682	54943
22.13493	52689
22.14305	56399
22.15118	57422
22.15930	55348
22.16742	59107
22.17555	58231
22.18367	51142
22.19180	58393
22.19992	57416
22.20803	56740
22.21617	54704
22.22428	56723
22.23242	63108
22.24053	61944
22.24865	60199
22.25678	69648
22.26490	66960
22.27303	73349
22.28115	65155
22.28927	55542
22.29740	54464
22.30552	51821
22.31363	53727
22.32177	53411
22.32988	54440
22.33802	54544
22.34613	57036
22.35425	50988
22.36238	50406
22.37050	55563
22.37863	51565
22.38675	50026
22.39487	48760
22.40300	52280
22.41112	50135
22.41925	54911
22.42737	56161
22.43548	59622
22.44362	59654
22.45173	66288
22.45985	65898
22.46798	62136
22.47610	64569
22.48423	69493
22.49235	69389
22.50047	60450
22.50860	59761
22.51672	59265
22.52485	63894
22.53297	69050
22.54108	65256
22.54922	75404
22.55733	71820
22.56545	71644
22.57358	67961
22.58170	61630
22.58983	66606
22.59795	62411
22.60607	65641
22.61420	54433
22.62232	58040
22.63045	49727
22.63857	49111
22.64668	50673
22.65482	52308
22.66293	54660
22.67107	48622
22.67918	49616
22.68730	51040
22.69543	54565
22.70355	51737
22.71167	54840
22.71980	55604
22.72792	64412
22.73605	65832
22.74417	68920
22.75228	71170
22.76042	69245
22.76853	67605
22.77667	66301
22.78478	67871
22.79290	61829
22.80103	64316
22.80915	59285
22.81728	66268
22.82540	68322
22.83352	71751
22.84165	77262
22.84977	77347
22.85788	77584
22.86602	72670
22.87413	74936
22.88227	77802
22.89038	75308
22.89850	79820
22.90663	86494
22.91475	83111
22.92288	85829
22.93100	91643
22.93912	107329
22.94725	107969
22.95537	108391
22.96348	112129
22.97162	110588
22.97973	102591
22.98787	88270
22.99598	81090
23.00410	77757
23.01223	72147
23.02035	61654
23.02848	61384
23.03660	59489
23.04472	58622
23.05285	49360
23.06097	51692
23.06910	52512
23.07722	54697
23.08533	52089
23.09347	58828
23.10158	52323
23.10970	56581
23.11783	45960
23.12595	47200
23.13408	44997
23.14220	45056
23.15032	51385
23.15845	46837
23.16657	50198
23.17470	47316
23.18282	42401
23.19093	43635
23.19907	45160
23.20718	45201
23.21530	39310
23.22343	43737
23.23155	41762
23.23968	42517
23.24780	41298
23.25592	43609
23.26405	41706
23.27217	48686
23.28030	44136
23.28842	47031
23.29653	46225
23.30467	47612
23.31278	50285
23.32092	45528
23.32903	40812
23.33715	44582
23.34528	49189
23.35340	43870
23.36152	43932
23.36965	47996
23.37777	48126
23.38590	48880
23.39402	51853
23.40213	53161
23.41027	53580
23.41838	48814
23.42652	50614
23.43463	45508
23.44275	49674
23.45088	45887
23.45900	44552
23.46713	44952
23.47525	40813
23.48337	42356
23.49150	42502
23.49962	38641
23.50773	42324
23.51587	44649
23.52398	44472
23.53212	44294
23.54023	43301
23.54835	41462
23.55648	42222
23.56460	44264
23.57273	49469
23.58085	51393
23.58897	50979
23.59710	52293
23.60522	51072
23.61333	56648
23.62147	56793
23.62958	59369
23.63772	51855
23.64583	52810
23.65395	50475
23.66208	51592
23.67020	51350
23.67833	57148
23.68645	56315
23.69457	53192
23.70270	60070
23.71082	59429
23.71895	55351
23.72707	57596
23.73518	54158
23.74332	51917
23.75143	68419
23.75955	121124
23.76768	251846
23.77580	563299
23.78393	1200956
23.79205	2149409
23.80017	2947651
23.80830	3234314
23.81642	3061541
23.82455	2693919
23.83267	2008829
23.84078	1449598
23.84892	1019187
23.85703	749379
23.86517	540399
23.87328	424302
23.88140	370799
23.88953	311793
23.89765	270524
23.90577	256074
23.91390	228965
23.92202	203130
23.93015	195745
23.93827	187521
23.94638	179037
23.95452	162454
23.96263	151691
23.97077	156529
23.97888	142834
23.98700	140979
23.99513	135227
24.00325	129692
24.01137	126016
24.01950	121782
24.02762	121958
24.03575	118054
24.04387	116272
24.05198	107186
24.06012	105721
24.06823	106667
24.07637	100551
24.08448	102529
24.09260	96877
24.10073	94458
24.10885	91570
24.11698	85478
24.12510	95076
24.13322	92514
24.14135	95921
24.14947	98269
24.15758	104388
24.16572	110983
24.17383	117583
24.18197	117146
24.19008	117981
24.19820	122495
24.20633	117061
24.21445	113963
24.22258	120883
24.23070	118856
24.23882	132600
24.24695	130269
24.25507	123822
24.26318	117975
24.27132	107765
24.27943	102528
24.28757	90159
24.29568	88580
24.30380	82084
24.31193	75571
24.32005	78422
24.32818	71861
24.33630	76082
24.34442	73182
24.35255	72847
24.36067	73764
24.36880	67619
24.37692	68047
24.38503	69975
24.39317	74315
24.40128	77267
24.40940	93330
24.41753	99112
24.42565	113697
24.43378	120061
24.44190	108288
24.45002	106500
24.45815	89225
24.46627	82490
24.47440	68688
24.48252	75509
24.49063	73494
24.49877	75980
24.50688	77935
24.51502	82881
24.52313	91663
24.53125	96733
24.53938	108182
24.54750	104442
24.55562	109956
24.56375	108231
24.57187	104729
24.58000	93622
24.58812	95453
24.59623	95650
24.60437	94282
24.61248	94685
24.62062	91056
24.62873	85460
24.63685	84418
24.64498	82537
24.65310	82358
24.66123	84672
24.66935	84897
24.67747	90877
24.68560	87510
24.69372	90339
24.70183	79401
24.70997	77750
24.71808	66903
24.72622	69093
24.73433	70069
24.74245	59968
24.75058	60867
24.75870	64435
24.76683	63107
24.77495	61906
24.78307	61139
24.79120	69830
24.79932	59265
24.80743	60203
24.81557	57827
24.82368	57660
24.83182	67305
24.83993	61720
24.84805	63804
24.85618	63220
24.86430	66386
24.87243	69110
24.88055	77472
24.88867	78529
24.89680	81175
24.90492	80441
24.91305	87630
24.92117	84206
24.92928	77043
24.93742	72406
24.94553	64532
24.95365	63877
24.96178	61049
24.96990	57984
24.97803	62380
24.98615	59465
24.99427	58809
25.00240	54419
25.01052	57024
25.01865	51333
25.02677	55668
25.03488	58206
25.04302	55906
25.05113	55703
25.05925	52381
25.06738	58954
25.07550	53557
25.08363	57008
25.09175	51979
25.09987	52470
25.10800	59085
25.11612	59780
25.12425	74619
25.13237	106005
25.14048	161388
25.14862	263014
25.15673	360537
25.16487	478340
25.17298	542050
25.18110	550132
25.18923	496780
25.19735	381744
25.20547	289755
25.21360	209280
25.22172	157284
25.22985	116396
25.23797	102592
25.24608	91211
25.25422	78118
25.26233	81464
25.27047	79666
25.27858	74803
25.28670	80369
25.29483	77367
25.30295	75054
25.31108	72490
25.31920	77340
25.32732	79414
25.33545	76763
25.34357	77558
25.35168	75780
25.35982	70415
25.36793	66640
25.37607	62665
25.38418	63177
25.39230	56841
25.40043	56665
25.40855	57779
25.41668	51751
25.42480	53322
25.43292	51471
25.44105	54802
25.44917	51572
25.45728	52670
25.46542	54618
25.47353	56165
25.48167	55876
25.48978	56298
25.49790	63511
25.50603	68451
25.51415	69317
25.52228	68039
25.53040	66735
25.53852	62192
25.54665	57948
25.55477	56891
25.56290	56688
25.57102	54594
25.57913	51459
25.58727	55758
25.59538	54353
25.60350	52531
25.61163	57044
25.61975	51503
25.62788	52221
25.63600	53245
25.64412	51443
25.65225	51971
25.66037	51192
25.66850	49652
25.67662	52812
25.68473	50043
25.69287	50598
25.70098	54308
25.70912	59748
25.71723	54452
25.72535	65029
25.73348	59781
25.74160	60581
25.74972	59830
25.75785	56996
25.76597	58216
25.77410	53726
25.78222	55760
25.79033	56281
25.79847	49690
25.80658	53465
25.81472	53834
25.82283	52053
25.83095	54253
25.83908	49280
25.84720	50973
25.85532	51455
25.86345	53232
25.87157	50773
25.87970	52814
25.88782	53682
25.89593	50082
25.90407	48118
25.91218	50233
25.92032	58148
25.92843	49896
25.93655	50662
25.94468	48160
25.95280	46887
25.96093	55168
25.96905	54157
25.97717	53932
25.98530	54647
25.99342	57240
26.00153	51056
26.00967	51788
26.01778	51778
26.02592	48460
26.03403	49909
26.04215	47328
26.05028	49856
26.05840	49489
26.06653	49525
26.07465	48538
26.08277	54822
26.09090	54940
26.09902	57770
26.10713	55810
26.11527	62174
26.12338	60035
26.13152	62160
26.13963	67810
26.14775	64799
26.15588	74806
26.16400	75115
26.17213	78941
26.18025	72472
26.18837	73273
26.19650	69239
26.20462	68418
26.21275	68560
26.22087	61743
26.22898	58256
26.23712	56352
26.24523	52542
26.25335	49913
26.26148	53162
26.26960	51423
26.27773	51286
26.28585	55340
26.29397	53709
26.30210	57176
26.31022	55240
26.31835	48640
26.32647	52569
26.33458	49118
26.34272	47595
26.35083	54724
26.35897	54500
26.36708	62453
26.37520	77496
26.38333	112929
26.39145	161655
26.39957	230161
26.40770	304959
26.41582	385530
26.42395	437486
26.43207	431630
26.44018	393954
26.44832	334315
26.45643	263880
26.46457	208121
26.47268	154806
26.48080	117864
26.48893	97993
26.49705	84223
26.50517	76032
26.51330	61862
26.52142	53638
26.52955	50217
26.53767	56535
26.54578	50823
26.55392	51919
26.56203	49346
26.57017	47895
26.57828	46528
26.58640	53332
26.59453	52075
26.60265	49049
26.61078	52792
26.61890	50907
26.62702	55659
26.63515	43793
26.64327	45666
26.65138	48994
26.65952	47583
26.66763	48093
26.67577	55733
26.68388	46054
26.69200	51539
26.70013	47875
26.70825	48160
26.71638	48295
26.72450	45917
26.73262	48637
26.74075	48844
26.74887	47222
26.75700	49540
26.76512	51038
26.77323	54002
26.78137	47223
26.78948	53895
26.79760	53335
26.80573	48689
26.81385	54688
26.82198	54439
26.83010	47434
26.83822	51418
26.84635	51325
26.85447	58008
26.86260	56807
26.87072	48879
26.87883	50756
26.88697	51574
26.89508	56542
26.90320	52043
26.91133	52178
26.91945	47522
26.92758	47582
26.93570	44298
26.94382	49498
26.95195	51882
26.96007	49791
26.96820	51875
26.97632	64136
26.98443	101183
26.99257	180087
27.00068	343509
27.00882	628478
27.01693	1050541
27.02505	1459051
27.03318	1803438
27.04130	1797978
27.04942	1678562
27.05755	1391202
27.06567	1042378
27.07380	756594
27.08192	559087
27.09003	426599
27.09817	346077
27.10628	286605
27.11442	266272
27.12253	226378
27.13065	214037
27.13878	195642
27.14690	175459
27.15503	167797
27.16315	153476
27.17127	150483
27.17940	148807
27.18752	152278
27.19563	151047
27.20377	158123
27.21188	175001
27.22002	178746
27.22813	180376
27.23625	171049
27.24438	156984
27.25250	140236
27.26063	132064
27.26875	121704
27.27687	118425
27.28500	105568
27.29312	102189
27.30123	97787
27.30937	89939
27.31748	90593
27.32562	91633
27.33373	90836
27.34185	98646
27.34998	89147
27.35810	96752
27.36623	98493
27.37435	95138
27.38247	91390
27.39060	87588
27.39872	82098
27.40685	80371
27.41497	87259
27.42308	85140
27.43122	77364
27.43933	79036
27.44745	77817
27.45558	83679
27.46370	77429
27.47183	73037
27.47995	74099
27.48807	76741
27.49620	70455
27.50432	71925
27.51245	72960
27.52057	71817
27.52868	66107
27.53682	70230
27.54493	74789
27.55305	74559
27.56118	73220
27.56930	74505
27.57743	76817
27.58555	71896
27.59367	73435
27.60180	68781
27.60992	68409
27.61805	67955
27.62617	70476
27.63428	70506
27.64242	73113
27.65053	67990
27.65867	71914
27.66678	71932
27.67490	69962
27.68303	71671
27.69115	66630
27.69927	68946
27.70740	67898
27.71552	73117
27.72365	79767
27.73177	73923
27.73988	70324
27.74802	63191
27.75613	72377
27.76427	62854
27.77238	63618
27.78050	57730
27.78863	60670
27.79675	61338
27.80488	65707
27.81300	61806
27.82112	59728
27.82925	62915
27.83737	68518
27.84548	63950
27.85362	64625
27.86173	68395
27.86987	66429
27.87798	67724
27.88610	65982
27.89423	70204
27.90235	65914
27.91048	63117
27.91860	62791
27.92672	63815
27.93485	66831
27.94297	57655
27.95108	61617
27.95922	68619
27.96733	68436
27.97547	59841
27.98358	57384
27.99170	59161
27.99983	64227
28.00795	63867
28.01608	63712
28.02420	66997
28.03232	69457
28.04045	76496
28.04857	88652
28.05670	91044
28.06482	97818
28.07293	105686
28.08107	105782
28.08918	101203
28.09730	89816
28.10543	90142
28.11355	80551
28.12168	71122
28.12980	65611
28.13792	63360
28.14605	64076
28.15417	58363
28.16230	60855
28.17042	59276
28.17853	57346
28.18667	54390
28.19478	59736
28.20292	64277
28.21103	62938
28.21915	65608
28.22728	63084
28.23540	69062
28.24352	76957
28.25165	73468
28.25977	70808
28.26790	63826
28.27602	63027
28.28413	62333
28.29227	71043
28.30038	65338
28.30852	78255
28.31663	84815
28.32475	127590
28.33288	164164
28.34100	219199
28.34912	284931
28.35725	355803
28.36537	430145
28.37350	489698
28.38162	511277
28.38973	535524
28.39787	538374
28.40598	542486
28.41412	477885
28.42223	437449
28.43035	387622
28.43848	351052
28.44660	306946
28.45473	263728
28.46285	249602
28.47097	225563
28.47910	203561
28.48722	178808
28.49533	171773
28.50347	158022
28.51158	158042
28.51972	140840
28.52783	135520
28.53595	131616
28.54408	127822
28.55220	114278
28.56033	117247
28.56845	117538
28.57657	103684
28.58470	99620
28.59282	103792
28.60093	98014
28.60907	101693
28.61718	92890
28.62532	97060
28.63343	94530
28.64155	91957
28.64968	90886
28.65780	99679
28.66593	100034
28.67405	98697
28.68217	100210
28.69030	102490
28.69842	98470
28.70655	92186
28.71467	90392
28.72278	84254
28.73092	79748
28.73903	79096
28.74715	75856
28.75528	81498
28.76340	78998
28.77153	79268
28.77965	83411
28.78777	81813
28.79590	96069
28.80402	101247
28.81215	107672
28.82027	99440
28.82838	88174
28.83652	73799
28.84463	79528
28.85277	82770
28.86088	78212
28.86900	72989
28.87713	73770
28.88525	74224
28.89337	72611
28.90150	68058
28.90962	77718
28.91775	78572
28.92587	79617
28.93398	78732
28.94212	79214
28.95023	78815
28.95837	74972
28.96648	83074
28.97460	79555
28.98273	79869
28.99085	76299
28.99897	80887
29.00710	73230
29.01522	69431
29.02335	69400
29.03147	74552
29.03958	71954
29.04772	70696
29.05583	65242
29.06397	67307
29.07208	62114
29.08020	67477
29.08833	69793
29.09645	67520
29.10458	68587
29.11270	67298
29.12082	63862
29.12895	70644
29.13707	60634
29.14518	62433
29.15332	68001
29.16143	65608
29.16957	67216
29.17768	69405
29.18580	67025
29.19393	68512
29.20205	62118
29.21018	70304
29.21830	70266
29.22642	74333
29.23455	76727
29.24267	73780
29.25080	73865
29.25892	79656
29.26703	74488
29.27517	74999
29.28328	70583
29.29140	74776
29.29953	69993
29.30765	72641
29.31578	69549
29.32390	63041
29.33202	60685
29.34015	60195
29.34827	60127
29.35640	61534
29.36452	59563
29.37263	62834
29.38077	65912
29.38888	61203
29.39700	63943
29.40513	65955
29.41325	67513
29.42138	65912
29.42950	63700
29.43762	66303
29.44575	70976
29.45387	68452
29.46200	65050
29.47012	63660
29.47823	64825
29.48637	65593
29.49448	67415
29.50262	68967
29.51073	68342
29.51885	76734
29.52698	74786
29.53510	82582
29.54322	70188
29.55135	70903
29.55947	68570
29.56760	63190
29.57572	63708
29.58383	64281
29.59197	60304
29.60008	62377
29.60822	56858
29.61633	58915
29.62445	60452
29.63258	60211
29.64070	58004
29.64882	58118
29.65695	61190
29.66507	62323
29.67320	63650
29.68132	58367
29.68943	58057
29.69757	62761
29.70568	57318
29.71382	63295
29.72193	58806
29.73005	60868
29.73818	63607
29.74630	61043
29.75443	60422
29.76255	64149
29.77067	57129
29.77880	64055
29.78692	57252
29.79503	56333
29.80317	62543
29.81128	54760
29.81942	57981
29.82753	52386
29.83565	55676
29.84378	57266
29.85190	56443
29.86003	57886
29.86815	58159
29.87627	56478
29.88440	55228
29.89252	61523
29.90065	62144
29.90877	67594
29.91688	70581
29.92502	70356
29.93313	76099
29.94125	70454
29.94938	72250
29.95750	73603
29.96563	75412
29.97375	83076
29.98187	97497
29.99000	120321
29.99812	137534
30.00625	165938
30.01437	178778
30.02248	195375
30.03062	221624
30.03873	232210
30.04687	228285
30.05498	250275
30.06310	241512
30.07123	234021
30.07935	227684
30.08747	219040
30.09560	209547
30.10372	200955
30.11185	175199
30.11997	184933
30.12808	156438
30.13622	149487
30.14433	136158
30.15247	140172
30.16058	121749
30.16870	116888
30.17683	115288
30.18495	114567
30.19307	112038
30.20120	101016
30.20932	105675
30.21745	102614
30.22557	96545
30.23368	100454
30.24182	94654
30.24993	95972
30.25807	90671
30.26618	85984
30.27430	80696
30.28243	79197
30.29055	76144
30.29868	79164
30.30680	76908
30.31492	77623
30.32305	71896
30.33117	72978
30.33928	73425
30.34742	72408
30.35553	72817
30.36367	73748
30.37178	72305
30.37990	75034
30.38803	72300
30.39615	64849
30.40428	71658
30.41240	70445
30.42052	69979
30.42865	65671
30.43677	61502
30.44488	68411
30.45302	62940
30.46113	63978
30.46927	63808
30.47738	63715
30.48550	66581
30.49363	65073
30.50175	66795
30.50988	67412
30.51800	63982
30.52612	62130
30.53425	60104
30.54237	62344
30.55050	61940
30.55862	58588
30.56673	65943
30.57487	61253
30.58298	62408
30.59110	62000
30.59923	65466
30.60735	63844
30.61548	63344
30.62360	60120
30.63172	63914
30.63985	60219
30.64797	65019
30.65610	65742
30.66422	59719
30.67233	62804
30.68047	64086
30.68858	59964
30.69672	65215
30.70483	59497
30.71295	59910
30.72108	58186
30.72920	56484
30.73732	58031
30.74545	60550
30.75357	62642
30.76170	58262
30.76982	58168
30.77793	63336
30.78607	62624
30.79418	64779
30.80232	62939
30.81043	79354
30.81855	84686
30.82668	89460
30.83480	93323
30.84292	91529
30.85105	87415
30.85917	81502
30.86730	70094
30.87542	70846
30.88353	68239
30.89167	63845
30.89978	62695
30.90792	60615
30.91603	62780
30.92415	60035
30.93228	59316
30.94040	62119
30.94853	57421
30.95665	53727
30.96477	57178
30.97290	58355
30.98102	54651
30.98913	58099
30.99727	64158
31.00538	58524
31.01352	56626
31.02163	56694
31.02975	58038
31.03788	60992
31.04600	59315
31.05413	63466
31.06225	64037
31.07037	59060
31.07850	60794
31.08662	59420
31.09475	66432
31.10287	68353
31.11098	72200
31.11912	78746
31.12723	81056
31.13535	81301
31.14348	79365
31.15160	71979
31.15973	77117
31.16785	66849
31.17597	67912
31.18410	71944
31.19222	72349
31.20035	82865
31.20847	100884
31.21658	119933
31.22472	140612
31.23283	153409
31.24095	170143
31.24908	171344
31.25720	154303
31.26533	120040
31.27345	104408
31.28157	93190
31.28970	76313
31.29782	72690
31.30595	68703
31.31407	63612
31.32218	59122
31.33032	62917
31.33843	59533
31.34657	59554
31.35468	60154
31.36280	59338
31.37093	54620
31.37905	59128
31.38717	55107
31.39530	54375
31.40342	56384
31.41155	58897
31.41967	56641
31.42778	59092
31.43592	59665
31.44403	61730
31.45217	56567
31.46028	62720
31.46840	60035
31.47653	61964
31.48465	66573
31.49277	62681
31.50090	62744
31.50902	62550
31.51715	63570
31.52527	63732
31.53338	69890
31.54152	66395
31.54963	67853
31.55777	69117
31.56588	64866
31.57400	64834
31.58213	63307
31.59025	66118
31.59838	63758
31.60650	57115
31.61462	56172
31.62275	66262
31.63087	56297
31.63898	62714
31.64712	61919
31.65523	58191
31.66337	57556
31.67148	62193
31.67960	63485
31.68773	63778
31.69585	65109
31.70398	59688
31.71210	60598
31.72022	59470
31.72835	59317
31.73647	58389
31.74460	61635
31.75272	57259
31.76083	57184
31.76897	54563
31.77708	51599
31.78520	57468
31.79333	62648
31.80145	64073
31.80958	64330
31.81770	62681
31.82582	63892
31.83395	66771
31.84207	62477
31.85020	63602
31.85832	63172
31.86643	67623
31.87457	70921
31.88268	72143
31.89080	63987
31.89893	65887
31.90705	68294
31.91518	68932
31.92330	71181
31.93142	71283
31.93955	80441
31.94767	92659
31.95580	110206
31.96392	121050
31.97203	128519
31.98017	146111
31.98828	149781
31.99642	139488
32.00453	154439
32.01265	159205
32.02078	156591
32.02890	153899
32.03702	148775
32.04515	134026
32.05327	134278
32.06140	125677
32.06952	115283
32.07763	109141
32.08577	101024
32.09388	97789
32.10202	99566
32.11013	98528
32.11825	91637
32.12638	97453
32.13450	87174
32.14263	81031
32.15075	85407
32.15887	77046
32.16700	77936
32.17512	77463
32.18323	72303
32.19137	72374
32.19948	70694
32.20762	68833
32.21573	72428
32.22385	69568
32.23198	67007
32.24010	68302
32.24823	69637
32.25635	65729
32.26447	68781
32.27260	69634
32.28072	64722
32.28883	70869
32.29697	69015
32.30508	68403
32.31322	65264
32.32133	66759
32.32945	67503
32.33758	66000
32.34570	66627
32.35383	64937
32.36195	66010
32.37007	66318
32.37820	66473
32.38632	71187
32.39445	67574
32.40257	70155
32.41068	65821
32.41882	66612
32.42693	63586
32.43505	74634
32.44318	62596
32.45130	65591
32.45943	67816
32.46755	66760
32.47567	62097
32.48380	63212
32.49192	65199
32.50005	60000
32.50817	62083
32.51628	63054
32.52442	62614
32.53253	63619
32.54067	63079
32.54878	61825
32.55690	62433
32.56503	61535
32.57315	68462
32.58127	60230
32.58940	64671
32.59752	68225
32.60565	67117
32.61377	67663
32.62188	61105
32.63002	63450
32.63813	59422
32.64627	59902
32.65438	68464
32.66250	62357
32.67063	65961
32.67875	73597
32.68687	71570
32.69500	78924
32.70312	83568
32.71125	78722
32.71937	84217
32.72748	76966
32.73562	76458
32.74373	76311
32.75187	70830
32.75998	67600
32.76810	72349
32.77623	71338
32.78435	65856
32.79248	62545
32.80060	62445
32.80872	59632
32.81685	58623
32.82497	61660
32.83308	63196
32.84122	64680
32.84933	63578
32.85747	61668
32.86558	64412
32.87370	68412
32.88183	61099
32.88995	64613
32.89808	65396
32.90620	67796
32.91432	65213
32.92245	68466
32.93057	72110
32.93868	69240
32.94682	67782
32.95493	69739
32.96307	70800
32.97118	66294
32.97930	61677
32.98743	65541
32.99555	75228
33.00368	75778
33.01180	73886
33.01992	81361
33.02805	81870
33.03617	85851
33.04430	75895
33.05242	75914
33.06053	71490
33.06867	70011
33.07678	67910
33.08490	71844
33.09303	73395
33.10115	78852
33.10928	85055
33.11740	89864
33.12552	91816
33.13365	96629
33.14177	97710
33.14990	96217
33.15802	84553
33.16613	74577
33.17427	74200
33.18238	66894
33.19052	65142
33.19863	66812
33.20675	66289
33.21488	66220
33.22300	70233
33.23112	69614
33.23925	67610
33.24737	69336
33.25550	65456
33.26362	69361
33.27173	62890
33.27987	61965
33.28798	65743
33.29612	63933
33.30423	66439
33.31235	64564
33.32048	63438
33.32860	68110
33.33672	69322
33.34485	66048
33.35297	63122
33.36110	67246
33.36922	61613
33.37733	67154
33.38547	68079
33.39358	66288
33.40172	61634
33.40983	65338
33.41795	62668
33.42608	68271
33.43420	59746
33.44233	61759
33.45045	63519
33.45857	61815
33.46670	54776
33.47482	61809
33.48293	66938
33.49107	64436
33.49918	69508
33.50732	64048
33.51543	73510
33.52355	72810
33.53168	72823
33.53980	74859
33.54793	72292
33.55605	71677
33.56417	73550
33.57230	70121
33.58042	67281
33.58855	72353
33.59667	66733
33.60478	66160
33.61292	66594
33.62103	64807
33.62915	62167
33.63728	66487
33.64540	68127
33.65353	67845
33.66165	63707
33.66977	66765
33.67790	69631
33.68602	66499
33.69415	63762
33.70227	69275
33.71038	58184
33.71852	61495
33.72663	62840
33.73475	62753
33.74288	61480
33.75100	66964
33.75913	59568
33.76725	56744
33.77537	60562
33.78350	61854
33.79162	63108
33.79975	59857
33.80787	65201
33.81598	62324
33.82412	57549
33.83223	64223
33.84037	60580
33.84848	61998
33.85660	62742
33.86473	59472
33.87285	66633
33.88097	65398
33.88910	65928
33.89722	67618
33.90535	70958
33.91347	69577
33.92158	62859
33.92972	67863
33.93783	61628
33.94597	62503
33.95408	64886
33.96220	63233
33.97033	63109
33.97845	63952
33.98657	64017
33.99470	64630
34.00282	67274
34.01095	61195
34.01907	61684
34.02718	58541
34.03532	60261
34.04343	62575
34.05157	61220
34.05968	66264
34.06780	65197
34.07593	61966
34.08405	64069
34.09218	63886
34.10030	57862
34.10842	63904
34.11655	61529
34.12467	60080
34.13278	63935
34.14092	66569
34.14903	63933
34.15717	60293
34.16528	65801
34.17340	60179
34.18153	60682
34.18965	58375
34.19778	66024
34.20590	65382
34.21402	61901
34.22215	64227
34.23027	66812
34.23840	60184
34.24652	67126
34.25463	62314
34.26277	63928
34.27088	61622
34.27900	64388
34.28713	64646
34.29525	58584
34.30338	67826
34.31150	69314
34.31962	63874
34.32775	65557
34.33587	65074
34.34400	65890
34.35212	63653
34.36023	65817
34.36837	67135
34.37648	64030
34.38462	65530
34.39273	64908
34.40085	67296
34.40898	66039
34.41710	60533
34.42522	68596
34.43335	69629
34.44147	66858
34.44960	63200
34.45772	64178
34.46583	65695
34.47397	67326
34.48208	63129
34.49022	63947
34.49833	61701
34.50645	66106
34.51458	69137
34.52270	65346
34.53082	68362
34.53895	71221
34.54707	79519
34.55520	93465
34.56332	107861
34.57143	117964
34.57957	136298
34.58768	133819
34.59582	143029
34.60393	135707
34.61205	132550
34.62018	115271
34.62830	108456
34.63643	102913
34.64455	95392
34.65267	99244
34.66080	91939
34.66892	81325
34.67703	85535
34.68517	86733
34.69328	82316
34.70142	84245
34.70953	77954
34.71765	76427
34.72578	77004
34.73390	76671
34.74203	76907
34.75015	77938
34.75827	79290
34.76640	78205
34.77452	80457
34.78263	78437
34.79077	79157
34.79888	82201
34.80702	75515
34.81513	74810
34.82325	74478
34.83138	71333
34.83950	75523
34.84763	74050
34.85575	77403
34.86387	70583
34.87200	83964
34.88012	73756
34.88825	73128
34.89637	68008
34.90448	81945
34.91262	70801
34.92073	73242
34.92885	71050
34.93698	71920
34.94510	75519
34.95323	75400
34.96135	74078
34.96947	77975
34.97760	77609
34.98572	78810
34.99385	81715
35.00197	84343
35.01008	77753
35.01822	74907
35.02633	77093
35.03445	73331
35.04258	72943
35.05070	76287
35.05883	79584
35.06695	71017
35.07507	73909
35.08320	67873
35.09132	79178
35.09945	66593
35.10757	79056
35.11568	70701
35.12382	75614
35.13193	74221
35.14007	80623
35.14818	74045
35.15630	76084
35.16443	74555
35.17255	79173
35.18067	74180
35.18880	83704
35.19692	75225
35.20505	74817
35.21317	78114
35.22128	79710
35.22942	72151
35.23753	76652
35.24567	76631
35.25378	72720
35.26190	71284
35.27003	71973
35.27815	78268
35.28628	71215
35.29440	74719
35.30252	73544
35.31065	76454
35.31877	74415
35.32688	79238
35.33502	77361
35.34313	69947
35.35127	76270
35.35938	73702
35.36750	73206
35.37563	71933
35.38375	75408
35.39188	73387
35.40000	71894
35.40812	76017
35.41625	81613
35.42437	82406
35.43250	87236
35.44062	94666
35.44873	95824
35.45687	90865
35.46498	90760
35.47310	93246
35.48123	88961
35.48935	83127
35.49748	84859
35.50560	88834
35.51372	82390
35.52185	77894
35.52997	73322
35.53810	79249
35.54622	77703
35.55433	78214
35.56247	76033
35.57058	71689
35.57870	76456
35.58683	76583
35.59495	79059
35.60308	76416
35.61120	72908
35.61932	77676
35.62745	79080
35.63557	75821
35.64370	76377
35.65182	71224
35.65993	72113
35.66807	71852
35.67618	74047
35.68432	76910
35.69243	75875
35.70055	77004
35.70868	75962
35.71680	78321
35.72492	82612
35.73305	79576
35.74117	85614
35.74930	81822
35.75742	86728
35.76553	92465
35.77367	91421
35.78178	92481
35.78992	96749
35.79803	91899
35.80615	94400
35.81428	86228
35.82240	78577
35.83052	81474
35.83865	76386
35.84677	74863
35.85490	80443
35.86302	75037
35.87113	74087
35.87927	72103
35.88738	81460
35.89552	75281
35.90363	81043
35.91175	73661
35.91988	74835
35.92800	74905
35.93613	71256
35.94425	74768
35.95237	78483
35.96050	79497
35.96862	77778
35.97673	74843
35.98487	75772
35.99298	72909
36.00112	73104
36.00923	79515
36.01735	79074
36.02548	79450
36.03360	78666
36.04173	83429
36.04985	85274
36.05797	89296
36.06610	85810
36.07422	71608
36.08235	80549
36.09047	83977
36.09858	80145
36.10672	76466
36.11483	82084
36.12295	79461
36.13108	80577
36.13920	81844
36.14733	83090
36.15545	85103
36.16357	83629
36.17170	87608
36.17982	80957
36.18795	84512
36.19607	88997
36.20418	77924
36.21232	77770
36.22043	79767
36.22855	78168
36.23668	75653
36.24480	82112
36.25293	81137
36.26105	77987
36.26917	79756
36.27730	83901
36.28542	83560
36.29355	85317
36.30167	74386
36.30978	78488
36.31792	82047
36.32603	86242
36.33417	89106
36.34228	96562
36.35040	95389
36.35853	94947
36.36665	93987
36.37477	93917
36.38290	92339
36.39102	88716
36.39915	95701
36.40727	89884
36.41538	85819
36.42352	90280
36.43163	85305
36.43977	79914
36.44788	85300
36.45600	87665
36.46413	88002
36.47225	76435
36.48038	79345
36.48850	83704
36.49662	84990
36.50475	79778
36.51287	76056
36.52098	76355
36.52912	84029
36.53723	82074
36.54537	75942
36.55348	81142
36.56160	79062
36.56973	73788
36.57785	77549
36.58598	84674
36.59410	78211
36.60222	82791
36.61035	76659
36.61847	79598
36.62658	76235
36.63472	80453
36.64283	85026
36.65097	83523
36.65908	81504
36.66720	80755
36.67533	83299
36.68345	81976
36.69158	83222
36.69970	84789
36.70782	89957
36.71595	83152
36.72407	90695
36.73220	93111
36.74032	90786
36.74843	92218
36.75657	95036
36.76468	92428
36.77280	96503
36.78093	88009
36.78905	90113
36.79718	90827
36.80530	96204
36.81342	89916
36.82155	98105
36.82967	104204
36.83780	101748
36.84592	105179
36.85403	111761
36.86217	111442
36.87028	123150
36.87840	125709
36.88653	127357
36.89465	130646
36.90278	130263
36.91090	133001
36.91902	132105
36.92715	125059
36.93527	122356
36.94340	118781
36.95152	126207
36.95963	122009
36.96777	117804
36.97588	125046
36.98402	119492
36.99213	110864
37.00025	102986
37.00838	108383
37.01650	98071
37.02462	98732
37.03275	96000
37.04087	93536
37.04900	89653
37.05712	96914
37.06523	88282
37.07337	92143
37.08148	94417
37.08962	103475
37.09773	100038
37.10585	101238
37.11398	95125
37.12210	95860
37.13023	93789
37.13835	90862
37.14647	93334
37.15460	98332
37.16272	85525
37.17083	86378
37.17897	87070
37.18708	88985
37.19522	85818
37.20333	85680
37.21145	86541
37.21958	84646
37.22770	89046
37.23583	89712
37.24395	92435
37.25207	94697
37.26020	95804
37.26832	96142
37.27643	91609
37.28457	98924
37.29268	88803
37.30082	90494
37.30893	92955
37.31705	87434
37.32518	87742
37.33330	87172
37.34143	96859
37.34955	99971
37.35767	101434
37.36580	107900
37.37392	110688
37.38205	115494
37.39017	123379
37.39828	127473
37.40642	133309
37.41453	128031
37.42265	117594
37.43078	119968
37.43890	119262
37.44703	116430
37.45515	113855
37.46327	116480
37.47140	112309
37.47952	112030
37.48765	106883
