C:\MassHunter\GCMS\1\data\JTB-E02\BACandBLUE\JTB-E18-016-11.D Thu Jun 27 13:27:11 2019
Start of data points
2.09528	65548
2.10340	64993
2.11153	65045
2.11965	62940
2.12777	62345
2.13590	65284
2.14402	63265
2.15213	64718
2.16027	60564
2.16838	59907
2.17652	57214
2.18463	60773
2.19275	61750
2.20088	60430
2.20900	55044
2.21713	56013
2.22525	53315
2.23337	54236
2.24150	57905
2.24962	58109
2.25773	55710
2.26587	57641
2.27398	145232
2.28212	1010713
2.29023	1461707
2.29835	592518
2.30648	295751
2.31460	227786
2.32273	206453
2.33085	183804
2.33897	301192
2.34710	432981
2.35522	219894
2.36335	171166
2.37147	149994
2.37958	142139
2.38772	133175
2.39583	125467
2.40395	115616
2.41208	114354
2.42020	110824
2.42833	116457
2.43645	121151
2.44457	110719
2.45270	107930
2.46082	103564
2.46895	102549
2.47707	92486
2.48518	95332
2.49332	106804
2.50143	143828
2.50957	133063
2.51768	108306
2.52580	102172
2.53393	104919
2.54205	95374
2.55017	95594
2.55830	97673
2.56642	140590
2.57455	154165
2.58267	128788
2.59078	113957
2.59892	112198
2.60703	144760
2.61517	538707
2.62328	917818
2.63140	559556
2.63953	310631
2.64765	225028
2.65577	183334
2.66390	161852
2.67202	140715
2.68015	131426
2.68827	122757
2.69638	119474
2.70452	109960
2.71263	110327
2.72077	104937
2.72888	99425
2.73700	106000
2.74513	103605
2.75325	97270
2.76138	99538
2.76950	93840
2.77762	98676
2.78575	134390
2.79387	257546
2.80198	260998
2.81012	173180
2.81823	143418
2.82637	149676
2.83448	137239
2.84260	118958
2.85073	114235
2.85885	111232
2.86698	106164
2.87510	101715
2.88322	99039
2.89135	96742
2.89947	98807
2.90760	90892
2.91572	93847
2.92383	91766
2.93197	85103
2.94008	84011
2.94820	80314
2.95633	92087
2.96445	95502
2.97258	107620
2.98070	101658
2.98882	94667
2.99695	91126
3.00507	92663
3.01320	88682
3.02132	86288
3.02943	87457
3.03757	87636
3.04568	81132
3.05380	85006
3.06193	85342
3.07005	85676
3.07818	88855
3.08630	199000
3.09442	930587
3.10255	2330817
3.11067	4122290
3.11880	6015162
3.12692	4736582
3.13503	2730031
3.14317	1877662
3.15128	1497248
3.15942	1189319
3.16753	996955
3.17565	851504
3.18378	786144
3.19190	907822
3.20002	1468523
3.20815	1621642
3.21627	1166969
3.22440	861277
3.23252	723237
3.24063	625541
3.24877	538333
3.25688	486344
3.26502	442168
3.27313	409744
3.28125	370042
3.28938	391163
3.29750	683987
3.30562	1873960
3.31375	3895620
3.32187	4949884
3.33000	4122733
3.33812	2851302
3.34623	2054599
3.35437	1647910
3.36248	1352971
3.37062	1162376
3.37873	1012143
3.38685	899416
3.39498	830308
3.40310	751973
3.41123	694734
3.41935	645298
3.42747	614007
3.43560	574638
3.44372	568369
3.45183	545211
3.45997	514218
3.46808	507083
3.47622	511337
3.48433	515882
3.49245	511310
3.50058	475754
3.50870	440162
3.51683	425186
3.52495	435232
3.53307	398653
3.54120	404886
3.54932	412267
3.55745	402829
3.56557	382495
3.57368	381762
3.58182	395588
3.58993	407580
3.59805	371632
3.60618	365584
3.61430	356877
3.62243	375790
3.63055	361031
3.63867	355462
3.64680	334635
3.65492	345207
3.66305	358262
3.67117	746028
3.67928	2433178
3.68742	4827461
3.69553	4830058
3.70367	3016368
3.71178	1878593
3.71990	1457786
3.72803	1210576
3.73615	1046640
3.74427	942857
3.75240	859546
3.76052	810623
3.76865	750760
3.77677	693081
3.78488	677217
3.79302	630430
3.80113	636446
3.80927	878494
3.81738	1690469
3.82550	2479674
3.83363	2232476
3.84175	1563055
3.84987	1134288
3.85800	946398
3.86612	849723
3.87425	755566
3.88237	711969
3.89048	666744
3.89862	639191
3.90673	592086
3.91487	586642
3.92298	617708
3.93110	712799
3.93923	790162
3.94735	775344
3.95548	1017966
3.96360	2207345
3.97172	4042474
3.97985	4501586
3.98797	3295624
3.99608	2265754
4.00422	3578986
4.01233	9591485
4.02047	1.799657E+07
4.02858	1.99744E+07
4.03670	1.397136E+07
4.04483	7516658
4.05295	4325241
4.06108	3014749
4.06920	2298788
4.07732	1877634
4.08545	1547885
4.09357	1351056
4.10168	1198521
4.10982	1084289
4.11793	964746
4.12607	905311
4.13418	844589
4.14230	850864
4.15043	940189
4.15855	986006
4.16668	904867
4.17480	793517
4.18292	735860
4.19105	689723
4.19917	642169
4.20730	657631
4.21542	1248736
4.22353	4096082
4.23167	1.032797E+07
4.23978	1.618145E+07
4.24790	1.714796E+07
4.25603	1.251062E+07
4.26415	7284019
4.27228	4765155
4.28040	3476673
4.28852	2693936
4.29665	2214636
4.30477	1855734
4.31290	1603688
4.32102	1410763
4.32913	1250764
4.33727	1143120
4.34538	1072219
4.35352	1014205
4.36163	954589
4.36975	932704
4.37788	875612
4.38600	833142
4.39412	783379
4.40225	743752
4.41037	724732
4.41850	682115
4.42662	660270
4.43473	627593
4.44287	602577
4.45098	592601
4.45912	577941
4.46723	557385
4.47535	532732
4.48348	513449
4.49160	513825
4.49972	503781
4.50785	478407
4.51597	479583
4.52410	462087
4.53222	446528
4.54033	437621
4.54847	441570
4.55658	439290
4.56472	421867
4.57283	412685
4.58095	412665
4.58908	396045
4.59720	384036
4.60533	381281
4.61345	377529
4.62157	372616
4.62970	417393
4.63782	515939
4.64593	668379
4.65407	726462
4.66218	651403
4.67032	527384
4.67843	450141
4.68655	420869
4.69468	395362
4.70280	368989
4.71093	364801
4.71905	343067
4.72717	347297
4.73530	332508
4.74342	331485
4.75155	326075
4.75967	318530
4.76778	308291
4.77592	303208
4.78403	301817
4.79215	307621
4.80028	330408
4.80840	374261
4.81653	397778
4.82465	387194
4.83277	358937
4.84090	363428
4.84902	371646
4.85715	379018
4.86527	353990
4.87338	337109
4.88152	330891
4.88963	308974
4.89775	287468
4.90588	295209
4.91400	287100
4.92213	280074
4.93025	299626
4.93837	402284
4.94650	748956
4.95462	1534787
4.96275	2598296
4.97087	3258351
4.97898	3097620
4.98712	2447907
4.99523	1771530
5.00337	1285027
5.01148	1013628
5.01960	872872
5.02773	842127
5.03585	956299
5.04397	1233063
5.05210	1380009
5.06022	1251611
5.06835	1030085
5.07647	864816
5.08458	761509
5.09272	696458
5.10083	647745
5.10897	607725
5.11708	572380
5.12520	553181
5.13333	523106
5.14145	519059
5.14957	502493
5.15770	503971
5.16582	516869
5.17395	546125
5.18207	515908
5.19018	504417
5.19832	486638
5.20643	477258
5.21457	504992
5.22268	499397
5.23080	488835
5.23893	478972
5.24705	466192
5.25518	446162
5.26330	423243
5.27142	387662
5.27955	372028
5.28767	358074
5.29578	355531
5.30392	348343
5.31203	337629
5.32017	342711
5.32828	344690
5.33640	372899
5.34453	392029
5.35265	397775
5.36078	384390
5.36890	367804
5.37702	335524
5.38515	323543
5.39327	323070
5.40140	327944
5.40952	323804
5.41763	319427
5.42577	302211
5.43388	297474
5.44200	306172
5.45013	304253
5.45825	308072
5.46638	304570
5.47450	299348
5.48262	297880
5.49075	280489
5.49887	285306
5.50700	284955
5.51512	279477
5.52323	287920
5.53137	285946
5.53948	286035
5.54760	284693
5.55573	273699
5.56385	275837
5.57198	279753
5.58010	296679
5.58822	298943
5.59635	289400
5.60447	283211
5.61260	275952
5.62072	261077
5.62883	269421
5.63697	279752
5.64508	275419
5.65322	294286
5.66133	284849
5.66945	281173
5.67758	279255
5.68570	314712
5.69382	347829
5.70195	352483
5.71007	346901
5.71820	317511
5.72632	289908
5.73443	267350
5.74257	254235
5.75068	252797
5.75882	247977
5.76693	242173
5.77505	242029
5.78318	235578
5.79130	240162
5.79943	235579
5.80755	232193
5.81567	232047
5.82380	231937
5.83192	224924
5.84003	232904
5.84817	225546
5.85628	225360
5.86442	224639
5.87253	226535
5.88065	221222
5.88878	223909
5.89690	214633
5.90503	206503
5.91315	180074
5.92127	158062
5.92940	155340
5.93752	153353
5.94563	163531
5.95377	175549
5.96188	203662
5.97002	213316
5.97813	246784
5.98625	289075
5.99438	322155
6.00250	310994
6.01063	279576
6.01875	232424
6.02687	204001
6.03500	188410
6.04312	178033
6.05125	166778
6.05937	164690
6.06748	160293
6.07562	158784
6.08373	149265
6.09185	151435
6.09998	147133
6.10810	147087
6.11623	147294
6.12435	161485
6.13247	200415
6.14060	290818
6.14872	395190
6.15685	473584
6.16497	422512
6.17308	330094
6.18122	267812
6.18933	227498
6.19745	216331
6.20558	208607
6.21370	199262
6.22183	192839
6.22995	190388
6.23807	193734
6.24620	188531
6.25432	191094
6.26245	187976
6.27057	193014
6.27868	190714
6.28682	187368
6.29493	184017
6.30307	193290
6.31118	187393
6.31930	189086
6.32743	193256
6.33555	191066
6.34367	198689
6.35180	185460
6.35992	199161
6.36805	191034
6.37617	193343
6.38428	188195
6.39242	187662
6.40053	194027
6.40867	191885
6.41678	191050
6.42490	191149
6.43303	191827
6.44115	192933
6.44928	199237
6.45740	200873
6.46552	192060
6.47365	193456
6.48177	196576
6.48988	193453
6.49802	204086
6.50613	199590
6.51427	207939
6.52238	201862
6.53050	206247
6.53863	204846
6.54675	197853
6.55488	201777
6.56300	196534
6.57112	213615
6.57925	213985
6.58737	223765
6.59548	230255
6.60362	222429
6.61173	217015
6.61987	217801
6.62798	215313
6.63610	206825
6.64423	216618
6.65235	224620
6.66048	281348
6.66860	382952
6.67672	487933
6.68485	508480
6.69297	432209
6.70110	346046
6.70922	287785
6.71733	267622
6.72547	252360
6.73358	251708
6.74170	245311
6.74983	238587
6.75795	237941
6.76608	237538
6.77420	235679
6.78232	228094
6.79045	234912
6.79857	232559
6.80670	199759
6.81482	189344
6.82293	169934
6.83107	164412
6.83918	165055
6.84732	174221
6.85543	176165
6.86355	185402
6.87168	181275
6.87980	162157
6.88792	136408
6.89605	113158
6.90417	105687
6.91230	100964
6.92042	98508
6.92853	98150
6.93667	98302
6.94478	93127
6.95292	96781
6.96103	94839
6.96915	106722
6.97728	123725
6.98540	149589
6.99352	140405
7.00165	124996
7.00977	116951
7.01790	101132
7.02602	93096
7.03413	97273
7.04227	90743
7.05038	88820
7.05852	86976
7.06663	82259
7.07475	82104
7.08288	82841
7.09100	86252
7.09913	81471
7.10725	79642
7.11537	80179
7.12350	75939
7.13162	77413
7.13973	81472
7.14787	103738
7.15598	131615
7.16412	182724
7.17223	209584
7.18035	197807
7.18848	156770
7.19660	134368
7.20473	105390
7.21285	101794
7.22097	107215
7.22910	174865
7.23722	368518
7.24535	806959
7.25347	1310035
7.26158	1525457
7.26972	1300400
7.27783	877128
7.28595	523664
7.29408	347226
7.30220	283679
7.31033	247521
7.31845	212809
7.32657	167294
7.33470	126411
7.34282	106834
7.35095	97636
7.35907	99643
7.36718	100754
7.37532	102063
7.38343	105262
7.39155	104224
7.39968	105127
7.40780	93317
7.41593	91404
7.42405	81175
7.43217	80608
7.44030	80840
7.44842	82556
7.45655	81890
7.46467	80977
7.47278	83663
7.48092	78731
7.48903	75797
7.49717	75167
7.50528	82846
7.51340	86327
7.52153	108405
7.52965	134750
7.53777	184362
7.54590	223409
7.55402	253889
7.56215	240641
7.57027	211745
7.57838	174972
7.58652	134077
7.59463	108545
7.60277	94105
7.61088	90987
7.61900	86669
7.62713	83636
7.63525	81046
7.64337	80457
7.65150	75292
7.65962	74733
7.66775	76987
7.67587	74041
7.68398	70623
7.69212	71384
7.70023	71063
7.70837	68894
7.71648	75029
7.72460	71744
7.73273	79601
7.74085	70587
7.74898	76188
7.75710	73951
7.76522	72232
7.77335	75013
7.78147	67813
7.78958	74993
7.79772	79669
7.80583	79240
7.81397	85129
7.82208	83170
7.83020	77062
7.83833	71072
7.84645	69161
7.85458	68287
7.86270	76980
7.87082	73604
7.87895	76858
7.88707	83060
7.89520	80545
7.90332	76333
7.91143	71078
7.91957	69943
7.92768	77989
7.93580	98187
7.94393	116230
7.95205	124947
7.96018	131655
7.96830	118350
7.97642	103424
7.98455	96613
7.99267	79174
8.00080	72512
8.00892	69588
8.01703	64125
8.02517	65016
8.03328	65996
8.04140	67047
8.04953	68067
8.05765	69349
8.06578	70278
8.07390	62545
8.08202	62249
8.09015	63847
8.09827	64502
8.10640	64516
8.11452	65867
8.12263	62392
8.13077	66323
8.13888	73715
8.14702	85985
8.15513	94118
8.16325	94580
8.17138	98627
8.17950	81852
8.18762	73968
8.19575	65583
8.20387	64034
8.21200	67139
8.22012	66438
8.22823	64168
8.23637	63254
8.24448	66764
8.25262	61840
8.26073	59314
8.26885	63330
8.27698	60730
8.28510	66753
8.29323	65946
8.30135	67138
8.30947	69564
8.31760	72623
8.32572	75230
8.33383	66476
8.34197	64272
8.35008	63291
8.35822	59726
8.36633	63715
8.37445	61972
8.38258	62729
8.39070	62665
8.39883	60809
8.40695	58396
8.41507	61598
8.42320	58385
8.43132	54997
8.43943	54842
8.44757	58971
8.45568	60161
8.46382	55284
8.47193	57149
8.48005	58374
8.48818	57438
8.49630	54326
8.50443	58664
8.51255	62056
8.52067	57177
8.52880	60884
8.53692	84511
8.54505	140059
8.55317	243786
8.56128	345768
8.56942	390625
8.57753	328077
8.58565	241757
8.59378	168595
8.60190	116255
8.61003	95802
8.61815	88341
8.62627	77994
8.63440	75210
8.64252	77725
8.65065	66600
8.65877	66161
8.66688	67112
8.67502	68381
8.68313	69349
8.69125	73712
8.69938	70375
8.70750	72681
8.71563	72070
8.72375	66475
8.73187	62248
8.74000	69478
8.74812	103559
8.75625	201159
8.76437	426226
8.77248	763692
8.78062	1075919
8.78873	1205584
8.79687	1054591
8.80498	774111
8.81310	510511
8.82123	339608
8.82935	243014
8.83747	201283
8.84560	191176
8.85372	189106
8.86185	197719
8.86997	195233
8.87808	192753
8.88622	180157
8.89433	171070
8.90247	167674
8.91058	149772
8.91870	149149
8.92683	153442
8.93495	152107
8.94308	156494
8.95120	157659
8.95932	169948
8.96745	165811
8.97557	162569
8.98368	150771
8.99182	142212
8.99993	133032
9.00807	137098
9.01618	124095
9.02430	125203
9.03243	112752
9.04055	113813
9.04868	117038
9.05680	113179
9.06492	105066
9.07305	115025
9.08117	114450
9.08930	111739
9.09742	112115
9.10553	116602
9.11367	122656
9.12178	125589
9.12990	124870
9.13803	116377
9.14615	110329
9.15428	107953
9.16240	107645
9.17052	105037
9.17865	98921
9.18677	100849
9.19490	101193
9.20302	95734
9.21113	91669
9.21927	88643
9.22738	93079
9.23550	92533
9.24363	90180
9.25175	90678
9.25988	88027
9.26800	86519
9.27612	84934
9.28425	86105
9.29237	83977
9.30050	86668
9.30862	83545
9.31673	79445
9.32487	84038
9.33298	80839
9.34112	83676
9.34923	79476
9.35735	77117
9.36548	80769
9.37360	78196
9.38172	80464
9.38985	79876
9.39797	84918
9.40610	82782
9.41422	92078
9.42233	95156
9.43047	103254
9.43858	109908
9.44672	106763
9.45483	104036
9.46295	95379
9.47108	88576
9.47920	87865
9.48732	85439
9.49545	80757
9.50357	82584
9.51170	85175
9.51982	91597
9.52793	96061
9.53607	90172
9.54418	91224
9.55232	84590
9.56043	99330
9.56855	135240
9.57668	207899
9.58480	323276
9.59293	403985
9.60105	411290
9.60917	328928
9.61730	227491
9.62542	153895
9.63353	100259
9.64167	77194
9.64978	66784
9.65792	62446
9.66603	60672
9.67415	57978
9.68228	58389
9.69040	60179
9.69853	59697
9.70665	56871
9.71477	59125
9.72290	60668
9.73102	54903
9.73913	54427
9.74727	53177
9.75538	56039
9.76352	50482
9.77163	52345
9.77975	49079
9.78788	49012
9.79600	49657
9.80413	48254
9.81225	47752
9.82037	47904
9.82850	47801
9.83662	45842
9.84475	46763
9.85287	49367
9.86098	52194
9.86912	53260
9.87723	51000
9.88535	51422
9.89348	54651
9.90160	54432
9.90973	55735
9.91785	62560
9.92597	67549
9.93410	83041
9.94222	108467
9.95035	135716
9.95847	160360
9.96658	162803
9.97472	150320
9.98283	123139
9.99097	103095
9.99908	89498
10.00720	77470
10.01533	75159
10.02345	67705
10.03157	66836
10.03970	62403
10.04782	59119
10.05595	52926
10.06407	52882
10.07218	54302
10.08032	59941
10.08843	58736
10.09657	55754
10.10468	56951
10.11280	58544
10.12093	56624
10.12905	54655
10.13718	54759
10.14530	51967
10.15342	55888
10.16155	53683
10.16967	52938
10.17778	51004
10.18592	49805
10.19403	52424
10.20217	47531
10.21028	51635
10.21840	51163
10.22653	52573
10.23465	52130
10.24278	56445
10.25090	57071
10.25902	66887
10.26715	101246
10.27527	221153
10.28338	501948
10.29152	1050706
10.29963	1765437
10.30777	2608695
10.31588	3709289
10.32400	5492627
10.33213	8151574
10.34025	1.075676E+07
10.34838	1.161617E+07
10.35650	9850257
10.36462	6688167
10.37275	3645177
10.38087	1880430
10.38900	1068327
10.39712	693212
10.40523	529044
10.41337	425189
10.42148	354640
10.42960	306987
10.43773	283797
10.44585	256330
10.45398	242537
10.46210	227524
10.47022	214066
10.47835	207761
10.48647	193974
10.49460	190604
10.50272	175868
10.51083	168255
10.51897	164096
10.52708	155481
10.53520	160903
10.54333	156685
10.55145	156164
10.55958	145143
10.56770	141497
10.57582	138306
10.58395	136629
10.59207	123593
10.60020	122290
10.60832	115386
10.61643	110082
10.62457	104558
10.63268	101024
10.64082	101917
10.64893	100908
10.65705	93350
10.66518	90725
10.67330	91599
10.68142	92637
10.68955	100675
10.69767	88271
10.70580	87877
10.71392	83539
10.72203	86897
10.73017	89077
10.73828	90236
10.74642	85083
10.75453	87704
10.76265	87110
10.77078	77450
10.77890	77631
10.78703	73210
10.79515	78676
10.80327	71607
10.81140	73351
10.81952	68082
10.82763	71350
10.83577	67281
10.84388	68830
10.85202	63523
10.86013	64577
10.86825	62853
10.87638	66958
10.88450	67292
10.89263	62632
10.90075	66522
10.90887	63803
10.91700	61051
10.92512	59666
10.93323	57345
10.94137	57608
10.94948	60606
10.95762	58605
10.96573	54266
10.97385	60689
10.98198	57211
10.99010	62183
10.99823	58546
11.00635	56340
11.01447	54528
11.02260	53663
11.03072	48609
11.03885	53192
11.04697	53422
11.05508	54307
11.06322	55274
11.07133	51914
11.07945	55189
11.08758	59227
11.09570	54349
11.10383	53383
11.11195	51541
11.12007	51843
11.12820	45508
11.13632	43470
11.14445	42663
11.15257	44426
11.16068	48988
11.16882	46858
11.17693	50001
11.18507	53545
11.19318	51048
11.20130	54638
11.20943	52101
11.21755	50338
11.22567	46785
11.23380	45435
11.24192	43946
11.25005	41625
11.25817	39332
11.26628	35312
11.27442	40482
11.28253	42984
11.29067	44356
11.29878	46556
11.30690	65458
11.31503	98570
11.32315	141418
11.33127	199323
11.33940	248925
11.34752	272157
11.35565	245601
11.36377	202575
11.37188	151553
11.38002	114640
11.38813	88448
11.39627	71786
11.40438	65396
11.41250	64011
11.42063	61965
11.42875	63330
11.43688	64713
11.44500	60178
11.45312	57565
11.46125	59270
11.46937	65368
11.47748	82569
11.48562	114598
11.49373	161705
11.50187	201352
11.50998	217746
11.51810	190923
11.52623	159979
11.53435	121573
11.54248	98362
11.55060	90009
11.55872	87811
11.56685	81836
11.57497	78998
11.58308	70223
11.59122	74450
11.59933	74937
11.60747	88001
11.61558	106060
11.62370	133138
11.63183	126699
11.63995	119963
11.64808	95002
11.65620	83074
11.66432	65779
11.67245	61799
11.68057	56605
11.68870	58230
11.69682	50717
11.70493	56208
11.71307	56754
11.72118	54107
11.72930	54269
11.73743	52180
11.74555	53142
11.75368	53820
11.76180	49365
11.76992	48082
11.77805	49946
11.78617	48656
11.79430	48646
11.80242	47523
11.81053	49866
11.81867	44916
11.82678	54119
11.83492	52416
11.84303	48726
11.85115	48075
11.85928	42960
11.86740	43362
11.87552	49142
11.88365	44451
11.89177	43008
11.89990	43792
11.90802	42289
11.91613	46996
11.92427	45354
11.93238	51337
11.94052	53275
11.94863	51886
11.95675	46469
11.96488	45272
11.97300	43887
11.98112	50758
11.98925	62280
11.99737	94174
12.00550	128386
12.01362	165364
12.02173	181672
12.02987	174570
12.03798	141072
12.04612	103905
12.05423	78070
12.06235	71878
12.07048	59644
12.07860	63316
12.08673	60940
12.09485	56537
12.10297	61059
12.11110	52827
12.11922	51317
12.12733	57926
12.13547	52650
12.14358	54352
12.15172	51105
12.15983	54173
12.16795	44589
12.17608	44465
12.18420	44482
12.19233	48701
12.20045	46601
12.20857	46637
12.21670	48019
12.22482	52458
12.23295	43882
12.24107	45497
12.24918	45930
12.25732	44747
12.26543	41725
12.27355	43976
12.28168	44168
12.28980	38725
12.29793	46035
12.30605	43740
12.31417	41561
12.32230	41678
12.33042	42569
12.33855	42419
12.34667	41178
12.35478	38654
12.36292	37394
12.37103	39120
12.37915	39618
12.38728	41498
12.39540	45982
12.40353	43425
12.41165	50930
12.41977	61300
12.42790	72373
12.43602	77012
12.44415	79372
12.45227	69401
12.46038	65235
12.46852	59043
12.47663	55017
12.48477	53585
12.49288	49507
12.50100	41233
12.50913	45463
12.51725	43763
12.52537	44918
12.53350	49696
12.54162	56250
12.54975	69061
12.55787	90941
12.56598	118800
12.57412	131254
12.58223	135238
12.59037	116822
12.59848	94497
12.60660	78053
12.61473	59870
12.62285	57489
12.63098	55223
12.63910	47227
12.64722	50408
12.65535	46808
12.66347	44812
12.67158	46513
12.67972	44622
12.68783	44529
12.69597	45083
12.70408	42680
12.71220	44318
12.72033	46871
12.72845	50105
12.73658	51570
12.74470	58362
12.75282	54856
12.76095	48367
12.76907	44097
12.77718	41798
12.78532	38693
12.79343	38429
12.80157	38775
12.80968	38318
12.81780	35636
12.82593	38344
12.83405	35993
12.84218	35709
12.85030	36438
12.85842	34289
12.86655	36189
12.87467	35806
12.88280	34216
12.89092	32945
12.89903	38749
12.90717	35575
12.91528	34827
12.92340	32983
12.93153	33695
12.93965	31769
12.94778	38962
12.95590	38474
12.96402	39645
12.97215	56258
12.98027	76966
12.98840	94146
12.99652	98504
13.00463	93980
13.01277	75892
13.02088	62877
13.02900	52807
13.03713	49003
13.04525	43403
13.05338	41139
13.06150	43294
13.06962	42228
13.07775	36570
13.08587	41215
13.09400	40343
13.10212	45910
13.11023	38246
13.11837	43190
13.12648	39133
13.13462	38429
13.14273	39557
13.15085	34782
13.15898	36528
13.16710	38625
13.17522	38849
13.18335	37307
13.19147	38842
13.19960	42183
13.20772	42461
13.21583	46422
13.22397	45618
13.23208	38389
13.24022	44064
13.24833	41970
13.25645	39906
13.26458	37479
13.27270	40282
13.28083	38022
13.28895	37249
13.29707	34854
13.30520	35888
13.31332	36644
13.32143	37096
13.32957	32053
13.33768	38708
13.34582	35638
13.35393	36267
13.36205	35777
13.37018	34615
13.37830	32591
13.38643	33285
13.39455	36352
13.40267	29539
13.41080	32606
13.41892	35835
13.42703	32890
13.43517	32318
13.44328	32580
13.45142	33244
13.45953	32872
13.46765	33493
13.47578	34759
13.48390	33761
13.49203	33875
13.50015	34647
13.50827	33361
13.51640	31183
13.52452	31761
13.53265	36534
13.54077	32673
13.54888	30496
13.55702	32355
13.56513	33113
13.57325	30436
13.58138	36002
13.58950	39201
13.59763	43745
13.60575	59493
13.61387	85818
13.62200	113993
13.63012	135681
13.63825	140279
13.64637	120629
13.65448	95188
13.66262	71664
13.67073	57500
13.67887	45818
13.68698	39999
13.69510	37651
13.70323	44466
13.71135	40546
13.71947	37171
13.72760	44548
13.73572	57105
13.74385	92943
13.75197	205453
13.76008	451845
13.76822	802349
13.77633	1226556
13.78447	1494622
13.79258	1474849
13.80070	1272501
13.80883	918138
13.81695	618502
13.82507	471055
13.83320	408709
13.84132	379658
13.84945	322467
13.85757	283400
13.86568	244281
13.87382	207540
13.88193	176019
13.89007	158750
13.89818	145790
13.90630	136788
13.91443	130840
13.92255	127357
13.93068	116761
13.93880	114810
13.94692	110780
13.95505	109984
13.96317	110423
13.97128	107887
13.97942	116388
13.98753	115447
13.99567	115113
14.00378	112875
14.01190	108058
14.02003	98701
14.02815	92732
14.03628	83320
14.04440	87195
14.05252	83005
14.06065	86850
14.06877	86739
14.07688	87956
14.08502	88280
14.09313	82903
14.10127	79272
14.10938	78661
14.11750	77810
14.12563	79340
14.13375	82522
14.14188	75982
14.15000	87475
14.15812	86652
14.16625	95445
14.17437	106331
14.18250	130094
14.19062	173672
14.19873	216573
14.20687	266822
14.21498	281845
14.22310	265262
14.23123	227131
14.23935	201845
14.24748	187524
14.25560	169687
14.26372	155199
14.27185	150988
14.27997	131483
14.28810	116443
14.29622	111303
14.30433	106232
14.31247	98204
14.32058	97373
14.32872	91606
14.33683	86615
14.34495	82164
14.35308	77389
14.36120	68897
14.36932	64007
14.37745	56402
14.38557	56684
14.39370	73241
14.40182	110040
14.40993	172025
14.41807	276500
14.42618	369588
14.43432	399783
14.44243	347868
14.45055	263209
14.45868	183150
14.46680	130947
14.47493	98726
14.48305	88984
14.49117	78633
14.49930	75751
14.50742	68202
14.51553	68383
14.52367	71246
14.53178	72083
14.53992	75876
14.54803	63147
14.55615	62315
14.56428	63032
14.57240	58384
14.58053	54588
14.58865	52884
14.59677	54012
14.60490	51721
14.61302	49415
14.62113	49632
14.62927	52048
14.63738	49344
14.64552	47909
14.65363	47357
14.66175	45012
14.66988	45521
14.67800	47602
14.68613	47586
14.69425	45583
14.70237	49271
14.71050	48398
14.71862	46184
14.72675	45934
14.73487	49514
14.74298	50059
14.75112	47828
14.75923	46460
14.76735	48925
14.77548	47657
14.78360	50566
14.79173	77953
14.79985	139677
14.80797	307925
14.81610	656313
14.82422	1189686
14.83235	1731579
14.84047	1974589
14.84858	1809515
14.85672	1388092
14.86483	925361
14.87295	577351
14.88108	384833
14.88920	280753
14.89733	220811
14.90545	192329
14.91357	168752
14.92170	144146
14.92982	132500
14.93795	128248
14.94607	115901
14.95418	106705
14.96232	100447
14.97043	99587
14.97857	95823
14.98668	94571
14.99480	91016
15.00293	88243
15.01105	89159
15.01917	85613
15.02730	81612
15.03542	81529
15.04355	77504
15.05167	72160
15.05978	71602
15.06792	70697
15.07603	69654
15.08417	66772
15.09228	65421
15.10040	63278
15.10853	60726
15.11665	61197
15.12478	62339
15.13290	64762
15.14102	73186
15.14915	76779
15.15727	72489
15.16538	66308
15.17352	64574
15.18163	55556
15.18977	57625
15.19788	54571
15.20600	49826
15.21413	51072
15.22225	43887
15.23038	47211
15.23850	44546
15.24662	42666
15.25475	42793
15.26287	40859
15.27098	43083
15.27912	44606
15.28723	40646
15.29537	41134
15.30348	42225
15.31160	39016
15.31973	37373
15.32785	33429
15.33598	39260
15.34410	37371
15.35222	38501
15.36035	41431
15.36847	40537
15.37660	40016
15.38472	36541
15.39283	36868
15.40097	43454
15.40908	38701
15.41720	38836
15.42533	37073
15.43345	36687
15.44158	38806
15.44970	34640
15.45782	41012
15.46595	43621
15.47407	47631
15.48220	56581
15.49032	65436
15.49843	75065
15.50657	80269
15.51468	80633
15.52282	80809
15.53093	80630
15.53905	85115
15.54718	87445
15.55530	79446
15.56342	74344
15.57155	67440
15.57967	56647
15.58780	47330
15.59592	49293
15.60403	43750
15.61217	43606
15.62028	41629
15.62842	40271
15.63653	41430
15.64465	38719
15.65278	36191
15.66090	41324
15.66902	39502
15.67715	39907
15.68527	39213
15.69340	33862
15.70152	35416
15.70963	38944
15.71777	37373
15.72588	39781
15.73402	43967
15.74213	47705
15.75025	48088
15.75838	60788
15.76650	81272
15.77463	122561
15.78275	173861
15.79087	227473
15.79900	238441
15.80712	228229
15.81523	176790
15.82337	127632
15.83148	95681
15.83962	77729
15.84773	66629
15.85585	60564
15.86398	56215
15.87210	55894
15.88023	54715
15.88835	53466
15.89647	51492
15.90460	49768
15.91272	48690
15.92083	44122
15.92897	52791
15.93708	47682
15.94522	49277
15.95333	56232
15.96145	63734
15.96958	72725
15.97770	88112
15.98583	90135
15.99395	86301
16.00207	82318
16.01020	75132
16.01832	75712
16.02645	71068
16.03457	68472
16.04268	67750
16.05082	63114
16.05893	56069
16.06705	54722
16.07518	52758
16.08330	48906
16.09143	44616
16.09955	44417
16.10767	42871
16.11580	45055
16.12392	46946
16.13205	47383
16.14017	49917
16.14828	49622
16.15642	45677
16.16453	47248
16.17267	47892
16.18078	45611
16.18890	44670
16.19703	45084
16.20515	41821
16.21327	45453
16.22140	49170
16.22952	46544
16.23765	43007
16.24577	40963
16.25388	42200
16.26202	40647
16.27013	41716
16.27827	42409
16.28638	43588
16.29450	47614
16.30263	42961
16.31075	46816
16.31887	47348
16.32700	46739
16.33512	50890
16.34325	48459
16.35137	51024
16.35948	59031
16.36762	76753
16.37573	88506
16.38387	92537
16.39198	93233
16.40010	86248
16.40823	77251
16.41635	65165
16.42448	55017
16.43260	55747
16.44072	47555
16.44885	53778
16.45697	60336
16.46508	66823
16.47322	87093
16.48133	94983
16.48947	99273
16.49758	101133
16.50570	84266
16.51383	66549
16.52195	60235
16.53008	53678
16.53820	51226
16.54632	47601
16.55445	49719
16.56257	43569
16.57070	45948
16.57882	46933
16.58693	48223
16.59507	56353
16.60318	63441
16.61130	70442
16.61943	69994
16.62755	69101
16.63568	69883
16.64380	58380
16.65192	58098
16.66005	51581
16.66817	50603
16.67630	45655
16.68442	46791
16.69253	42546
16.70067	39670
16.70878	43121
16.71690	43303
16.72503	40908
16.73315	38325
16.74128	42227
16.74940	40676
16.75752	40934
16.76565	45771
16.77377	44195
16.78190	42826
16.79002	38056
16.79813	40804
16.80627	38577
16.81438	41405
16.82252	36882
16.83063	38187
16.83875	37465
16.84688	40731
16.85500	38283
16.86312	38963
16.87125	37937
16.87937	37948
16.88750	34896
16.89562	35391
16.90373	36253
16.91187	31338
16.91998	36751
16.92812	37471
16.93623	34974
16.94435	35216
16.95248	36132
16.96060	34882
16.96873	38007
16.97685	37861
16.98497	37425
16.99310	34200
17.00122	38857
17.00933	38428
17.01747	37770
17.02558	39429
17.03372	37248
17.04183	41761
17.04995	41730
17.05808	46330
17.06620	48596
17.07433	41556
17.08245	43638
17.09057	42831
17.09870	41138
17.10682	39988
17.11493	42980
17.12307	40843
17.13118	38043
17.13932	41151
17.14743	40054
17.15555	41393
17.16368	41643
17.17180	41007
17.17993	39524
17.18805	34589
17.19617	34729
17.20430	33661
17.21242	37655
17.22055	40460
17.22867	36071
17.23678	36992
17.24492	33622
17.25303	36542
17.26115	35331
17.26928	35281
17.27740	37609
17.28553	34058
17.29365	37499
17.30177	35418
17.30990	37636
17.31802	37513
17.32615	41322
17.33427	46321
17.34238	50130
17.35052	52911
17.35863	53580
17.36675	55555
17.37488	51351
17.38300	48815
17.39113	47258
17.39925	46544
17.40737	48432
17.41550	50363
17.42362	48224
17.43175	45818
17.43987	45635
17.44798	49173
17.45612	44172
17.46423	43328
17.47237	39429
17.48048	41238
17.48860	41540
17.49673	40232
17.50485	37792
17.51297	36820
17.52110	41377
17.52922	37566
17.53735	39296
17.54547	42666
17.55358	42792
17.56172	58097
17.56983	88105
17.57797	139633
17.58608	246208
17.59420	385420
17.60233	548902
17.61045	715799
17.61858	757921
17.62670	676088
17.63482	534222
17.64295	383367
17.65107	297594
17.65918	226175
17.66732	183099
17.67543	160035
17.68357	136260
17.69168	124687
17.69980	108415
17.70793	99080
17.71605	92549
17.72418	84575
17.73230	81298
17.74042	73845
17.74855	71858
17.75667	72438
17.76478	70160
17.77292	62842
17.78103	64195
17.78917	65256
17.79728	72433
17.80540	95927
17.81353	135604
17.82165	182171
17.82978	214318
17.83790	234821
17.84602	224434
17.85415	183450
17.86227	138853
17.87040	120745
17.87852	97063
17.88663	86905
17.89477	80974
17.90288	71319
17.91100	66548
17.91913	62905
17.92725	61203
17.93538	55825
17.94350	59297
17.95162	55513
17.95975	56758
17.96787	53520
17.97600	51856
17.98412	51695
17.99223	50624
18.00037	48963
18.00848	53542
18.01662	52748
18.02473	59385
18.03285	64979
18.04098	73825
18.04910	79444
18.05722	91220
18.06535	122766
18.07347	207382
18.08160	341671
18.08972	507913
18.09783	611011
18.10597	627322
18.11408	534839
18.12222	430936
18.13033	335755
18.13845	254679
18.14658	211574
18.15470	195599
18.16282	173243
18.17095	153786
18.17907	140184
18.18720	135343
18.19532	126510
18.20343	118746
18.21157	112528
18.21968	109225
18.22782	106860
18.23593	94053
18.24405	94653
18.25218	88349
18.26030	88525
18.26843	84244
18.27655	76220
18.28467	67428
18.29280	62268
18.30092	68087
18.30903	74413
18.31717	129866
18.32528	187235
18.33342	243319
18.34153	275368
18.34965	292791
18.35778	297368
18.36590	317085
18.37403	330250
18.38215	332208
18.39027	346049
18.39840	327325
18.40652	327316
18.41463	324780
18.42277	330838
18.43088	336924
18.43902	349354
18.44713	349272
18.45525	377894
18.46338	424119
18.47150	482149
18.47963	523531
18.48775	555866
18.49587	565860
18.50400	531432
18.51212	471596
18.52025	413921
18.52837	378315
18.53648	352073
18.54462	325197
18.55273	319289
18.56085	319721
18.56898	306500
18.57710	298152
18.58523	295945
18.59335	280874
18.60147	289925
18.60960	280067
18.61772	282808
18.62585	281929
18.63397	279774
18.64208	272642
18.65022	269876
18.65833	263449
18.66647	257467
18.67458	249864
18.68270	245799
18.69083	253164
18.69895	240153
18.70707	245024
18.71520	239375
18.72332	234935
18.73145	229601
18.73957	217073
18.74768	231243
18.75582	221777
18.76393	221952
18.77207	221536
18.78018	215246
18.78830	212958
18.79643	210779
18.80455	213242
18.81268	207074
18.82080	204060
18.82892	209469
18.83705	198771
18.84517	198827
18.85328	199346
18.86142	191216
18.86953	195347
18.87767	191054
18.88578	189730
18.89390	181963
18.90203	188531
18.91015	176916
18.91828	184924
18.92640	188188
18.93452	181338
18.94265	188717
18.95077	185907
18.95888	185490
18.96702	185298
18.97513	182630
18.98327	176133
18.99138	168048
18.99950	175739
19.00763	176182
19.01575	169513
19.02388	168275
19.03200	172922
19.04012	168555
19.04825	161111
19.05637	169980
19.06450	176839
19.07262	215586
19.08073	286103
19.08887	395071
19.09698	570005
19.10510	709092
19.11323	755629
19.12135	718526
19.12948	587806
19.13760	463600
19.14572	356660
19.15385	275334
19.16197	230523
19.17010	205183
19.17822	194145
19.18633	182344
19.19447	175885
19.20258	166827
19.21070	162916
19.21883	159968
19.22695	161564
19.23508	161374
19.24320	144209
19.25132	143322
19.25945	136845
19.26757	142017
19.27570	140702
19.28382	139594
19.29193	149339
19.30007	147277
19.30818	146442
19.31632	147042
19.32443	142933
19.33255	138609
19.34068	143382
19.34880	146479
19.35692	162514
19.36505	171636
19.37317	194794
19.38130	206148
19.38942	200507
19.39753	183579
19.40567	164137
19.41378	142859
19.42192	134705
19.43003	126443
19.43815	127645
19.44628	122034
19.45440	120503
19.46253	118653
19.47065	129217
19.47877	133602
19.48690	159454
19.49502	187087
19.50313	226945
19.51127	248774
19.51938	258886
19.52752	231388
19.53563	197983
19.54375	159021
19.55188	135055
19.56000	124977
19.56813	122891
19.57625	113872
19.58437	109492
19.59250	101189
19.60062	104324
19.60873	102816
19.61687	106451
19.62498	105668
19.63312	112653
19.64123	124715
19.64935	149466
19.65748	183200
19.66560	225775
19.67373	270001
19.68185	291171
19.68997	292753
19.69810	278711
19.70622	240240
19.71435	221796
19.72247	193859
19.73058	181895
19.73872	159614
19.74683	148840
19.75495	144401
19.76308	130172
19.77120	121673
19.77933	117553
19.78745	119558
19.79557	130891
19.80370	122349
19.81182	116154
19.81995	117292
19.82807	114180
19.83618	109968
19.84432	103015
19.85243	123877
19.86057	177471
19.86868	315581
19.87680	600770
19.88493	1073482
19.89305	1655892
19.90117	2136132
19.90930	2270447
19.91742	2139459
19.92555	1765186
19.93367	1324243
19.94178	1008777
19.94992	788622
19.95803	660330
19.96617	572219
19.97428	516665
19.98240	492060
19.99053	458760
19.99865	432613
20.00677	407772
20.01490	385760
20.02302	374233
20.03115	354097
20.03927	329473
20.04738	291016
20.05552	254444
20.06363	226374
20.07177	194097
20.07988	165539
20.08800	161072
20.09613	144769
20.10425	142817
20.11238	132821
20.12050	127992
20.12862	121780
20.13675	113947
20.14487	109911
20.15298	116235
20.16112	115362
20.16923	133033
20.17737	125969
20.18548	135867
20.19360	142225
20.20173	140311
20.20985	132018
20.21798	129086
20.22610	127063
20.23422	122261
20.24235	127331
20.25047	140997
20.25858	164979
20.26672	208492
20.27483	238784
20.28297	271576
20.29108	272373
20.29920	265424
20.30733	242692
20.31545	205341
20.32358	186827
20.33170	159337
20.33982	132685
20.34795	117687
20.35607	108000
20.36420	103172
20.37232	98722
20.38043	86941
20.38857	87472
20.39668	84533
20.40480	86790
20.41293	85507
20.42105	85853
20.42918	88756
20.43730	93681
20.44542	94492
20.45355	103795
20.46167	101520
20.46980	100804
20.47792	95284
20.48603	84279
20.49417	88953
20.50228	79796
20.51042	78445
20.51853	75500
20.52665	72781
20.53478	79083
20.54290	71490
20.55102	76325
20.55915	75114
20.56727	75648
20.57540	72666
20.58352	75669
20.59163	71066
20.59977	67749
20.60788	67073
20.61602	67293
20.62413	72650
20.63225	68974
20.64038	69123
20.64850	70354
20.65662	72956
20.66475	71840
20.67287	76167
20.68100	71364
20.68912	71118
20.69723	68005
20.70537	66906
20.71348	66775
20.72162	65614
20.72973	66413
20.73785	69695
20.74598	67649
20.75410	65803
20.76223	69046
20.77035	71791
20.77847	75826
20.78660	84807
20.79472	112913
20.80283	145787
20.81097	188516
20.81908	230264
20.82722	244252
20.83533	222442
20.84345	182889
20.85158	143894
20.85970	111921
20.86783	100362
20.87595	83411
20.88407	80784
20.89220	73888
20.90032	72911
20.90845	72446
20.91657	72998
20.92468	71806
20.93282	70861
20.94093	72183
20.94905	72586
20.95718	67791
20.96530	67923
20.97343	68317
20.98155	66463
20.98967	66471
20.99780	58770
21.00592	61292
21.01405	61943
21.02217	68146
21.03028	65693
21.03842	62222
21.04653	62975
21.05465	67174
21.06278	66957
21.07090	66281
21.07903	56479
21.08715	64889
21.09527	60592
21.10340	61592
21.11152	57115
21.11965	59624
21.12777	64674
21.13588	60677
21.14402	65784
21.15213	71534
21.16027	76173
21.16838	80000
21.17650	75112
21.18463	72479
21.19275	67250
21.20087	63974
21.20900	59128
21.21712	59494
21.22525	57859
21.23337	58813
21.24148	53290
21.24962	51635
21.25773	53500
21.26587	52042
21.27398	51751
21.28210	54955
21.29023	59416
21.29835	51665
21.30647	51624
21.31460	50811
21.32272	54607
21.33085	48596
21.33897	48628
21.34708	47230
21.35522	49955
21.36333	49982
21.37147	51713
21.37958	50501
21.38770	50485
21.39583	50752
21.40395	51974
21.41208	58102
21.42020	55523
21.42832	53322
21.43645	58451
21.44457	50788
21.45268	50998
21.46082	54523
21.46893	53468
21.47707	53700
21.48518	51696
21.49330	49971
21.50143	49307
21.50955	46414
21.51768	48451
21.52580	48450
21.53392	44811
21.54205	46805
21.55017	44122
21.55830	46812
21.56642	49801
21.57453	53494
21.58267	55452
21.59078	61606
21.59890	66165
21.60703	70528
21.61515	70028
21.62328	73118
21.63140	77711
21.63952	76286
21.64765	84972
21.65577	86060
21.66390	91598
21.67202	87356
21.68013	86200
21.68827	84661
21.69638	81641
21.70450	75498
21.71263	66524
21.72075	66949
21.72888	61809
21.73700	57751
21.74512	59542
21.75325	58105
21.76137	62782
21.76950	56691
21.77762	56283
21.78573	50482
21.79387	58809
21.80198	60573
21.81012	60494
21.81823	65024
21.82635	69123
21.83448	78702
21.84260	85619
21.85072	80839
21.85885	78073
21.86697	74200
21.87510	58812
21.88322	61839
21.89133	59442
21.89947	58120
21.90758	57211
21.91572	53830
21.92383	53522
21.93195	61978
21.94008	64968
21.94820	71465
21.95633	73588
21.96445	82128
21.97257	86534
21.98070	83617
21.98882	85429
21.99693	91350
22.00507	93576
22.01318	92864
22.02132	91670
22.02943	98424
22.03755	97373
22.04568	98807
22.05380	96853
22.06193	95832
22.07005	97608
22.07817	98592
22.08630	97703
22.09442	99024
22.10253	94147
22.11067	91718
22.11878	92504
22.12692	94008
22.13503	99652
22.14315	91635
22.15128	92261
22.15940	92677
22.16753	81654
22.17565	77378
22.18377	66276
22.19190	62120
22.20002	60593
22.20815	59500
22.21627	62040
22.22438	61048
22.23252	63545
22.24063	59699
22.24875	55666
22.25688	57332
22.26500	56161
22.27313	58152
22.28125	55696
22.28937	55128
22.29750	63137
22.30562	61992
22.31375	62244
22.32187	62986
22.32998	60253
22.33812	63264
22.34623	60971
22.35437	64148
22.36248	56953
22.37060	56503
22.37873	55771
22.38685	59740
22.39497	61251
22.40310	74465
22.41122	91100
22.41935	101013
22.42747	106897
22.43558	106066
22.44372	100688
22.45183	81400
22.45997	76797
22.46808	82765
22.47620	92223
22.48433	119198
22.49245	147954
22.50057	170906
22.50870	177459
22.51682	184718
22.52495	185882
22.53307	176594
22.54118	186146
22.54932	183313
22.55743	177978
22.56557	178941
22.57368	183041
22.58180	173594
22.58993	171779
22.59805	170753
22.60618	166981
22.61430	169026
22.62242	164606
22.63055	164346
22.63867	167251
22.64678	163227
22.65492	168482
22.66303	164414
22.67117	158272
22.67928	164601
22.68740	165543
22.69553	169663
22.70365	176483
22.71178	176118
22.71990	184042
22.72802	186075
22.73615	173294
22.74427	167655
22.75238	164651
22.76052	158152
22.76863	163934
22.77677	163823
22.78488	169368
22.79300	179937
22.80113	195716
22.80925	210730
22.81738	211240
22.82550	199914
22.83362	191738
22.84175	183342
22.84987	168273
22.85800	160161
22.86612	156917
22.87423	160724
22.88237	156476
22.89048	170086
22.89860	172043
22.90673	202013
22.91485	223426
22.92298	259265
22.93110	280803
22.93922	287716
22.94735	269499
22.95547	224697
22.96360	200610
22.97172	170000
22.97983	165641
22.98797	150894
22.99608	142937
23.00422	132625
23.01233	135221
23.02045	128789
23.02858	125427
23.03670	123541
23.04482	118253
23.05295	117768
23.06107	114060
23.06920	114005
23.07732	119567
23.08543	112366
23.09357	114532
23.10168	109015
23.10982	108480
23.11793	106509
23.12605	105887
23.13418	104401
23.14230	103859
23.15042	105730
23.15855	100782
23.16667	97738
23.17480	106459
23.18292	103169
23.19103	101201
23.19917	103294
23.20728	94639
23.21542	91705
23.22353	94991
23.23165	92917
23.23978	91078
23.24790	93962
23.25603	99172
23.26415	106878
23.27227	101024
23.28040	98639
23.28852	96228
23.29663	99108
23.30477	96227
23.31288	92548
23.32102	91846
23.32913	99031
23.33725	110185
23.34538	130103
23.35350	162399
23.36163	207799
23.36975	277463
23.37787	373469
23.38600	466936
23.39412	584017
23.40225	648084
23.41037	704961
23.41848	743902
23.42662	755338
23.43473	745448
23.44285	704620
23.45098	684038
23.45910	655100
23.46723	595631
23.47535	561680
23.48347	513384
23.49160	478732
23.49972	444225
23.50785	403638
23.51597	370684
23.52408	348847
23.53222	324227
23.54033	305405
23.54845	291158
23.55658	269000
23.56470	268714
23.57283	271763
23.58095	282671
23.58907	314817
23.59720	348419
23.60532	373621
23.61345	367340
23.62157	350578
23.62968	311776
23.63782	266782
23.64593	248752
23.65407	228897
23.66218	237455
23.67030	230362
23.67843	213415
23.68655	198526
23.69467	177331
23.70280	152962
23.71092	147283
23.71905	138555
23.72717	127161
23.73528	123477
23.74342	134300
23.75153	182968
23.75967	310548
23.76778	589870
23.77590	1106585
23.78403	1718396
23.79215	2311795
23.80027	2611816
23.80840	2517181
23.81652	2170551
23.82465	1784284
23.83277	1370238
23.84088	1063249
23.84902	819423
23.85713	651286
23.86527	564767
23.87338	485235
23.88150	424153
23.88963	361479
23.89775	347986
23.90588	312527
23.91400	291904
23.92212	287030
23.93025	251599
23.93837	240205
23.94648	226412
23.95462	211527
23.96273	206127
23.97087	190189
23.97898	188528
23.98710	178451
23.99523	171285
24.00335	183982
24.01148	219782
24.01960	283593
24.02772	348496
24.03585	406054
24.04397	432393
24.05210	383125
24.06022	311378
24.06833	235377
24.07647	182791
24.08458	146091
24.09270	131999
24.10083	126443
24.10895	120178
24.11708	115215
24.12520	124365
24.13332	119053
24.14145	121922
24.14957	118279
24.15770	116172
24.16582	113065
24.17393	114244
24.18207	110673
24.19018	116358
24.19832	115289
24.20643	110489
24.21455	110728
24.22268	112217
24.23080	138947
24.23892	159436
24.24705	195687
24.25517	197792
24.26330	215880
24.27142	221614
24.27953	228750
24.28767	233016
24.29578	238077
24.30392	244598
24.31203	247392
24.32015	238586
24.32828	251403
24.33640	250567
24.34452	240323
24.35265	245062
24.36077	240981
24.36890	247349
24.37702	259420
24.38513	273066
24.39327	298071
24.40138	302677
24.40952	300634
24.41763	290992
24.42575	272469
24.43388	248180
24.44200	241743
24.45013	237505
24.45825	238897
24.46637	246152
24.47450	251552
24.48262	258124
24.49073	271572
24.49887	269069
24.50698	281511
24.51512	286425
24.52323	283371
24.53135	287036
24.53948	287767
24.54760	288742
24.55573	292957
24.56385	286809
24.57197	292318
24.58010	274295
24.58822	271106
24.59633	259645
24.60447	260771
24.61258	261771
24.62072	254033
24.62883	246706
24.63695	253132
24.64508	250428
24.65320	246989
24.66133	249705
24.66945	236860
24.67757	246911
24.68570	245554
24.69382	240433
24.70195	233570
24.71007	227121
24.71818	227468
24.72632	226512
24.73443	226774
24.74255	213098
24.75068	218947
24.75880	218468
24.76693	216394
24.77505	214561
24.78317	217388
24.79130	211642
24.79942	217136
24.80755	213229
24.81567	210461
24.82378	207883
24.83192	214802
24.84003	234888
24.84817	255311
24.85628	290405
24.86440	342518
24.87253	420117
24.88065	518926
24.88877	610539
24.89690	636287
24.90502	621367
24.91315	546177
24.92127	460163
24.92938	353771
24.93752	275374
24.94563	240849
24.95377	198122
24.96188	184908
24.97000	165336
24.97813	146318
24.98625	121212
24.99437	111820
25.00250	109821
25.01062	101427
25.01875	98869
25.02687	91548
25.03498	88114
25.04312	87300
25.05123	82458
25.05937	83335
25.06748	78884
25.07560	85322
25.08373	81978
25.09185	91455
25.09998	122607
25.10810	201908
25.11622	383274
25.12435	745273
25.13247	1249837
25.14058	1760681
25.14872	2148169
25.15683	2198982
25.16497	1845741
25.17308	1358267
25.18120	913158
25.18933	556796
25.19745	336689
25.20558	218734
25.21370	167503
25.22182	135177
25.22995	121452
25.23807	123494
25.24620	143071
25.25432	168140
25.26243	198639
25.27057	223622
25.27868	236416
25.28680	227838
25.29493	201313
25.30305	168890
25.31118	142328
25.31930	117354
25.32742	100726
25.33555	90220
25.34367	87025
25.35180	79016
25.35992	76755
25.36803	77543
25.37617	73030
25.38428	77598
25.39240	95953
25.40053	119840
25.40865	169847
25.41678	205610
25.42490	242168
25.43302	253942
25.44115	260108
25.44927	275377
25.45740	293326
25.46552	287565
25.47363	304399
25.48177	294664
25.48988	300546
25.49802	308935
25.50613	311974
25.51425	300567
25.52238	298683
25.53050	303993
25.53862	302796
25.54675	301136
25.55487	292154
25.56300	293096
25.57112	287280
25.57923	285267
25.58737	287246
25.59548	284692
25.60362	282483
25.61173	281488
25.61985	272972
25.62798	274833
25.63610	274721
25.64422	280547
25.65235	267907
25.66047	266694
25.66860	261316
25.67672	263885
25.68483	251156
25.69297	248985
25.70108	251665
25.70922	249203
25.71733	240666
25.72545	243262
25.73358	239323
25.74170	233592
25.74983	230433
25.75795	230335
25.76607	226940
25.77420	228325
25.78232	225745
25.79043	224166
25.79857	218393
25.80668	222818
25.81482	214599
25.82293	219019
25.83105	218378
25.83918	211067
25.84730	213664
25.85543	212003
25.86355	212119
25.87167	205523
25.87980	199072
25.88792	194616
25.89605	187691
25.90417	188620
25.91228	186008
25.92042	179772
25.92853	179140
25.93665	179334
25.94478	179203
25.95290	174874
25.96103	170675
25.96915	164797
25.97727	170925
25.98540	164743
25.99352	162580
26.00165	155958
26.00977	158468
26.01788	158748
26.02602	144298
26.03413	152806
26.04225	149434
26.05038	149247
26.05850	147721
26.06663	145498
26.07475	144502
26.08287	141051
26.09100	146588
26.09912	139400
26.10725	143091
26.11537	137905
26.12348	139380
26.13162	144691
26.13973	144144
26.14787	134218
26.15598	141127
26.16410	135842
26.17223	140920
26.18035	130677
26.18847	134557
26.19660	131184
26.20472	125270
26.21285	122533
26.22097	119712
26.22908	115223
26.23722	121534
26.24533	117161
26.25347	112230
26.26158	117129
26.26970	110929
26.27783	112624
26.28595	109525
26.29408	108987
26.30220	107995
26.31032	111214
26.31845	105885
26.32657	106110
26.33468	99106
26.34282	99082
26.35093	100684
26.35907	97183
26.36718	99861
26.37530	98799
26.38343	100376
26.39155	105710
26.39968	103622
26.40780	104036
26.41592	99848
26.42405	99850
26.43217	102147
26.44028	91086
26.44842	92449
26.45653	89069
26.46467	87906
26.47278	90380
26.48090	85846
26.48903	95892
26.49715	88125
26.50528	85104
26.51340	85144
26.52152	84624
26.52965	80484
26.53777	81025
26.54590	76074
26.55402	79877
26.56213	78641
26.57027	70926
26.57838	75095
26.58650	74480
26.59463	76898
26.60275	75078
26.61088	71122
26.61900	75808
26.62712	75706
26.63525	67560
26.64337	71688
26.65150	74349
26.65962	82062
26.66773	83976
26.67587	85832
26.68398	76911
26.69210	79736
26.70023	76712
26.70835	72428
26.71648	68016
26.72460	68843
26.73272	69631
26.74085	66420
26.74897	67859
26.75710	66559
26.76522	64780
26.77333	67721
26.78147	66239
26.78958	64722
26.79772	73101
26.80583	71902
26.81395	66839
26.82208	74844
26.83020	65211
26.83832	69990
26.84645	72508
26.85457	66571
26.86270	64504
26.87082	65957
26.87893	61146
26.88707	63591
26.89518	58516
26.90332	55736
26.91143	57923
26.91955	61657
26.92768	62326
26.93580	61804
26.94393	60806
26.95205	60863
26.96017	60104
26.96830	66096
26.97642	84478
26.98453	113437
26.99267	160884
27.00078	225263
27.00892	300291
27.01703	378372
27.02515	438689
27.03328	496692
27.04140	496971
27.04953	462667
27.05765	410227
27.06577	342188
27.07390	290018
27.08202	248474
27.09013	205655
27.09827	188246
27.10638	179282
27.11452	156940
27.12263	151570
27.13075	144728
27.13888	132023
27.14700	127760
27.15513	120548
27.16325	111652
27.17137	113738
27.17950	112032
27.18762	108188
27.19575	106905
27.20387	108309
27.21198	102788
27.22012	98328
27.22823	91651
27.23635	86522
27.24448	81885
27.25260	77616
27.26073	78998
27.26885	77168
27.27697	73062
27.28510	74721
27.29322	77518
27.30135	69309
27.30947	66842
27.31758	69879
27.32572	69228
27.33383	69552
27.34197	71730
27.35008	71896
27.35820	72308
27.36633	71020
27.37445	68665
27.38257	68663
27.39070	74006
27.39882	66027
27.40695	65279
27.41507	65671
27.42318	61666
27.43132	58414
27.43943	61991
27.44757	62383
27.45568	59404
27.46380	59031
27.47193	61548
27.48005	52719
27.48817	61109
27.49630	60286
27.50442	59460
27.51255	60699
27.52067	63589
27.52878	64024
27.53692	61433
27.54503	64157
27.55317	63753
27.56128	65587
27.56940	55547
27.57753	64583
27.58565	72101
27.59378	71103
27.60190	75414
27.61002	77532
27.61815	75087
27.62627	68878
27.63438	62502
27.64252	61900
27.65063	61758
27.65877	56433
27.66688	59418
27.67500	59451
27.68313	56449
27.69125	53971
27.69938	55433
27.70750	54684
27.71562	53851
27.72375	53093
27.73187	53400
27.74000	52833
27.74812	48669
27.75623	47800
27.76437	53738
27.77248	54248
27.78060	48371
27.78873	51860
27.79685	52115
27.80498	50043
27.81310	49505
27.82122	53429
27.82935	52606
27.83747	50187
27.84560	51628
27.85372	49978
27.86183	50555
27.86997	50466
27.87808	49540
27.88620	49631
27.89433	45226
27.90245	50304
27.91058	48202
27.91870	50291
27.92682	45014
27.93495	45384
27.94307	45288
27.95120	44275
27.95932	44842
27.96743	46384
27.97557	43833
27.98368	43147
27.99182	42892
27.99993	48681
28.00805	49842
28.01618	49039
28.02430	52687
28.03242	55440
28.04055	58363
28.04867	57799
28.05680	57483
28.06492	59678
28.07303	54978
28.08117	55537
28.08928	51784
28.09742	48461
28.10553	48077
28.11365	55020
28.12178	46396
28.12990	45710
28.13802	45033
28.14615	43832
28.15427	42761
28.16240	44477
28.17052	49519
28.17863	52644
28.18677	53835
28.19488	59873
28.20302	68458
28.21113	73341
28.21925	79636
28.22738	77426
28.23550	77238
28.24363	72032
28.25175	64184
28.25987	59793
28.26800	54770
28.27612	49636
28.28423	47861
28.29237	51451
28.30048	50660
28.30862	57337
28.31673	64370
28.32485	73634
28.33298	90144
28.34110	100001
28.34923	110864
28.35735	124831
28.36547	140202
28.37360	154776
28.38172	165061
28.38985	172959
28.39797	184501
28.40608	185264
28.41422	182132
28.42233	170599
28.43045	157990
28.43858	152237
28.44670	142226
28.45483	132755
28.46295	123670
28.47107	116113
28.47920	105482
28.48732	105920
28.49545	102359
28.50357	95825
28.51168	96587
28.51982	90545
28.52793	82067
28.53605	79748
28.54418	83307
28.55230	74504
28.56043	71147
28.56855	72446
28.57667	69773
28.58480	68439
28.59292	71968
28.60105	65357
28.60917	68505
28.61728	63832
28.62542	69059
28.63353	65754
28.64167	70801
28.64978	72944
28.65790	71186
28.66603	65811
28.67415	70134
28.68227	66678
28.69040	65144
28.69852	60250
28.70665	66330
28.71477	61090
28.72288	66798
28.73102	59680
28.73913	59001
28.74727	58292
28.75538	66235
28.76350	74462
28.77163	81738
28.77975	76368
28.78788	73341
28.79600	69609
28.80412	70730
28.81225	65563
28.82037	65859
28.82848	63923
28.83662	59220
28.84473	56890
28.85287	52772
28.86098	60852
28.86910	53888
28.87723	63918
28.88535	63199
28.89348	70760
28.90160	72878
28.90972	74928
28.91785	69392
28.92597	62046
28.93408	61390
28.94222	58040
28.95033	58421
28.95847	61847
28.96658	59831
28.97470	61338
28.98283	61124
28.99095	51434
28.99908	52296
29.00720	50868
29.01532	49498
29.02345	50215
29.03157	47835
29.03970	49586
29.04782	48622
29.05593	49546
29.06407	49895
29.07218	54666
29.08030	55607
29.08843	56606
29.09655	51661
29.10468	52839
29.11280	56945
29.12092	50076
29.12905	48806
29.13717	50778
29.14530	47747
29.15342	50405
29.16153	52481
29.16967	48027
29.17778	54020
29.18590	57548
29.19403	69994
29.20215	74734
29.21028	83888
29.21840	93737
29.22652	95346
29.23465	92191
29.24277	79656
29.25090	74385
29.25902	74329
29.26713	71801
29.27527	65905
29.28338	66488
29.29152	62231
29.29963	56754
29.30775	53446
29.31588	50526
29.32400	46573
29.33212	48093
29.34025	46314
29.34837	46644
29.35650	43572
29.36462	42052
29.37273	44954
29.38087	47509
29.38898	42870
29.39712	48309
29.40523	45759
29.41335	47716
29.42148	51879
29.42960	51498
29.43773	48198
29.44585	50227
29.45397	47423
29.46210	49002
29.47022	44965
29.47833	47233
29.48647	46460
29.49458	49532
29.50272	45178
29.51083	51088
29.51895	47737
29.52708	48815
29.53520	48591
29.54333	46612
29.55145	50656
29.55957	41348
29.56770	44307
29.57582	43195
29.58393	41254
29.59207	40511
29.60018	41869
29.60832	39197
29.61643	43568
29.62455	42547
29.63268	41397
29.64080	40362
29.64893	41458
29.65705	44478
29.66517	40203
29.67330	42396
29.68142	44600
29.68955	47398
29.69767	45392
29.70578	48995
29.71392	49206
29.72203	44783
29.73015	50945
29.73828	44363
29.74640	44826
29.75453	44070
29.76265	44042
29.77077	40727
29.77890	41804
29.78702	42138
29.79515	44905
29.80327	43228
29.81138	40317
29.81952	37628
29.82763	41827
29.83577	40403
29.84388	41829
29.85200	43867
29.86013	46033
29.86825	56157
29.87637	68071
29.88450	100289
29.89262	136214
29.90075	153674
29.90887	152800
29.91698	144594
29.92512	113236
29.93323	91445
29.94137	72181
29.94948	62356
29.95760	62276
29.96573	60484
29.97385	68039
29.98197	72924
29.99010	70805
29.99822	91282
30.00635	90741
30.01447	92721
30.02258	93577
30.03072	100638
30.03883	104709
30.04697	109254
30.05508	102509
30.06320	109928
30.07133	114320
30.07945	101638
30.08758	106745
30.09570	98709
30.10382	97732
30.11195	99927
30.12007	93332
30.12818	84967
30.13632	88741
30.14443	86879
30.15257	78797
30.16068	81351
30.16880	78318
30.17693	73943
30.18505	72813
30.19318	72958
30.20130	69988
30.20942	69754
30.21755	65263
30.22567	61020
30.23378	57385
30.24192	61610
30.25003	57705
30.25817	55233
30.26628	61323
30.27440	56136
30.28253	54310
30.29065	51691
30.29878	55364
30.30690	54223
30.31502	53102
30.32315	51783
30.33127	54503
30.33940	49094
30.34752	52592
30.35563	54535
30.36377	53177
30.37188	51126
30.38000	48334
30.38813	49620
30.39625	50269
30.40438	42571
30.41250	46507
30.42062	47449
30.42875	46021
30.43687	48111
30.44500	40721
30.45312	46451
30.46123	43166
30.46937	43286
30.47748	42770
30.48562	45903
30.49373	46264
30.50185	45949
30.50998	43087
30.51810	47329
30.52622	44634
30.53435	46230
30.54247	42145
30.55060	45692
30.55872	43175
30.56683	42788
30.57497	46592
30.58308	41196
30.59122	40203
30.59933	43181
30.60745	44432
30.61558	42320
30.62370	44390
30.63183	42322
30.63995	41403
30.64807	42578
30.65620	41503
30.66432	42764
30.67243	43401
30.68057	40414
30.68868	39625
30.69682	39833
30.70493	39989
30.71305	38948
30.72118	41093
30.72930	42008
30.73743	37144
30.74555	39649
30.75367	41161
30.76180	39671
30.76992	43318
30.77803	50338
30.78617	63793
30.79428	80908
30.80242	95224
30.81053	104487
30.81865	109861
30.82678	91317
30.83490	88994
30.84303	71296
30.85115	59824
30.85927	49227
30.86740	49970
30.87552	46576
30.88365	43073
30.89177	53961
30.89988	49863
30.90802	50071
30.91613	53424
30.92425	55356
30.93238	51758
30.94050	53741
30.94863	60514
30.95675	58761
30.96487	62016
30.97300	58788
30.98112	58652
30.98925	59334
30.99737	57463
31.00548	62138
31.01362	59077
31.02173	61652
31.02985	65013
31.03798	59863
31.04610	62254
31.05423	56954
31.06235	63812
31.07047	66387
31.07860	67053
31.08672	73065
31.09485	75159
31.10297	81511
31.11108	83519
31.11922	84482
31.12733	78275
31.13547	75378
31.14358	73615
31.15170	72219
31.15983	69843
31.16795	71042
31.17607	80645
31.18420	84366
31.19232	103983
31.20045	131075
31.20857	160904
31.21668	187532
31.22482	220412
31.23293	233427
31.24107	205544
31.24918	165538
31.25730	139047
31.26543	108795
31.27355	85512
31.28168	71430
31.28980	67527
31.29792	67093
31.30605	64132
31.31417	62588
31.32228	59503
31.33042	67747
31.33853	62341
31.34667	69214
31.35478	64244
31.36290	66036
31.37103	66947
31.37915	65399
31.38728	66950
31.39540	68642
31.40352	65649
31.41165	64161
31.41977	63010
31.42788	61948
31.43602	58752
31.44413	57853
31.45227	50816
31.46038	53690
31.46850	53391
31.47663	55367
31.48475	55641
31.49288	58997
31.50100	52991
31.50912	52588
31.51725	55193
31.52537	56387
31.53350	51220
31.54162	55399
31.54973	54978
31.55787	51971
31.56598	56225
31.57410	54014
31.58223	52563
31.59035	55735
31.59848	58888
31.60660	53211
31.61472	53996
31.62285	49071
31.63097	53838
31.63910	49024
31.64722	52903
31.65533	53452
31.66347	53201
31.67158	58815
31.67972	56152
31.68783	52659
31.69595	53422
31.70408	63341
31.71220	53485
31.72032	47131
31.72845	50148
31.73657	46127
31.74470	46333
31.75282	45307
31.76093	50613
31.76907	46474
31.77718	51771
31.78532	49876
31.79343	47983
31.80155	51702
31.80968	49590
31.81780	49541
31.82592	53089
31.83405	52482
31.84217	52984
31.85030	48951
31.85842	50327
31.86653	54240
31.87467	53125
31.88278	57193
31.89092	60440
31.89903	63343
31.90715	70153
31.91528	71552
31.92340	79696
31.93153	85994
31.93965	87568
31.94777	89138
31.95590	91591
31.96402	91934
31.97213	93314
31.98027	97484
31.98838	101103
31.99652	104002
32.00463	100094
32.01275	98138
32.02088	98418
32.02900	89341
32.03713	87942
32.04525	92880
32.05337	87459
32.06150	84796
32.06962	84330
32.07773	83218
32.08587	81310
32.09398	73954
32.10212	69369
32.11023	63682
32.11835	62962
32.12648	64320
32.13460	62434
32.14273	61917
32.15085	60622
32.15897	54702
32.16710	53731
32.17522	57333
32.18335	55801
32.19147	56865
32.19958	49740
32.20772	52894
32.21583	54181
32.22395	52606
32.23208	49604
32.24020	54328
32.24833	52948
32.25645	51664
32.26457	54887
32.27270	58502
32.28082	55375
32.28895	52782
32.29707	49470
32.30518	48295
32.31332	49188
32.32143	51109
32.32957	47349
32.33768	49907
32.34580	47193
32.35393	51676
32.36205	47442
32.37017	44821
32.37830	43275
32.38642	46213
32.39455	48117
32.40267	48181
32.41078	45546
32.41892	47190
32.42703	44379
32.43517	49178
32.44328	44781
32.45140	45621
32.45953	44875
32.46765	48550
32.47577	47296
32.48390	45634
32.49202	44501
32.50015	47226
32.50827	43484
32.51638	43489
32.52452	44574
32.53263	44481
32.54077	48554
32.54888	44236
32.55700	45976
32.56513	47985
32.57325	42759
32.58138	42769
32.58950	45198
32.59762	45894
32.60575	41508
32.61387	38748
32.62198	42322
32.63012	42181
32.63823	44964
32.64637	47783
32.65448	54753
32.66260	57902
32.67073	56296
32.67885	55904
32.68698	49566
32.69510	47002
32.70322	49925
32.71135	49514
32.71947	46044
32.72760	48616
32.73572	46384
32.74383	47702
32.75197	44940
32.76008	46331
32.76820	39570
32.77633	43212
32.78445	38290
32.79258	40381
32.80070	43610
32.80882	40573
32.81695	42277
32.82507	43770
32.83320	42462
32.84132	39318
32.84943	37216
32.85757	40539
32.86568	41080
32.87380	40868
32.88193	47143
32.89005	40290
32.89818	43917
32.90630	39982
32.91442	45093
32.92255	41545
32.93067	45332
32.93880	42102
32.94692	42604
32.95503	40940
32.96317	40728
32.97128	44498
32.97942	45602
32.98753	47896
32.99565	56197
33.00378	62523
33.01190	57332
33.02002	54362
33.02815	52661
33.03627	51409
33.04440	47154
33.05252	46657
33.06063	48612
33.06877	53466
33.07688	50050
33.08502	51850
33.09313	58122
33.10125	60695
33.10938	61103
33.11750	66311
33.12563	68990
33.13375	64073
33.14187	57904
33.15000	51402
33.15812	49392
33.16623	53621
33.17437	47037
33.18248	47678
33.19062	47315
33.19873	47329
33.20685	45519
33.21498	43730
33.22310	47715
33.23123	42922
33.23935	43665
33.24747	43255
33.25560	41169
33.26372	39111
33.27183	40428
33.27997	41863
33.28808	38299
33.29622	44010
33.30433	41665
33.31245	43146
33.32058	45551
33.32870	39254
33.33683	45283
33.34495	42314
33.35307	47779
33.36120	44033
33.36932	44974
33.37745	46008
33.38557	45696
33.39368	41943
33.40182	42987
33.40993	45904
33.41805	45533
33.42618	38285
33.43430	38048
33.44243	39022
33.45055	40347
33.45867	37992
33.46680	43156
33.47492	41515
33.48305	40917
33.49117	42721
33.49928	43937
33.50742	42956
33.51553	42644
33.52365	44373
33.53178	45445
33.53990	44836
33.54803	46914
33.55615	47953
33.56427	57827
33.57240	50071
33.58052	48328
33.58865	44631
33.59677	41037
33.60488	45297
33.61302	45478
33.62113	43260
33.62927	43228
33.63738	41519
33.64550	45349
33.65363	44101
33.66175	42115
33.66987	42141
33.67800	44634
33.68612	43343
33.69425	42917
33.70237	43296
33.71048	41734
33.71862	41913
33.72673	39931
33.73487	39808
33.74298	41115
33.75110	39803
33.75923	40223
33.76735	42996
33.77548	42767
33.78360	45166
33.79172	38957
33.79985	37269
33.80797	38107
33.81608	39560
33.82422	46075
33.83233	43989
33.84047	41163
33.84858	44021
33.85670	41492
33.86483	45185
33.87295	43097
33.88108	45230
33.88920	47947
33.89732	43969
33.90545	42533
33.91357	45683
33.92168	42275
33.92982	41426
33.93793	43778
33.94607	42057
33.95418	40205
33.96230	39348
33.97043	38532
33.97855	44579
33.98668	41707
33.99480	38397
34.00292	39999
34.01105	41867
34.01917	41565
34.02730	43534
34.03542	42530
34.04353	39549
34.05167	38298
34.05978	42697
34.06790	40375
34.07603	40061
34.08415	40916
34.09228	45461
34.10040	42402
34.10852	40033
34.11665	42824
34.12477	40357
34.13290	41766
34.14102	40814
34.14913	42002
34.15727	43391
34.16538	44145
34.17352	42555
34.18163	44587
34.18975	43675
34.19788	40134
34.20600	43189
34.21412	41951
34.22225	42351
34.23037	42057
34.23850	41204
34.24662	43918
34.25473	41444
34.26287	40273
34.27098	41789
34.27912	42957
34.28723	46160
34.29535	44064
34.30348	47143
34.31160	42582
34.31972	40829
34.32785	46482
34.33597	40422
34.34410	44324
34.35222	43842
34.36033	45834
34.36847	43497
34.37658	43904
34.38472	45333
34.39283	40420
34.40095	43482
34.40908	42517
34.41720	43282
34.42533	42636
34.43345	41996
34.44157	40411
34.44970	40580
34.45782	42364
34.46593	43516
34.47407	41015
34.48218	42510
34.49032	40871
34.49843	44039
34.50655	46714
34.51468	55007
34.52280	67200
34.53093	76718
34.53905	76745
34.54717	86639
34.55530	87553
34.56342	88595
34.57153	89863
34.57967	89635
34.58778	80755
34.59592	76926
34.60403	70186
34.61215	66886
34.62028	69094
34.62840	62884
34.63653	57949
34.64465	60741
34.65277	57261
34.66090	57794
34.66902	52683
34.67715	55869
34.68527	54907
34.69338	51958
34.70152	48596
34.70963	51630
34.71775	50177
34.72588	48003
34.73400	56907
34.74213	50163
34.75025	50887
34.75837	51759
34.76650	50347
34.77462	50184
34.78275	49803
34.79087	48497
34.79898	47543
34.80712	45561
34.81523	50632
34.82337	43423
34.83148	46032
34.83960	45318
34.84773	49480
34.85585	46295
34.86397	44370
34.87210	44976
34.88022	44422
34.88835	48243
34.89647	46104
34.90458	48600
34.91272	50862
34.92083	50270
34.92897	50727
34.93708	51762
34.94520	50382
34.95333	55069
34.96145	59741
34.96958	54950
34.97770	61233
34.98582	55971
34.99395	55176
35.00207	50988
35.01018	50154
35.01832	49965
35.02643	48310
35.03457	46973
35.04268	49878
35.05080	44998
35.05893	47727
35.06705	47836
35.07518	43768
35.08330	46051
35.09142	43706
35.09955	45409
35.10767	47011
35.11578	48160
35.12392	48721
35.13203	44436
35.14017	48985
35.14828	43037
35.15640	50086
35.16453	46239
35.17265	51211
35.18078	48439
35.18890	49334
35.19702	49404
35.20515	45167
35.21327	42054
35.22140	42121
35.22952	44312
35.23763	41840
35.24577	43399
35.25388	50885
35.26200	47040
35.27013	46064
35.27825	45915
35.28638	46193
35.29450	44424
35.30262	44649
35.31075	42139
35.31887	41790
35.32700	45520
35.33512	41350
35.34323	46939
35.35137	42350
35.35948	44530
35.36760	42026
35.37573	38255
35.38385	45067
35.39198	45889
35.40010	43715
35.40822	41892
35.41635	41669
35.42447	48375
35.43260	46529
35.44072	45531
35.44883	47765
35.45697	48528
35.46508	48986
35.47322	45884
35.48133	47126
35.48945	48245
35.49758	50243
35.50570	43925
35.51382	46654
35.52195	47274
35.53007	48214
35.53820	44686
35.54632	47290
35.55443	43176
35.56257	46360
35.57068	46970
35.57882	45061
35.58693	46379
35.59505	46979
35.60318	46659
35.61130	46927
35.61943	46286
35.62755	48026
35.63567	48166
35.64380	46330
35.65192	45769
35.66003	46052
35.66817	49989
35.67628	48013
35.68442	47839
35.69253	48210
35.70065	46353
35.70878	45397
35.71690	43215
35.72503	45642
35.73315	50203
35.74127	46382
35.74940	51366
35.75752	51934
35.76563	50276
35.77377	54823
35.78188	49976
35.79002	51088
35.79813	48434
35.80625	47912
35.81438	45676
35.82250	44228
35.83063	45553
35.83875	47137
35.84687	46371
35.85500	44955
35.86312	45317
35.87125	44665
35.87937	46573
35.88748	43252
35.89562	45466
35.90373	44267
35.91185	46202
35.91998	44189
35.92810	49088
35.93623	41580
35.94435	44330
35.95247	42285
35.96060	45447
35.96872	46378
35.97685	46998
35.98497	47697
35.99308	43252
36.00122	46841
36.00933	47760
36.01747	50635
36.02558	50462
36.03370	50956
36.04183	47789
36.04995	48470
36.05807	53739
36.06620	47282
36.07432	48377
36.08245	50014
36.09057	46942
36.09868	45634
36.10682	47268
36.11493	46662
36.12307	49903
36.13118	49855
36.13930	48224
36.14743	48008
36.15555	47375
36.16367	48401
36.17180	48656
36.17992	45922
36.18805	43133
36.19617	45183
36.20428	44263
36.21242	44992
36.22053	46099
36.22867	43312
36.23678	42425
36.24490	47545
36.25303	46826
36.26115	46120
36.26928	44799
36.27740	49923
36.28552	54269
36.29365	54253
36.30177	57240
36.30988	60163
36.31802	58904
36.32613	56301
36.33427	54605
36.34238	49334
36.35050	48782
36.35863	51701
36.36675	51129
36.37488	55300
36.38300	50800
36.39112	48304
36.39925	48535
36.40737	45624
36.41548	49063
36.42362	52470
36.43173	46612
36.43987	45974
36.44798	48745
36.45610	49036
36.46423	50817
36.47235	49558
36.48048	48004
36.48860	50241
36.49672	53620
36.50485	50367
36.51297	46932
36.52110	46888
36.52922	48120
36.53733	55721
36.54547	50336
36.55358	55601
36.56170	55336
36.56983	54001
36.57795	51304
36.58608	51867
36.59420	51557
36.60232	56304
36.61045	54600
36.61857	54914
36.62670	55836
36.63482	58186
36.64293	53475
36.65107	54516
36.65918	55833
36.66732	53750
36.67543	56433
36.68355	52814
36.69168	57861
36.69980	53373
36.70792	51938
36.71605	49974
36.72417	52135
36.73230	53799
36.74042	51645
36.74853	52214
36.75667	54763
36.76478	51354
36.77292	52323
36.78103	52730
36.78915	51606
36.79728	52925
36.80540	52259
36.81352	54406
36.82165	52295
36.82977	52226
36.83790	53334
36.84602	50012
36.85413	48241
36.86227	49962
36.87038	49722
36.87852	54150
36.88663	51486
36.89475	53668
36.90288	54667
36.91100	53406
36.91913	53300
36.92725	54363
36.93537	55632
36.94350	58006
36.95162	59179
36.95973	62990
36.96787	60593
36.97598	60022
36.98412	60076
36.99223	60087
37.00035	57067
37.00848	59370
37.01660	55801
37.02473	50006
37.03285	52462
37.04097	52572
37.04910	52852
37.05722	50970
37.06535	52504
37.07347	54755
37.08158	48670
37.08972	49279
37.09783	51250
37.10595	57480
37.11408	52620
37.12220	51962
37.13033	50583
37.13845	58364
37.14657	51243
37.15470	50611
37.16282	53754
37.17095	57193
37.17907	52384
37.18718	50736
37.19532	53703
37.20343	52328
37.21155	52600
37.21968	52322
37.22780	50448
37.23593	51121
37.24405	52399
37.25217	49475
37.26030	49224
37.26842	50378
37.27655	53914
37.28467	56302
37.29278	52236
37.30092	53831
37.30903	55671
37.31717	59070
37.32528	69581
37.33340	74474
37.34153	82499
37.34965	88988
37.35777	84377
37.36590	87699
37.37402	83553
37.38215	79642
37.39027	78965
37.39838	72757
37.40652	70242
37.41463	64157
37.42277	72960
37.43088	65479
37.43900	69124
37.44713	63810
37.45525	60217
37.46337	60119
37.47150	61528
37.47962	64352
37.48775	63307
