Z:\data\JTB-E02\BACandBLUE\JTB-E02-194-08.D Thu Dec 20 09:30:18 2018
Start of data points
2.09538,76911
2.10350,78252
2.11162,72555
2.11975,76210
2.12787,74823
2.13600,75339
2.14412,74652
2.15223,73752
2.16037,74000
2.16848,68669
2.17662,70688
2.18473,64911
2.19285,72783
2.20098,67574
2.20910,62892
2.21722,64060
2.22535,72787
2.23347,63923
2.24160,65528
2.24972,64319
2.25783,97422
2.26597,762322
2.27408,2723808
2.28222,2455261
2.29033,1094462
2.29845,637850
2.30658,471018
2.31470,398723
2.32282,352140
2.33095,318534
2.33907,288982
2.34720,260304
2.35532,235842
2.36343,220782
2.37157,209498
2.37968,211287
2.38782,203396
2.39593,200792
2.40405,221096
2.41218,221902
2.42030,308976
2.42843,245719
2.43655,202075
2.44467,190257
2.45280,176443
2.46092,160921
2.46903,143655
2.47717,145947
2.48528,138286
2.49342,138329
2.50153,130479
2.50965,133279
2.51778,132141
2.52590,133587
2.53403,122684
2.54215,130091
2.55027,136199
2.55840,158502
2.56652,143038
2.57465,118517
2.58277,121738
2.59088,111306
2.59902,117631
2.60713,123152
2.61525,134870
2.62338,127633
2.63150,121221
2.63963,116665
2.64775,112969
2.65587,110022
2.66400,110788
2.67212,106597
2.68025,106655
2.68837,103137
2.69648,102106
2.70462,101063
2.71273,102165
2.72085,97094
2.72898,100264
2.73710,99604
2.74523,96432
2.75335,91907
2.76147,95619
2.76960,91124
2.77772,93794
2.78585,96448
2.79397,99326
2.80208,97892
2.81022,98445
2.81833,93966
2.82647,99274
2.83458,88483
2.84270,94536
2.85083,94296
2.85895,92004
2.86707,92853
2.87520,90179
2.88332,89733
2.89145,91364
2.89957,83779
2.90768,87036
2.91582,84085
2.92393,85626
2.93207,82921
2.94018,85566
2.94830,84437
2.95643,83164
2.96455,86351
2.97268,92237
2.98080,84536
2.98892,89141
2.99705,84843
3.00517,86395
3.01328,85493
3.02142,82686
3.02953,85082
3.03767,80977
3.04578,80623
3.05390,77627
3.06203,84664
3.07015,83040
3.07828,76782
3.08640,81280
3.09452,79679
3.10265,85916
3.11077,103872
3.11888,106639
3.12702,95791
3.13513,89302
3.14327,88385
3.15138,85165
3.15950,88549
3.16763,84600
3.17575,78702
3.18388,79417
3.19200,83102
3.20012,83054
3.20825,85280
3.21637,83180
3.22450,78175
3.23262,76369
3.24073,80701
3.24887,82551
3.25698,76598
3.26510,80016
3.27323,77773
3.28135,91727
3.28948,237587
3.29760,1078520
3.30572,3607839
3.31385,6827923
3.32197,7858937
3.33010,6479509
3.33822,4654387
3.34633,3356931
3.35447,2642678
3.36258,2145959
3.37072,1843332
3.37883,1604554
3.38695,1455751
3.39508,1319915
3.40320,1200221
3.41132,1120521
3.41945,1032181
3.42757,943317
3.43570,865423
3.44382,789022
3.45193,742547
3.46007,699902
3.46818,616055
3.47632,590846
3.48443,561864
3.49255,538640
3.50068,515370
3.50880,486434
3.51692,461909
3.52505,451863
3.53317,432586
3.54130,413449
3.54942,401085
3.55753,400498
3.56567,401092
3.57378,390799
3.58192,379297
3.59003,381937
3.59815,380827
3.60628,362429
3.61440,349383
3.62253,333844
3.63065,329287
3.63877,322989
3.64690,306276
3.65502,298017
3.66313,282986
3.67127,278600
3.67938,292083
3.68752,320441
3.69563,320697
3.70375,322550
3.71188,311326
3.72000,305429
3.72813,295944
3.73625,286351
3.74437,294151
3.75250,286409
3.76062,281884
3.76873,280747
3.77687,274652
3.78498,277685
3.79312,276413
3.80123,263282
3.80935,262093
3.81748,259534
3.82560,268139
3.83373,254978
3.84185,262605
3.84997,249309
3.85810,244092
3.86622,251017
3.87435,233864
3.88247,238697
3.89058,242969
3.89872,238320
3.90683,225125
3.91495,231198
3.92308,227467
3.93120,224264
3.93933,218810
3.94745,215693
3.95557,221247
3.96370,215601
3.97182,221597
3.97995,218743
3.98807,209469
3.99618,211198
4.00432,204821
4.01243,213492
4.02057,207793
4.02868,210840
4.03680,207108
4.04493,204559
4.05305,198132
4.06117,205198
4.06930,204986
4.07742,190581
4.08555,190489
4.09367,191783
4.10178,190756
4.10992,191402
4.11803,187914
4.12617,186376
4.13428,195955
4.14240,238710
4.15053,315359
4.15865,359801
4.16677,321064
4.17490,255147
4.18302,216070
4.19115,203809
4.19927,197156
4.20738,185123
4.21552,193439
4.22363,200564
4.23177,247966
4.23988,292665
4.24800,322011
4.25613,299132
4.26425,262167
4.27238,256562
4.28050,244072
4.28862,226030
4.29675,211430
4.30487,201399
4.31298,198370
4.32112,205177
4.32923,206863
4.33737,207894
4.34548,198773
4.35360,194399
4.36173,198473
4.36985,189683
4.37798,190549
4.38610,192067
4.39422,193491
4.40235,182113
4.41047,174222
4.41860,177056
4.42672,177848
4.43483,177870
4.44297,168042
4.45108,173295
4.45920,174806
4.46733,169516
4.47545,168134
4.48358,162463
4.49170,168424
4.49982,168913
4.50795,159650
4.51607,166432
4.52420,158268
4.53232,165096
4.54043,157004
4.54857,164895
4.55668,154083
4.56480,155176
4.57293,154880
4.58105,158086
4.58918,157965
4.59730,159347
4.60542,157518
4.61355,152942
4.62167,147246
4.62980,152086
4.63792,155326
4.64603,149361
4.65417,153992
4.66228,154744
4.67042,150724
4.67853,155011
4.68665,149629
4.69478,150069
4.70290,148422
4.71102,143637
4.71915,143505
4.72727,147495
4.73540,141138
4.74352,151315
4.75163,143965
4.75977,142300
4.76788,150963
4.77602,148317
4.78413,142324
4.79225,143590
4.80038,141883
4.80850,141704
4.81662,142182
4.82475,137477
4.83287,147172
4.84100,144237
4.84912,147574
4.85723,140508
4.86537,141347
4.87348,144397
4.88162,146587
4.88973,148407
4.89785,140365
4.90598,138796
4.91410,141493
4.92223,140656
4.93035,135922
4.93847,150414
4.94660,189280
4.95472,360391
4.96283,868464
4.97097,1704452
4.97908,2585505
4.98722,2978885
4.99533,2693084
5.00345,2149858
5.01158,1658367
5.01970,1343824
5.02783,1147649
5.03595,977550
5.04407,872846
5.05220,791600
5.06032,710870
5.06845,639217
5.07657,590263
5.08468,538168
5.09282,520876
5.10093,483926
5.10905,463772
5.11718,453209
5.12530,434109
5.13343,428637
5.14155,415740
5.14967,403068
5.15780,391321
5.16592,373396
5.17405,364795
5.18217,355096
5.19028,340857
5.19842,332599
5.20653,332772
5.21465,323078
5.22278,324446
5.23090,305381
5.23903,313309
5.24715,318536
5.25527,312436
5.26340,310868
5.27152,299889
5.27965,269919
5.28777,285589
5.29588,271777
5.30402,271114
5.31213,259582
5.32027,254327
5.32838,253372
5.33650,254572
5.34463,248805
5.35275,244998
5.36087,247895
5.36900,238934
5.37712,240261
5.38525,236141
5.39337,234576
5.40148,229241
5.40962,230710
5.41773,225926
5.42587,214630
5.43398,227530
5.44210,208844
5.45023,220925
5.45835,215737
5.46648,211572
5.47460,204384
5.48272,211946
5.49085,204332
5.49897,205504
5.50708,205402
5.51522,204248
5.52333,204672
5.53147,196438
5.53958,195441
5.54770,189907
5.55583,195894
5.56395,191938
5.57208,198156
5.58020,195352
5.58832,191327
5.59645,195256
5.60457,200593
5.61268,197960
5.62082,195631
5.62893,200352
5.63707,201065
5.64518,196778
5.65330,197120
5.66143,200664
5.66955,187765
5.67768,193996
5.68580,192837
5.69392,215566
5.70205,239183
5.71017,240162
5.71830,235608
5.72642,209550
5.73453,196798
5.74267,187264
5.75078,186576
5.75890,175697
5.76703,180140
5.77515,170621
5.78328,165652
5.79140,174475
5.79952,172320
5.80765,173354
5.81577,174057
5.82390,173487
5.83202,172013
5.84013,167138
5.84827,166629
5.85638,165655
5.86450,162890
5.87263,171927
5.88075,166547
5.88888,165988
5.89700,160596
5.90512,155881
5.91325,161978
5.92137,146066
5.92950,127312
5.93762,128494
5.94573,124267
5.95387,121993
5.96198,124406
5.97012,123905
5.97823,132201
5.98635,139908
5.99448,143947
6.00260,142178
6.01072,144103
6.01885,137649
6.02697,129308
6.03510,125422
6.04322,124922
6.05133,126298
6.05947,124983
6.06758,127077
6.07572,119100
6.08383,123609
6.09195,119998
6.10008,117161
6.10820,118328
6.11633,113094
6.12445,118904
6.13257,120052
6.14070,123334
6.14882,121263
6.15693,128300
6.16507,127602
6.17318,133295
6.18132,133202
6.18943,137363
6.19755,134199
6.20568,131699
6.21380,129731
6.22193,128622
6.23005,128880
6.23817,136661
6.24630,135659
6.25442,135233
6.26255,138869
6.27067,135336
6.27878,140921
6.28692,141914
6.29503,136952
6.30315,146122
6.31128,140035
6.31940,147117
6.32753,151857
6.33565,153766
6.34377,152832
6.35190,155280
6.36002,156668
6.36815,159053
6.37627,155437
6.38438,170034
6.39252,163156
6.40063,162921
6.40875,168472
6.41688,173958
6.42500,177656
6.43313,174659
6.44125,177193
6.44937,187146
6.45750,180489
6.46562,187057
6.47375,199559
6.48187,199635
6.48998,191763
6.49812,191239
6.50623,199899
6.51437,192812
6.52248,188800
6.53060,192269
6.53873,153542
6.54685,149352
6.55497,140699
6.56310,137955
6.57122,134730
6.57935,130224
6.58747,129839
6.59558,122745
6.60372,126778
6.61183,125308
6.61997,121750
6.62808,119040
6.63620,121016
6.64433,120195
6.65245,125224
6.66057,114080
6.66870,118892
6.67682,116248
6.68495,113909
6.69307,113126
6.70118,116223
6.70932,110005
6.71743,110706
6.72557,113203
6.73368,111610
6.74180,114460
6.74993,110150
6.75805,108229
6.76618,102257
6.77430,111851
6.78242,105079
6.79055,105809
6.79867,109389
6.80678,105038
6.81492,111365
6.82303,108237
6.83117,110136
6.83928,102905
6.84740,103100
6.85553,103924
6.86365,95109
6.87178,96058
6.87990,84452
6.88802,91476
6.89615,93911
6.90427,102035
6.91240,91234
6.92052,84364
6.92863,85440
6.93677,75384
6.94488,71545
6.95300,73703
6.96113,75549
6.96925,72467
6.97738,74988
6.98550,70402
6.99362,75188
7.00175,73802
7.00987,69885
7.01800,71054
7.02612,74835
7.03423,76620
7.04237,67854
7.05048,72396
7.05860,74116
7.06673,76327
7.07485,74680
7.08298,69895
7.09110,70022
7.09922,72555
7.10735,69098
7.11547,67206
7.12360,71802
7.13172,67836
7.13983,69793
7.14797,67690
7.15608,68812
7.16422,70753
7.17233,71634
7.18045,69312
7.18858,78095
7.19670,80189
7.20482,78048
7.21295,80718
7.22107,76247
7.22920,69863
7.23732,74703
7.24543,72007
7.25357,69025
7.26168,69182
7.26982,68519
7.27793,70321
7.28605,67837
7.29418,73565
7.30230,69999
7.31043,66317
7.31855,66964
7.32667,66969
7.33480,66322
7.34292,63547
7.35103,66581
7.35917,66526
7.36728,67990
7.37542,67390
7.38353,63593
7.39165,65902
7.39978,67679
7.40790,62872
7.41603,70236
7.42415,68334
7.43227,70135
7.44040,67539
7.44852,72152
7.45663,68131
7.46477,71354
7.47288,79765
7.48102,72679
7.48913,69418
7.49725,68802
7.50538,66876
7.51350,68083
7.52163,66731
7.52975,70649
7.53787,68390
7.54600,60531
7.55412,68164
7.56225,67076
7.57037,64112
7.57848,68211
7.58662,67700
7.59473,70544
7.60285,67015
7.61098,59721
7.61910,66077
7.62723,64162
7.63535,62962
7.64347,65976
7.65160,65366
7.65972,66283
7.66785,69986
7.67597,64743
7.68408,67724
7.69222,66635
7.70033,61269
7.70845,63573
7.71658,67835
7.72470,62475
7.73283,64851
7.74095,60482
7.74907,66568
7.75720,68621
7.76532,61439
7.77345,62825
7.78157,64612
7.78968,62444
7.79782,70153
7.80593,64165
7.81407,63834
7.82218,64473
7.83030,61358
7.83843,66587
7.84655,61450
7.85467,61263
7.86280,62809
7.87092,58928
7.87905,60773
7.88717,65804
7.89528,60808
7.90342,62367
7.91153,60123
7.91967,60865
7.92778,57429
7.93590,60341
7.94403,58744
7.95215,60280
7.96028,63617
7.96840,60167
7.97652,56909
7.98465,61821
7.99277,58666
8.00088,60092
8.00902,61922
8.01713,59280
8.02527,62019
8.03338,59881
8.04150,56753
8.04963,58861
8.05775,57855
8.06588,60891
8.07400,54440
8.08212,62367
8.09025,58110
8.09837,55343
8.10648,54372
8.11462,56885
8.12273,60745
8.13087,60676
8.13898,61274
8.14710,60148
8.15523,55498
8.16335,59128
8.17148,57690
8.17960,60495
8.18772,57893
8.19585,62472
8.20397,64024
8.21210,64465
8.22022,62341
8.22833,57098
8.23647,59990
8.24458,59099
8.25270,56248
8.26083,58251
8.26895,59291
8.27708,61491
8.28520,56332
8.29332,61893
8.30145,57456
8.30957,57538
8.31770,58032
8.32582,58147
8.33393,57382
8.34207,59408
8.35018,60758
8.35832,62962
8.36643,65588
8.37455,63480
8.38268,67670
8.39080,62600
8.39892,60976
8.40705,62258
8.41517,58344
8.42330,60293
8.43142,56273
8.43953,59961
8.44767,60189
8.45578,59911
8.46392,59144
8.47203,57924
8.48015,57646
8.48828,61771
8.49640,55172
8.50452,56702
8.51265,61162
8.52077,60184
8.52890,61506
8.53702,62819
8.54513,64014
8.55327,66757
8.56138,68134
8.56952,64899
8.57763,62975
8.58575,65158
8.59388,63254
8.60200,57063
8.61013,58298
8.61825,54646
8.62637,58474
8.63450,55833
8.64262,56501
8.65073,58444
8.65887,56709
8.66698,52239
8.67512,58202
8.68323,58740
8.69135,55066
8.69948,59014
8.70760,57552
8.71573,55899
8.72385,54031
8.73197,53689
8.74010,57993
8.74822,55427
8.75635,59035
8.76447,56989
8.77258,51531
8.78072,57852
8.78883,70680
8.79695,113578
8.80508,201436
8.81320,365633
8.82133,540612
8.82945,684427
8.83757,686087
8.84570,589874
8.85382,510724
8.86195,435426
8.87007,374232
8.87818,330211
8.88632,294925
8.89443,268042
8.90255,239546
8.91068,219159
8.91880,216499
8.92693,200496
8.93505,185349
8.94317,183690
8.95130,176884
8.95942,167171
8.96755,164096
8.97567,158387
8.98378,153045
8.99192,152244
9.00003,145956
9.00817,140423
9.01628,134207
9.02440,134547
9.03253,128023
9.04065,140455
9.04877,129762
9.05690,125889
9.06502,126477
9.07315,119670
9.08127,118831
9.08938,118523
9.09752,117773
9.10563,119799
9.11377,113913
9.12188,115014
9.13000,109960
9.13813,111696
9.14625,107462
9.15437,114003
9.16250,111457
9.17062,106812
9.17875,108031
9.18687,110523
9.19498,114397
9.20312,110212
9.21123,118666
9.21937,112860
9.22748,107187
9.23560,108880
9.24373,108821
9.25185,107734
9.25998,102480
9.26810,99813
9.27622,104378
9.28435,101678
9.29247,103426
9.30058,97090
9.30872,98947
9.31683,101516
9.32497,95485
9.33308,98495
9.34120,86087
9.34933,92071
9.35745,93320
9.36558,95174
9.37370,89583
9.38182,93546
9.38995,87224
9.39807,94058
9.40620,88955
9.41432,88362
9.42243,86138
9.43057,86847
9.43868,87657
9.44680,88786
9.45493,87022
9.46305,84518
9.47118,81564
9.47930,77739
9.48742,83807
9.49555,83754
9.50367,84669
9.51180,83736
9.51992,84923
9.52803,83439
9.53617,84411
9.54428,83975
9.55240,90234
9.56053,86781
9.56865,87389
9.57678,78098
9.58490,75552
9.59302,74663
9.60115,68175
9.60927,73013
9.61740,72654
9.62552,71972
9.63363,76517
9.64177,70368
9.64988,72408
9.65802,60617
9.66613,66679
9.67425,62242
9.68238,66040
9.69050,59287
9.69862,59098
9.70675,59186
9.71487,54675
9.72300,55820
9.73112,57883
9.73923,55660
9.74737,53554
9.75548,62296
9.76362,58731
9.77173,55604
9.77985,56432
9.78798,59661
9.79610,57304
9.80423,54737
9.81235,59389
9.82047,56885
9.82860,54966
9.83672,60118
9.84483,54191
9.85297,57710
9.86108,60280
9.86922,59422
9.87733,59580
9.88545,61384
9.89358,56466
9.90170,54970
9.90983,52067
9.91795,54072
9.92607,61863
9.93420,52269
9.94232,51449
9.95043,52184
9.95857,55455
9.96668,49222
9.97482,57908
9.98293,54677
9.99105,60871
9.99918,62673
10.00730,59832
10.01543,62774
10.02355,64577
10.03167,72442
10.03980,81291
10.04792,85003
10.05605,92633
10.06417,96040
10.07228,95191
10.08042,94282
10.08853,89770
10.09665,87168
10.10478,85143
10.11290,76181
10.12103,72432
10.12915,69430
10.13727,72392
10.14540,70310
10.15352,67798
10.16165,65773
10.16977,63103
10.17788,61027
10.18602,61199
10.19413,68070
10.20225,61953
10.21038,64890
10.21850,59415
10.22663,65122
10.23475,62069
10.24287,62452
10.25100,67710
10.25912,66072
10.26725,70125
10.27537,72262
10.28348,72374
10.29162,70336
10.29973,77340
10.30787,82472
10.31598,81669
10.32410,93554
10.33223,109678
10.34035,122913
10.34847,136301
10.35660,126095
10.36472,117447
10.37285,104822
10.38097,96290
10.38908,92675
10.39722,90473
10.40533,85065
10.41347,83078
10.42158,81810
10.42970,79461
10.43783,73974
10.44595,74125
10.45408,74099
10.46220,79735
10.47032,77859
10.47845,72225
10.48657,74366
10.49468,72123
10.50282,75539
10.51093,78832
10.51907,81857
10.52718,74444
10.53530,76670
10.54343,74607
10.55155,77746
10.55968,77000
10.56780,79339
10.57592,83162
10.58405,75282
10.59217,74411
10.60030,72324
10.60842,80697
10.61653,75295
10.62467,75943
10.63278,74005
10.64090,73048
10.64903,70798
10.65715,75733
10.66528,70480
10.67340,69265
10.68152,68478
10.68965,74480
10.69777,71012
10.70590,69409
10.71402,74940
10.72213,74168
10.73027,73816
10.73838,76635
10.74650,74602
10.75463,72060
10.76275,73124
10.77088,68225
10.77900,71153
10.78712,71985
10.79525,70370
10.80337,69089
10.81150,67669
10.81962,67023
10.82773,66650
10.83587,68487
10.84398,71029
10.85212,70811
10.86023,71225
10.86835,67774
10.87648,64358
10.88460,64355
10.89272,65880
10.90085,68956
10.90897,63384
10.91710,60695
10.92522,63584
10.93333,61407
10.94147,64276
10.94958,66556
10.95772,74102
10.96583,64344
10.97395,68084
10.98208,69659
10.99020,69100
10.99832,69881
11.00645,66335
11.01457,67254
11.02270,70985
11.03082,66352
11.03893,70416
11.04707,61309
11.05518,61816
11.06332,62195
11.07143,64643
11.07955,64123
11.08768,59928
11.09580,62535
11.10393,58359
11.11205,60189
11.12017,57276
11.12830,57800
11.13642,57225
11.14453,51351
11.15267,54999
11.16078,53574
11.16892,57426
11.17703,54877
11.18515,54862
11.19328,59533
11.20140,63377
11.20953,69884
11.21765,82735
11.22577,85775
11.23390,88593
11.24202,87331
11.25013,79398
11.25827,71897
11.26638,70470
11.27452,62606
11.28263,57046
11.29075,55335
11.29888,55659
11.30700,58208
11.31513,54561
11.32325,56397
11.33137,52043
11.33950,59962
11.34762,54239
11.35575,56503
11.36387,52811
11.37198,51518
11.38012,54192
11.38823,56840
11.39635,56722
11.40448,57921
11.41260,59982
11.42073,54912
11.42885,53776
11.43697,56161
11.44510,55195
11.45322,51388
11.46135,52508
11.46947,57201
11.47758,53954
11.48572,49627
11.49383,48459
11.50197,50844
11.51008,54075
11.51820,49915
11.52633,51302
11.53445,48186
11.54257,51678
11.55070,50208
11.55882,52187
11.56695,50567
11.57507,47484
11.58318,48617
11.59132,52665
11.59943,52167
11.60757,56638
11.61568,50840
11.62380,54599
11.63193,50938
11.64005,53620
11.64818,59164
11.65630,57523
11.66442,53908
11.67255,52589
11.68067,52871
11.68878,50985
11.69692,48888
11.70503,48958
11.71317,51379
11.72128,48794
11.72940,53022
11.73753,51609
11.74565,56217
11.75378,55509
11.76190,53244
11.77002,52725
11.77815,51546
11.78627,56541
11.79438,54436
11.80252,56973
11.81063,54223
11.81877,55494
11.82688,58277
11.83500,55472
11.84313,54026
11.85125,54079
11.85938,52755
11.86750,49680
11.87562,55210
11.88375,55932
11.89187,53897
11.90000,52789
11.90812,52270
11.91623,53878
11.92437,52418
11.93248,48244
11.94060,49423
11.94873,50205
11.95685,48736
11.96498,48975
11.97310,53793
11.98122,54832
11.98935,49352
11.99747,52880
12.00560,49764
12.01372,51789
12.02183,52382
12.02997,50123
12.03808,48878
12.04620,52326
12.05433,49675
12.06245,53988
12.07058,45822
12.07870,49054
12.08682,45198
12.09495,48807
12.10307,49418
12.11120,48745
12.11932,48760
12.12743,50248
12.13557,46117
12.14368,49689
12.15182,46879
12.15993,50306
12.16805,54415
12.17618,56361
12.18430,58526
12.19242,62417
12.20055,66211
12.20867,70999
12.21680,70983
12.22492,71824
12.23303,72007
12.24117,70164
12.24928,69416
12.25742,67924
12.26553,68592
12.27365,68338
12.28178,67554
12.28990,67886
12.29803,65917
12.30615,65572
12.31427,63539
12.32240,69960
12.33052,62653
12.33863,66998
12.34677,63245
12.35488,60383
12.36302,64363
12.37113,62490
12.37925,65372
12.38738,62030
12.39550,62814
12.40363,64480
12.41175,61966
12.41987,63466
12.42800,63167
12.43612,59934
12.44423,62894
12.45237,65760
12.46048,65361
12.46862,68056
12.47673,65517
12.48485,71016
12.49298,65509
12.50110,64605
12.50923,62092
12.51735,60061
12.52547,58601
12.53360,61517
12.54172,59086
12.54985,62202
12.55797,61782
12.56608,60378
12.57422,59057
12.58233,58626
12.59045,59340
12.59858,59303
12.60670,58998
12.61483,56038
12.62295,59221
12.63107,58085
12.63920,55697
12.64732,56281
12.65545,57244
12.66357,59776
12.67168,59155
12.67982,59932
12.68793,56880
12.69607,57519
12.70418,51478
12.71230,53035
12.72043,55164
12.72855,54402
12.73667,59622
12.74480,66757
12.75292,65836
12.76105,70400
12.76917,80106
12.77728,73430
12.78542,70384
12.79353,69342
12.80167,63578
12.80978,60450
12.81790,61630
12.82603,57509
12.83415,53400
12.84227,56806
12.85040,50003
12.85852,51452
12.86665,51670
12.87477,47341
12.88288,46547
12.89102,45901
12.89913,48260
12.90727,45004
12.91538,50837
12.92350,46252
12.93163,48500
12.93975,44284
12.94788,44793
12.95600,45537
12.96412,45579
12.97225,47825
12.98037,46668
12.98848,50597
12.99662,53314
13.00473,44851
13.01287,45384
13.02098,46588
13.02910,48269
13.03723,50275
13.04535,44009
13.05348,47678
13.06160,47582
13.06972,45453
13.07785,48246
13.08597,42132
13.09408,45942
13.10222,43082
13.11033,47829
13.11847,45668
13.12658,45296
13.13470,47648
13.14283,47144
13.15095,46086
13.15908,44965
13.16720,49979
13.17532,49029
13.18345,52498
13.19157,49062
13.19970,46674
13.20782,46081
13.21593,47015
13.22407,55053
13.23218,57822
13.24030,60208
13.24843,61200
13.25655,58927
13.26468,55481
13.27280,51677
13.28092,48865
13.28905,51059
13.29717,45688
13.30530,46854
13.31342,50523
13.32153,46541
13.32967,49270
13.33778,47052
13.34592,47917
13.35403,48512
13.36215,46410
13.37028,44956
13.37840,43467
13.38652,48045
13.39465,44911
13.40277,46924
13.41090,47627
13.41902,46278
13.42713,49467
13.43527,40590
13.44338,47180
13.45152,40850
13.45963,45862
13.46775,45620
13.47588,45685
13.48400,47777
13.49212,48333
13.50025,45605
13.50837,48348
13.51650,48248
13.52462,49445
13.53273,46461
13.54087,46648
13.54898,46660
13.55712,43896
13.56523,44027
13.57335,48097
13.58148,45589
13.58960,46713
13.59773,42503
13.60585,48811
13.61397,41762
13.62210,42156
13.63022,38994
13.63833,42143
13.64647,42225
13.65458,46919
13.66272,47136
13.67083,44321
13.67895,41159
13.68708,44097
13.69520,46708
13.70333,41706
13.71145,43638
13.71957,43486
13.72770,41976
13.73582,40546
13.74395,44568
13.75207,41036
13.76018,44096
13.76832,39411
13.77643,41856
13.78455,42276
13.79268,44383
13.80080,45950
13.80893,47872
13.81705,45829
13.82517,47350
13.83330,44472
13.84142,43538
13.84955,49581
13.85767,46766
13.86578,47219
13.87392,46269
13.88203,46559
13.89015,55195
13.89828,48896
13.90640,45493
13.91453,44444
13.92265,45737
13.93077,48526
13.93890,51504
13.94702,52964
13.95515,49684
13.96327,56691
13.97138,53384
13.97952,53021
13.98763,53936
13.99577,50083
14.00388,51973
14.01200,48938
14.02013,51813
14.02825,47630
14.03637,49115
14.04450,48300
14.05262,43902
14.06075,50544
14.06887,45928
14.07698,51427
14.08512,50015
14.09323,51048
14.10137,54266
14.10948,52752
14.11760,58424
14.12573,50459
14.13385,51179
14.14198,53435
14.15010,51140
14.15822,49740
14.16635,50976
14.17447,47424
14.18258,53310
14.19072,50290
14.19883,53643
14.20697,57296
14.21508,75006
14.22320,114589
14.23133,166826
14.23945,222271
14.24758,259746
14.25570,262726
14.26382,237132
14.27195,200962
14.28007,176618
14.28818,158957
14.29632,140605
14.30443,125582
14.31257,121992
14.32068,106619
14.32880,101167
14.33693,101223
14.34505,95516
14.35318,96275
14.36130,88532
14.36942,85398
14.37755,78280
14.38567,70941
14.39380,62383
14.40192,61502
14.41003,57222
14.41817,53930
14.42628,52146
14.43440,54171
14.44253,52348
14.45065,53227
14.45878,52756
14.46690,51036
14.47502,52342
14.48315,56543
14.49127,50235
14.49940,51869
14.50752,56188
14.51563,56283
14.52377,50430
14.53188,54060
14.54000,51118
14.54813,51409
14.55625,56411
14.56438,49698
14.57250,56354
14.58062,54061
14.58875,51649
14.59687,48152
14.60500,51855
14.61312,52636
14.62123,47959
14.62937,53479
14.63748,49811
14.64562,49301
14.65373,48597
14.66185,48071
14.66998,43231
14.67810,45702
14.68622,46682
14.69435,50706
14.70247,46048
14.71060,44564
14.71872,44628
14.72683,43779
14.73497,45809
14.74308,47972
14.75122,46034
14.75933,45313
14.76745,48643
14.77558,46153
14.78370,48391
14.79183,46479
14.79995,46499
14.80807,49998
14.81620,49953
14.82432,52531
14.83243,69088
14.84057,90492
14.84868,122543
14.85682,164550
14.86493,196584
14.87305,222083
14.88118,231282
14.88930,229471
14.89743,225742
14.90555,211911
14.91367,202987
14.92180,193920
14.92992,185569
14.93803,174594
14.94617,170583
14.95428,168642
14.96242,162631
14.97053,153926
14.97865,159939
14.98678,147072
14.99490,143955
15.00303,141126
15.01115,140126
15.01927,142339
15.02740,133719
15.03552,130834
15.04365,121056
15.05177,119554
15.05988,118636
15.06802,120015
15.07613,118405
15.08425,115572
15.09238,114832
15.10050,109958
15.10863,105255
15.11675,101726
15.12487,109249
15.13300,104087
15.14112,102649
15.14925,100495
15.15737,95177
15.16548,104632
15.17362,87214
15.18173,77065
15.18987,73790
15.19798,73579
15.20610,63426
15.21423,60097
15.22235,62590
15.23047,59058
15.23860,59927
15.24672,56702
15.25485,58363
15.26297,58991
15.27108,57967
15.27922,62132
15.28733,56158
15.29547,60067
15.30358,57561
15.31170,55615
15.31983,54487
15.32795,59014
15.33607,52682
15.34420,54738
15.35232,51329
15.36045,56199
15.36857,59939
15.37668,55246
15.38482,52715
15.39293,50525
15.40107,52882
15.40918,54379
15.41730,55025
15.42543,56949
15.43355,55797
15.44168,54592
15.44980,51639
15.45792,54571
15.46605,52005
15.47417,54403
15.48228,50551
15.49042,55422
15.49853,50698
15.50667,55445
15.51478,57193
15.52290,55692
15.53103,59276
15.53915,55740
15.54728,62414
15.55540,60339
15.56352,54378
15.57165,54192
15.57977,56168
15.58788,51338
15.59602,55060
15.60413,49237
15.61227,51939
15.62038,53693
15.62850,48651
15.63663,50748
15.64475,53355
15.65288,51425
15.66100,50935
15.66912,52996
15.67725,47685
15.68537,50186
15.69350,49326
15.70162,46348
15.70973,52685
15.71787,49299
15.72598,46126
15.73410,45987
15.74223,45648
15.75035,48701
15.75848,45032
15.76660,47277
15.77472,48446
15.78285,49911
15.79097,52022
15.79910,52556
15.80722,55274
15.81533,62293
15.82347,62454
15.83158,60539
15.83972,60282
15.84783,58252
15.85595,65298
15.86408,64855
15.87220,59361
15.88032,57110
15.88845,56036
15.89657,56926
15.90470,58684
15.91282,56252
15.92093,55191
15.92907,53372
15.93718,55526
15.94532,58877
15.95343,56094
15.96155,61662
15.96968,56432
15.97780,55683
15.98593,58276
15.99405,56812
16.00217,49797
16.01030,58243
16.01842,64229
16.02653,65797
16.03467,80655
16.04278,91479
16.05092,108388
16.05903,108088
16.06715,110140
16.07528,99133
16.08340,91871
16.09153,74567
16.09965,70480
16.10777,61388
16.11590,60328
16.12402,60555
16.13213,58597
16.14027,55308
16.14838,58392
16.15652,52706
16.16463,54142
16.17275,51985
16.18088,50774
16.18900,50227
16.19713,55040
16.20525,50229
16.21337,54084
16.22150,51227
16.22962,58284
16.23775,49891
16.24587,49283
16.25398,52941
16.26212,50944
16.27023,54288
16.27835,53665
16.28648,54647
16.29460,57437
16.30273,53589
16.31085,51274
16.31897,51820
16.32710,53088
16.33522,56176
16.34335,48935
16.35147,52193
16.35958,57414
16.36772,55836
16.37583,53572
16.38395,55219
16.39208,56944
16.40020,54651
16.40833,52552
16.41645,50618
16.42457,57747
16.43270,52617
16.44082,53886
16.44895,50332
16.45707,50539
16.46518,47827
16.47332,52085
16.48143,54714
16.48957,62759
16.49768,67436
16.50580,76707
16.51393,81087
16.52205,84281
16.53017,87941
16.53830,86557
16.54642,89564
16.55455,82768
16.56267,82634
16.57078,80363
16.57892,71914
16.58703,75407
16.59517,67591
16.60328,71268
16.61140,67953
16.61953,68346
16.62765,68385
16.63578,70164
16.64390,65017
16.65202,64388
16.66015,61619
16.66827,60596
16.67638,61185
16.68452,65040
16.69263,59327
16.70077,62040
16.70888,58484
16.71700,58286
16.72513,60617
16.73325,53520
16.74138,54206
16.74950,50405
16.75762,48143
16.76575,54826
16.77387,45144
16.78198,45369
16.79012,51722
16.79823,47115
16.80637,50165
16.81448,58334
16.82260,46936
16.83073,51753
16.83885,47303
16.84698,48189
16.85510,48596
16.86322,49995
16.87135,47827
16.87947,52525
16.88760,46551
16.89572,46325
16.90383,51132
16.91197,48900
16.92008,46826
16.92820,50687
16.93633,44956
16.94445,46157
16.95258,49089
16.96070,47149
16.96882,48695
16.97695,45151
16.98507,50202
16.99320,48021
17.00132,49725
17.00943,44957
17.01757,44789
17.02568,43908
17.03382,46610
17.04193,45851
17.05005,45644
17.05818,46436
17.06630,49948
17.07442,51002
17.08255,45166
17.09067,44631
17.09880,42920
17.10692,47652
17.11503,49430
17.12317,50136
17.13128,47783
17.13942,49026
17.14753,46478
17.15565,50398
17.16378,50728
17.17190,48475
17.18002,45402
17.18815,48235
17.19627,46006
17.20440,48558
17.21252,46679
17.22063,48275
17.22877,45233
17.23688,48638
17.24502,49693
17.25313,45052
17.26125,45449
17.26938,44792
17.27750,42345
17.28563,47109
17.29375,44769
17.30187,48400
17.31000,47559
17.31812,46127
17.32623,40615
17.33437,47344
17.34248,52240
17.35062,45115
17.35873,50044
17.36685,53894
17.37498,58394
17.38310,70931
17.39123,69343
17.39935,73241
17.40747,78649
17.41560,73096
17.42372,75806
17.43183,68004
17.43997,71571
17.44808,66225
17.45622,63571
17.46433,62727
17.47245,59994
17.48058,69819
17.48870,58420
17.49683,60674
17.50495,62375
17.51307,64844
17.52120,61800
17.52932,68305
17.53745,65382
17.54557,61340
17.55368,61321
17.56182,58620
17.56993,64015
17.57805,61026
17.58618,57970
17.59430,56463
17.60243,56775
17.61055,55458
17.61867,53386
17.62680,55225
17.63492,53512
17.64305,54953
17.65117,53542
17.65928,52898
17.66742,52785
17.67553,57904
17.68367,53058
17.69178,50748
17.69990,55343
17.70803,57755
17.71615,54717
17.72427,56080
17.73240,59153
17.74052,61743
17.74865,61384
17.75677,58685
17.76488,52631
17.77302,55237
17.78113,58832
17.78927,56561
17.79738,51354
17.80550,54116
17.81363,54501
17.82175,54177
17.82987,51174
17.83800,51508
17.84612,48028
17.85425,49057
17.86237,55336
17.87048,49609
17.87862,51352
17.88673,52334
17.89487,50884
17.90298,49497
17.91110,45554
17.91923,49796
17.92735,50189
17.93548,45989
17.94360,49316
17.95172,48605
17.95985,45731
17.96797,45047
17.97608,45782
17.98422,44030
17.99233,44443
18.00047,47864
18.00858,45088
18.01670,44444
18.02483,44228
18.03295,47169
18.04108,49878
18.04920,48609
18.05732,53360
18.06545,47389
18.07357,50697
18.08170,59486
18.08982,70286
18.09793,102011
18.10607,159564
18.11418,211480
18.12230,272199
18.13043,336143
18.13855,373353
18.14668,369983
18.15480,362797
18.16292,352147
18.17105,327774
18.17917,305679
18.18730,288109
18.19542,281440
18.20353,269235
18.21167,272245
18.21978,238650
18.22790,226820
18.23603,228102
18.24415,220218
18.25228,209278
18.26040,205523
18.26852,193697
18.27665,182167
18.28477,176529
18.29290,159909
18.30102,139279
18.30913,113624
18.31727,95315
18.32538,82732
18.33352,76516
18.34163,71649
18.34975,70036
18.35788,68336
18.36600,67332
18.37412,65397
18.38225,68157
18.39037,65497
18.39850,64977
18.40662,67252
18.41473,61292
18.42287,60875
18.43098,64036
18.43912,58315
18.44723,61342
18.45535,61390
18.46348,64156
18.47160,64292
18.47972,67753
18.48785,64272
18.49597,58720
18.50410,59525
18.51222,63412
18.52033,62353
18.52847,62345
18.53658,57146
18.54472,60168
18.55283,67992
18.56095,54522
18.56908,57390
18.57720,50947
18.58533,53437
18.59345,51897
18.60157,54957
18.60970,53065
18.61782,53175
18.62593,58631
18.63407,58143
18.64218,52037
18.65032,51719
18.65843,52111
18.66655,56756
18.67468,56492
18.68280,53369
18.69093,51794
18.69905,48039
18.70717,49483
18.71530,46557
18.72342,51006
18.73155,47900
18.73967,48939
18.74778,52915
18.75592,50363
18.76403,48364
18.77215,51124
18.78028,51836
18.78840,51029
18.79653,50780
18.80465,51188
18.81277,50476
18.82090,49491
18.82902,48864
18.83715,51013
18.84527,46514
18.85338,50520
18.86152,50590
18.86963,51112
18.87775,52972
18.88588,53952
18.89400,58678
18.90213,49313
18.91025,52146
18.91837,51987
18.92650,52918
18.93462,56792
18.94275,54941
18.95087,52546
18.95898,49328
18.96712,52889
18.97523,52537
18.98337,53464
18.99148,54272
18.99960,54575
19.00773,55680
19.01585,56263
19.02397,52559
19.03210,48651
19.04022,50452
19.04835,52008
19.05647,53200
19.06458,53263
19.07272,56795
19.08083,51865
19.08897,48781
19.09708,49079
19.10520,60415
19.11333,57319
19.12145,56511
19.12958,56563
19.13770,64922
19.14582,64911
19.15395,62677
19.16207,55470
19.17018,59237
19.17832,58690
19.18643,58710
19.19457,52051
19.20268,56385
19.21080,56230
19.21893,57599
19.22705,50746
19.23518,54668
19.24330,53786
19.25142,56063
19.25955,49640
19.26767,51652
19.27578,52986
19.28392,52283
19.29203,56227
19.30017,57014
19.30828,73434
19.31640,75205
19.32453,82079
19.33265,74453
19.34078,73241
19.34890,69860
19.35702,64288
19.36515,61105
19.37327,61953
19.38140,59840
19.38952,61520
19.39763,62715
19.40577,69049
19.41388,66402
19.42200,72318
19.43013,71500
19.43825,68709
19.44638,67070
19.45450,64350
19.46262,67738
19.47075,67857
19.47887,66975
19.48700,68485
19.49512,75434
19.50323,88644
19.51137,99379
19.51948,114664
19.52762,138488
19.53573,151271
19.54385,174252
19.55198,179574
19.56010,159935
19.56822,131702
19.57635,105855
19.58447,82186
19.59260,68554
19.60072,67678
19.60883,60359
19.61697,62864
19.62508,62948
19.63322,62629
19.64133,63092
19.64945,69220
19.65758,93604
19.66570,140345
19.67382,210352
19.68195,325828
19.69007,443062
19.69820,562577
19.70632,581565
19.71443,536429
19.72257,436438
19.73068,322715
19.73882,244693
19.74693,193330
19.75505,153329
19.76318,134497
19.77130,118127
19.77943,106772
19.78755,95728
19.79567,90605
19.80380,85808
19.81192,81674
19.82003,80688
19.82817,82372
19.83628,76917
19.84442,71953
19.85253,70014
19.86065,74208
19.86878,69522
19.87690,70284
19.88503,71017
19.89315,69880
19.90127,81264
19.90940,89914
19.91752,101782
19.92563,115810
19.93377,121071
19.94188,131849
19.95002,125283
19.95813,127125
19.96625,123244
19.97438,113972
19.98250,110540
19.99063,118863
19.99875,112837
20.00687,105067
20.01500,103926
20.02312,98303
20.03125,96238
20.03937,98442
20.04748,93878
20.05562,97531
20.06373,88209
20.07185,86070
20.07998,81036
20.08810,68548
20.09623,66275
20.10435,62848
20.11247,66694
20.12060,62740
20.12872,64647
20.13685,65200
20.14497,67021
20.15308,68185
20.16122,62908
20.16933,67052
20.17747,65342
20.18558,64095
20.19370,65043
20.20183,65212
20.20995,63727
20.21807,65190
20.22620,66141
20.23432,62952
20.24245,67018
20.25057,67213
20.25868,71751
20.26682,75693
20.27493,104118
20.28307,151599
20.29118,224683
20.29930,319457
20.30743,418267
20.31555,462481
20.32367,452335
20.33180,391100
20.33992,296652
20.34805,232944
20.35617,176015
20.36428,144037
20.37242,113924
20.38053,99248
20.38867,87685
20.39678,86741
20.40490,82098
20.41303,82061
20.42115,70843
20.42928,77678
20.43740,79412
20.44552,101030
20.45365,126860
20.46177,144036
20.46988,173250
20.47802,172181
20.48613,173175
20.49427,147546
20.50238,138712
20.51050,116970
20.51863,101748
20.52675,91888
20.53488,82504
20.54300,75534
20.55112,70366
20.55925,67814
20.56737,71765
20.57550,73570
20.58362,65633
20.59173,69583
20.59987,62980
20.60798,65906
20.61610,62916
20.62423,64543
20.63235,63938
20.64048,58729
20.64860,61490
20.65672,68358
20.66485,61938
20.67297,60858
20.68110,61646
20.68922,62281
20.69733,64106
20.70547,61794
20.71358,60243
20.72170,63495
20.72983,57744
20.73795,57322
20.74608,57256
20.75420,56477
20.76232,58511
20.77045,58386
20.77857,57358
20.78670,55494
20.79482,57375
20.80293,57600
20.81107,58916
20.81918,56096
20.82732,61154
20.83543,59818
20.84355,64179
20.85168,70814
20.85980,64651
20.86792,70635
20.87605,68211
20.88417,66614
20.89230,68790
20.90042,63731
20.90853,67786
20.91667,63287
20.92478,60746
20.93292,58941
20.94103,58097
20.94915,59072
20.95728,60364
20.96540,58189
20.97352,60094
20.98165,56504
20.98977,56913
20.99790,56668
21.00602,58108
21.01413,59492
21.02227,59917
21.03038,58028
21.03852,57054
21.04663,53934
21.05475,55070
21.06288,53966
21.07100,58164
21.07913,55364
21.08725,52617
21.09537,57084
21.10350,57399
21.11162,55246
21.11973,53708
21.12787,56546
21.13598,57639
21.14412,63635
21.15223,66744
21.16035,69820
21.16848,73956
21.17660,75390
21.18473,79921
21.19285,85171
21.20097,91410
21.20910,84313
21.21722,88707
21.22535,86587
21.23347,82521
21.24158,84380
21.24972,91470
21.25783,81966
21.26595,84931
21.27408,84687
21.28220,85636
21.29033,79049
21.29845,80458
21.30657,84039
21.31470,85158
21.32282,79129
21.33095,79874
21.33907,79450
21.34718,81880
21.35532,75470
21.36343,78111
21.37155,79412
21.37968,79297
21.38780,74860
21.39593,77035
21.40405,81092
21.41217,76192
21.42030,79328
21.42842,83671
21.43655,81552
21.44467,90323
21.45278,88293
21.46092,92408
21.46903,89858
21.47717,87462
21.48528,86990
21.49340,81139
21.50153,82413
21.50965,78043
21.51777,81158
21.52590,82234
21.53402,81281
21.54215,75127
21.55027,74993
21.55838,75702
21.56652,73877
21.57463,73972
21.58277,77896
21.59088,80690
21.59900,80519
21.60713,74749
21.61525,81502
21.62338,86255
21.63150,89383
21.63962,109224
21.64775,117610
21.65587,147644
21.66398,189279
21.67212,220065
21.68023,231622
21.68837,228137
21.69648,183672
21.70460,162134
21.71273,130763
21.72085,110170
21.72898,95337
21.73710,91289
21.74522,89813
21.75335,84243
21.76147,84286
21.76958,79957
21.77772,86190
21.78583,81035
21.79397,84533
21.80208,81926
21.81020,79672
21.81833,81195
21.82645,89091
21.83458,92414
21.84270,107691
21.85082,134462
21.85895,172624
21.86707,193428
21.87520,202794
21.88332,203178
21.89143,183771
21.89957,143379
21.90768,120435
21.91580,92876
21.92393,90084
21.93205,79148
21.94018,78626
21.94830,80498
21.95642,73527
21.96455,74854
21.97267,73375
21.98080,81382
21.98892,77843
21.99703,70870
22.00517,68132
22.01328,69229
22.02140,70789
22.02953,67264
22.03765,68973
22.04578,64335
22.05390,71113
22.06202,66830
22.07015,68495
22.07827,66922
22.08640,68115
22.09452,66147
22.10263,66105
22.11077,73187
22.11888,72578
22.12702,68784
22.13513,69420
22.14325,73335
22.15138,70027
22.15950,72015
22.16762,68136
22.17575,70220
22.18387,73506
22.19200,75142
22.20012,68351
22.20823,71270
22.21637,72135
22.22448,66206
22.23262,76914
22.24073,76614
22.24885,87003
22.25698,97856
22.26510,99235
22.27323,94525
22.28135,85867
22.28947,77844
22.29760,76060
22.30572,69506
22.31383,73019
22.32197,69214
22.33008,71031
22.33822,66538
22.34633,64480
22.35445,66613
22.36258,65488
22.37070,67996
22.37883,64782
22.38695,63346
22.39507,60606
22.40320,60724
22.41132,61297
22.41945,62977
22.42757,67547
22.43568,69961
22.44382,69242
22.45193,77511
22.46005,72517
22.46818,73238
22.47630,79381
22.48443,71848
22.49255,76037
22.50067,73426
22.50880,70010
22.51692,69850
22.52505,70156
22.53317,69018
22.54128,68903
22.54942,73086
22.55753,66272
22.56565,66623
22.57378,66551
22.58190,68736
22.59003,68157
22.59815,68892
22.60627,63213
22.61440,63455
22.62252,64038
22.63065,58523
22.63877,62850
22.64688,54498
22.65502,59922
22.66313,54445
22.67127,59070
22.67938,57376
22.68750,55808
22.69563,58607
22.70375,61054
22.71187,60032
22.72000,62784
22.72812,66139
22.73625,67778
22.74437,69861
22.75248,72447
22.76062,72173
22.76873,67759
22.77687,65588
22.78498,67044
22.79310,63907
22.80123,63474
22.80935,66676
22.81747,65756
22.82560,71356
22.83372,67407
22.84185,74164
22.84997,72027
22.85808,75683
22.86622,75248
22.87433,76964
22.88247,70198
22.89058,76339
22.89870,77332
22.90683,72394
22.91495,82643
22.92308,87715
22.93120,109214
22.93932,133032
22.94745,183909
22.95557,208125
22.96368,244556
22.97182,233292
22.97993,239672
22.98807,217738
22.99618,195355
23.00430,183932
23.01243,152951
23.02055,137605
23.02868,134649
23.03680,112943
23.04492,97011
23.05305,89184
23.06117,79001
23.06930,72075
23.07742,66499
23.08553,66817
23.09367,65834
23.10178,66777
23.10990,64762
23.11803,63273
23.12615,62130
23.13428,59538
23.14240,61343
23.15052,60033
23.15865,52449
23.16677,60640
23.17490,60898
23.18302,57762
23.19113,51615
23.19927,57594
23.20738,51885
23.21550,52140
23.22363,51967
23.23175,55802
23.23988,51321
23.24800,51035
23.25612,50941
23.26425,49349
23.27237,46933
23.28050,51577
23.28862,58662
23.29673,52022
23.30487,52846
23.31298,48720
23.32112,52049
23.32923,49814
23.33735,48565
23.34548,51563
23.35360,52666
23.36172,53565
23.36985,53955
23.37797,51478
23.38610,51851
23.39422,57652
23.40233,54504
23.41047,52569
23.41858,54450
23.42672,56050
23.43483,58076
23.44295,56944
23.45108,53481
23.45920,54206
23.46733,51942
23.47545,51533
23.48357,57913
23.49170,50978
23.49982,51366
23.50793,50013
23.51607,48081
23.52418,53343
23.53232,51462
23.54043,49365
23.54855,54754
23.55668,48609
23.56480,50989
23.57293,48398
23.58105,53345
23.58917,51901
23.59730,53179
23.60542,55854
23.61353,54293
23.62167,56325
23.62978,52896
23.63792,55218
23.64603,50132
23.65415,48599
23.66228,56250
23.67040,51678
23.67853,56634
23.68665,55940
23.69477,58223
23.70290,64520
23.71102,66512
23.71915,66741
23.72727,63101
23.73538,59750
23.74352,56871
23.75163,57165
23.75975,76539
23.76788,148620
23.77600,384210
23.78413,946932
23.79225,2099704
23.80037,3639336
23.80850,4859829
23.81662,5328085
23.82475,5052951
23.83287,4139026
23.84098,2990369
23.84912,2046220
23.85723,1386360
23.86535,1009940
23.87348,767653
23.88160,602126
23.88973,504485
23.89785,444663
23.90597,404156
23.91410,356865
23.92222,327771
23.93035,289159
23.93847,273340
23.94658,269530
23.95472,254265
23.96283,234105
23.97097,219063
23.97908,216670
23.98720,203808
23.99533,189003
24.00345,190285
24.01157,179013
24.01970,174908
24.02782,169830
24.03595,167588
24.04407,153557
24.05218,151466
24.06032,149863
24.06843,141216
24.07657,142346
24.08468,142542
24.09280,136124
24.10093,131377
24.10905,131102
24.11718,124290
24.12530,124787
24.13342,122746
24.14155,130946
24.14967,126647
24.15778,128439
24.16592,136602
24.17403,148439
24.18217,149782
24.19028,143276
24.19840,143533
24.20653,129253
24.21465,124986
24.22278,126405
24.23090,131151
24.23902,134870
24.24715,141523
24.25527,148940
24.26338,149143
24.27152,144337
24.27963,132712
24.28777,122322
24.29588,110298
24.30400,104761
24.31213,99602
24.32025,104219
24.32838,98256
24.33650,104252
24.34462,98218
24.35275,96903
24.36087,91955
24.36900,93999
24.37712,97054
24.38523,91448
24.39337,89945
24.40148,97618
24.40960,99336
24.41773,113679
24.42585,131277
24.43398,138982
24.44210,144160
24.45022,138307
24.45835,122426
24.46647,102560
24.47460,94375
24.48272,92294
24.49083,87136
24.49897,87534
24.50708,86236
24.51522,91113
24.52333,101094
24.53145,109693
24.53958,129989
24.54770,136429
24.55582,140025
24.56395,138331
24.57207,126702
24.58020,116535
24.58832,108634
24.59643,97700
24.60457,97364
24.61268,101554
24.62082,91876
24.62893,92153
24.63705,91199
24.64518,90910
24.65330,84721
24.66142,87258
24.66955,86897
24.67767,90654
24.68580,93311
24.69392,90666
24.70203,89136
24.71017,93015
24.71828,85972
24.72642,81752
24.73453,78627
24.74265,75053
24.75078,73541
24.75890,75333
24.76703,76413
24.77515,72063
24.78327,73861
24.79140,77210
24.79952,73049
24.80763,72746
24.81577,75538
24.82388,68768
24.83202,73429
24.84013,74084
24.84825,68557
24.85638,77318
24.86450,73744
24.87263,72934
24.88075,77729
24.88887,76403
24.89700,87824
24.90512,88240
24.91323,95391
24.92137,90268
24.92948,84092
24.93762,83735
24.94573,79292
24.95385,77795
24.96198,72129
24.97010,72081
24.97823,73420
24.98635,68680
24.99447,67108
25.00260,68607
25.01072,67342
25.01885,67143
25.02697,69377
25.03508,64713
25.04322,66800
25.05133,66741
25.05945,68794
25.06758,60921
25.07570,64377
25.08383,66262
25.09195,65078
25.10007,65862
25.10820,70049
25.11632,63191
25.12445,70500
25.13257,75645
25.14068,105197
25.14882,145244
25.15693,202661
25.16507,278330
25.17318,336538
25.18130,374712
25.18943,359922
25.19755,315218
25.20567,264898
25.21380,203196
25.22192,152844
25.23005,122653
25.23817,103091
25.24628,95615
25.25442,90805
25.26253,82326
25.27067,76828
25.27878,81267
25.28690,78573
25.29503,73123
25.30315,79852
25.31127,76506
25.31940,80825
25.32752,82727
25.33565,79335
25.34377,75507
25.35188,77870
25.36002,73260
25.36813,70692
25.37627,76263
25.38438,68698
25.39250,71228
25.40063,69302
25.40875,63127
25.41688,68983
25.42500,60435
25.43312,63820
25.44125,64114
25.44937,64694
25.45748,65605
25.46562,62263
25.47373,64134
25.48187,64347
25.48998,67213
25.49810,77523
25.50623,78559
25.51435,84477
25.52248,83099
25.53060,78028
25.53872,76016
25.54685,77080
25.55497,71162
25.56310,67942
25.57122,65787
25.57933,67576
25.58747,64292
25.59558,63849
25.60370,55697
25.61183,63061
25.61995,62330
25.62808,62939
25.63620,57855
25.64432,56874
25.65245,55472
25.66057,57137
25.66870,57691
25.67682,55870
25.68493,61009
25.69307,56664
25.70118,59452
25.70930,58964
25.71743,55248
25.72555,60781
25.73368,58947
25.74180,59971
25.74992,59765
25.75805,61833
25.76617,57437
25.77430,62815
25.78242,62691
25.79053,56818
25.79867,57023
25.80678,61125
25.81492,59104
25.82303,60475
25.83115,62745
25.83928,62778
25.84740,60191
25.85552,60116
25.86365,64875
25.87177,58356
25.87990,63649
25.88802,62162
25.89613,57173
25.90427,55679
25.91238,55249
25.92052,58234
25.92863,58169
25.93675,57651
25.94488,56509
25.95300,56734
25.96113,58397
25.96925,60618
25.97737,52870
25.98550,56173
25.99362,58591
26.00173,60605
26.00987,57434
26.01798,53694
26.02612,54483
26.03423,50382
26.04235,56836
26.05048,53358
26.05860,50078
26.06673,55392
26.07485,58650
26.08297,56782
26.09110,56968
26.09922,53385
26.10733,57473
26.11547,58364
26.12358,63511
26.13172,63831
26.13983,63074
26.14795,68923
26.15608,73149
26.16420,72079
26.17233,73834
26.18045,75704
26.18857,73523
26.19670,77037
26.20482,71819
26.21295,72821
26.22107,69711
26.22918,66480
26.23732,63561
26.24543,60775
26.25355,55671
26.26168,55958
26.26980,57812
26.27793,58308
26.28605,55890
26.29417,55079
26.30230,58659
26.31042,65511
26.31855,62986
26.32667,63316
26.33478,55834
26.34292,56293
26.35103,55868
26.35915,55562
26.36728,59411
26.37540,60726
26.38353,62436
26.39165,74956
26.39977,83381
26.40790,96596
26.41602,109866
26.42415,135791
26.43227,135837
26.44038,131227
26.44852,130046
26.45663,112020
26.46477,96418
26.47288,87231
26.48100,77124
26.48913,72618
26.49725,65036
26.50537,66478
26.51350,59211
26.52162,58510
26.52975,57391
26.53787,55845
26.54598,53419
26.55412,51037
26.56223,50709
26.57037,52590
26.57848,53660
26.58660,55220
26.59473,53994
26.60285,56861
26.61098,50617
26.61910,50444
26.62722,53572
26.63535,55592
26.64347,51205
26.65158,49088
26.65972,49881
26.66783,53161
26.67597,52890
26.68408,56755
26.69220,56410
26.70033,55038
26.70845,55491
26.71658,53465
26.72470,57710
26.73282,53622
26.74095,52360
26.74907,50744
26.75718,49756
26.76532,56262
26.77343,60592
26.78157,53412
26.78968,54523
26.79780,56646
26.80593,52881
26.81405,56423
26.82218,53412
26.83030,54264
26.83842,57098
26.84655,59297
26.85467,58654
26.86280,64153
26.87092,59404
26.87903,57208
26.88717,62322
26.89528,61951
26.90340,64355
26.91153,59918
26.91965,60376
26.92778,56195
26.93590,53618
26.94402,55845
26.95215,59313
26.96027,55417
26.96840,59776
26.97652,74797
26.98463,106790
26.99277,191954
27.00088,386968
27.00902,797746
27.01713,1595965
27.02525,2825919
27.03338,3797447
27.04150,4178550
27.04962,3903632
27.05775,3232947
27.06587,2447543
27.07400,1761641
27.08212,1269261
27.09023,924855
27.09837,712749
27.10648,562884
27.11462,495118
27.12273,414059
27.13085,374614
27.13898,337651
27.14710,308170
27.15522,288308
27.16335,272642
27.17147,254806
27.17960,232777
27.18772,223584
27.19583,216512
27.20397,212496
27.21208,205827
27.22022,200969
27.22833,204014
27.23645,198694
27.24458,189711
27.25270,183897
27.26083,167180
27.26895,170621
27.27707,157892
27.28520,149634
27.29332,143432
27.30143,146134
27.30957,135200
27.31768,129643
27.32582,126349
27.33393,130899
27.34205,124145
27.35018,118507
27.35830,117545
27.36643,122116
27.37455,119100
27.38267,109348
27.39080,117614
27.39892,113508
27.40703,108982
27.41517,109608
27.42328,110318
27.43142,105094
27.43953,104044
27.44765,104828
27.45578,101105
27.46390,107566
27.47203,98601
27.48015,96682
27.48827,103157
27.49640,91666
27.50452,93481
27.51265,95081
27.52077,93928
27.52888,93354
27.53702,93630
27.54513,91858
27.55325,98023
27.56138,92913
27.56950,97614
27.57763,99654
27.58575,96415
27.59387,92082
27.60200,98835
27.61012,88575
27.61825,85863
27.62637,83823
27.63448,88186
27.64262,92695
27.65073,88438
27.65887,88771
27.66698,84360
27.67510,80421
27.68323,76931
27.69135,81423
27.69947,79370
27.70760,81267
27.71572,77504
27.72385,78161
27.73197,82140
27.74008,78051
27.74822,75310
27.75633,76382
27.76447,77555
27.77258,73804
27.78070,72120
27.78883,74585
27.79695,73783
27.80507,72882
27.81320,67546
27.82132,75971
27.82945,75513
27.83757,68967
27.84568,70013
27.85382,77090
27.86193,70858
27.87007,76273
27.87818,74513
27.88630,72798
27.89443,75272
27.90255,73002
27.91068,72169
27.91880,69083
27.92692,73870
27.93505,70804
27.94317,66134
27.95128,67746
27.95942,66334
27.96753,68696
27.97567,70845
27.98378,70260
27.99190,70616
28.00003,68224
28.00815,69143
28.01628,68944
28.02440,66231
28.03252,74640
28.04065,71908
28.04877,74393
28.05690,76733
28.06502,79868
28.07313,83280
28.08127,85092
28.08938,81236
28.09750,78865
28.10563,81172
28.11375,72315
28.12188,73411
28.13000,74348
28.13812,71208
28.14625,65909
28.15437,68272
28.16250,69406
28.17062,68773
28.17873,63730
28.18687,65844
28.19498,67776
28.20310,67294
28.21123,68575
28.21935,71053
28.22748,72761
28.23560,77905
28.24372,89526
28.25185,87749
28.25997,83477
28.26810,85413
28.27622,76992
28.28433,74502
28.29247,71367
28.30058,74679
28.30872,72416
28.31683,76120
28.32495,92203
28.33308,127753
28.34120,177060
28.34932,246574
28.35745,346239
28.36557,459568
28.37370,584458
28.38182,695953
28.38993,779526
28.39807,801718
28.40618,784663
28.41432,735133
28.42243,667275
28.43055,590984
28.43868,511837
28.44680,440183
28.45492,389132
28.46305,328656
28.47117,295097
28.47930,268064
28.48742,248705
28.49553,233063
28.50367,207094
28.51178,190776
28.51992,183989
28.52803,170428
28.53615,162804
28.54428,163409
28.55240,151661
28.56053,147201
28.56865,142137
28.57677,143092
28.58490,134489
28.59302,131071
28.60113,123394
28.60927,128729
28.61738,122466
28.62552,122206
28.63363,118228
28.64175,120490
28.64988,116311
28.65800,113916
28.66613,119617
28.67425,118205
28.68237,122190
28.69050,119558
28.69862,120974
28.70675,113473
28.71487,107915
28.72298,99226
28.73112,103599
28.73923,96112
28.74735,95170
28.75548,97649
28.76360,95486
28.77173,93817
28.77985,96784
28.78797,103700
28.79610,109668
28.80422,109952
28.81235,117957
28.82047,117707
28.82858,110513
28.83672,101612
28.84483,92605
28.85297,90153
28.86108,81636
28.86920,81516
28.87733,84601
28.88545,87868
28.89357,83133
28.90170,83050
28.90982,81524
28.91795,81347
28.92607,84906
28.93418,87966
28.94232,85142
28.95043,82065
28.95857,85015
28.96668,82127
28.97480,83924
28.98293,84327
28.99105,85526
28.99917,84194
29.00730,83396
29.01542,80839
29.02355,76838
29.03167,80769
29.03978,74089
29.04792,73022
29.05603,74605
29.06417,77514
29.07228,75570
29.08040,77418
29.08853,81175
29.09665,76617
29.10478,75361
29.11290,75852
29.12102,72168
29.12915,73895
29.13727,75422
29.14538,79181
29.15352,73201
29.16163,72530
29.16977,76131
29.17788,72780
29.18600,73981
29.19413,80919
29.20225,77428
29.21038,75083
29.21850,76841
29.22662,79562
29.23475,78191
29.24287,80886
29.25098,76187
29.25912,73069
29.26723,75704
29.27537,71910
29.28348,73653
29.29160,74299
29.29973,71093
29.30785,74648
29.31598,71841
29.32410,69763
29.33222,74824
29.34035,74475
29.34847,74442
29.35660,72934
29.36472,70676
29.37283,68122
29.38097,66776
29.38908,68443
29.39720,68704
29.40533,66973
29.41345,71946
29.42158,68055
29.42970,67154
29.43782,72628
29.44595,69476
29.45407,74795
29.46220,70272
29.47032,72317
29.47843,73265
29.48657,69518
29.49468,64084
29.50282,67810
29.51093,70585
29.51905,77782
29.52718,80626
29.53530,76597
29.54342,77517
29.55155,78394
29.55967,72267
29.56780,69702
29.57592,68122
29.58403,67183
29.59217,66337
29.60028,60309
29.60842,62821
29.61653,61493
29.62465,64970
29.63278,63124
29.64090,66150
29.64902,63438
29.65715,63545
29.66527,62986
29.67340,64952
29.68152,64099
29.68963,60095
29.69777,63153
29.70588,60014
29.71402,58487
29.72213,57859
29.73025,55894
29.73838,61194
29.74650,59050
29.75463,57945
29.76275,56729
29.77087,56659
29.77900,60055
29.78712,61213
29.79523,59525
29.80337,55228
29.81148,55684
29.81962,58854
29.82773,55648
29.83585,54352
29.84398,54800
29.85210,62115
29.86023,61832
29.86835,58611
29.87647,54108
29.88460,59601
29.89272,57692
29.90085,61200
29.90897,66009
29.91708,66422
29.92522,69388
29.93333,70269
29.94145,69916
29.94958,65231
29.95770,67449
29.96583,61319
29.97395,68285
29.98207,82978
29.99020,97606
29.99832,115702
30.00645,145504
30.01457,173702
30.02268,212911
30.03082,239890
30.03893,280495
30.04705,299868
30.05518,310567
30.06330,319181
30.07143,318956
30.07955,310405
30.08767,311364
30.09580,289796
30.10392,273650
30.11205,253652
30.12017,237597
30.12828,215598
30.13642,200492
30.14453,179387
30.15267,173517
30.16078,158833
30.16890,150156
30.17703,142957
30.18515,135551
30.19327,135620
30.20140,125684
30.20952,117762
30.21765,110439
30.22577,110897
30.23388,99721
30.24202,97140
30.25013,103098
30.25827,98640
30.26638,90088
30.27450,90810
30.28263,95911
30.29075,86017
30.29887,81772
30.30700,86203
30.31512,81394
30.32325,82932
30.33137,79376
30.33948,83025
30.34762,83395
30.35573,78332
30.36387,85267
30.37198,84762
30.38010,74195
30.38823,81250
30.39635,74632
30.40448,79469
30.41260,74413
30.42072,74328
30.42885,80894
30.43697,74165
30.44508,70155
30.45322,71480
30.46133,69682
30.46947,69888
30.47758,68563
30.48570,69927
30.49383,67617
30.50195,70804
30.51008,70181
30.51820,67225
30.52632,65484
30.53445,69743
30.54257,68761
30.55070,62390
30.55882,70186
30.56693,68064
30.57507,67704
30.58318,67457
30.59130,64570
30.59943,67890
30.60755,71190
30.61568,67804
30.62380,64792
30.63192,67225
30.64005,60708
30.64817,65553
30.65630,64719
30.66442,66241
30.67253,67215
30.68067,62961
30.68878,61015
30.69690,64632
30.70503,63814
30.71315,62428
30.72128,59691
30.72940,60030
30.73752,62948
30.74565,59370
30.75377,58921
30.76190,62649
30.77002,65021
30.77813,60183
30.78627,58329
30.79438,64833
30.80252,71209
30.81063,74064
30.81875,75042
30.82688,76890
30.83500,78497
30.84312,85002
30.85125,75145
30.85937,73537
30.86750,68901
30.87562,62336
30.88373,61440
30.89187,58615
30.89998,67439
30.90812,60055
30.91623,63768
30.92435,60100
30.93248,58927
30.94060,61733
30.94873,59953
30.95685,58797
30.96497,62744
30.97310,63463
30.98122,63225
30.98933,57165
30.99747,57457
31.00558,59166
31.01372,57670
31.02183,56965
31.02995,62416
31.03808,61825
31.04620,61156
31.05433,62756
31.06245,62818
31.07057,64919
31.07870,60434
31.08682,59881
31.09493,66782
31.10307,66544
31.11118,70141
31.11932,79394
31.12743,75909
31.13555,77448
31.14368,80129
31.15180,76868
31.15993,69010
31.16805,70192
31.17617,66866
31.18430,74780
31.19242,78730
31.20055,93460
31.20867,121249
31.21678,161477
31.22492,223152
31.23303,277114
31.24115,316470
31.24928,337899
31.25740,298998
31.26553,246231
31.27365,185690
31.28177,133135
31.28990,103086
31.29802,89643
31.30615,77202
31.31427,74688
31.32238,66366
31.33052,67974
31.33863,67182
31.34677,61741
31.35488,64416
31.36300,68947
31.37113,62677
31.37925,64235
31.38737,63583
31.39550,58023
31.40362,60934
31.41175,58656
31.41987,60715
31.42798,60591
31.43612,65814
31.44423,65263
31.45237,67155
31.46048,60928
31.46860,71169
31.47673,64769
31.48485,62559
31.49297,61833
31.50110,64538
31.50922,61334
31.51735,60994
31.52547,61964
31.53358,58684
31.54172,63822
31.54983,59481
31.55797,61746
31.56608,60732
31.57420,61278
31.58233,66278
31.59045,62818
31.59858,59438
31.60670,58012
31.61482,58924
31.62295,58220
31.63107,58607
31.63918,55104
31.64732,60678
31.65543,60339
31.66357,61095
31.67168,57588
31.67980,64014
31.68793,65250
31.69605,63002
31.70418,60860
31.71230,62601
31.72042,62265
31.72855,61013
31.73667,54496
31.74478,60885
31.75292,60760
31.76103,55388
31.76917,56783
31.77728,58289
31.78540,54944
31.79353,58063
31.80165,57277
31.80978,62370
31.81790,66365
31.82602,68629
31.83415,64082
31.84227,62389
31.85040,59925
31.85852,66468
31.86663,65400
31.87477,70130
31.88288,78036
31.89100,74046
31.89913,77641
31.90725,68216
31.91538,67224
31.92350,65425
31.93162,72047
31.93975,78779
31.94787,90401
31.95600,111120
31.96412,118816
31.97223,153269
31.98037,170127
31.98848,187853
31.99662,193479
32.00473,203689
32.01285,203577
32.02098,204097
32.02910,193931
32.03722,182113
32.04535,177962
32.05347,161112
32.06160,149363
32.06972,133839
32.07783,127104
32.08597,113753
32.09408,112923
32.10222,111790
32.11033,115041
32.11845,111548
32.12658,106361
32.13470,105212
32.14282,95845
32.15095,94258
32.15907,86460
32.16720,82077
32.17532,81828
32.18343,76733
32.19157,77130
32.19968,73583
32.20782,73993
32.21593,72811
32.22405,67550
32.23218,73653
32.24030,71688
32.24843,71279
32.25655,74283
32.26467,70891
32.27280,74913
32.28092,70904
32.28903,63940
32.29717,71717
32.30528,66645
32.31342,63071
32.32153,65322
32.32965,69304
32.33778,72357
32.34590,69867
32.35403,67262
32.36215,63266
32.37027,71135
32.37840,71039
32.38652,70656
32.39465,72953
32.40277,69286
32.41088,63808
32.41902,63907
32.42713,64202
32.43525,64887
32.44338,63425
32.45150,62435
32.45963,61848
32.46775,64774
32.47587,63852
32.48400,65796
32.49212,65979
32.50025,65186
32.50837,63602
32.51648,64450
32.52462,66167
32.53273,62669
32.54085,58459
32.54898,60049
32.55710,58539
32.56523,60239
32.57335,65438
32.58147,70328
32.58960,65164
32.59772,62144
32.60585,61645
32.61397,58822
32.62208,57156
32.63022,58398
32.63833,58900
32.64647,58894
32.65458,58297
32.66270,60867
32.67083,60430
32.67895,68351
32.68707,62729
32.69520,76451
32.70332,77688
32.71145,79933
32.71957,76715
32.72768,75812
32.73582,76000
32.74393,72515
32.75207,63941
32.76018,64804
32.76830,64890
32.77643,60855
32.78455,68229
32.79267,59609
32.80080,60714
32.80892,62440
32.81705,57057
32.82517,64077
32.83328,58662
32.84142,58038
32.84953,60736
32.85767,60359
32.86578,58772
32.87390,59862
32.88203,60933
32.89015,61114
32.89828,59833
32.90640,63380
32.91452,66402
32.92265,64729
32.93077,61708
32.93888,61073
32.94702,63880
32.95513,64824
32.96327,60388
32.97138,59922
32.97950,60179
32.98763,60224
32.99575,62087
33.00388,61403
33.01200,63548
33.02012,71349
33.02825,67065
33.03637,69573
33.04450,65949
33.05262,66861
33.06073,62408
33.06887,59625
33.07698,64720
33.08510,57197
33.09323,63609
33.10135,69937
33.10948,68060
33.11760,77255
33.12572,87506
33.13385,86706
33.14197,88592
33.15010,90323
33.15822,83521
33.16633,77439
33.17447,73256
33.18258,69341
33.19072,68671
33.19883,63845
33.20695,59937
33.21508,63350
33.22320,65081
33.23132,59802
33.23945,72418
33.24757,69587
33.25570,66886
33.26382,69104
33.27193,65851
33.28007,65956
33.28818,61571
33.29632,60570
33.30443,56145
33.31255,63723
33.32068,57616
33.32880,61488
33.33692,62059
33.34505,62489
33.35317,65048
33.36130,59579
33.36942,63376
33.37753,58723
33.38567,58189
33.39378,59182
33.40192,56941
33.41003,63609
33.41815,59579
33.42628,57338
33.43440,55221
33.44253,55804
33.45065,59173
33.45877,53963
33.46690,60127
33.47502,53104
33.48313,55379
33.49127,59234
33.49938,63783
33.50752,53941
33.51563,57725
33.52375,57189
33.53188,61234
33.54000,58504
33.54813,62804
33.55625,64621
33.56437,67111
33.57250,62809
33.58062,63475
33.58873,66391
33.59687,63573
33.60498,60853
33.61312,61651
33.62123,59519
33.62935,57208
33.63748,58870
33.64560,62723
33.65373,58651
33.66185,59448
33.66997,58034
33.67810,60637
33.68622,60613
33.69435,57432
33.70247,59364
33.71058,56951
33.71872,58081
33.72683,54034
33.73495,52523
33.74308,60656
33.75120,64968
33.75933,58596
33.76745,57544
33.77557,55981
33.78370,63054
33.79182,59491
33.79995,59686
33.80807,57655
33.81618,60975
33.82432,56852
33.83243,63324
33.84057,63558
33.84868,59184
33.85680,56252
33.86493,62830
33.87305,57976
33.88117,66432
33.88930,62355
33.89742,66262
33.90555,62513
33.91367,62258
33.92178,59249
33.92992,65159
33.93803,61491
33.94617,56919
33.95428,59617
33.96240,63374
33.97053,64066
33.97865,59557
33.98677,61679
33.99490,57616
34.00302,56464
34.01115,61821
34.01927,58765
34.02738,58657
34.03552,57629
34.04363,56204
34.05177,54665
34.05988,55416
34.06800,53826
34.07613,57940
34.08425,56700
34.09238,54257
34.10050,59234
34.10862,51841
34.11675,55526
34.12487,57035
34.13298,57235
34.14112,58201
34.14923,59017
34.15737,58357
34.16548,53781
34.17360,59760
34.18173,62695
34.18985,60212
34.19798,58362
34.20610,56550
34.21422,60327
34.22235,57101
34.23047,55726
34.23860,55019
34.24672,58566
34.25483,55497
34.26297,56813
34.27108,60934
34.27920,56963
34.28733,60539
34.29545,59224
34.30358,60846
34.31170,55288
34.31982,54027
34.32795,54695
34.33607,58893
34.34420,59635
34.35232,61493
34.36043,60657
34.36857,57875
34.37668,59821
34.38480,57573
34.39293,57572
34.40105,64903
34.40918,61127
34.41730,60740
34.42542,55145
34.43355,61503
34.44167,57079
34.44980,58804
34.45792,52760
34.46603,57934
34.47417,60873
34.48228,59348
34.49042,58168
34.49853,56326
34.50665,58845
34.51478,59324
34.52290,60564
34.53102,62927
34.53915,64190
34.54727,70363
34.55540,81427
34.56352,101250
34.57163,116008
34.57977,133702
34.58788,141717
34.59602,149070
34.60413,141338
34.61225,139695
34.62038,123780
34.62850,118567
34.63662,102415
34.64475,93348
34.65287,92634
34.66100,89034
34.66912,83079
34.67723,78544
34.68537,79063
34.69348,78403
34.70162,75926
34.70973,73106
34.71785,76423
34.72598,70883
34.73410,72849
34.74223,68220
34.75035,70962
34.75847,71273
34.76660,68234
34.77472,70081
34.78283,66196
34.79097,74045
34.79908,67493
34.80722,74476
34.81533,73201
34.82345,70735
34.83158,66080
34.83970,74030
34.84783,66870
34.85595,66709
34.86407,69990
34.87220,66636
34.88032,67460
34.88845,61174
34.89657,64831
34.90468,62222
34.91282,62535
34.92093,63046
34.92905,62639
34.93718,66257
34.94530,64478
34.95343,66451
34.96155,68215
34.96967,66129
34.97780,68871
34.98592,76297
34.99405,73616
35.00217,70825
35.01028,75314
35.01842,73650
35.02653,68841
35.03465,63197
35.04278,69262
35.05090,68113
35.05903,63906
35.06715,61189
35.07527,63849
35.08340,70172
35.09152,70790
35.09965,67030
35.10777,67378
35.11588,62877
35.12402,65698
35.13213,70663
35.14027,67504
35.14838,67792
35.15650,76670
35.16463,76601
35.17275,80038
35.18087,80409
35.18900,77497
35.19712,78097
35.20525,77790
35.21337,74603
35.22148,67511
35.22962,64816
35.23773,63693
35.24587,67024
35.25398,65386
35.26210,64965
35.27023,62977
35.27835,67880
35.28648,70205
35.29460,68797
35.30272,68448
35.31085,69592
35.31897,64101
35.32708,63285
35.33522,61563
35.34333,63149
35.35147,70558
35.35958,60420
35.36770,64123
35.37583,66230
35.38395,64393
35.39208,68952
35.40020,66827
35.40832,64233
35.41645,63266
35.42457,58721
35.43268,63396
35.44082,67442
35.44893,65588
35.45707,69880
35.46518,71793
35.47330,67469
35.48143,67968
35.48955,66046
35.49768,75563
35.50580,66871
35.51392,63938
35.52205,60759
35.53017,67837
35.53830,63018
35.54642,66559
35.55453,62865
35.56267,65469
35.57078,65810
35.57890,60250
35.58703,62584
35.59515,63385
35.60328,67579
35.61140,65083
35.61952,70622
35.62765,62117
35.63577,66580
35.64390,66779
35.65202,60113
35.66013,70645
35.66827,66875
35.67638,67967
35.68450,64193
35.69263,67001
35.70075,67727
35.70888,68631
35.71700,74907
35.72512,78262
35.73325,75428
35.74137,73120
35.74950,73722
35.75762,75062
35.76573,75254
35.77387,77973
35.78198,76592
35.79012,72861
35.79823,76785
35.80635,72916
35.81448,70364
35.82260,63480
35.83072,63165
35.83885,71848
35.84697,66970
35.85510,64461
35.86322,66030
35.87133,69465
35.87947,69438
35.88758,66571
35.89572,65913
35.90383,73037
35.91195,69286
35.92008,63281
35.92820,68029
35.93633,66112
35.94445,65200
35.95257,67368
35.96070,67971
35.96882,64470
35.97693,65027
35.98507,65367
35.99318,66519
36.00132,70411
36.00943,67686
36.01755,66872
36.02568,71999
36.03380,67816
36.04193,72981
36.05005,75313
36.05817,72842
36.06630,73875
36.07442,72548
36.08253,71721
36.09067,74406
36.09878,71045
36.10692,66160
36.11503,66045
36.12315,68435
36.13128,70012
36.13940,68709
36.14753,66292
36.15565,68626
36.16377,68772
36.17190,67055
36.18002,73802
36.18815,68055
36.19627,66164
36.20438,68434
36.21252,67815
36.22063,66543
36.22875,66762
36.23688,67247
36.24500,71810
36.25313,66762
36.26125,62921
36.26937,66084
36.27750,67965
36.28562,64405
36.29375,67561
36.30187,67982
36.30998,70479
36.31812,63191
36.32623,67609
36.33437,78537
36.34248,79468
36.35060,75420
36.35873,81788
36.36685,86918
36.37497,78871
36.38310,79785
36.39122,80403
36.39935,81862
36.40747,78780
36.41558,86331
36.42372,84796
36.43183,80841
36.43997,73940
36.44808,74942
36.45620,73094
36.46433,70456
36.47245,67563
36.48057,65640
36.48870,69664
36.49682,70328
36.50495,64295
36.51307,64523
36.52118,66996
36.52932,64929
36.53743,66666
36.54557,64867
36.55368,61449
36.56180,60557
36.56993,66256
36.57805,61853
36.58618,65940
36.59430,62910
36.60242,68181
36.61055,69428
36.61867,66791
36.62678,65052
36.63492,64275
36.64303,61478
36.65117,63658
36.65928,65638
36.66740,66881
36.67553,63195
36.68365,68767
36.69178,66704
36.69990,72170
36.70802,71342
36.71615,67777
36.72427,73539
36.73240,74909
36.74052,73303
36.74863,68075
36.75677,68829
36.76488,71213
36.77300,65395
36.78113,73554
36.78925,65755
36.79738,64381
36.80550,65694
36.81362,65067
36.82175,70605
36.82987,65982
36.83800,67890
36.84612,66299
36.85423,63858
36.86237,69647
36.87048,63714
36.87860,65456
36.88673,66491
36.89485,67046
36.90298,71637
36.91110,64320
36.91922,65145
36.92735,63351
36.93547,63058
36.94360,68419
36.95172,68495
36.95983,66096
36.96797,69717
36.97608,66795
36.98422,67573
36.99233,64576
37.00045,69490
37.00858,65325
37.01670,72173
37.02482,63901
37.03295,70001
37.04107,69617
37.04920,70283
37.05732,66616
37.06543,66150
37.07357,69644
37.08168,69732
37.08982,65843
37.09793,73507
37.10605,71600
37.11418,70698
37.12230,70153
37.13042,77094
37.13855,67326
37.14667,67737
37.15480,63719
37.16292,65947
37.17103,66495
37.17917,63434
37.18728,63368
37.19542,72761
37.20353,66694
37.21165,66522
37.21978,69047
37.22790,69365
37.23603,71136
37.24415,68760
37.25227,68400
37.26040,74034
37.26852,72122
37.27663,70451
37.28477,70680
37.29288,67795
37.30102,72248
37.30913,68428
37.31725,65998
37.32538,66798
37.33350,72228
37.34163,74110
37.34975,79338
37.35787,75465
37.36600,81872
37.37412,88509
37.38225,97932
37.39037,107149
37.39848,111765
37.40662,120639
37.41473,109693
37.42285,104254
37.43098,99641
37.43910,96286
37.44723,94319
37.45535,88852
37.46347,85949
37.47160,85709
37.47972,84474
37.48785,81793
