C:\MassHunter\GCMS\1\data\JTB-E18\BURNOFFS\JTB-E18-01.D Wed Aug 21 10:26:15 2019
Start of data points
2.09513,148784
2.10327,176191
2.11138,192786
2.11950,199245
2.12763,202549
2.13575,198864
2.14388,188149
2.15200,172479
2.16012,170485
2.16825,150671
2.17637,138124
2.18448,138548
2.19262,126748
2.20073,120387
2.20887,118707
2.21698,108611
2.22510,106405
2.23323,99274
2.24135,94832
2.24948,89928
2.25760,92221
2.26572,88167
2.27385,84633
2.28197,81456
2.29010,83401
2.29822,77136
2.30633,78934
2.31447,77515
2.32258,68629
2.33070,72299
2.33883,75129
2.34695,70375
2.35508,69905
2.36320,67615
2.37132,67791
2.37945,65439
2.38757,64158
2.39570,58743
2.40382,63105
2.41193,63758
2.42007,60382
2.42818,61773
2.43630,63434
2.44443,62455
2.45255,63599
2.46068,59525
2.46880,58811
2.47692,62116
2.48505,58453
2.49317,60743
2.50130,58971
2.50942,63525
2.51753,59066
2.52567,64608
2.53378,54959
2.54192,57123
2.55003,60734
2.55815,61473
2.56628,55664
2.57440,53185
2.58252,54553
2.59065,59737
2.59877,53766
2.60690,55932
2.61502,56109
2.62313,55606
2.63127,57390
2.63938,57995
2.64752,53410
2.65563,53274
2.66375,51909
2.67188,55401
2.68000,53875
2.68812,52007
2.69625,56172
2.70437,55307
2.71250,51854
2.72062,53343
2.72873,53333
2.73687,52354
2.74498,56097
2.75312,50200
2.76123,56003
2.76935,52357
2.77748,52556
2.78560,50289
2.79373,49874
2.80185,50843
2.80997,52609
2.81810,51888
2.82622,51478
2.83433,48333
2.84247,49430
2.85058,48111
2.85872,49924
2.86683,51224
2.87495,52784
2.88308,53255
2.89120,48736
2.89933,55512
2.90745,48915
2.91557,48787
2.92370,49432
2.93182,52247
2.93995,49496
2.94807,52492
2.95618,50358
2.96432,48427
2.97243,48494
2.98055,47495
2.98868,50890
2.99680,49522
3.00493,49309
3.01305,49354
3.02117,51984
3.02930,49113
3.03742,52125
3.04555,52352
3.05367,48621
3.06178,46601
3.06992,48465
3.07803,48551
3.08615,47101
3.09428,50112
3.10240,46946
3.11053,48350
3.11865,45305
3.12677,46036
3.13490,48353
3.14302,48253
3.15115,50523
3.15927,54356
3.16738,52978
3.17552,52184
3.18363,46633
3.19177,48512
3.19988,50003
3.20800,48460
3.21613,49156
3.22425,53071
3.23237,51590
3.24050,49092
3.24862,50733
3.25675,49657
3.26487,50904
3.27298,50629
3.28112,53530
3.28923,51074
3.29737,48611
3.30548,52627
3.31360,55670
3.32173,51312
3.32985,54927
3.33798,51253
3.34610,51296
3.35422,52082
3.36235,50654
3.37047,49225
3.37858,51162
3.38672,48259
3.39483,49998
3.40297,47702
3.41108,48561
3.41920,50382
3.42733,51224
3.43545,52240
3.44358,49356
3.45170,50907
3.45982,52418
3.46795,49212
3.47607,52902
3.48418,53206
3.49232,50712
3.50043,49668
3.50857,51448
3.51668,47238
3.52480,52192
3.53293,48179
3.54105,50240
3.54918,53227
3.55730,49882
3.56542,52856
3.57355,51119
3.58167,50508
3.58980,45819
3.59792,50451
3.60603,53669
3.61417,48692
3.62228,51730
3.63040,58189
3.63853,49352
3.64665,51722
3.65478,51110
3.66290,51566
3.67102,51919
3.67915,49450
3.68727,54107
3.69540,54596
3.70352,49896
3.71163,52774
3.71977,51990
3.72788,49761
3.73600,49920
3.74413,50991
3.75225,48550
3.76038,51757
3.76850,52240
3.77662,51036
3.78475,50798
3.79287,51709
3.80100,53709
3.80912,53637
3.81723,52170
3.82537,55204
3.83348,53133
3.84162,51043
3.84973,49754
3.85785,50888
3.86598,50852
3.87410,52828
3.88222,52338
3.89035,53571
3.89847,54052
3.90660,52524
3.91472,51213
3.92283,53038
3.93097,50073
3.93908,50342
3.94722,49796
3.95533,50610
3.96345,52962
3.97158,52471
3.97970,51340
3.98783,51351
3.99595,48827
4.00407,57098
4.01220,53480
4.02032,51098
4.02843,54272
4.03657,53289
4.04468,50557
4.05282,53777
4.06093,51341
4.06905,50549
4.07718,54330
4.08530,52786
4.09343,51349
4.10155,50026
4.10967,52628
4.11780,52663
4.12592,51239
4.13403,51897
4.14217,54077
4.15028,49000
4.15842,49468
4.16653,49943
4.17465,49202
4.18278,49455
4.19090,54825
4.19903,48064
4.20715,53831
4.21527,51707
4.22340,49525
4.23152,52458
4.23965,53928
4.24777,54044
4.25588,50419
4.26402,55856
4.27213,51658
4.28025,52374
4.28838,52657
4.29650,52381
4.30463,56596
4.31275,52441
4.32087,52695
4.32900,53537
4.33712,53648
4.34525,56665
4.35337,51649
4.36148,51696
4.36962,61910
4.37773,49870
4.38587,50174
4.39398,57663
4.40210,50212
4.41023,52997
4.41835,51576
4.42647,52348
4.43460,51333
4.44272,50842
4.45085,54446
4.45897,53754
4.46708,54787
4.47522,49782
4.48333,49953
4.49147,48268
4.49958,53233
4.50770,54551
4.51583,51752
4.52395,49065
4.53207,50725
4.54020,49460
4.54832,49499
4.55645,50149
4.56457,52208
4.57268,50973
4.58082,51336
4.58893,54701
4.59707,57137
4.60518,51517
4.61330,49934
4.62143,50428
4.62955,47010
4.63768,52665
4.64580,46658
4.65392,49132
4.66205,48146
4.67017,50801
4.67828,47728
4.68642,60070
4.69453,52668
4.70267,52844
4.71078,51244
4.71890,50712
4.72703,53141
4.73515,52742
4.74328,51416
4.75140,50631
4.75952,54652
4.76765,50581
4.77577,50233
4.78388,50826
4.79202,51394
4.80013,52548
4.80827,52364
4.81638,50223
4.82450,53957
4.83263,49533
4.84075,55189
4.84888,52560
4.85700,51591
4.86512,54512
4.87325,51430
4.88137,55382
4.88950,53015
4.89762,51595
4.90573,54553
4.91387,50544
4.92198,54100
4.93010,51971
4.93823,59922
4.94635,53598
4.95448,52428
4.96260,53713
4.97072,52296
4.97885,51756
4.98697,55455
4.99510,56701
5.00322,54412
5.01133,54962
5.01947,49711
5.02758,54074
5.03572,54301
5.04383,53169
5.05195,54531
5.06008,55039
5.06820,57627
5.07632,51845
5.08445,55113
5.09257,58047
5.10070,60543
5.10882,55120
5.11693,59792
5.12507,52592
5.13318,50960
5.14132,52627
5.14943,50364
5.15755,51905
5.16568,53366
5.17380,51634
5.18192,55176
5.19005,54973
5.19817,53416
5.20630,57681
5.21442,50485
5.22253,50622
5.23067,58644
5.23878,54476
5.24692,60126
5.25503,57606
5.26315,52921
5.27128,52017
5.27940,51632
5.28753,48331
5.29565,48689
5.30377,52070
5.31190,52739
5.32002,52272
5.32813,50127
5.33627,50521
5.34438,51160
5.35252,50888
5.36063,50825
5.36875,49988
5.37688,52063
5.38500,51309
5.39313,50472
5.40125,52703
5.40937,51883
5.41750,52147
5.42562,50279
5.43375,54219
5.44187,52170
5.44998,53005
5.45812,47643
5.46623,52343
5.47435,48928
5.48248,50285
5.49060,45248
5.49873,48953
5.50685,52439
5.51497,47857
5.52310,49344
5.53122,47578
5.53935,48669
5.54747,51741
5.55558,48934
5.56372,51886
5.57183,47868
5.57995,44849
5.58808,47793
5.59620,51497
5.60433,49922
5.61245,48383
5.62057,51201
5.62870,50278
5.63682,56308
5.64495,51559
5.65307,49364
5.66118,48437
5.66932,50040
5.67743,49172
5.68557,48075
5.69368,48722
5.70180,50760
5.70993,49599
5.71805,47954
5.72617,53472
5.73430,51915
5.74242,49640
5.75055,50384
5.75867,50779
5.76678,50060
5.77492,51563
5.78303,50867
5.79117,45033
5.79928,48540
5.80740,48563
5.81553,50920
5.82365,48482
5.83178,49165
5.83990,52581
5.84802,45175
5.85615,51146
5.86427,49432
5.87238,51797
5.88052,52597
5.88863,49464
5.89677,49829
5.90488,50608
5.91300,47999
5.92113,42191
5.92925,40212
5.93738,40257
5.94550,41789
5.95362,41205
5.96175,39233
5.96987,41241
5.97798,39450
5.98612,39433
5.99423,40288
6.00237,40811
6.01048,38240
6.01860,39181
6.02673,43000
6.03485,40473
6.04298,40043
6.05110,40666
6.05922,40429
6.06735,39320
6.07547,39818
6.08360,42247
6.09172,39924
6.09983,40459
6.10797,41851
6.11608,40406
6.12420,38484
6.13233,39210
6.14045,39112
6.14858,41779
6.15670,37607
6.16482,39707
6.17295,37709
6.18107,41677
6.18920,42871
6.19732,39881
6.20543,37841
6.21357,40404
6.22168,40656
6.22980,40979
6.23793,40717
6.24605,39729
6.25418,38940
6.26230,40852
6.27042,40380
6.27855,40918
6.28667,40774
6.29480,39999
6.30292,42303
6.31103,42095
6.31917,43547
6.32728,36552
6.33542,41333
6.34353,39444
6.35165,37335
6.35978,37568
6.36790,37355
6.37602,40976
6.38415,39693
6.39227,37976
6.40040,40200
6.40852,37433
6.41663,38249
6.42477,42160
6.43288,40792
6.44102,38927
6.44913,40375
6.45725,41380
6.46538,40944
6.47350,41691
6.48163,39034
6.48975,39851
6.49787,41238
6.50600,39246
6.51412,43060
6.52223,36340
6.53037,42413
6.53848,41076
6.54662,41439
6.55473,40204
6.56285,38987
6.57098,37467
6.57910,34012
6.58723,38990
6.59535,43086
6.60347,37331
6.61160,39164
6.61972,43913
6.62783,39607
6.63597,40757
6.64408,38357
6.65222,39306
6.66033,40206
6.66845,39692
6.67658,36878
6.68470,37888
6.69283,36962
6.70095,36916
6.70907,37128
6.71720,37776
6.72532,38507
6.73345,41462
6.74157,39674
6.74968,37364
6.75782,37233
6.76593,40833
6.77405,40812
6.78218,39234
6.79030,40981
6.79843,39416
6.80655,39354
6.81467,33752
6.82280,39103
6.83092,40376
6.83905,36424
6.84717,35434
6.85528,35439
6.86342,34124
6.87153,33453
6.87967,30891
6.88778,31862
6.89590,31133
6.90403,32195
6.91215,34388
6.92027,35449
6.92840,33183
6.93652,27854
6.94465,33464
6.95277,32499
6.96088,35458
6.96902,31206
6.97713,30994
6.98527,32174
6.99338,33951
7.00150,31152
7.00963,31967
7.01775,33818
7.02587,32130
7.03400,34201
7.04212,33568
7.05025,32528
7.05837,30840
7.06648,30632
7.07462,34475
7.08273,33253
7.09087,32874
7.09898,34653
7.10710,34189
7.11523,35113
7.12335,34927
7.13148,32142
7.13960,31949
7.14772,34687
7.15585,32642
7.16397,31174
7.17208,31891
7.18022,32321
7.18833,32522
7.19647,31340
7.20458,31701
7.21270,34364
7.22083,32354
7.22895,30848
7.23708,32304
7.24520,30747
7.25332,34208
7.26145,31616
7.26957,31333
7.27768,34023
7.28582,34290
7.29393,32661
7.30207,29682
7.31018,34599
7.31830,31732
7.32643,31931
7.33455,34197
7.34268,30740
7.35080,33509
7.35892,33231
7.36705,32405
7.37517,35336
7.38330,30104
7.39142,29830
7.39953,30652
7.40767,33731
7.41578,30779
7.42390,34061
7.43203,32005
7.44015,32491
7.44828,30289
7.45640,30304
7.46452,29991
7.47265,31623
7.48077,34273
7.48890,29840
7.49702,30922
7.50513,29212
7.51327,30319
7.52138,30778
7.52952,30891
7.53763,29227
7.54575,31443
7.55388,30089
7.56200,30260
7.57012,28408
7.57825,32693
7.58637,32733
7.59450,32662
7.60262,29073
7.61073,30181
7.61887,32362
7.62698,32343
7.63512,30481
7.64323,36299
7.65135,31592
7.65948,33926
7.66760,34423
7.67573,32620
7.68385,30165
7.69197,33275
7.70010,31037
7.70822,28901
7.71633,31094
7.72447,27702
7.73258,26573
7.74072,29869
7.74883,30740
7.75695,32846
7.76508,29185
7.77320,30557
7.78133,29175
7.78945,29965
7.79757,29386
7.80570,29965
7.81382,30373
7.82193,30331
7.83007,31463
7.83818,34690
7.84632,29447
7.85443,29190
7.86255,29591
7.87068,30009
7.87880,28991
7.88693,32721
7.89505,31656
7.90317,33979
7.91130,29701
7.91942,30754
7.92755,32214
7.93567,32288
7.94378,29331
7.95192,31369
7.96003,31666
7.96815,31399
7.97628,29547
7.98440,29437
7.99253,28167
8.00065,29777
8.00877,31772
8.01690,31305
8.02502,28541
8.03315,29808
8.04127,30379
8.04938,30759
8.05752,29935
8.06563,29689
8.07375,33744
8.08188,29030
8.09000,28893
8.09813,28021
8.10625,28335
8.11437,28126
8.12250,35345
8.13062,32644
8.13875,29941
8.14687,29538
8.15498,28423
8.16312,33901
8.17123,27894
8.17937,32176
8.18748,30986
8.19560,30530
8.20373,30316
8.21185,29264
8.21997,29563
8.22810,28016
8.23622,30144
8.24435,29529
8.25247,28935
8.26058,29349
8.26872,28334
8.27683,28709
8.28497,29440
8.29308,29122
8.30120,29625
8.30933,31073
8.31745,31118
8.32558,30794
8.33370,32408
8.34182,29615
8.34995,30117
8.35807,27918
8.36618,31338
8.37432,30205
8.38243,27868
8.39057,27687
8.39868,29756
8.40680,27957
8.41493,29173
8.42305,29495
8.43118,31324
8.43930,32981
8.44742,28305
8.45555,32155
8.46367,29325
8.47178,29613
8.47992,31777
8.48803,28572
8.49617,27683
8.50428,28451
8.51240,31982
8.52053,28735
8.52865,33579
8.53678,30019
8.54490,31084
8.55302,31588
8.56115,29312
8.56927,30537
8.57740,27996
8.58552,28673
8.59363,26133
8.60177,33997
8.60988,29068
8.61800,29669
8.62613,29936
8.63425,27704
8.64238,27692
8.65050,28719
8.65862,29747
8.66675,29289
8.67487,30038
8.68300,28639
8.69112,29388
8.69923,30100
8.70737,30098
8.71548,30534
8.72362,27016
8.73173,32108
8.73985,33423
8.74798,27697
8.75610,28899
8.76422,26348
8.77235,31221
8.78047,30256
8.78860,29523
8.79672,31633
8.80483,27775
8.81297,30430
8.82108,28558
8.82922,28931
8.83733,31300
8.84545,32439
8.85358,28865
8.86170,28624
8.86982,28477
8.87795,30696
8.88607,32016
8.89420,28411
8.90232,34071
8.91043,31561
8.91857,30843
8.92668,30122
8.93482,32529
8.94293,33716
8.95105,34893
8.95918,29483
8.96730,31605
8.97543,31047
8.98355,35916
8.99167,30700
8.99980,32559
9.00792,30975
9.01603,33964
9.02417,32728
9.03228,36330
9.04042,34812
9.04853,29723
9.05665,29658
9.06478,28980
9.07290,30295
9.08103,30630
9.08915,30529
9.09727,31039
9.10540,31693
9.11352,32931
9.12163,28806
9.12977,30751
9.13788,31869
9.14602,32651
9.15413,34204
9.16225,28227
9.17038,33370
9.17850,31903
9.18663,33167
9.19475,33942
9.20287,32883
9.21100,30840
9.21912,34564
9.22725,29754
9.23537,33676
9.24348,31454
9.25162,30822
9.25973,31632
9.26785,30861
9.27598,31898
9.28410,32840
9.29223,28703
9.30035,31120
9.30847,31022
9.31660,32812
9.32472,30966
9.33285,29891
9.34097,30320
9.34908,31598
9.35722,28322
9.36533,30835
9.37347,30294
9.38158,28583
9.38970,35843
9.39783,31118
9.40595,31822
9.41407,30357
9.42220,29817
9.43032,36480
9.43845,29439
9.44657,30563
9.45468,28326
9.46282,29160
9.47093,29316
9.47907,29717
9.48718,33652
9.49530,29107
9.50343,31576
9.51155,28315
9.51967,27727
9.52780,31548
9.53592,31202
9.54405,30419
9.55217,26251
9.56028,26827
9.56842,25725
9.57653,25836
9.58467,29265
9.59278,26825
9.60090,26127
9.60903,28548
9.61715,25208
9.62528,28204
9.63340,26025
9.64152,30909
9.64965,29288
9.65777,30604
9.66588,25557
9.67402,28026
9.68213,30021
9.69027,28732
9.69838,26561
9.70650,29536
9.71463,27281
9.72275,27345
9.73088,26468
9.73900,28535
9.74712,30564
9.75525,27957
9.76337,26539
9.77150,25367
9.77962,25464
9.78773,25761
9.79587,26132
9.80398,28345
9.81210,28132
9.82023,26262
9.82835,26693
9.83648,31353
9.84460,26685
9.85272,26923
9.86085,27800
9.86897,26564
9.87710,25824
9.88522,26479
9.89333,27611
9.90147,26373
9.90958,32126
9.91770,26751
9.92583,26651
9.93395,26690
9.94208,27076
9.95020,30446
9.95832,28296
9.96645,29909
9.97457,28646
9.98270,28000
9.99082,28721
9.99893,25995
10.00707,25624
10.01518,26206
10.02332,29534
10.03143,25271
10.03955,28941
10.04768,24066
10.05580,26533
10.06392,25029
10.07205,27738
10.08017,25923
10.08830,27159
10.09642,26745
10.10453,28439
10.11267,30360
10.12078,27275
10.12892,25759
10.13703,27439
10.14515,25101
10.15328,24870
10.16140,27235
10.16953,26322
10.17765,26268
10.18577,25771
10.19390,30301
10.20202,28069
10.21013,27011
10.21827,30026
10.22638,28653
10.23452,28319
10.24263,27896
10.25075,23601
10.25888,29942
10.26700,29970
10.27513,26933
10.28325,26242
10.29137,26571
10.29950,26591
10.30762,25615
10.31573,30353
10.32387,27091
10.33198,26665
10.34012,24888
10.34823,31937
10.35635,26802
10.36448,32850
10.37260,28091
10.38073,25782
10.38885,20888
10.39697,27630
10.40510,26354
10.41322,27611
10.42135,25720
10.42947,27926
10.43758,25893
10.44572,25904
10.45383,24428
10.46195,25672
10.47008,27471
10.47820,28559
10.48633,25915
10.49445,26990
10.50257,28057
10.51070,28593
10.51882,27771
10.52695,25067
10.53507,23880
10.54318,28761
10.55132,27485
10.55943,26425
10.56755,27525
10.57568,26163
10.58380,26112
10.59193,26582
10.60005,26179
10.60817,27551
10.61630,24765
10.62442,27834
10.63255,28678
10.64067,27773
10.64878,26495
10.65692,26004
10.66503,25989
10.67317,28295
10.68128,27554
10.68940,26888
10.69753,29975
10.70565,28287
10.71377,30264
10.72190,27850
10.73002,26249
10.73815,24796
10.74627,26612
10.75438,27570
10.76252,27138
10.77063,25436
10.77877,27895
10.78688,26508
10.79500,27617
10.80313,26703
10.81125,23956
10.81938,27524
10.82750,25776
10.83562,24462
10.84375,26054
10.85187,25509
10.85998,29646
10.86812,27167
10.87623,24053
10.88437,27034
10.89248,25933
10.90060,25105
10.90873,27135
10.91685,29700
10.92498,27753
10.93310,26930
10.94122,27390
10.94935,26004
10.95747,27493
10.96558,27540
10.97372,25096
10.98183,27693
10.98997,27161
10.99808,28568
11.00620,27677
11.01433,26831
11.02245,24952
11.03058,24728
11.03870,25530
11.04682,26416
11.05495,28508
11.06307,23956
11.07120,27605
11.07932,26346
11.08743,27743
11.09557,25689
11.10368,25714
11.11180,26501
11.11993,27273
11.12805,26641
11.13618,24818
11.14430,24046
11.15242,27849
11.16055,25852
11.16867,25034
11.17680,26364
11.18492,28510
11.19303,27334
11.20117,27715
11.20928,26888
11.21742,29101
11.22553,29389
11.23365,29141
11.24178,28034
11.24990,26693
11.25802,27311
11.26615,27318
11.27427,28955
11.28240,25233
11.29052,26235
11.29863,26275
11.30677,26523
11.31488,24619
11.32302,25793
11.33113,24746
11.33925,24742
11.34738,25734
11.35550,26218
11.36362,28830
11.37175,26265
11.37987,26703
11.38800,28114
11.39612,26086
11.40423,27415
11.41237,25750
11.42048,23800
11.42862,24530
11.43673,25991
11.44485,29948
11.45298,26228
11.46110,24784
11.46923,24354
11.47735,23797
11.48547,28864
11.49360,26717
11.50172,27682
11.50983,25366
11.51797,26290
11.52608,24780
11.53422,24322
11.54233,24069
11.55045,23963
11.55858,26930
11.56670,25829
11.57483,26222
11.58295,27137
11.59107,24971
11.59920,24474
11.60732,27140
11.61543,26609
11.62357,26477
11.63168,23660
11.63982,23986
11.64793,26178
11.65605,24718
11.66418,28824
11.67230,27045
11.68043,27017
11.68855,27619
11.69667,24756
11.70480,23790
11.71292,23933
11.72105,24379
11.72917,25086
11.73728,26190
11.74542,28659
11.75353,23582
11.76165,23742
11.76978,25162
11.77790,25022
11.78603,23683
11.79415,24883
11.80227,25647
11.81040,24690
11.81852,27822
11.82665,26840
11.83477,24067
11.84288,27420
11.85102,24980
11.85913,25700
11.86727,24297
11.87538,27697
11.88350,26194
11.89163,24629
11.89975,26098
11.90787,25436
11.91600,26148
11.92412,24186
11.93225,26755
11.94037,24993
11.94848,24592
11.95662,26627
11.96473,23516
11.97287,26298
11.98098,28150
11.98910,26028
11.99723,25939
12.00535,25965
12.01347,26358
12.02160,26313
12.02972,24839
12.03785,27165
12.04597,24142
12.05408,28792
12.06222,24225
12.07033,25373
12.07847,25885
12.08658,26333
12.09470,27976
12.10283,23786
12.11095,26705
12.11908,24836
12.12720,24564
12.13532,27394
12.14345,28838
12.15157,25622
12.15968,25371
12.16782,24142
12.17593,24793
12.18407,28754
12.19218,27013
12.20030,25865
12.20843,29773
12.21655,25131
12.22468,25459
12.23280,24465
12.24092,23243
12.24905,25184
12.25717,27534
12.26530,26649
12.27342,23689
12.28153,24197
12.28967,25158
12.29778,27703
12.30590,24632
12.31403,22578
12.32215,30315
12.33028,24028
12.33840,23672
12.34652,25614
12.35465,26016
12.36277,25260
12.37090,25822
12.37902,25433
12.38713,26508
12.39527,27987
12.40338,27047
12.41150,25905
12.41963,24734
12.42775,23468
12.43588,23428
12.44400,25870
12.45212,29218
12.46025,24759
12.46837,25771
12.47650,29269
12.48462,25299
12.49273,26729
12.50087,25302
12.50898,25851
12.51712,27173
12.52523,26554
12.53335,24025
12.54148,25618
12.54960,25426
12.55772,25152
12.56585,24216
12.57397,26205
12.58210,22427
12.59022,25637
12.59833,26407
12.60647,23694
12.61458,24963
12.62272,29470
12.63083,24599
12.63895,26210
12.64708,28532
12.65520,28752
12.66332,24934
12.67145,30874
12.67957,24969
12.68770,28030
12.69582,24352
12.70393,24299
12.71207,26000
12.72018,25009
12.72832,26279
12.73643,27235
12.74455,25930
12.75268,27276
12.76080,27777
12.76893,24153
12.77705,23987
12.78517,23704
12.79330,29114
12.80142,26567
12.80953,26161
12.81767,24818
12.82578,28475
12.83392,25572
12.84203,26541
12.85015,26026
12.85828,23052
12.86640,27230
12.87453,25900
12.88265,26827
12.89077,25384
12.89890,28067
12.90702,24178
12.91515,24399
12.92327,25889
12.93138,27459
12.93952,27578
12.94763,26182
12.95575,24723
12.96388,24826
12.97200,25006
12.98013,25586
12.98825,25439
12.99637,24254
13.00450,23571
13.01262,26132
13.02075,26282
13.02887,27431
13.03698,24055
13.04512,25570
13.05323,25993
13.06137,23922
13.06948,26269
13.07760,29925
13.08573,25856
13.09385,23817
13.10197,25696
13.11010,24801
13.11822,25369
13.12635,26574
13.13447,26336
13.14258,27322
13.15072,26138
13.15883,26261
13.16697,25204
13.17508,26861
13.18320,23518
13.19133,26884
13.19945,24093
13.20757,28194
13.21570,23275
13.22382,25690
13.23195,25242
13.24007,25312
13.24818,26161
13.25632,26096
13.26443,24204
13.27257,24719
13.28068,26015
13.28880,24687
13.29693,26095
13.30505,24497
13.31318,23779
13.32130,27367
13.32942,26942
13.33755,24137
13.34567,24593
13.35378,25717
13.36192,23451
13.37003,24412
13.37817,26505
13.38628,25278
13.39440,28961
13.40253,24123
13.41065,25132
13.41878,28553
13.42690,25918
13.43502,27126
13.44315,27889
13.45127,27099
13.45938,26287
13.46752,30415
13.47563,27017
13.48377,25397
13.49188,23991
13.50000,26247
13.50813,27455
13.51625,25347
13.52438,25885
13.53250,23131
13.54062,28617
13.54875,25855
13.55687,25084
13.56500,29618
13.57312,29478
13.58123,27706
13.58937,23807
13.59748,26466
13.60560,27315
13.61373,26221
13.62185,26626
13.62998,29520
13.63810,25187
13.64622,27488
13.65435,27053
13.66247,24275
13.67060,25487
13.67872,27042
13.68683,25810
13.69497,25625
13.70308,26074
13.71122,24985
13.71933,25083
13.72745,25204
13.73558,27476
13.74370,28012
13.75182,25968
13.75995,25707
13.76807,25850
13.77620,24277
13.78432,26564
13.79243,27795
13.80057,24764
13.80868,27927
13.81682,27810
13.82493,24837
13.83305,25599
13.84118,25886
13.84930,24181
13.85742,27041
13.86555,27790
13.87367,27467
13.88180,27577
13.88992,30516
13.89803,25035
13.90617,26619
13.91428,24159
13.92242,24867
13.93053,28060
13.93865,25491
13.94678,26336
13.95490,25942
13.96303,24705
13.97115,26754
13.97927,26907
13.98740,26152
13.99552,27526
14.00363,24242
14.01177,25835
14.01988,26113
14.02802,28372
14.03613,22882
14.04425,24279
14.05238,27230
14.06050,26605
14.06863,24618
14.07675,28102
14.08487,26872
14.09300,25659
14.10112,23171
14.10925,25428
14.11737,25879
14.12548,25685
14.13362,27379
14.14173,23434
14.14985,27295
14.15798,25481
14.16610,27078
14.17423,26488
14.18235,26414
14.19047,27525
14.19860,27414
14.20672,31703
14.21485,27398
14.22297,27810
14.23108,28501
14.23922,29614
14.24733,28308
14.25545,28489
14.26358,26986
14.27170,28279
14.27983,27224
14.28795,29665
14.29607,28238
14.30420,27290
14.31232,29382
14.32045,34396
14.32857,27208
14.33668,29967
14.34482,27729
14.35293,26685
14.36107,27062
14.36918,27101
14.37730,25662
14.38543,25807
14.39355,25205
14.40167,27221
14.40980,29094
14.41792,26202
14.42605,25635
14.43417,25467
14.44228,27483
14.45042,27349
14.45853,26793
14.46667,27043
14.47478,25889
14.48290,30133
14.49103,27295
14.49915,24967
14.50727,25904
14.51540,28383
14.52352,24210
14.53165,28805
14.53977,22553
14.54788,27430
14.55602,28015
14.56413,25370
14.57227,24909
14.58038,25974
14.58850,25718
14.59663,27586
14.60475,27335
14.61288,24045
14.62100,27258
14.62912,25773
14.63725,26291
14.64537,25456
14.65348,26962
14.66162,26656
14.66973,30340
14.67787,25285
14.68598,27599
14.69410,26681
14.70223,25355
14.71035,25486
14.71848,24050
14.72660,27614
14.73472,26635
14.74285,26663
14.75097,31022
14.75910,26115
14.76722,24696
14.77533,25243
14.78347,27091
14.79158,26370
14.79970,25997
14.80783,27018
14.81595,25077
14.82408,24531
14.83220,25160
14.84032,25532
14.84845,26532
14.85657,28532
14.86470,24807
14.87282,26177
14.88093,24882
14.88907,26909
14.89718,25559
14.90530,27568
14.91343,31168
14.92155,26508
14.92968,27307
14.93780,29530
14.94592,27586
14.95405,29935
14.96217,26356
14.97030,28606
14.97842,25762
14.98653,27118
14.99467,26861
15.00278,27550
15.01092,31302
15.01903,24186
15.02715,27426
15.03528,27925
15.04340,26572
15.05152,26687
15.05965,27035
15.06777,27589
15.07590,28749
15.08402,27309
15.09213,26891
15.10027,27330
15.10838,32376
15.11652,28290
15.12463,26314
15.13275,25233
15.14088,25065
15.14900,27393
15.15713,26736
15.16525,28265
15.17337,29018
15.18150,29000
15.18962,25604
15.19773,28806
15.20587,26267
15.21398,28356
15.22212,26731
15.23023,26791
15.23835,27253
15.24648,26710
15.25460,28049
15.26273,24950
15.27085,27273
15.27897,26027
15.28710,27791
15.29522,27920
15.30333,29405
15.31147,27655
15.31958,28263
15.32772,28545
15.33583,30913
15.34395,26691
15.35208,25549
15.36020,29216
15.36833,26728
15.37645,27971
15.38457,27287
15.39270,24290
15.40082,30635
15.40895,26846
15.41707,28750
15.42518,30550
15.43332,25301
15.44143,24750
15.44955,27711
15.45768,28989
15.46580,26382
15.47393,28202
15.48205,28740
15.49017,27501
15.49830,24986
15.50642,25564
15.51455,28121
15.52267,28690
15.53078,27987
15.53892,29461
15.54703,26915
15.55517,26654
15.56328,28915
15.57140,28509
15.57953,27813
15.58765,27435
15.59577,28456
15.60390,28139
15.61202,24880
15.62015,25787
15.62827,27647
15.63638,29393
15.64452,29926
15.65263,29265
15.66077,27963
15.66888,28647
15.67700,28923
15.68513,30584
15.69325,27478
15.70137,27151
15.70950,31727
15.71762,28935
15.72575,28070
15.73387,29113
15.74198,27863
15.75012,27681
15.75823,28240
15.76637,28063
15.77448,32097
15.78260,26902
15.79073,27591
15.79885,27742
15.80698,28116
15.81510,30894
15.82322,28564
15.83135,28438
15.83947,26766
15.84758,32492
15.85572,29100
15.86383,27297
15.87197,27300
15.88008,28366
15.88820,27172
15.89633,31433
15.90445,29434
15.91258,29004
15.92070,28890
15.92882,28934
15.93695,28470
15.94507,25744
15.95318,31496
15.96132,28527
15.96943,26373
15.97757,28435
15.98568,30473
15.99380,30378
16.00193,26707
16.01005,28043
16.01818,27911
16.02630,27275
16.03442,29614
16.04255,29400
16.05067,29464
16.05880,31525
16.06692,28849
16.07503,33006
16.08317,25981
16.09128,30413
16.09940,30134
16.10753,29191
16.11565,28991
16.12378,28855
16.13190,34718
16.14002,28638
16.14815,26764
16.15627,27659
16.16440,29531
16.17252,28449
16.18063,28567
16.18877,29180
16.19688,29511
16.20502,28698
16.21313,33462
16.22125,28850
16.22938,28730
16.23750,27395
16.24562,30679
16.25375,29933
16.26187,32287
16.27000,31319
16.27812,30751
16.28623,32001
16.29437,32030
16.30248,29590
16.31062,30332
16.31873,29980
16.32685,29146
16.33498,31203
16.34310,29194
16.35122,31474
16.35935,32132
16.36747,26753
16.37560,32489
16.38372,31073
16.39183,28948
16.39997,33293
16.40808,28200
16.41622,34666
16.42433,31982
16.43245,29251
16.44058,27705
16.44870,29200
16.45683,28755
16.46495,29713
16.47307,29070
16.48120,31069
16.48932,31168
16.49743,32998
16.50557,31310
16.51368,27395
16.52182,32999
16.52993,31930
16.53805,32341
16.54618,29268
16.55430,31061
16.56243,33873
16.57055,31454
16.57867,31028
16.58680,30026
16.59492,30371
16.60305,29224
16.61117,35010
16.61928,27614
16.62742,31766
16.63553,30199
16.64365,27712
16.65178,28485
16.65990,33416
16.66803,29028
16.67615,31009
16.68427,31521
16.69240,26488
16.70052,29995
16.70865,26558
16.71677,28921
16.72488,30634
16.73302,28411
16.74113,35768
16.74925,34693
16.75738,31901
16.76550,29895
16.77363,29997
16.78175,31007
16.78987,29729
16.79800,29994
16.80612,30135
16.81425,32372
16.82237,30456
16.83048,32817
16.83862,30466
16.84673,34418
16.85487,29949
16.86298,29848
16.87110,33561
16.87923,32727
16.88735,31799
16.89547,34694
16.90360,31536
16.91172,32612
16.91985,29608
16.92797,29227
16.93608,29006
16.94422,30701
16.95233,28502
16.96047,31350
16.96858,30329
16.97670,28639
16.98483,31545
16.99295,31671
17.00107,29961
17.00920,34856
17.01732,30329
17.02545,35033
17.03357,32256
17.04168,32560
17.04982,29906
17.05793,33370
17.06607,31517
17.07418,31921
17.08230,32482
17.09043,32696
17.09855,32424
17.10668,31828
17.11480,31476
17.12292,32643
17.13105,30714
17.13917,31643
17.14728,33044
17.15542,30287
17.16353,31143
17.17167,28876
17.17978,32495
17.18790,31913
17.19603,32411
17.20415,32729
17.21228,31867
17.22040,31548
17.22852,32793
17.23665,30396
17.24477,29871
17.25290,30458
17.26102,31741
17.26913,30781
17.27727,29369
17.28538,33510
17.29350,35754
17.30163,32412
17.30975,33891
17.31788,31427
17.32600,31027
17.33412,30560
17.34225,32492
17.35037,31013
17.35850,29496
17.36662,33523
17.37473,35427
17.38287,35109
17.39098,35433
17.39912,34039
17.40723,31990
17.41535,35943
17.42348,32899
17.43160,31424
17.43972,32960
17.44785,35219
17.45597,33101
17.46410,31571
17.47222,33441
17.48033,31674
17.48847,34811
17.49658,33902
17.50472,35242
17.51283,31911
17.52095,33258
17.52908,35416
17.53720,34280
17.54532,32965
17.55345,35313
17.56157,33315
17.56970,33452
17.57782,33210
17.58593,33678
17.59407,32604
17.60218,38825
17.61032,33050
17.61843,34304
17.62655,33176
17.63468,34463
17.64280,36044
17.65093,32270
17.65905,35108
17.66717,34501
17.67530,31577
17.68342,33974
17.69153,34282
17.69967,37957
17.70778,35839
17.71592,36154
17.72403,34169
17.73215,32689
17.74028,33653
17.74840,37727
17.75653,38268
17.76465,32568
17.77277,36077
17.78090,35235
17.78902,35754
17.79713,32608
17.80527,33648
17.81338,35800
17.82152,36349
17.82963,35051
17.83775,35510
17.84588,35713
17.85400,35089
17.86213,34924
17.87025,30686
17.87837,35079
17.88650,34370
17.89462,35830
17.90275,34120
17.91087,37055
17.91898,33436
17.92712,34388
17.93523,36736
17.94335,34825
17.95148,35448
17.95960,35349
17.96773,39240
17.97585,34817
17.98397,34564
17.99210,32579
18.00022,35528
18.00835,35103
18.01647,35155
18.02458,31038
18.03272,36056
18.04083,33707
18.04897,38255
18.05708,33910
18.06520,34718
18.07333,31212
18.08145,33277
18.08957,35336
18.09770,32765
18.10582,33811
18.11395,36549
18.12207,35166
18.13018,34053
18.13832,36485
18.14643,34405
18.15457,34755
18.16268,35422
18.17080,36212
18.17893,36212
18.18705,38777
18.19517,35940
18.20330,34915
18.21142,34425
18.21955,38928
18.22767,37918
18.23578,37722
18.24392,34246
18.25203,35732
18.26017,35330
18.26828,36382
18.27640,38085
18.28453,35907
18.29265,34189
18.30078,36714
18.30890,35994
18.31702,34562
18.32515,36237
18.33327,37365
18.34138,34602
18.34952,33678
18.35763,41754
18.36577,35806
18.37388,37397
18.38200,39886
18.39013,40491
18.39825,40058
18.40638,38684
18.41450,36488
18.42262,37319
18.43075,38518
18.43887,37507
18.44700,37958
18.45512,39373
18.46323,37596
18.47137,37920
18.47948,40903
18.48760,42205
18.49573,36917
18.50385,36731
18.51198,39419
18.52010,34636
18.52822,38427
18.53635,35752
18.54447,36059
18.55260,36737
18.56072,38095
18.56883,34877
18.57697,34033
18.58508,42047
18.59320,38768
18.60133,37399
18.60945,41949
18.61758,39485
18.62570,40015
18.63382,39969
18.64195,35839
18.65007,36422
18.65820,38488
18.66632,36344
18.67443,37203
18.68257,35979
18.69068,38969
18.69882,34857
18.70693,37330
18.71505,39514
18.72318,42081
18.73130,36756
18.73942,40059
18.74755,41621
18.75567,42144
18.76380,43080
18.77192,39230
18.78003,42345
18.78817,39513
18.79628,38313
18.80442,39020
18.81253,43953
18.82065,39285
18.82878,42014
18.83690,38692
18.84502,40680
18.85315,43673
18.86127,39687
18.86940,38722
18.87752,41169
18.88563,37328
18.89377,38130
18.90188,39916
18.91002,42443
18.91813,36509
18.92625,38301
18.93438,39129
18.94250,39877
18.95063,40888
18.95875,46561
18.96687,43308
18.97500,39521
18.98312,41009
18.99123,39189
18.99937,42507
19.00748,39572
19.01562,42558
19.02373,42225
19.03185,42319
19.03998,43560
19.04810,41719
19.05623,38834
19.06435,37519
19.07247,42518
19.08060,41187
19.08872,40428
19.09685,41224
19.10497,46531
19.11308,42252
19.12122,42052
19.12933,40559
19.13745,41134
19.14558,40617
19.15370,43000
19.16183,41215
19.16995,41899
19.17807,42779
19.18620,41820
19.19432,42288
19.20245,42338
19.21057,41431
19.21868,41804
19.22682,44109
19.23493,42484
19.24305,45620
19.25118,40307
19.25930,41684
19.26743,41751
19.27555,43107
19.28367,43634
19.29180,43927
19.29992,42755
19.30805,43649
19.31617,44757
19.32428,42306
19.33242,44760
19.34053,48836
19.34867,41946
19.35678,43389
19.36490,47185
19.37303,43554
19.38115,40236
19.38927,43555
19.39740,42105
19.40552,43591
19.41365,42013
19.42177,42524
19.42988,45235
19.43802,42914
19.44613,45311
19.45427,43969
19.46238,43884
19.47050,43529
19.47863,48976
19.48675,42818
19.49488,48675
19.50300,47956
19.51112,46598
19.51925,47083
19.52737,45345
19.53548,44005
19.54362,45341
19.55173,48841
19.55987,43357
19.56798,47862
19.57610,45710
19.58423,44676
19.59235,45867
19.60048,51445
19.60860,46284
19.61672,43291
19.62485,49296
19.63297,45072
19.64108,45825
19.64922,47300
19.65733,46485
19.66547,46924
19.67358,50784
19.68170,48617
19.68983,45962
19.69795,47151
19.70608,48040
19.71420,49178
19.72232,49634
19.73045,48952
19.73857,48054
19.74670,47412
19.75482,46822
19.76293,52651
19.77107,44526
19.77918,44651
19.78730,45119
19.79543,45415
19.80355,53065
19.81168,46544
19.81980,46301
19.82792,47318
19.83605,52147
19.84417,46645
19.85230,46816
19.86042,46157
19.86853,48166
19.87667,43499
19.88478,47910
19.89290,49994
19.90103,49794
19.90915,48867
19.91728,46103
19.92540,47684
19.93352,51003
19.94165,54730
19.94977,45524
19.95790,45999
19.96602,44771
19.97413,47124
19.98227,48699
19.99038,47336
19.99852,46126
20.00663,47504
20.01475,45097
20.02288,50667
20.03100,46501
20.03912,48358
20.04725,48432
20.05537,50697
20.06350,46319
20.07162,50975
20.07973,47762
20.08787,50708
20.09598,53819
20.10412,51485
20.11223,47476
20.12035,52363
20.12848,55102
20.13660,53755
20.14473,48725
20.15285,53514
20.16097,47100
20.16910,49665
20.17722,51457
20.18533,50927
20.19347,50142
20.20158,48279
20.20972,52555
20.21783,50437
20.22595,48695
20.23408,51161
20.24220,48561
20.25033,53505
20.25845,51800
20.26657,56593
20.27470,54864
20.28282,55087
20.29093,54346
20.29907,57519
20.30718,53238
20.31532,58490
20.32343,51052
20.33155,54325
20.33968,54413
20.34780,53512
20.35593,52165
20.36405,50446
20.37217,53122
20.38030,52052
20.38842,52745
20.39655,51883
20.40467,51540
20.41278,51188
20.42092,51074
20.42903,54906
20.43715,54420
20.44528,53201
20.45340,56723
20.46153,55055
20.46965,52825
20.47777,53085
20.48590,59302
20.49402,54176
20.50215,53904
20.51027,52449
20.51838,56231
20.52652,52531
20.53463,51201
20.54277,55834
20.55088,54869
20.55900,54124
20.56713,53975
20.57525,55559
20.58337,51268
20.59150,53098
20.59962,57354
20.60775,56905
20.61587,52967
20.62398,53582
20.63212,53933
20.64023,55150
20.64837,50366
20.65648,50335
20.66460,53110
20.67273,53539
20.68085,53990
20.68897,54550
20.69710,54034
20.70522,55988
20.71335,53355
20.72147,56733
20.72958,55062
20.73772,53163
20.74583,59540
20.75397,55367
20.76208,55674
20.77020,57386
20.77833,57885
20.78645,59171
20.79458,57845
20.80270,53389
20.81082,57185
20.81895,60269
20.82707,56896
20.83518,54919
20.84332,55912
20.85143,55056
20.85957,57219
20.86768,55602
20.87580,55995
20.88393,58297
20.89205,60842
20.90018,58259
20.90830,59001
20.91642,59200
20.92455,57703
20.93267,58357
20.94080,58854
20.94892,57002
20.95703,61376
20.96517,55021
20.97328,56242
20.98140,58680
20.98953,60379
20.99765,61955
21.00578,60924
21.01390,57644
21.02202,60558
21.03015,61235
21.03827,63641
21.04640,61754
21.05452,58137
21.06263,59413
21.07077,61550
21.07888,58186
21.08700,59965
21.09513,54688
21.10325,60611
21.11138,65695
21.11950,63264
21.12762,66263
21.13575,64572
21.14387,56970
21.15200,62922
21.16012,58435
21.16823,65323
21.17637,57340
21.18448,61027
21.19262,65781
21.20073,61441
21.20885,63691
21.21698,62322
21.22510,59089
21.23322,60787
21.24135,64617
21.24947,61650
21.25760,61960
21.26572,60600
21.27383,59901
21.28197,65222
21.29008,69242
21.29822,61577
21.30633,63109
21.31445,62546
21.32258,64198
21.33070,64152
21.33882,65857
21.34695,62239
21.35507,63503
21.36320,61500
21.37132,68150
21.37943,64602
21.38757,66094
21.39568,63760
21.40382,64461
21.41193,63243
21.42005,63972
21.42818,70482
21.43630,65527
21.44443,67861
21.45255,66236
21.46067,66671
21.46880,64298
21.47692,64522
21.48503,62019
21.49317,62340
21.50128,70746
21.50942,65741
21.51753,63990
21.52565,66945
21.53378,67662
21.54190,65593
21.55003,71482
21.55815,66895
21.56627,67238
21.57440,68292
21.58252,68508
21.59065,68573
21.59877,67861
21.60688,66442
21.61502,66294
21.62313,67780
21.63125,67430
21.63938,69432
21.64750,64957
21.65563,71421
21.66375,71203
21.67187,65530
21.68000,66479
21.68812,68182
21.69625,70562
21.70437,69554
21.71248,68065
21.72062,69540
21.72873,71118
21.73685,69555
21.74498,68455
21.75310,74280
21.76123,71095
21.76935,70963
21.77747,66383
21.78560,72056
21.79372,71219
21.80185,72540
21.80997,70572
21.81808,68620
21.82622,70860
21.83433,71285
21.84247,71134
21.85058,69240
21.85870,69813
21.86683,70203
21.87495,69126
21.88307,68060
21.89120,71235
21.89932,72935
21.90745,71794
21.91557,72853
21.92368,70026
21.93182,75025
21.93993,70707
21.94807,69114
21.95618,71426
21.96430,72293
21.97243,72452
21.98055,73128
21.98868,77523
21.99680,74373
22.00492,70363
22.01305,74383
22.02117,71048
22.02928,70949
22.03742,72640
22.04553,76630
22.05367,73642
22.06178,72344
22.06990,75158
22.07803,76500
22.08615,75429
22.09428,72858
22.10240,75939
22.11052,78009
22.11865,73717
22.12677,74251
22.13488,71094
22.14302,74508
22.15113,75301
22.15927,78197
22.16738,75549
22.17550,75277
22.18363,79325
22.19175,75172
22.19988,76914
22.20800,79525
22.21612,79197
22.22425,76901
22.23237,76052
22.24050,82268
22.24862,81354
22.25673,75300
22.26487,77953
22.27298,78104
22.28110,80290
22.28923,76868
22.29735,75866
22.30548,78180
22.31360,77988
22.32172,80499
22.32985,78988
22.33797,80824
22.34610,78935
22.35422,83056
22.36233,82632
22.37047,76603
22.37858,79167
22.38670,80818
22.39483,81473
22.40295,83815
22.41108,80159
22.41920,77436
22.42732,82378
22.43545,84969
22.44357,78880
22.45170,81092
22.45982,81148
22.46793,80833
22.47607,77322
22.48418,81001
22.49232,78081
22.50043,84899
22.50855,79707
22.51668,81800
22.52480,83247
22.53292,81199
22.54105,81380
22.54917,85682
22.55730,82726
22.56542,84685
22.57353,86665
22.58167,81598
22.58978,82934
22.59792,84292
22.60603,82892
22.61415,84472
22.62228,86492
22.63040,86454
22.63853,85033
22.64665,79194
22.65477,85125
22.66290,87941
22.67102,85067
22.67913,87328
22.68727,84048
22.69538,83860
22.70352,82289
22.71163,86434
22.71975,88960
22.72788,91444
22.73600,89390
22.74413,86014
22.75225,85011
22.76037,86196
22.76850,89342
22.77662,91756
22.78475,85202
22.79287,87931
22.80098,86487
22.80912,85041
22.81723,84842
22.82535,94509
22.83348,85902
22.84160,87426
22.84973,93280
22.85785,90707
22.86597,88073
22.87410,89497
22.88222,93284
22.89035,89225
22.89847,91759
22.90658,96686
22.91472,84863
22.92283,93458
22.93095,90034
22.93908,94161
22.94720,92033
22.95533,93220
22.96345,91824
22.97157,88253
22.97970,92881
22.98782,93749
22.99595,94637
23.00407,93567
23.01218,88892
23.02032,90997
23.02843,92679
23.03657,97563
23.04468,94767
23.05280,92442
23.06093,92510
23.06905,92402
23.07717,95542
23.08530,94462
23.09342,92168
23.10155,93659
23.10967,94094
23.11778,93989
23.12592,94623
23.13403,93336
23.14217,98106
23.15028,95694
23.15840,94184
23.16653,98475
23.17465,91117
23.18277,97363
23.19090,102117
23.19902,94599
23.20715,98149
23.21527,94913
23.22338,95140
23.23152,98037
23.23963,97860
23.24777,99124
23.25588,96545
23.26400,95839
23.27213,95865
23.28025,98378
23.28838,97785
23.29650,100464
23.30462,104295
23.31275,104560
23.32087,99634
23.32898,100746
23.33712,99865
23.34523,100726
23.35337,99741
23.36148,102853
23.36960,99393
23.37773,95830
23.38585,101117
23.39398,102025
23.40210,102455
23.41022,105732
23.41835,101659
23.42647,103978
23.43460,102679
23.44272,102854
23.45083,101569
23.45897,103231
23.46708,105041
23.47520,108888
23.48333,102332
23.49145,103749
23.49958,103218
23.50770,103544
23.51582,105979
23.52395,105046
23.53207,107690
23.54020,106241
23.54832,111066
23.55643,103491
23.56457,107066
23.57268,106831
23.58080,110837
23.58893,107103
23.59705,109631
23.60518,111115
23.61330,110626
23.62142,112746
23.62955,111444
23.63767,108222
23.64580,113825
23.65392,110415
23.66203,111229
23.67017,115137
23.67828,113502
23.68642,123745
23.69453,115404
23.70265,120713
23.71078,114102
23.71890,115714
23.72702,111312
23.73515,115389
23.74327,116642
23.75140,115393
23.75952,113116
23.76763,121048
23.77577,114628
23.78388,116644
23.79202,118123
23.80013,119933
23.80825,118816
23.81638,117696
23.82450,112833
23.83263,118800
23.84075,113715
23.84887,118401
23.85700,118714
23.86512,116070
23.87323,114489
23.88137,115205
23.88948,113758
23.89762,115388
23.90573,112902
23.91385,113979
23.92198,115067
23.93010,113973
23.93823,117256
23.94635,114217
23.95447,112559
23.96260,111666
23.97072,118330
23.97883,114568
23.98697,117523
23.99508,111139
24.00322,118764
24.01133,116636
24.01945,115851
24.02758,116133
24.03570,118319
24.04383,123665
24.05195,117702
24.06007,121257
24.06820,116349
24.07632,118983
24.08445,121202
24.09257,122745
24.10068,122661
24.10882,113370
24.11693,122985
24.12505,114851
24.13318,117889
24.14130,120007
24.14943,121674
24.15755,120400
24.16567,124039
24.17380,116977
24.18192,118271
24.19005,120820
24.19817,119925
24.20628,115143
24.21442,122687
24.22253,115947
24.23065,120723
24.23878,122830
24.24690,123364
24.25503,127366
24.26315,119649
24.27127,124673
24.27940,126694
24.28752,123879
24.29565,127083
24.30377,124669
24.31188,122361
24.32002,129007
24.32813,124770
24.33627,123880
24.34438,124115
24.35250,126363
24.36063,125048
24.36875,125471
24.37687,135278
24.38500,130499
24.39312,127470
24.40125,127334
24.40937,130209
24.41748,132471
24.42562,132882
24.43373,128410
24.44187,127812
24.44998,124142
24.45810,129676
24.46623,123831
24.47435,125971
24.48248,127672
24.49060,128661
24.49872,131074
24.50685,125924
24.51497,127180
24.52308,130635
24.53122,129011
24.53933,134716
24.54747,130097
24.55558,129736
24.56370,126550
24.57183,130831
24.57995,135076
24.58808,130700
24.59620,128055
24.60432,141402
24.61245,133897
24.62057,130949
24.62868,131389
24.63682,132907
24.64493,136004
24.65307,136780
24.66118,136513
24.66930,137965
24.67743,136228
24.68555,135160
24.69368,140800
24.70180,131271
24.70992,134241
24.71805,138936
24.72617,141012
24.73430,132624
24.74242,134977
24.75053,140436
24.75867,140926
24.76678,135267
24.77490,136406
24.78303,131847
24.79115,137595
24.79928,139600
24.80740,136995
24.81552,138052
24.82365,141073
24.83177,138549
24.83990,140665
24.84802,144298
24.85613,148380
24.86427,141060
24.87238,139228
24.88052,141964
24.88863,144201
24.89675,140503
24.90488,146361
24.91300,139080
24.92112,141443
24.92925,145793
24.93737,143259
24.94550,146158
24.95362,149114
24.96173,141617
24.96987,143855
24.97798,149538
24.98612,145378
24.99423,150097
25.00235,145858
25.01048,149047
25.01860,148101
25.02672,141994
25.03485,141983
25.04297,149338
25.05110,146509
25.05922,148869
25.06733,149493
25.07547,152021
25.08358,155289
25.09172,146152
25.09983,144845
25.10795,149026
25.11608,148500
25.12420,155093
25.13233,147991
25.14045,155176
25.14857,154812
25.15670,151535
25.16482,150432
25.17293,142293
25.18107,150789
25.18918,152207
25.19732,151624
25.20543,155020
25.21355,157232
25.22168,156346
25.22980,155749
25.23793,160673
25.24605,157171
25.25417,154150
25.26230,157429
25.27042,160099
25.27855,160842
25.28667,151364
25.29478,163948
25.30292,152460
25.31103,157402
25.31915,157641
25.32728,157736
25.33540,162129
25.34353,159284
25.35165,155889
25.35977,163626
25.36790,154803
25.37602,156235
25.38415,156577
25.39227,159379
25.40038,162671
25.40852,158239
25.41663,163217
25.42475,167532
25.43288,166096
25.44100,165955
25.44913,161704
25.45725,166394
25.46537,161074
25.47350,166778
25.48162,158678
25.48975,166141
25.49787,163230
25.50598,167400
25.51412,163212
25.52223,162568
25.53037,163691
25.53848,164109
25.54660,168983
25.55473,168151
25.56285,167314
25.57097,164593
25.57910,168311
25.58722,168636
25.59535,167944
25.60347,168043
25.61158,170715
25.61972,167017
25.62783,172346
25.63597,167380
25.64408,169212
25.65220,169163
25.66033,171707
25.66845,168725
25.67657,170963
25.68470,168499
25.69282,176758
25.70095,175744
25.70907,177953
25.71718,175026
25.72532,178923
25.73343,180086
25.74157,176303
25.74968,171875
25.75780,173992
25.76593,180249
25.77405,176376
25.78218,174903
25.79030,180253
25.79842,180465
25.80655,176488
25.81467,176119
25.82278,178596
25.83092,181639
25.83903,177119
25.84717,181809
25.85528,177377
25.86340,178248
25.87153,180359
25.87965,180696
25.88778,180564
25.89590,182068
25.90402,177394
25.91215,182043
25.92027,182026
25.92840,183690
25.93652,183306
25.94463,180032
25.95277,189477
25.96088,188888
25.96900,184497
25.97713,184622
25.98525,185571
25.99338,184192
26.00150,184045
26.00962,186536
26.01775,187997
26.02587,189245
26.03400,185120
26.04212,190481
26.05023,196066
26.05837,189295
26.06648,193170
26.07460,187696
26.08273,195707
26.09085,188707
26.09898,189222
26.10710,189311
26.11522,188514
26.12335,192260
26.13147,192697
26.13960,190878
26.14772,189665
26.15583,189335
26.16397,195490
26.17208,191890
26.18022,192169
26.18833,190351
26.19645,194710
26.20458,197050
26.21270,191037
26.22082,196355
26.22895,187374
26.23707,190653
26.24520,194777
26.25332,194551
26.26143,192433
26.26957,205390
26.27768,190060
26.28582,200404
26.29393,200351
26.30205,198366
26.31018,201708
26.31830,204951
26.32643,203041
26.33455,200622
26.34267,198694
26.35080,201582
26.35892,209139
26.36703,206075
26.37517,206437
26.38328,199120
26.39142,204783
26.39953,205749
26.40765,196240
26.41578,204322
26.42390,206790
26.43203,205709
26.44015,209238
26.44827,205492
26.45640,209292
26.46452,211004
26.47263,211489
26.48077,210032
26.48888,209971
26.49702,204601
26.50513,209198
26.51325,208995
26.52138,218644
26.52950,209884
26.53763,215075
26.54575,213456
26.55387,211142
26.56200,214439
26.57012,210454
26.57825,208095
26.58637,213197
26.59448,223057
26.60262,215046
26.61073,213853
26.61885,219749
26.62698,217202
26.63510,218878
26.64323,217814
26.65135,219032
26.65947,221452
26.66760,213257
26.67572,217961
26.68385,225142
26.69197,214559
26.70008,221674
26.70822,219928
26.71633,215830
26.72445,221862
26.73258,221428
26.74070,221932
26.74883,217819
26.75695,226887
26.76507,220821
26.77320,227149
26.78132,220923
26.78945,222896
26.79757,222521
26.80568,222644
26.81382,221871
26.82193,229106
26.83007,229649
26.83818,222233
26.84630,237516
26.85443,228299
26.86255,232933
26.87067,235378
26.87880,229333
26.88692,233516
26.89505,230145
26.90317,231738
26.91128,229071
26.91942,231195
26.92753,233257
26.93567,228953
26.94378,238107
26.95190,237394
26.96003,235885
26.96815,237345
26.97628,228328
26.98440,240453
26.99252,227704
27.00065,235600
27.00877,235304
27.01688,248884
27.02502,239016
27.03313,239639
27.04127,242756
27.04938,235908
27.05750,244715
27.06563,235882
27.07375,237692
27.08188,242399
27.09000,240617
27.09812,245437
27.10625,246654
27.11437,238554
27.12248,241777
27.13062,240294
27.13873,244826
27.14687,243648
27.15498,243121
27.16310,249967
27.17123,240954
27.17935,243407
27.18748,246323
27.19560,250191
27.20372,246563
27.21185,252206
27.21997,249918
27.22810,247701
27.23622,258287
27.24433,247626
27.25247,242242
27.26058,253177
27.26870,250948
27.27683,248980
27.28495,250304
27.29308,251457
27.30120,253754
27.30932,259218
27.31745,250126
27.32557,252282
27.33370,256277
27.34182,254799
27.34993,252924
27.35807,255260
27.36618,257883
27.37432,255211
27.38243,261839
27.39055,257298
27.39868,256066
27.40680,257626
27.41492,260651
27.42305,252154
27.43117,257514
27.43930,255347
27.44742,257884
27.45553,263555
27.46367,267846
27.47178,255667
27.47992,268960
27.48803,257903
27.49615,270899
27.50428,261383
27.51240,257862
27.52052,267710
27.52865,265829
27.53677,272830
27.54490,265012
27.55302,264716
27.56113,268030
27.56927,274533
27.57738,271445
27.58552,267024
27.59363,270301
27.60175,268350
27.60988,270008
27.61800,264124
27.62613,273383
27.63425,270729
27.64237,266979
27.65050,273081
27.65862,282682
27.66673,275063
27.67487,278003
27.68298,278370
27.69112,275533
27.69923,276703
27.70735,276306
27.71548,281304
27.72360,275495
27.73173,275544
27.73985,278623
27.74797,284940
27.75610,278282
27.76422,281475
27.77233,279093
27.78047,277674
27.78858,284410
27.79672,282096
27.80483,288578
27.81295,279040
27.82108,285813
27.82920,283569
27.83733,286331
27.84545,293126
27.85357,288186
27.86170,288030
27.86982,293605
27.87795,290071
27.88607,295843
27.89418,287496
27.90232,282346
27.91043,298694
27.91855,291291
27.92668,298598
27.93480,292388
27.94293,289570
27.95105,289719
27.95917,298386
27.96730,295174
27.97542,297615
27.98355,300642
27.99167,297078
27.99978,304392
28.00792,302651
28.01603,293851
28.02417,299695
28.03228,302670
28.04040,303759
28.04853,309015
28.05665,294721
28.06477,304786
28.07290,299697
28.08102,305634
28.08915,305018
28.09727,301514
28.10538,306960
28.11352,307753
28.12163,308645
28.12977,307510
28.13788,313561
28.14600,303822
28.15413,307480
28.16225,312154
28.17038,303885
28.17850,308690
28.18662,306644
28.19475,311014
28.20287,318190
28.21098,317278
28.21912,312455
28.22723,315639
28.23537,318100
28.24348,315202
28.25160,316946
28.25973,314063
28.26785,316572
28.27598,310029
28.28410,321076
28.29222,321372
28.30035,317976
28.30847,326418
28.31658,327209
28.32472,321731
28.33283,331141
28.34097,321320
28.34908,312225
28.35720,319797
28.36533,320248
28.37345,324038
28.38158,321267
28.38970,327597
28.39782,323504
28.40595,334518
28.41407,323538
28.42220,327758
28.43032,321688
28.43843,324090
28.44657,329463
28.45468,338768
28.46280,323279
28.47093,323748
28.47905,331136
28.48718,338687
28.49530,339770
28.50342,327799
28.51155,327770
28.51967,337043
28.52780,335480
28.53592,335648
28.54403,336005
28.55217,329169
28.56028,333118
28.56840,329525
28.57653,342890
28.58465,333662
28.59278,345962
28.60090,338878
28.60902,337320
28.61715,339301
28.62527,337815
28.63340,341513
28.64152,344133
28.64963,333702
28.65777,341584
28.66588,348220
28.67402,345443
28.68213,347996
28.69025,343887
28.69838,347477
28.70650,342093
28.71462,343516
28.72275,347269
28.73087,348388
28.73900,349196
28.74712,359929
28.75523,349155
28.76337,356177
28.77148,355478
28.77962,345654
28.78773,358987
28.79585,353384
28.80398,351687
28.81210,357720
28.82023,363001
28.82835,355526
28.83647,361582
28.84460,360351
28.85272,358204
28.86083,369297
28.86897,348741
28.87708,354168
28.88522,367198
28.89333,352044
28.90145,357332
28.90958,357009
28.91770,367285
28.92583,366287
28.93395,364333
28.94207,365988
28.95020,361965
28.95832,369215
28.96643,360591
28.97457,368936
28.98268,367861
28.99082,364024
28.99893,367218
29.00705,367772
29.01518,374297
29.02330,372466
29.03143,374275
29.03955,368492
29.04767,374407
29.05580,369021
29.06392,371800
29.07205,382228
29.08017,375550
29.08828,376786
29.09642,372033
29.10453,376811
29.11265,377364
29.12078,377083
29.12890,373197
29.13703,378504
29.14515,379037
29.15327,370443
29.16140,385830
29.16952,383614
29.17765,386725
29.18577,381007
29.19388,387775
29.20202,385300
29.21013,393285
29.21827,384961
29.22638,390949
29.23450,384356
29.24263,384374
29.25075,396522
29.25887,398344
29.26700,395166
29.27512,386891
29.28325,391574
29.29137,392484
29.29948,390472
29.30762,398817
29.31573,400736
29.32387,400934
29.33198,397661
29.34010,405687
29.34823,392951
29.35635,402102
29.36447,401531
29.37260,403797
29.38072,401812
29.38885,403197
29.39697,404677
29.40508,403587
29.41322,403883
29.42133,412671
29.42947,416578
29.43758,402290
29.44570,406981
29.45383,395789
29.46195,410938
29.47008,407161
29.47820,403789
29.48632,402449
29.49445,399560
29.50257,411134
29.51068,411029
29.51882,411293
29.52693,419470
29.53507,414664
29.54318,416527
29.55130,417105
29.55943,417317
29.56755,413711
29.57568,407782
29.58380,419126
29.59192,432958
29.60005,414980
29.60817,426601
29.61628,428115
29.62442,417167
29.63253,423638
29.64067,424324
29.64878,422579
29.65690,426628
29.66503,428128
29.67315,433782
29.68128,428882
29.68940,439009
29.69752,419131
29.70565,429554
29.71377,431787
29.72190,434802
29.73002,435603
29.73813,440624
29.74627,437999
29.75438,441013
29.76250,441207
29.77063,442398
29.77875,447318
29.78688,437961
29.79500,428956
29.80312,438085
29.81125,434617
29.81937,436159
29.82750,438592
29.83562,442628
29.84373,443491
29.85187,449841
29.85998,449120
29.86812,440832
29.87623,443227
29.88435,441086
29.89248,444277
29.90060,448599
29.90872,454347
29.91685,450127
29.92497,453178
29.93310,446996
29.94122,452295
29.94933,456728
29.95747,461224
29.96558,458791
29.97372,451925
29.98183,449707
29.98995,460157
29.99808,457702
30.00620,465567
30.01432,450554
30.02245,463452
30.03057,469184
30.03870,454819
30.04682,458000
30.05493,457767
30.06307,459058
30.07118,456406
30.07932,463589
30.08743,464967
30.09555,469360
30.10368,459696
30.11180,455131
30.11993,457491
30.12805,465921
30.13617,467889
30.14430,474318
30.15242,468457
30.16053,483486
30.16867,469560
30.17678,469506
30.18492,476875
30.19303,480485
30.20115,480175
30.20928,472865
30.21740,476352
30.22553,470848
30.23365,491981
30.24177,471141
30.24990,475563
30.25802,476105
30.26615,492522
30.27427,480076
30.28238,487596
30.29052,494653
30.29863,498218
30.30675,482668
30.31488,488589
30.32300,490225
30.33113,489299
30.33925,484811
30.34737,490140
30.35550,497948
30.36362,493586
30.37175,504076
30.37987,501645
30.38798,490852
30.39612,491344
30.40423,497703
30.41235,495392
30.42048,495434
30.42860,497787
30.43673,491737
30.44485,497875
30.45297,510285
30.46110,499352
30.46922,502113
30.47735,499890
30.48547,501157
30.49358,501987
30.50172,507665
30.50983,506276
30.51797,510358
30.52608,510907
30.53420,505356
30.54233,518093
30.55045,500746
30.55857,507741
30.56670,518057
30.57482,519344
30.58295,520548
30.59107,515374
30.59918,518671
30.60732,528672
30.61543,519912
30.62357,514319
30.63168,518871
30.63980,530170
30.64793,517774
30.65605,529545
30.66417,523263
30.67230,523537
30.68042,530427
30.68855,517248
30.69667,518915
30.70478,519727
30.71292,540297
30.72103,524752
30.72917,534309
30.73728,528335
30.74540,529548
30.75353,531795
30.76165,530779
30.76978,533820
30.77790,529876
30.78602,532730
30.79415,535910
30.80227,539534
30.81038,534395
30.81852,533358
30.82663,536953
30.83477,546890
30.84288,546858
30.85100,540716
30.85913,548450
30.86725,542931
30.87538,553258
30.88350,544045
30.89162,536964
30.89975,545420
30.90787,556853
30.91600,551816
30.92412,556455
30.93223,555433
30.94037,549684
30.94848,571996
30.95660,558287
30.96473,549128
30.97285,560711
30.98098,562156
30.98910,564911
30.99722,565382
31.00535,561263
31.01347,576677
31.02160,570244
31.02972,566828
31.03783,573847
31.04597,556460
31.05408,572875
31.06220,569483
31.07033,571916
31.07845,564591
31.08658,562843
31.09470,570885
31.10282,581014
31.11095,577526
31.11907,572118
31.12720,572445
31.13532,575841
31.14343,560892
31.15157,573771
31.15968,585086
31.16782,577714
31.17593,584508
31.18405,584855
31.19218,595151
31.20030,579175
31.20842,579817
31.21655,581247
31.22467,582652
31.23280,591306
31.24092,593727
31.24903,591082
31.25717,596950
31.26528,583587
31.27342,603134
31.28153,594433
31.28965,592049
31.29778,587200
31.30590,600100
31.31403,599756
31.32215,591792
31.33027,609380
31.33840,597997
31.34652,602238
31.35463,601324
31.36277,601591
31.37088,610303
31.37902,602897
31.38713,610731
31.39525,607105
31.40338,614063
31.41150,612321
31.41963,612509
31.42775,616058
31.43587,616482
31.44400,622466
31.45212,622219
31.46023,606203
31.46837,625138
31.47648,625083
31.48462,627597
31.49273,623500
31.50085,628464
31.50898,615605
31.51710,626091
31.52523,630496
31.53335,637830
31.54147,628998
31.54960,628622
31.55772,634233
31.56585,634655
31.57397,641248
31.58208,638563
31.59022,637216
31.59833,625010
31.60645,643679
31.61458,649885
31.62270,639469
31.63083,639372
31.63895,636182
31.64707,639827
31.65520,648800
31.66332,648779
31.67145,646782
31.67957,644706
31.68768,654204
31.69582,648403
31.70393,658012
31.71207,650038
31.72018,655750
31.72830,662706
31.73643,656685
31.74455,670445
31.75267,663383
31.76080,665263
31.76892,656213
31.77705,662606
31.78517,665777
31.79328,666999
31.80142,673559
31.80953,675883
31.81767,672654
31.82578,682313
31.83390,668831
31.84203,672943
31.85015,675526
31.85827,671109
31.86640,687336
31.87452,671250
31.88265,683028
31.89077,671941
31.89888,687857
31.90702,686412
31.91513,702119
31.92327,672674
31.93138,693188
31.93950,685960
31.94763,701114
31.95575,696096
31.96388,709844
31.97200,693374
31.98012,699270
31.98825,705322
31.99637,708429
32.00448,705041
32.01262,695592
32.02073,704419
32.02887,694824
32.03698,708558
32.04510,709392
32.05323,719338
32.06135,708207
32.06948,722795
32.07760,702495
32.08572,715768
32.09385,708487
32.10197,715743
32.11008,724321
32.11822,715965
32.12633,735248
32.13447,721041
32.14258,729609
32.15070,708973
32.15883,729004
32.16695,731856
32.17508,726708
32.18320,743988
32.19132,730549
32.19945,742665
32.20757,731580
32.21570,726995
32.22382,736312
32.23193,736605
32.24007,748333
32.24818,757962
32.25630,747438
32.26443,752478
32.27255,759275
32.28068,746442
32.28880,747906
32.29692,744916
32.30505,758927
32.31317,751445
32.32130,753607
32.32942,746620
32.33753,758395
32.34567,774044
32.35378,760634
32.36192,763348
32.37003,757413
32.37815,776989
32.38628,776032
32.39440,776074
32.40252,760700
32.41065,775527
32.41877,764018
32.42690,769773
32.43502,782199
32.44313,774280
32.45127,772453
32.45938,780780
32.46752,783985
32.47563,782650
32.48375,781010
32.49188,783179
32.50000,778775
32.50812,786925
32.51625,796310
32.52437,781923
32.53250,801853
32.54062,814591
32.54873,808872
32.55687,792286
32.56498,797532
32.57312,799164
32.58123,803017
32.58935,798143
32.59748,808295
32.60560,804863
32.61373,814638
32.62185,811151
32.62997,805220
32.63810,814896
32.64622,811985
32.65433,815758
32.66247,820377
32.67058,804011
32.67872,819486
32.68683,837457
32.69495,803883
32.70308,818848
32.71120,829202
32.71933,820642
32.72745,846062
32.73557,826649
32.74370,844929
32.75182,827952
32.75995,835813
32.76807,834855
32.77618,844416
32.78432,843005
32.79243,832885
32.80055,835849
32.80868,856103
32.81680,864092
32.82493,843998
32.83305,854892
32.84117,854973
32.84930,848138
32.85742,855559
32.86555,862419
32.87367,860727
32.88178,860493
32.88992,873420
32.89803,870517
32.90615,862693
32.91428,877591
32.92240,860212
32.93053,869913
32.93865,873916
32.94677,872969
32.95490,870770
32.96302,883566
32.97115,870372
32.97927,878013
32.98738,876259
32.99552,883843
33.00363,879562
33.01177,882566
33.01988,892140
33.02800,872293
33.03613,895058
33.04425,893205
33.05237,900367
33.06050,895965
33.06862,893916
33.07675,899936
33.08487,891841
33.09298,910097
33.10112,903150
33.10923,913276
33.11737,909032
33.12548,909279
33.13360,902198
33.14173,899812
33.14985,923314
33.15797,909458
33.16610,907612
33.17422,908812
33.18235,916516
33.19047,915624
33.19858,921766
33.20672,923691
33.21483,923060
33.22297,922940
33.23108,922472
33.23920,933650
33.24733,926172
33.25545,935160
33.26358,944757
33.27170,948118
33.27982,940768
33.28795,941748
33.29607,939673
33.30418,933494
33.31232,951324
33.32043,938602
33.32857,964918
33.33668,958978
33.34480,955380
33.35293,926030
33.36105,964211
33.36918,957413
33.37730,960160
33.38542,945350
33.39355,959181
33.40167,953033
33.40980,976090
33.41792,964417
33.42603,980302
33.43417,985589
33.44228,975560
33.45040,983796
33.45853,974756
33.46665,978423
33.47478,984220
33.48290,962036
33.49102,986266
33.49915,989713
33.50727,979316
33.51540,996334
33.52352,990880
33.53163,987708
33.53977,1001896
33.54788,992823
33.55602,1015295
33.56413,1001018
33.57225,1000348
33.58038,1001595
33.58850,1009306
33.59662,1006958
33.60475,1004622
33.61287,1005633
33.62100,1002547
33.62912,1008292
33.63723,1001888
33.64537,1015584
33.65348,1000029
33.66162,1017957
33.66973,1036038
33.67785,1018387
33.68598,1039087
33.69410,1019390
33.70222,1030891
33.71035,1006085
33.71847,1015799
33.72660,1035332
33.73472,1034175
33.74283,1041261
33.75097,1021428
33.75908,1030068
33.76722,1046895
33.77533,1047650
33.78345,1058737
33.79158,1056939
33.79970,1034823
33.80783,1044100
33.81595,1040160
33.82407,1048257
33.83220,1051481
33.84032,1038600
33.84843,1048821
33.85657,1058399
33.86468,1046756
33.87282,1049943
33.88093,1057760
33.88905,1063217
33.89718,1073222
33.90530,1059021
33.91343,1056194
33.92155,1043883
33.92967,1045479
33.93780,1065804
33.94592,1072894
33.95403,1083423
33.96217,1071597
33.97028,1065780
33.97842,1084626
33.98653,1063927
33.99465,1081971
34.00278,1082553
34.01090,1084991
34.01903,1083327
34.02715,1079374
34.03527,1075171
34.04340,1103499
34.05152,1100378
34.05965,1095356
34.06777,1084338
34.07588,1076128
34.08402,1088437
34.09213,1078309
34.10025,1101540
34.10838,1086977
34.11650,1111768
34.12463,1097864
34.13275,1096783
34.14087,1116934
34.14900,1114687
34.15712,1123676
34.16525,1119508
34.17337,1112737
34.18148,1119584
34.18962,1109828
34.19773,1095010
34.20587,1114785
34.21398,1111885
34.22210,1117796
34.23023,1128262
34.23835,1130883
34.24647,1122325
34.25460,1139823
34.26272,1136246
34.27085,1141570
34.27897,1136819
34.28708,1128440
34.29522,1119222
34.30333,1149329
34.31147,1143402
34.31958,1144624
34.32770,1139456
34.33583,1154988
34.34395,1164724
34.35207,1144853
34.36020,1156382
34.36832,1141376
34.37645,1147028
34.38457,1141906
34.39268,1156794
34.40082,1145096
34.40893,1165625
34.41707,1173003
34.42518,1152270
34.43330,1169250
34.44143,1141297
34.44955,1154857
34.45768,1161155
34.46580,1150859
34.47392,1175848
34.48205,1170776
34.49017,1185732
34.49828,1180399
34.50642,1161947
34.51453,1182388
34.52267,1170549
34.53078,1180576
34.53890,1178172
34.54703,1175999
34.55515,1196857
34.56328,1193400
34.57140,1192899
34.57952,1187735
34.58765,1171783
34.59577,1183968
34.60390,1167228
34.61202,1180830
34.62013,1196140
34.62827,1206185
34.63638,1198302
34.64450,1194472
34.65263,1193144
34.66075,1196520
34.66888,1199710
34.67700,1200213
34.68512,1195936
34.69325,1200706
34.70137,1215283
34.70950,1210359
34.71762,1205773
34.72573,1214034
34.73387,1195202
34.74198,1188338
34.75010,1220550
34.75823,1213323
34.76635,1224345
34.77448,1232783
34.78260,1225906
34.79072,1214352
34.79885,1214247
34.80697,1209213
34.81510,1216810
34.82322,1222100
34.83133,1228638
34.83947,1216729
34.84758,1228098
34.85572,1211210
34.86383,1226008
34.87195,1235298
34.88008,1239466
34.88820,1258060
34.89632,1252517
34.90445,1239245
34.91257,1228650
34.92070,1247193
34.92882,1235609
34.93693,1238062
34.94507,1234603
34.95318,1244050
34.96132,1241155
34.96943,1251615
34.97755,1258765
34.98568,1246437
34.99380,1241952
35.00192,1262292
35.01005,1253432
35.01817,1261983
35.02630,1255193
35.03442,1301116
35.04253,1297599
35.05067,1258780
35.05878,1251272
35.06692,1272881
35.07503,1265604
35.08315,1276866
35.09128,1286253
35.09940,1285454
35.10753,1273378
35.11565,1268103
35.12377,1276974
35.13190,1285540
35.14002,1294653
35.14813,1301864
35.15627,1297490
35.16438,1285017
35.17252,1305614
35.18063,1290228
35.18875,1308270
35.19688,1308457
35.20500,1287297
35.21313,1283719
35.22125,1296960
35.22937,1287004
35.23750,1281801
35.24562,1302358
35.25375,1303248
35.26187,1316491
35.26998,1314491
35.27812,1298177
35.28623,1328154
35.29435,1307902
35.30248,1322378
35.31060,1324534
35.31873,1310501
35.32685,1317144
35.33497,1315536
35.34310,1317244
35.35122,1314852
35.35935,1319946
35.36747,1327175
35.37558,1323904
35.38372,1333642
35.39183,1345639
35.39995,1340785
35.40808,1331524
35.41620,1336362
35.42433,1336240
35.43245,1333596
35.44057,1323012
35.44870,1357145
35.45682,1361700
35.46495,1336013
35.47307,1348607
35.48118,1332950
35.48932,1349798
35.49743,1336101
35.50557,1371326
35.51368,1363712
35.52180,1341166
35.52993,1346767
35.53805,1362687
35.54617,1363642
35.55430,1366178
35.56242,1366023
35.57055,1364003
35.57867,1362016
35.58678,1361580
35.59492,1354855
35.60303,1359934
35.61117,1393229
35.61928,1375105
35.62740,1381553
35.63553,1373091
35.64365,1377344
35.65178,1379570
35.65990,1380749
35.66802,1395795
35.67615,1387651
35.68427,1397195
35.69238,1384463
35.70052,1390134
35.70863,1390322
35.71677,1398854
35.72488,1391585
35.73300,1394357
35.74113,1400933
35.74925,1423894
35.75738,1397272
35.76550,1416733
35.77362,1413936
35.78175,1405143
35.78987,1395433
35.79798,1399252
35.80612,1421669
35.81423,1394520
35.82237,1419272
35.83048,1415911
35.83860,1405121
35.84673,1406387
35.85485,1431023
35.86298,1415759
35.87110,1427225
35.87922,1417124
35.88735,1428261
35.89547,1428099
35.90360,1416540
35.91172,1440700
35.91983,1422783
35.92797,1438671
35.93608,1420543
35.94420,1420188
35.95233,1433757
35.96045,1439882
35.96858,1427367
35.97670,1440810
35.98482,1448967
35.99295,1461033
36.00107,1437978
36.00920,1469298
36.01732,1443583
36.02543,1446760
36.03357,1450789
36.04168,1462210
36.04980,1451422
36.05793,1443916
36.06605,1437594
36.07418,1451391
36.08230,1453720
36.09042,1462409
36.09855,1464896
36.10667,1467668
36.11480,1470925
36.12292,1470588
36.13103,1491334
36.13917,1484285
36.14728,1479243
36.15542,1472546
36.16353,1452449
36.17165,1482025
36.17978,1485158
36.18790,1496807
36.19602,1484029
36.20415,1474346
36.21227,1489033
36.22040,1489658
36.22852,1491628
36.23663,1494706
36.24477,1503153
36.25288,1498413
36.26102,1484302
36.26913,1487298
36.27725,1511740
36.28538,1496372
36.29350,1515169
36.30163,1518705
36.30975,1498009
36.31787,1494086
36.32600,1499959
36.33412,1490627
36.34223,1506370
36.35037,1511833
36.35848,1513574
36.36662,1526928
36.37473,1513745
36.38285,1515995
36.39098,1522676
36.39910,1507303
36.40723,1530267
36.41535,1519325
36.42347,1510010
36.43160,1522708
36.43972,1543370
36.44783,1536912
36.45597,1539410
36.46408,1528199
36.47222,1543911
36.48033,1536264
36.48845,1556041
36.49658,1537914
36.50470,1548470
36.51283,1537087
36.52095,1548137
36.52907,1549382
36.53720,1545944
36.54532,1563062
36.55345,1558322
36.56157,1549088
36.56968,1565246
36.57782,1569527
36.58593,1571534
36.59405,1548157
36.60218,1576101
36.61030,1563577
36.61843,1574061
36.62655,1582468
36.63467,1571026
36.64280,1576853
36.65092,1574231
36.65905,1588824
36.66717,1582926
36.67528,1582544
36.68342,1582231
36.69153,1597670
36.69967,1581651
36.70778,1587125
36.71590,1598685
36.72403,1631422
36.73215,1607616
36.74027,1590247
36.74840,1620073
36.75652,1604248
36.76465,1607147
36.77277,1604538
36.78088,1621115
36.78902,1612607
36.79713,1606597
36.80527,1617568
36.81338,1619599
36.82150,1603397
36.82963,1618419
36.83775,1617921
36.84587,1622251
36.85400,1620812
36.86212,1638860
36.87025,1630869
36.87837,1635872
36.88648,1642227
36.89462,1657791
36.90273,1650115
36.91087,1642407
36.91898,1641375
36.92710,1660565
36.93523,1673898
36.94335,1648800
36.95148,1650615
36.95960,1654953
36.96772,1648205
36.97585,1640966
36.98397,1676637
36.99208,1664185
37.00022,1657459
37.00833,1653641
37.01647,1670909
37.02458,1659679
37.03270,1646127
37.04083,1661293
37.04895,1672222
37.05708,1679685
37.06520,1674192
37.07332,1663953
37.08145,1692957
37.08957,1686888
37.09770,1701334
37.10582,1671060
37.11393,1686894
37.12207,1697747
37.13018,1673302
37.13830,1699884
37.14643,1688007
37.15455,1692986
37.16268,1698321
37.17080,1701182
37.17892,1698115
37.18705,1684353
37.19517,1689085
37.20330,1711603
37.21142,1678111
37.21953,1688716
37.22767,1715977
37.23578,1719866
37.24390,1691178
37.25203,1697303
37.26015,1696835
37.26828,1707215
37.27640,1695230
37.28452,1712574
37.29265,1706243
37.30077,1718964
37.30890,1730235
37.31702,1733715
37.32513,1708988
37.33327,1709658
37.34138,1714651
37.34952,1711179
37.35763,1693248
37.36575,1703769
37.37388,1711897
37.38200,1699720
37.39012,1717114
37.39825,1715124
37.40637,1708525
37.41450,1734023
37.42262,1737409
37.43073,1737184
37.43887,1758397
37.44698,1745726
37.45512,1736156
37.46323,1737596
37.47135,1758945
37.47948,1733101
37.48760,1742759
