Z:\data\JTB-E02\BACandBLUE\JTB-E02-206-12.D Wed Mar 13 13:00:45 2019
Start of data points
2.09517	53376
2.10330	51612
2.11142	53115
2.11955	52048
2.12767	50723
2.13578	49533
2.14392	51098
2.15203	51616
2.16017	51560
2.16828	54389
2.17640	48134
2.18453	47225
2.19265	43412
2.20077	43108
2.20890	46537
2.21702	45246
2.22515	46092
2.23327	42595
2.24138	39455
2.24952	40527
2.25763	43038
2.26577	105918
2.27388	802528
2.28200	1678580
2.29013	1028994
2.29825	520345
2.30637	383488
2.31450	321163
2.32262	274997
2.33075	242711
2.33887	225692
2.34698	201358
2.35512	183329
2.36323	170071
2.37137	156879
2.37948	161671
2.38760	144410
2.39573	137044
2.40385	129360
2.41198	136287
2.42010	171563
2.42822	173720
2.43635	135174
2.44447	139827
2.45258	129219
2.46072	113878
2.46883	109469
2.47697	111530
2.48508	108946
2.49320	118949
2.50133	107616
2.50945	107684
2.51758	101861
2.52570	99619
2.53382	99240
2.54195	97118
2.55007	108973
2.55820	214139
2.56632	428609
2.57443	394239
2.58257	297483
2.59068	256485
2.59880	249999
2.60693	352205
2.61505	643293
2.62318	632841
2.63130	467221
2.63942	327250
2.64755	260446
2.65567	222390
2.66380	197812
2.67192	182609
2.68003	171142
2.68817	157929
2.69628	157908
2.70440	148771
2.71253	141212
2.72065	139826
2.72878	135801
2.73690	126488
2.74502	134832
2.75315	127442
2.76127	126938
2.76940	121659
2.77752	128291
2.78563	118715
2.79377	130459
2.80188	121712
2.81002	122444
2.81813	118631
2.82625	118781
2.83438	126468
2.84250	121069
2.85062	116377
2.85875	115376
2.86687	111221
2.87500	114125
2.88312	114267
2.89123	110607
2.89937	107356
2.90748	104170
2.91562	101174
2.92373	99152
2.93185	97385
2.93998	97238
2.94810	101474
2.95623	100344
2.96435	117247
2.97247	112347
2.98060	114330
2.98872	118757
2.99683	114542
3.00497	122692
3.01308	112759
3.02122	117726
3.02933	107409
3.03745	98757
3.04558	99885
3.05370	97371
3.06183	103086
3.06995	103290
3.07807	147314
3.08620	598965
3.09432	1793077
3.10243	3118940
3.11057	4724745
3.11868	4859912
3.12682	3278911
3.13493	2224153
3.14305	1739411
3.15118	1420421
3.15930	1170829
3.16743	993575
3.17555	856464
3.18367	756211
3.19180	667495
3.19992	586048
3.20805	526020
3.21617	480542
3.22428	424045
3.23242	394022
3.24053	373295
3.24865	340603
3.25678	310907
3.26490	309668
3.27303	278740
3.28115	289510
3.28927	474849
3.29740	1510344
3.30552	4176184
3.31365	6867595
3.32177	7013026
3.32988	5179188
3.33802	3451214
3.34613	2476152
3.35425	1980286
3.36238	1623614
3.37050	1365657
3.37863	1199129
3.38675	1045952
3.39487	939299
3.40300	843505
3.41112	790425
3.41925	718242
3.42737	657918
3.43548	621535
3.44362	591460
3.45173	541272
3.45987	525807
3.46798	516987
3.47610	544508
3.48423	532190
3.49235	501102
3.50047	460343
3.50860	435849
3.51672	401491
3.52485	387686
3.53297	387512
3.54108	364635
3.54922	347919
3.55733	338158
3.56547	364670
3.57358	461384
3.58170	550623
3.58983	519812
3.59795	407483
3.60608	367288
3.61420	363461
3.62232	356399
3.63045	343235
3.63857	338494
3.64668	326182
3.65482	309999
3.66293	293126
3.67107	281965
3.67918	277623
3.68730	272475
3.69543	266758
3.70355	245777
3.71168	249931
3.71980	246773
3.72792	233467
3.73605	237666
3.74417	229129
3.75228	234541
3.76042	235599
3.76853	219539
3.77667	222395
3.78478	228716
3.79290	242264
3.80103	417569
3.80915	1309057
3.81728	2886311
3.82540	3503746
3.83352	2580629
3.84165	1733164
3.84977	1307840
3.85790	1051644
3.86602	912784
3.87413	790929
3.88227	716226
3.89038	664325
3.89850	594909
3.90663	568156
3.91475	521688
3.92288	500094
3.93100	482598
3.93912	479884
3.94725	613483
3.95537	1405138
3.96350	3203154
3.97162	4649392
3.97973	4131676
3.98787	2692260
3.99598	2466617
4.00412	5663211
4.01223	1.280666E+07
4.02035	1.81275E+07
4.02848	1.582869E+07
4.03660	9383710
4.04472	5297994
4.05285	3425519
4.06097	2572712
4.06910	2063751
4.07722	1709730
4.08533	1461791
4.09347	1246069
4.10158	1118240
4.10972	981770
4.11783	896615
4.12595	826400
4.13408	765304
4.14220	735345
4.15032	723036
4.15845	695656
4.16657	673644
4.17470	655367
4.18282	644431
4.19093	594948
4.19907	548469
4.20718	491243
4.21532	478679
4.22343	508200
4.23155	558219
4.23968	587216
4.24780	543643
4.25593	488443
4.26405	456720
4.27217	414695
4.28030	391181
4.28842	376135
4.29653	349787
4.30467	345624
4.31278	344114
4.32092	330823
4.32903	334950
4.33715	335677
4.34528	326671
4.35340	319555
4.36153	303554
4.36965	297328
4.37777	289775
4.38590	291043
4.39402	273489
4.40213	274354
4.41027	261915
4.41838	273624
4.42652	276685
4.43463	278066
4.44275	263143
4.45088	262231
4.45900	247522
4.46713	249700
4.47525	233597
4.48337	242278
4.49150	229654
4.49962	232508
4.50775	226833
4.51587	226597
4.52398	214443
4.53212	221628
4.54023	213828
4.54835	218165
4.55648	217463
4.56460	215273
4.57273	213391
4.58085	202407
4.58897	194561
4.59710	195519
4.60522	200315
4.61335	196915
4.62147	194835
4.62958	183094
4.63772	188330
4.64583	191128
4.65397	190160
4.66208	187076
4.67020	174585
4.67833	193722
4.68645	196741
4.69457	193849
4.70270	190174
4.71082	187933
4.71895	175141
4.72707	184325
4.73518	177305
4.74332	166346
4.75143	173714
4.75957	167672
4.76768	168240
4.77580	168039
4.78393	167320
4.79205	168781
4.80018	185338
4.80830	199655
4.81642	206685
4.82455	205333
4.83267	201094
4.84078	229700
4.84892	246772
4.85703	235762
4.86517	222130
4.87328	201250
4.88140	198077
4.88953	181172
4.89765	177998
4.90578	168051
4.91390	159020
4.92202	166179
4.93015	170030
4.93827	202682
4.94638	312720
4.95452	609974
4.96263	1085820
4.97077	1516657
4.97888	1667755
4.98700	1484183
4.99513	1195276
5.00325	951096
5.01138	802391
5.01950	670145
5.02762	609317
5.03575	539467
5.04387	495804
5.05200	459749
5.06012	429808
5.06823	405135
5.07637	378832
5.08448	363777
5.09260	358057
5.10073	332626
5.10885	334373
5.11698	319010
5.12510	307282
5.13322	298053
5.14135	291128
5.14947	287827
5.15760	285469
5.16572	284778
5.17383	279939
5.18197	268048
5.19008	263666
5.19820	266347
5.20633	256617
5.21445	251790
5.22258	257465
5.23070	250198
5.23882	269677
5.24695	271951
5.25507	265689
5.26320	249499
5.27132	232572
5.27943	208251
5.28757	209457
5.29568	209991
5.30382	210468
5.31193	216495
5.32005	205285
5.32818	230996
5.33630	284434
5.34442	318139
5.35255	324818
5.36067	296349
5.36880	255144
5.37692	248501
5.38503	249098
5.39317	258116
5.40128	255398
5.40942	250160
5.41753	221872
5.42565	210029
5.43378	200492
5.44190	200845
5.45003	217107
5.45815	219293
5.46627	206527
5.47440	203017
5.48252	191141
5.49063	181461
5.49877	180461
5.50688	188578
5.51502	198694
5.52313	206508
5.53125	207819
5.53938	194283
5.54750	193577
5.55563	168393
5.56375	173704
5.57187	176221
5.58000	197059
5.58812	230033
5.59623	263803
5.60437	257916
5.61248	244770
5.62062	216121
5.62873	201406
5.63685	199311
5.64498	197260
5.65310	186292
5.66123	191091
5.66935	185593
5.67747	187740
5.68560	218992
5.69372	256369
5.70185	273953
5.70997	263466
5.71808	226728
5.72622	201179
5.73433	189249
5.74245	180280
5.75058	174193
5.75870	164274
5.76683	163366
5.77495	162545
5.78307	156361
5.79120	155538
5.79932	151754
5.80745	161898
5.81557	145501
5.82368	141748
5.83182	140766
5.83993	153582
5.84807	155162
5.85618	156986
5.86430	150878
5.87243	152660
5.88055	144645
5.88867	145382
5.89680	133322
5.90492	145088
5.91305	127113
5.92117	111671
5.92928	108937
5.93742	108207
5.94553	108045
5.95367	115962
5.96178	132669
5.96990	192216
5.97803	310942
5.98615	456124
5.99427	497920
6.00240	445245
6.01052	324716
6.01865	247038
6.02677	199161
6.03488	175367
6.04302	166710
6.05113	160482
6.05927	150712
6.06738	139317
6.07550	132917
6.08363	131763
6.09175	125262
6.09988	128396
6.10800	122033
6.11612	127205
6.12425	126621
6.13237	126454
6.14048	135716
6.14862	136630
6.15673	140595
6.16487	138498
6.17298	145311
6.18110	135783
6.18923	136491
6.19735	135219
6.20548	132381
6.21360	137654
6.22172	145266
6.22985	155503
6.23797	157104
6.24608	147152
6.25422	154396
6.26233	156843
6.27047	149402
6.27858	154485
6.28670	152893
6.29483	159473
6.30295	162154
6.31108	165016
6.31920	160504
6.32732	156001
6.33545	168373
6.34357	165792
6.35170	167678
6.35982	166778
6.36793	170168
6.37607	171385
6.38418	170442
6.39230	172810
6.40043	173937
6.40855	173300
6.41668	173868
6.42480	175513
6.43292	174046
6.44105	173535
6.44917	174919
6.45730	181282
6.46542	183151
6.47353	177123
6.48167	192290
6.48978	185369
6.49792	192141
6.50603	187708
6.51415	193976
6.52228	189735
6.53040	186743
6.53852	194681
6.54665	192129
6.55477	190868
6.56290	195797
6.57102	193636
6.57913	191028
6.58727	198206
6.59538	197120
6.60352	192619
6.61163	200649
6.61975	194702
6.62788	218626
6.63600	230961
6.64412	361561
6.65225	1107481
6.66037	3592849
6.66850	7867395
6.67662	1.166176E+07
6.68473	1.199366E+07
6.69287	9012807
6.70098	5601780
6.70912	3408155
6.71723	2362669
6.72535	1836894
6.73348	1530886
6.74160	1333246
6.74973	1153615
6.75785	1123728
6.76597	946926
6.77410	847182
6.78222	782294
6.79033	711920
6.79847	646830
6.80658	618793
6.81472	574906
6.82283	540493
6.83095	520354
6.83908	487897
6.84720	491918
6.85533	491947
6.86345	490677
6.87157	450385
6.87970	425328
6.88782	379831
6.89595	342276
6.90407	308843
6.91218	297008
6.92032	281878
6.92843	262165
6.93655	250234
6.94468	231573
6.95280	232693
6.96093	232565
6.96905	241845
6.97717	270919
6.98530	287993
6.99342	281165
7.00155	239705
7.00967	191565
7.01778	147812
7.02592	158541
7.03403	209760
7.04215	255800
7.05028	269332
7.05840	263487
7.06653	274808
7.07465	256407
7.08277	263095
7.09090	248177
7.09902	254067
7.10715	242760
7.11527	229076
7.12338	220887
7.13152	222885
7.13963	221284
7.14777	235392
7.15588	282198
7.16400	333306
7.17213	339282
7.18025	330317
7.18837	282387
7.19650	245841
7.20462	226445
7.21275	215360
7.22087	200116
7.22898	207061
7.23712	213859
7.24523	224380
7.25337	216153
7.26148	203127
7.26960	191836
7.27773	183751
7.28585	172171
7.29398	162605
7.30210	156226
7.31022	156550
7.31835	159702
7.32647	151698
7.33458	150126
7.34272	144229
7.35083	142677
7.35897	140633
7.36708	139417
7.37520	133514
7.38333	129990
7.39145	139273
7.39958	141766
7.40770	135751
7.41582	134302
7.42395	131695
7.43207	122030
7.44018	130709
7.44832	127463
7.45643	132322
7.46457	128446
7.47268	122575
7.48080	115705
7.48893	117601
7.49705	119196
7.50518	114229
7.51330	119114
7.52142	115610
7.52955	106648
7.53767	106603
7.54580	102497
7.55392	108376
7.56203	106057
7.57017	103829
7.57828	102970
7.58640	104845
7.59453	99269
7.60265	100011
7.61078	99980
7.61890	99930
7.62702	99533
7.63515	101583
7.64327	95230
7.65140	90236
7.65952	95081
7.66763	91405
7.67577	90710
7.68388	87992
7.69200	90588
7.70013	92413
7.70825	90692
7.71638	86777
7.72450	90578
7.73262	89954
7.74075	86174
7.74887	91846
7.75700	88287
7.76512	86978
7.77323	90938
7.78137	93619
7.78948	92085
7.79762	97534
7.80573	95547
7.81385	95394
7.82198	91420
7.83010	86591
7.83822	82532
7.84635	83816
7.85447	75629
7.86260	75050
7.87072	72672
7.87883	75641
7.88697	79260
7.89508	77785
7.90322	76714
7.91133	82232
7.91945	89982
7.92758	134711
7.93570	220774
7.94383	347784
7.95195	454015
7.96007	459423
7.96820	388390
7.97632	279180
7.98443	196193
7.99257	148319
8.00068	117085
8.00882	104212
8.01693	101506
8.02505	90955
8.03318	91474
8.04130	89711
8.04943	85682
8.05755	82128
8.06567	82066
8.07380	80248
8.08192	74139
8.09003	79201
8.09817	75035
8.10628	73898
8.11442	74973
8.12253	79503
8.13065	79019
8.13878	87859
8.14690	84839
8.15503	87144
8.16315	87475
8.17127	79649
8.17940	76693
8.18752	78287
8.19565	80821
8.20377	78215
8.21188	75647
8.22002	79768
8.22813	85367
8.23625	77842
8.24438	87139
8.25250	76481
8.26063	74475
8.26875	71273
8.27687	65468
8.28500	68692
8.29312	68436
8.30125	66184
8.30937	72928
8.31748	69059
8.32562	67082
8.33373	69598
8.34187	81821
8.34998	73483
8.35810	68620
8.36623	79854
8.37435	80125
8.38247	83555
8.39060	88869
8.39872	79255
8.40685	66656
8.41497	71716
8.42308	63238
8.43122	56630
8.43933	59600
8.44747	57125
8.45558	66639
8.46370	74429
8.47183	75294
8.47995	70495
8.48807	68914
8.49620	65105
8.50432	63907
8.51245	57972
8.52057	64978
8.52868	82981
8.53682	124927
8.54493	227454
8.55307	356494
8.56118	433916
8.56930	431415
8.57743	335315
8.58555	234960
8.59368	156651
8.60180	123650
8.60992	105724
8.61805	97799
8.62617	95578
8.63428	88724
8.64242	79907
8.65053	72004
8.65867	72520
8.66678	69073
8.67490	68685
8.68303	67200
8.69115	72920
8.69928	71395
8.70740	70424
8.71552	73352
8.72365	73191
8.73177	68200
8.73988	64449
8.74802	70498
8.75613	86165
8.76427	161693
8.77238	343758
8.78050	712350
8.78863	1192238
8.79675	1588128
8.80488	1620860
8.81300	1305986
8.82112	874890
8.82925	532981
8.83737	358835
8.84550	268343
8.85362	236293
8.86173	242653
8.86987	234377
8.87798	222046
8.88610	200616
8.89423	190389
8.90235	172985
8.91048	160869
8.91860	158720
8.92672	144913
8.93485	134975
8.94297	133692
8.95110	130208
8.95922	128188
8.96733	124214
8.97547	119583
8.98358	127738
8.99172	120844
8.99983	114835
9.00795	116310
9.01608	110346
9.02420	105140
9.03232	113361
9.04045	108439
9.04857	104174
9.05670	96991
9.06482	94857
9.07293	104510
9.08107	97482
9.08918	97446
9.09732	96151
9.10543	96062
9.11355	95469
9.12168	95785
9.12980	91687
9.13792	89942
9.14605	93515
9.15417	97700
9.16230	91186
9.17042	93743
9.17853	89020
9.18667	87613
9.19478	88902
9.20292	84352
9.21103	84228
9.21915	80700
9.22728	83553
9.23540	84257
9.24353	85031
9.25165	87478
9.25977	93228
9.26790	96114
9.27602	94105
9.28413	93829
9.29227	93842
9.30038	87610
9.30852	86861
9.31663	79115
9.32475	93437
9.33288	91873
9.34100	103717
9.34913	109350
9.35725	95442
9.36537	100692
9.37350	90824
9.38162	85704
9.38975	79239
9.39787	74615
9.40598	75874
9.41412	75949
9.42223	73918
9.43035	78252
9.43848	80742
9.44660	79442
9.45473	80084
9.46285	80266
9.47097	80452
9.47910	77251
9.48722	65327
9.49535	74210
9.50347	73531
9.51158	81521
9.51972	93002
9.52783	103538
9.53595	105136
9.54408	117194
9.55220	112991
9.56033	118143
9.56845	106112
9.57657	103564
9.58470	102065
9.59282	96745
9.60095	87486
9.60907	84914
9.61718	70657
9.62532	66467
9.63343	55444
9.64157	54283
9.64968	54548
9.65780	53714
9.66593	51191
9.67405	53827
9.68217	51990
9.69030	51323
9.69842	51566
9.70655	50591
9.71467	54167
9.72278	48432
9.73092	44679
9.73903	49594
9.74717	47091
9.75528	48721
9.76340	45938
9.77153	49506
9.77965	48408
9.78777	47406
9.79590	46215
9.80402	43880
9.81215	45365
9.82027	46380
9.82838	53241
9.83652	54054
9.84463	47504
9.85277	48841
9.86088	49268
9.86900	51120
9.87713	48393
9.88525	52178
9.89338	47650
9.90150	48263
9.90962	48219
9.91775	46264
9.92587	45127
9.93398	53037
9.94212	54691
9.95023	62396
9.95837	65084
9.96648	72872
9.97460	71841
9.98273	65904
9.99085	64782
9.99898	57941
10.00710	58006
10.01522	61581
10.02335	64333
10.03147	63215
10.03960	61451
10.04772	56091
10.05583	50920
10.06397	55571
10.07208	53018
10.08020	59005
10.08833	59819
10.09645	64691
10.10458	68974
10.11270	71085
10.12082	60100
10.12895	65801
10.13707	57490
10.14520	51861
10.15332	52228
10.16143	48106
10.16957	45548
10.17768	45927
10.18582	48103
10.19393	49312
10.20205	46267
10.21018	45624
10.21830	45644
10.22642	49076
10.23455	55761
10.24267	62012
10.25080	69975
10.25892	76267
10.26703	64873
10.27517	60934
10.28328	57477
10.29142	51297
10.29953	54124
10.30765	51781
10.31578	55388
10.32390	61296
10.33202	65953
10.34015	68666
10.34827	73608
10.35640	69576
10.36452	75176
10.37263	66758
10.38077	71795
10.38888	65744
10.39702	62547
10.40513	63190
10.41325	64298
10.42138	61894
10.42950	58375
10.43763	56526
10.44575	52569
10.45387	48047
10.46200	53319
10.47012	49071
10.47823	49360
10.48637	50769
10.49448	48437
10.50262	50436
10.51073	45824
10.51885	46940
10.52698	49143
10.53510	48592
10.54323	45784
10.55135	50201
10.55947	46944
10.56760	43157
10.57572	43582
10.58383	47739
10.59197	51916
10.60008	49500
10.60822	56468
10.61633	48395
10.62445	49518
10.63258	45805
10.64070	41267
10.64883	40823
10.65695	40374
10.66507	40956
10.67320	42652
10.68132	42815
10.68945	42480
10.69757	40023
10.70568	43909
10.71382	42169
10.72193	41322
10.73005	39021
10.73818	40394
10.74630	42813
10.75443	44972
10.76255	46934
10.77067	41131
10.77880	48657
10.78692	48424
10.79505	47321
10.80317	44276
10.81128	48000
10.81942	41812
10.82753	39724
10.83567	39785
10.84378	39650
10.85190	39135
10.86003	44467
10.86815	40894
10.87627	41425
10.88440	41027
10.89252	40865
10.90065	39568
10.90877	40467
10.91688	37315
10.92502	39338
10.93313	37866
10.94127	37241
10.94938	39373
10.95750	42204
10.96563	40051
10.97375	41243
10.98187	45139
10.99000	40409
10.99812	39692
11.00625	42587
11.01437	36383
11.02248	38583
11.03062	34744
11.03873	34097
11.04687	34732
11.05498	38701
11.06310	35515
11.07123	38535
11.07935	33382
11.08748	35498
11.09560	36999
11.10372	35623
11.11185	37183
11.11997	37465
11.12808	41190
11.13622	35237
11.14433	32380
11.15247	34026
11.16058	37482
11.16870	38495
11.17683	40445
11.18495	41242
11.19308	44574
11.20120	42674
11.20932	44972
11.21745	44839
11.22557	40701
11.23370	39126
11.24182	38113
11.24993	37204
11.25807	35174
11.26618	36358
11.27430	39124
11.28243	44365
11.29055	35595
11.29868	37014
11.30680	43646
11.31492	40166
11.32305	37725
11.33117	40362
11.33930	38777
11.34742	40999
11.35553	40339
11.36367	38723
11.37178	39443
11.37990	39403
11.38803	36966
11.39615	33026
11.40428	38435
11.41240	37003
11.42052	36841
11.42865	32862
11.43677	36269
11.44490	31841
11.45302	35644
11.46113	33677
11.46927	39068
11.47738	46817
11.48552	58486
11.49363	85478
11.50175	108464
11.50988	115391
11.51800	112323
11.52612	96640
11.53425	76023
11.54237	67744
11.55050	66088
11.55862	54676
11.56673	49105
11.57487	48067
11.58298	44200
11.59112	43087
11.59923	44019
11.60735	42758
11.61548	39688
11.62360	43060
11.63172	43841
11.63985	37953
11.64797	37681
11.65610	38219
11.66422	36068
11.67233	41570
11.68047	42250
11.68858	54019
11.69672	58868
11.70483	67265
11.71295	70140
11.72108	63425
11.72920	53769
11.73733	43606
11.74545	48209
11.75357	41570
11.76170	41193
11.76982	42651
11.77793	39919
11.78607	42860
11.79418	43171
11.80232	40138
11.81043	42205
11.81855	39166
11.82668	41163
11.83480	44010
11.84293	45675
11.85105	51037
11.85917	54610
11.86730	62529
11.87542	62775
11.88355	62291
11.89167	55155
11.89978	50436
11.90792	44939
11.91603	44880
11.92415	47014
11.93228	51198
11.94040	43081
11.94853	45999
11.95665	46576
11.96477	41442
11.97290	41384
11.98102	41459
11.98915	43409
11.99727	47065
12.00538	61174
12.01352	70511
12.02163	71881
12.02975	76892
12.03788	70787
12.04600	58693
12.05413	52022
12.06225	46887
12.07037	40199
12.07850	39134
12.08662	38733
12.09475	41430
12.10287	36953
12.11098	38814
12.11912	42283
12.12723	41736
12.13537	41032
12.14348	44006
12.15160	40108
12.15973	40827
12.16785	41312
12.17597	36643
12.18410	38987
12.19222	40739
12.20035	42462
12.20847	36295
12.21658	39694
12.22472	39598
12.23283	39290
12.24097	36139
12.24908	35681
12.25720	36998
12.26533	40862
12.27345	35068
12.28158	38520
12.28970	40298
12.29782	42194
12.30595	40213
12.31407	38749
12.32218	36576
12.33032	41649
12.33843	39538
12.34657	35856
12.35468	35726
12.36280	36062
12.37093	41936
12.37905	38967
12.38718	35700
12.39530	33617
12.40342	36608
12.41155	38826
12.41967	41835
12.42778	40097
12.43592	40538
12.44403	41838
12.45217	41311
12.46028	38236
12.46840	38132
12.47653	37912
12.48465	41372
12.49278	36180
12.50090	36305
12.50902	36459
12.51715	34951
12.52527	36060
12.53340	37165
12.54152	38463
12.54963	42763
12.55777	39328
12.56588	38653
12.57400	40740
12.58213	42079
12.59025	42656
12.59838	40068
12.60650	43111
12.61462	44263
12.62275	42907
12.63087	48793
12.63900	46965
12.64712	42826
12.65523	43362
12.66337	38207
12.67148	36592
12.67960	37344
12.68773	35259
12.69585	39877
12.70398	35122
12.71210	37450
12.72022	40176
12.72835	46551
12.73647	47104
12.74460	47743
12.75272	46159
12.76083	43713
12.76897	38034
12.77708	37888
12.78522	38797
12.79333	34221
12.80145	34974
12.80958	33591
12.81770	37593
12.82582	35726
12.83395	34974
12.84207	36052
12.85020	32197
12.85832	35995
12.86643	39214
12.87457	38526
12.88268	36347
12.89082	34263
12.89893	38806
12.90705	36090
12.91518	32937
12.92330	40491
12.93143	37241
12.93955	39882
12.94767	34622
12.95580	34020
12.96392	36024
12.97203	33482
12.98017	37457
12.98828	37170
12.99642	39916
13.00453	38180
13.01265	36619
13.02078	36554
13.02890	36067
13.03703	34581
13.04515	39152
13.05327	38236
13.06140	35270
13.06952	38992
13.07763	34387
13.08577	37907
13.09388	35490
13.10202	35354
13.11013	42276
13.11825	35766
13.12638	32376
13.13450	32263
13.14263	34025
13.15075	32775
13.15887	32850
13.16700	36664
13.17512	33840
13.18325	36129
13.19137	38697
13.19948	39423
13.20762	40817
13.21573	44696
13.22385	43151
13.23198	41076
13.24010	43378
13.24823	43796
13.25635	38843
13.26447	38222
13.27260	33378
13.28072	32961
13.28885	34143
13.29697	34734
13.30508	35535
13.31322	30882
13.32133	36147
13.32947	37566
13.33758	35858
13.34570	35906
13.35383	35688
13.36195	34674
13.37007	41737
13.37820	30926
13.38632	29617
13.39445	31112
13.40257	33598
13.41068	32255
13.41882	32682
13.42693	31446
13.43507	37184
13.44318	34035
13.45130	30912
13.45943	28530
13.46755	31774
13.47567	33823
13.48380	33019
13.49192	31387
13.50005	29430
13.50817	31958
13.51628	33970
13.52442	29788
13.53253	31041
13.54067	31883
13.54878	37366
13.55690	35244
13.56503	41133
13.57315	40663
13.58128	39566
13.58940	39925
13.59752	36006
13.60565	33241
13.61377	30966
13.62188	34100
13.63002	35045
13.63813	31996
13.64627	28712
13.65438	35721
13.66250	29041
13.67063	32582
13.67875	34122
13.68688	31228
13.69500	29294
13.70312	35720
13.71125	36706
13.71937	38000
13.72750	38493
13.73562	40329
13.74373	42554
13.75187	43471
13.75998	60206
13.76810	77050
13.77623	103204
13.78435	125468
13.79248	143209
13.80060	128307
13.80872	106521
13.81685	76667
13.82497	64759
13.83310	50888
13.84122	46562
13.84933	48898
13.85747	51390
13.86558	45898
13.87370	45364
13.88183	42486
13.88995	41120
13.89808	41139
13.90620	42237
13.91432	39285
13.92245	39210
13.93057	36190
13.93870	39062
13.94682	40023
13.95493	47889
13.96307	62868
13.97118	85866
13.97932	119544
13.98743	143025
13.99555	162958
14.00368	159274
14.01180	128282
14.01992	93863
14.02805	82448
14.03617	73901
14.04430	70292
14.05242	59406
14.06053	57015
14.06867	58417
14.07678	57237
14.08492	53617
14.09303	51717
14.10115	50944
14.10928	53449
14.11740	47113
14.12552	54841
14.13365	45463
14.14177	44054
14.14990	46915
14.15802	52473
14.16613	55264
14.17427	54295
14.18238	50994
14.19052	51377
14.19863	65872
14.20675	89458
14.21488	117317
14.22300	151339
14.23113	178397
14.23925	178741
14.24737	163677
14.25550	153094
14.26362	135250
14.27173	118013
14.27987	113970
14.28798	98449
14.29612	91697
14.30423	86102
14.31235	84777
14.32048	81259
14.32860	75418
14.33673	69366
14.34485	69438
14.35297	70943
14.36110	64636
14.36922	57984
14.37735	62054
14.38547	53517
14.39358	53141
14.40172	49895
14.40983	51426
14.41795	52390
14.42608	44889
14.43420	43019
14.44233	39259
14.45045	44438
14.45857	42228
14.46670	41718
14.47482	40227
14.48295	40205
14.49107	38490
14.49918	40011
14.50732	40839
14.51543	38996
14.52355	40857
14.53168	40370
14.53980	41150
14.54793	42451
14.55605	40260
14.56417	38065
14.57230	38124
14.58042	40570
14.58855	32798
14.59667	38291
14.60478	33949
14.61292	32909
14.62103	35510
14.62917	34561
14.63728	37177
14.64540	37893
14.65353	34477
14.66165	34793
14.66977	34385
14.67790	32897
14.68602	33124
14.69415	35801
14.70227	34413
14.71038	34948
14.71852	36398
14.72663	35204
14.73477	32613
14.74288	35497
14.75100	35041
14.75913	33323
14.76725	39703
14.77538	40271
14.78350	40976
14.79162	35142
14.79975	35963
14.80787	35633
14.81598	39723
14.82412	41771
14.83223	43118
14.84037	42918
14.84848	43718
14.85660	48316
14.86473	48916
14.87285	47688
14.88098	48708
14.88910	47624
14.89722	44669
14.90535	43994
14.91347	47864
14.92158	43471
14.92972	42501
14.93783	46644
14.94597	43825
14.95408	49095
14.96220	50058
14.97033	48923
14.97845	50975
14.98658	48192
14.99470	46429
15.00282	45896
15.01095	49097
15.01907	42894
15.02720	45531
15.03532	47081
15.04343	43108
15.05157	42041
15.05968	43241
15.06780	40437
15.07593	41341
15.08405	41132
15.09218	41366
15.10030	41267
15.10842	40357
15.11655	40760
15.12467	40159
15.13280	42079
15.14092	36664
15.14903	39279
15.15717	33679
15.16528	40563
15.17340	34968
15.18153	44128
15.18965	36764
15.19778	30777
15.20590	36480
15.21402	33261
15.22215	40001
15.23027	36356
15.23840	32930
15.24652	36729
15.25463	35728
15.26277	33311
15.27088	34443
15.27902	33153
15.28713	37222
15.29525	32190
15.30338	32365
15.31150	33665
15.31962	28994
15.32775	34674
15.33587	34761
15.34400	30044
15.35212	28812
15.36023	31646
15.36837	31035
15.37648	33223
15.38462	31900
15.39273	29248
15.40085	30532
15.40898	34463
15.41710	30932
15.42523	31083
15.43335	31676
15.44147	32750
15.44960	32660
15.45772	33844
15.46583	30507
15.47397	33299
15.48208	30026
15.49022	29764
15.49833	34302
15.50645	39652
15.51458	49108
15.52270	70119
15.53083	107392
15.53895	158910
15.54707	219164
15.55520	261012
15.56332	261111
15.57145	223014
15.57957	161528
15.58768	109763
15.59582	76703
15.60393	61140
15.61205	51260
15.62018	48445
15.62830	44567
15.63643	42896
15.64455	43057
15.65267	34114
15.66080	39294
15.66892	38140
15.67705	37851
15.68517	36759
15.69328	35223
15.70142	35278
15.70953	35374
15.71765	34359
15.72578	36536
15.73390	41345
15.74203	35665
15.75015	35764
15.75827	33739
15.76640	35565
15.77452	38189
15.78265	46009
15.79077	48844
15.79888	53752
15.80702	55729
15.81513	52986
15.82327	47583
15.83138	46021
15.83950	41857
15.84763	36976
15.85575	37599
15.86387	36432
15.87200	37767
15.88012	38608
15.88825	39950
15.89637	43620
15.90448	48074
15.91262	45628
15.92073	49955
15.92887	42331
15.93698	42756
15.94510	41880
15.95323	46239
15.96135	43904
15.96947	51101
15.97760	55190
15.98572	64966
15.99385	67238
16.00197	69575
16.01008	68965
16.01822	72218
16.02633	71559
16.03447	73694
16.04258	74468
16.05070	73558
16.05883	55416
16.06695	51590
16.07508	49538
16.08320	47538
16.09132	41530
16.09945	43256
16.10757	41314
16.11568	37635
16.12382	42739
16.13193	37305
16.14007	38586
16.14818	43234
16.15630	38070
16.16443	39838
16.17255	35791
16.18068	34690
16.18880	38631
16.19692	34563
16.20505	35973
16.21317	35222
16.22130	37375
16.22942	39567
16.23753	38248
16.24567	35524
16.25378	36338
16.26190	40492
16.27003	41934
16.27815	37607
16.28628	37199
16.29440	36509
16.30252	38213
16.31065	37233
16.31877	37053
16.32690	33593
16.33502	34816
16.34313	39186
16.35127	39745
16.35938	48935
16.36750	62175
16.37563	73925
16.38375	79075
16.39188	87635
16.40000	90451
16.40812	78323
16.41625	64129
16.42437	55691
16.43250	47721
16.44062	39848
16.44873	41983
16.45687	39643
16.46498	46874
16.47312	39975
16.48123	38126
16.48935	38403
16.49748	39284
16.50560	43179
16.51372	38865
16.52185	41253
16.52997	40807
16.53810	44265
16.54622	36489
16.55433	39309
16.56247	36971
16.57058	38738
16.57872	36853
16.58683	42861
16.59495	42575
16.60308	49058
16.61120	52130
16.61933	58047
16.62745	59787
16.63557	58191
16.64370	54143
16.65182	50924
16.65993	46768
16.66807	43360
16.67618	37059
16.68432	40274
16.69243	36931
16.70055	42266
16.70868	34993
16.71680	36676
16.72493	40379
16.73305	34747
16.74117	35833
16.74930	36348
16.75742	33523
16.76553	32871
16.77367	33658
16.78178	35068
16.78992	34920
16.79803	36544
16.80615	34224
16.81428	36315
16.82240	32682
16.83053	34439
16.83865	34762
16.84677	32754
16.85490	26970
16.86302	32884
16.87115	28800
16.87927	31562
16.88738	31439
16.89552	27186
16.90363	29676
16.91175	33498
16.91988	38297
16.92800	35105
16.93613	30049
16.94425	31586
16.95237	30226
16.96050	32230
16.96862	31177
16.97675	28576
16.98487	33055
16.99298	30366
17.00112	29529
17.00923	31133
17.01735	27965
17.02548	33171
17.03360	33534
17.04173	29732
17.04985	33309
17.05797	27770
17.06610	30304
17.07422	28004
17.08235	32321
17.09047	32682
17.09858	32130
17.10672	31212
17.11483	34960
17.12297	33817
17.13108	34995
17.13920	35873
17.14733	36301
17.15545	34548
17.16357	34763
17.17170	31336
17.17982	34118
17.18795	33180
17.19607	30071
17.20418	32784
17.21232	29860
17.22043	31230
17.22857	34428
17.23668	32965
17.24480	29253
17.25293	29873
17.26105	34192
17.26918	39498
17.27730	34173
17.28542	35273
17.29355	31077
17.30167	33530
17.30978	33982
17.31792	33917
17.32603	30986
17.33417	36534
17.34228	32032
17.35040	36252
17.35853	33750
17.36665	37218
17.37478	36338
17.38290	40284
17.39102	45563
17.39915	39286
17.40727	42898
17.41538	37036
17.42352	38799
17.43163	36443
17.43977	38717
17.44788	36987
17.45600	36485
17.46413	38464
17.47225	39234
17.48038	38447
17.48850	34230
17.49662	34343
17.50475	35472
17.51287	36311
17.52100	32246
17.52912	31937
17.53723	38169
17.54537	33766
17.55348	37877
17.56160	35700
17.56973	36481
17.57785	33897
17.58598	32141
17.59410	32100
17.60222	31275
17.61035	38144
17.61847	34369
17.62660	35488
17.63472	45060
17.64283	56237
17.65097	77795
17.65908	120088
17.66722	166664
17.67533	217835
17.68345	220392
17.69158	219399
17.69970	167110
17.70782	126484
17.71595	103593
17.72407	84848
17.73220	71816
17.74032	61735
17.74843	59624
17.75657	56808
17.76468	56004
17.77282	50293
17.78093	51441
17.78905	53261
17.79718	55295
17.80530	52060
17.81342	49288
17.82155	45763
17.82967	53495
17.83780	55479
17.84592	55200
17.85403	55557
17.86217	54701
17.87028	52472
17.87842	48212
17.88653	44892
17.89465	42051
17.90278	40960
17.91090	39635
17.91903	40665
17.92715	39718
17.93527	39058
17.94340	37749
17.95152	33785
17.95963	35268
17.96777	37514
17.97588	34497
17.98402	35751
17.99213	34152
18.00025	36966
18.00838	36509
18.01650	34683
18.02463	38330
18.03275	37017
18.04087	34515
18.04900	35506
18.05712	32751
18.06523	34807
18.07337	36149
18.08148	46014
18.08962	48346
18.09773	60619
18.10585	67507
18.11398	64504
18.12210	65772
18.13023	61502
18.13835	56937
18.14647	55286
18.15460	55023
18.16272	54771
18.17085	51660
18.17897	53630
18.18708	55915
18.19522	58615
18.20333	54092
18.21145	53111
18.21958	53514
18.22770	44518
18.23583	48896
18.24395	51617
18.25207	44875
18.26020	45888
18.26832	42636
18.27645	43779
18.28457	43441
18.29268	42496
18.30082	40797
18.30893	37866
18.31707	39856
18.32518	39369
18.33330	35066
18.34143	37739
18.34955	38584
18.35767	37937
18.36580	38693
18.37392	35168
18.38205	32784
18.39017	37782
18.39828	33561
18.40642	34161
18.41453	33107
18.42267	31918
18.43078	35999
18.43890	35648
18.44703	34027
18.45515	34976
18.46327	35628
18.47140	36580
18.47952	34837
18.48765	33347
18.49577	35810
18.50388	33124
18.51202	33403
18.52013	32616
18.52827	35130
18.53638	35270
18.54450	32747
18.55263	30709
18.56075	34187
18.56888	34930
18.57700	35238
18.58512	35389
18.59325	35586
18.60137	35228
18.60948	41283
18.61762	35021
18.62573	38133
18.63387	39590
18.64198	40395
18.65010	46473
18.65823	36213
18.66635	37409
18.67448	37773
18.68260	36943
18.69072	35777
18.69885	33277
18.70697	31526
18.71510	31329
18.72322	32794
18.73133	29991
18.73947	32801
18.74758	38002
18.75570	32929
18.76383	32036
18.77195	28972
18.78008	31729
18.78820	32918
18.79632	31285
18.80445	36442
18.81257	33549
18.82070	37298
18.82882	37215
18.83693	30697
18.84507	34229
18.85318	33525
18.86130	30794
18.86943	31790
18.87755	30505
18.88568	30514
18.89380	32376
18.90192	36740
18.91005	33408
18.91817	34159
18.92630	33799
18.93442	31597
18.94253	34621
18.95067	38129
18.95878	33238
18.96692	32227
18.97503	31757
18.98315	34001
18.99128	33512
18.99940	30892
19.00752	35202
19.01565	34363
19.02377	33447
19.03190	31566
19.04002	34445
19.04813	35228
19.05627	32957
19.06438	34734
19.07252	32552
19.08063	34955
19.08875	39826
19.09688	43534
19.10500	55809
19.11313	64764
19.12125	72119
19.12937	72122
19.13750	66206
19.14562	71715
19.15373	65043
19.16187	69943
19.16998	77991
19.17812	82046
19.18623	83639
19.19435	85854
19.20248	89590
19.21060	78892
19.21873	70308
19.22685	64461
19.23497	61688
19.24310	55281
19.25122	46651
19.25933	46909
19.26747	47538
19.27558	43448
19.28372	45778
19.29183	47321
19.29995	51606
19.30808	56816
19.31620	55896
19.32433	60387
19.33245	66239
19.34057	61263
19.34870	69216
19.35682	68338
19.36495	63837
19.37307	63219
19.38118	54538
19.38932	51693
19.39743	50730
19.40555	51232
19.41368	44693
19.42180	43462
19.42993	49664
19.43805	40525
19.44617	40600
19.45430	39116
19.46242	40221
19.47055	38323
19.47867	42012
19.48678	43321
19.49492	48394
19.50303	55781
19.51115	69443
19.51928	96927
19.52740	117391
19.53553	132373
19.54365	126055
19.55177	100239
19.55990	77884
19.56802	62742
19.57615	50007
19.58427	44126
19.59238	45073
19.60052	43752
19.60863	39832
19.61677	36032
19.62488	39464
19.63300	42501
19.64113	46903
19.64925	58620
19.65737	87185
19.66550	130019
19.67362	172598
19.68175	210713
19.68987	219540
19.69798	203131
19.70612	175223
19.71423	147516
19.72237	119880
19.73048	100259
19.73860	90720
19.74673	75817
19.75485	67414
19.76298	62333
19.77110	55548
19.77922	53974
19.78735	56610
19.79547	49289
19.80358	51006
19.81172	49916
19.81983	57892
19.82797	56608
19.83608	55883
19.84420	71472
19.85233	150816
19.86045	474137
19.86858	1545468
19.87670	4221290
19.88482	9657254
19.89295	1.744718E+07
19.90107	2.574003E+07
19.90918	3.199501E+07
19.91732	3.41015E+07
19.92543	3.13671E+07
19.93357	2.52765E+07
19.94168	1.796578E+07
19.94980	1.187125E+07
19.95793	7976053
19.96605	6001135
19.97418	4803048
19.98230	4048556
19.99042	3660277
19.99855	3286614
20.00667	3012329
20.01480	2767993
20.02292	2548529
20.03103	2357441
20.03917	2176678
20.04728	1887592
20.05540	1572685
20.06353	1249502
20.07165	982721
20.07978	729145
20.08790	560487
20.09602	453650
20.10415	409217
20.11227	364057
20.12040	348170
20.12852	328170
20.13663	316221
20.14477	287587
20.15288	290148
20.16102	282756
20.16913	287607
20.17725	280181
20.18538	269432
20.19350	266849
20.20162	241092
20.20975	236794
20.21787	220915
20.22600	221118
20.23412	199988
20.24223	197760
20.25037	203387
20.25848	201864
20.26662	214921
20.27473	234390
20.28285	255055
20.29098	262423
20.29910	287984
20.30722	283450
20.31535	280845
20.32347	245337
20.33160	214838
20.33972	208130
20.34783	184562
20.35597	153917
20.36408	132951
20.37222	114184
20.38033	100285
20.38845	80264
20.39658	74519
20.40470	72617
20.41283	66035
20.42095	66278
20.42907	69600
20.43720	76277
20.44532	87349
20.45343	87540
20.46157	98862
20.46968	103475
20.47782	103712
20.48593	97051
20.49405	88717
20.50218	79023
20.51030	71675
20.51843	64675
20.52655	62204
20.53467	60501
20.54280	62531
20.55092	57771
20.55903	58590
20.56717	56290
20.57528	58475
20.58342	56327
20.59153	56628
20.59965	54455
20.60778	54977
20.61590	60135
20.62403	52787
20.63215	52815
20.64027	52677
20.64840	54384
20.65652	50400
20.66465	50830
20.67277	52708
20.68088	48992
20.68902	54689
20.69713	51965
20.70525	48621
20.71338	48797
20.72150	49896
20.72963	52746
20.73775	50882
20.74587	48963
20.75400	53181
20.76212	48662
20.77025	50352
20.77837	48370
20.78648	54750
20.79462	46864
20.80273	50910
20.81087	49906
20.81898	48957
20.82710	49251
20.83523	47704
20.84335	46416
20.85147	47784
20.85960	46152
20.86772	46338
20.87585	44257
20.88397	50221
20.89208	45367
20.90022	47842
20.90833	45759
20.91647	45853
20.92458	48388
20.93270	46774
20.94083	48056
20.94895	42964
20.95708	45225
20.96520	45294
20.97332	48141
20.98145	45862
20.98957	46008
20.99768	47594
21.00582	44662
21.01393	44849
21.02207	45548
21.03018	45035
21.03830	49549
21.04643	48843
21.05455	49342
21.06268	51417
21.07080	47318
21.07892	45455
21.08705	51031
21.09517	46883
21.10328	39404
21.11142	46978
21.11953	38680
21.12767	40985
21.13578	40726
21.14390	45365
21.15203	46543
21.16015	49628
21.16828	43555
21.17640	46616
21.18452	42091
21.19265	43884
21.20077	43443
21.20890	46257
21.21702	44985
21.22513	46136
21.23327	46446
21.24138	49050
21.24950	48717
21.25763	49873
21.26575	46138
21.27388	50425
21.28200	47307
21.29012	44273
21.29825	48701
21.30637	45226
21.31450	47627
21.32262	45677
21.33073	43705
21.33887	46975
21.34698	44575
21.35510	43009
21.36323	41580
21.37135	41221
21.37948	40955
21.38760	43020
21.39572	43740
21.40385	41354
21.41197	41589
21.42010	45751
21.42822	42487
21.43633	44427
21.44447	41867
21.45258	44114
21.46072	44524
21.46883	44580
21.47695	41085
21.48508	40622
21.49320	44061
21.50132	39535
21.50945	36861
21.51757	39024
21.52570	41222
21.53382	40617
21.54193	39138
21.55007	43828
21.55818	41444
21.56632	41102
21.57443	39318
21.58255	41933
21.59068	40474
21.59880	41990
21.60693	43594
21.61505	44680
21.62317	41933
21.63130	47730
21.63942	56348
21.64753	63348
21.65567	69538
21.66378	76508
21.67192	77617
21.68003	65000
21.68815	58458
21.69628	51570
21.70440	43160
21.71253	45760
21.72065	43164
21.72877	40538
21.73690	39425
21.74502	42324
21.75313	40992
21.76127	42894
21.76938	40735
21.77752	41216
21.78563	45851
21.79375	45169
21.80188	41658
21.81000	43852
21.81813	44086
21.82625	48699
21.83437	55446
21.84250	67980
21.85062	67999
21.85875	80077
21.86687	78034
21.87498	75311
21.88312	70111
21.89123	62052
21.89935	56543
21.90748	46160
21.91560	45250
21.92373	42956
21.93185	39366
21.93997	40020
21.94810	37621
21.95622	45018
21.96435	39587
21.97247	39688
21.98058	38356
21.98872	38046
21.99683	35208
22.00497	37503
22.01308	38683
22.02120	37892
22.02933	41443
22.03745	36345
22.04557	36623
22.05370	37253
22.06182	33394
22.06995	34278
22.07807	40291
22.08618	36314
22.09432	35416
22.10243	37091
22.11057	35565
22.11868	31756
22.12680	37505
22.13493	39479
22.14305	34103
22.15117	39902
22.15930	43087
22.16742	37401
22.17555	39137
22.18367	40349
22.19178	36472
22.19992	37119
22.20803	41476
22.21617	40447
22.22428	40244
22.23240	41724
22.24053	42419
22.24865	45713
22.25678	44838
22.26490	41214
22.27302	40433
22.28115	39700
22.28927	40325
22.29738	42698
22.30552	47042
22.31363	58762
22.32177	77932
22.32988	108819
22.33800	141195
22.34613	154213
22.35425	158101
22.36238	144108
22.37050	117819
22.37862	93365
22.38675	80171
22.39487	74981
22.40298	61537
22.41112	56612
22.41923	58570
22.42737	51600
22.43548	46301
22.44360	42505
22.45173	48087
22.45985	41970
22.46798	37697
22.47610	44288
22.48422	42186
22.49235	43239
22.50047	36379
22.50860	41705
22.51672	37457
22.52483	38251
22.53297	39623
22.54108	40165
22.54920	39437
22.55733	37224
22.56545	43014
22.57358	38839
22.58170	33960
22.58982	36628
22.59795	40995
22.60607	33985
22.61420	35205
22.62232	34015
22.63043	35949
22.63857	32869
22.64668	36417
22.65482	36085
22.66293	39012
22.67105	38795
22.67918	42671
22.68730	49431
22.69542	54343
22.70355	63155
22.71167	58739
22.71980	53146
22.72792	47829
22.73603	44683
22.74417	40826
22.75228	41855
22.76042	40522
22.76853	40009
22.77665	37111
22.78478	34202
22.79290	33836
22.80102	38919
22.80915	38712
22.81727	34851
22.82540	35513
22.83352	32091
22.84163	32291
22.84977	37462
22.85788	38961
22.86602	36849
22.87413	34669
22.88225	38336
22.89038	37254
22.89850	38341
22.90663	38838
22.91475	45765
22.92287	53129
22.93100	59401
22.93912	73227
22.94723	81190
22.95537	85192
22.96348	86637
22.97162	86392
22.97973	86482
22.98785	85233
22.99598	74729
23.00410	68895
23.01223	67664
23.02035	61409
23.02847	54714
23.03660	50088
23.04472	51926
23.05285	45192
23.06097	42660
23.06908	42782
23.07722	38499
23.08533	36783
23.09345	39143
23.10158	42537
23.10970	38273
23.11783	42875
23.12595	40741
23.13407	33992
23.14220	35829
23.15032	36543
23.15845	37675
23.16657	38508
23.17468	36851
23.18282	36244
23.19093	35147
23.19905	41403
23.20718	35977
23.21530	36460
23.22343	36200
23.23155	37622
23.23967	39533
23.24780	43727
23.25592	47188
23.26405	51884
23.27217	56918
23.28028	56843
23.28842	50782
23.29653	47810
23.30467	40548
23.31278	39615
23.32090	38501
23.32903	36346
23.33715	37513
23.34527	37424
23.35340	39592
23.36152	45547
23.36965	42307
23.37777	46361
23.38588	47449
23.39402	48806
23.40213	49662
23.41027	42164
23.41838	43564
23.42650	47854
23.43463	42923
23.44275	44021
23.45088	45075
23.45900	42311
23.46712	47353
23.47525	45800
23.48337	44570
23.49148	46781
23.49962	42251
23.50773	41742
23.51587	45514
23.52398	47667
23.53210	46784
23.54023	50315
23.54835	55064
23.55648	66014
23.56460	77619
23.57272	83497
23.58085	90832
23.58897	90429
23.59708	95467
23.60522	97875
23.61333	99969
23.62147	102077
23.62958	105896
23.63770	127399
23.64583	172297
23.65395	282195
23.66208	419574
23.67020	570951
23.67832	637076
23.68645	651973
23.69457	536637
23.70270	418842
23.71082	291857
23.71893	208105
23.72707	151604
23.73518	124540
23.74330	110856
23.75143	107280
23.75955	145082
23.76768	295545
23.77580	643174
23.78392	1336627
23.79205	2317053
23.80017	3143527
23.80830	3561332
23.81642	3402335
23.82453	2825393
23.83267	2082296
23.84078	1539156
23.84890	1076458
23.85703	767570
23.86515	628087
23.87328	488981
23.88140	419200
23.88952	362240
23.89765	322754
23.90577	278976
23.91390	262849
23.92202	234901
23.93013	225552
23.93827	207709
23.94638	188008
23.95452	185174
23.96263	173814
23.97075	166689
23.97888	156100
23.98700	147750
23.99512	136579
24.00325	138943
24.01137	123627
24.01950	134832
24.02762	133668
24.03573	141068
24.04387	148267
24.05198	154711
24.06012	158183
24.06823	150628
24.07635	147818
24.08448	139632
24.09260	129744
24.10073	113869
24.10885	105806
24.11697	101360
24.12510	102910
24.13322	98045
24.14133	95286
24.14947	93923
24.15758	94997
24.16572	94999
24.17383	99813
24.18195	102926
24.19008	87591
24.19820	89307
24.20633	83478
24.21445	85004
24.22257	85900
24.23070	86735
24.23882	87411
24.24693	86840
24.25507	84199
24.26318	78465
24.27132	79189
24.27943	68692
24.28755	72441
24.29568	70966
24.30380	67317
24.31193	62936
24.32005	67056
24.32817	67922
24.33630	62991
24.34442	63901
24.35255	66058
24.36067	61628
24.36878	60267
24.37692	58962
24.38503	64256
24.39315	69250
24.40128	82464
24.40940	99057
24.41753	104181
24.42565	113554
24.43377	116056
24.44190	93506
24.45002	85880
24.45815	69584
24.46627	66328
24.47438	70298
24.48252	75599
24.49063	76942
24.49877	81018
24.50688	82336
24.51500	80246
24.52313	89002
24.53125	90574
24.53937	94464
24.54750	110212
24.55562	113747
24.56375	117005
24.57187	124216
24.57998	121975
24.58812	103851
24.59623	101998
24.60437	92925
24.61248	85666
24.62060	78457
24.62873	77674
24.63685	76254
24.64497	69478
24.65310	72113
24.66122	70151
24.66935	73149
24.67747	74696
24.68558	65390
24.69372	63410
24.70183	63485
24.70997	60117
24.71808	58588
24.72620	56900
24.73433	51253
24.74245	54102
24.75058	56452
24.75870	52319
24.76682	49909
24.77495	46763
24.78307	48711
24.79118	51274
24.79932	52801
24.80743	48761
24.81557	43936
24.82368	46626
24.83180	46413
24.83993	45257
24.84805	49331
24.85618	47387
24.86430	52706
24.87242	55776
24.88055	58432
24.88867	58169
24.89678	59919
24.90492	61463
24.91303	53951
24.92117	52303
24.92928	50720
24.93740	47703
24.94553	48479
24.95365	48728
24.96178	44333
24.96990	47660
24.97802	45467
24.98615	42083
24.99427	47204
25.00240	41849
25.01052	45176
25.01863	44225
25.02677	43950
25.03488	41783
25.04300	45053
25.05113	41049
25.05925	42248
25.06738	44171
25.07550	40679
25.08362	43050
25.09175	45246
25.09987	41162
25.10800	45878
25.11612	46301
25.12423	43653
25.13237	44554
25.14048	52802
25.14862	58790
25.15673	69574
25.16485	73848
25.17298	75018
25.18110	75840
25.18922	66124
25.19735	63303
25.20547	60766
25.21360	55401
25.22172	50856
25.22983	50067
25.23797	51796
25.24608	49455
25.25422	47208
25.26233	48451
25.27045	43883
25.27858	46808
25.28670	41190
25.29483	42605
25.30295	49414
25.31107	50726
25.31920	50179
25.32732	54129
25.33543	48904
25.34357	52840
25.35168	51150
25.35982	50086
25.36793	48214
25.37605	46272
25.38418	40437
25.39230	43671
25.40043	42309
25.40855	44188
25.41667	39880
25.42480	44175
25.43292	38667
25.44103	39580
25.44917	40430
25.45728	40725
25.46542	40532
25.47353	40135
25.48165	44114
25.48978	44942
25.49790	46376
25.50603	44019
25.51415	43113
25.52227	44133
25.53040	46100
25.53852	42608
25.54665	39902
25.55477	46528
25.56288	39032
25.57102	39470
25.57913	39267
25.58725	39729
25.59538	37644
25.60350	38234
25.61163	38572
25.61975	37884
25.62787	40244
25.63600	37822
25.64412	44834
25.65225	50002
25.66037	50929
25.66848	49685
25.67662	53435
25.68473	46070
25.69285	41435
25.70098	42238
25.70910	42560
25.71723	36326
25.72535	38243
25.73347	46819
25.74160	46688
25.74972	50587
25.75785	45479
25.76597	49545
25.77408	52889
25.78222	43035
25.79033	45296
25.79847	39267
25.80658	44681
25.81470	42479
25.82283	47984
25.83095	51054
25.83907	55550
25.84720	56957
25.85532	52962
25.86345	48779
25.87157	48824
25.87968	45585
25.88782	45126
25.89593	42299
25.90407	41777
25.91218	38226
25.92030	39019
25.92843	41032
25.93655	39577
25.94468	37289
25.95280	38592
25.96092	39563
25.96905	34368
25.97717	38150
25.98528	33131
25.99342	32836
26.00153	35606
26.00967	33614
26.01778	38703
26.02590	37335
26.03403	34741
26.04215	33446
26.05028	38689
26.05840	38359
26.06652	33746
26.07465	39851
26.08277	34212
26.09088	37928
26.09902	34764
26.10713	36740
26.11527	42009
26.12338	44138
26.13150	41374
26.13963	45425
26.14775	45451
26.15588	47820
26.16400	51271
26.17212	50823
26.18025	46675
26.18837	51377
26.19650	45840
26.20462	47293
26.21273	46428
26.22087	39825
26.22898	41234
26.23710	37248
26.24523	38429
26.25335	38674
26.26148	35124
26.26960	34398
26.27772	37685
26.28585	37913
26.29397	38961
26.30210	38496
26.31022	33524
26.31833	36491
26.32647	36058
26.33458	37343
26.34272	40547
26.35083	34996
26.35895	37489
26.36708	33112
26.37520	36118
26.38332	34274
26.39145	38746
26.39957	40097
26.40770	36739
26.41582	36831
26.42393	38947
26.43207	41894
26.44018	40934
26.44832	34223
26.45643	40711
26.46455	34103
26.47268	35104
26.48080	31826
26.48892	34796
26.49705	35978
26.50517	32400
26.51330	36625
26.52142	34552
26.52953	35800
26.53767	32418
26.54578	34192
26.55392	37833
26.56203	31432
26.57015	37071
26.57828	35715
26.58640	34169
26.59453	37967
26.60265	33785
26.61077	36006
26.61890	36407
26.62702	35965
26.63513	33390
26.64327	34724
26.65138	35200
26.65952	35588
26.66763	40919
26.67575	42819
26.68388	41281
26.69200	40433
26.70013	41833
26.70825	41475
26.71637	39495
26.72450	37942
26.73262	40720
26.74073	35144
26.74887	36034
26.75698	37475
26.76512	33759
26.77323	36790
26.78135	39043
26.78948	38268
26.79760	38779
26.80573	40662
26.81385	38022
26.82197	40026
26.83010	40892
26.83822	46885
26.84635	41042
26.85447	42105
26.86258	39887
26.87072	41781
26.87883	39405
26.88695	41714
26.89508	41307
26.90320	36774
26.91133	37097
26.91945	37960
26.92757	39415
26.93570	35844
26.94382	39656
26.95195	37619
26.96007	38418
26.96818	39907
26.97632	46741
26.98443	70475
26.99257	111779
27.00068	181725
27.00880	297131
27.01693	470161
27.02505	661245
27.03317	802076
27.04130	925192
27.04942	870528
27.05755	736228
27.06567	601884
27.07378	478558
27.08192	370091
27.09003	294434
27.09817	241413
27.10628	208489
27.11440	183958
27.12253	160070
27.13065	150791
27.13877	142678
27.14690	125796
27.15502	113965
27.16315	109486
27.17127	107013
27.17938	97133
27.18752	99690
27.19563	99756
27.20377	90957
27.21188	88976
27.22000	81990
27.22813	87420
27.23625	73353
27.24438	76869
27.25250	79206
27.26062	73075
27.26875	74298
27.27687	70380
27.28498	67640
27.29312	67547
27.30123	65849
27.30937	64662
27.31748	61892
27.32560	63306
27.33373	59596
27.34185	57574
27.34998	61549
27.35810	52945
27.36622	59297
27.37435	54769
27.38247	59052
27.39060	61018
27.39872	57437
27.40683	54301
27.41497	55531
27.42308	54233
27.43120	56651
27.43933	50293
27.44745	50908
27.45558	50513
27.46370	51015
27.47182	53250
27.47995	51496
27.48807	47591
27.49620	48329
27.50432	51455
27.51243	54111
27.52057	49636
27.52868	51526
27.53680	47786
27.54493	49137
27.55305	50865
27.56118	53564
27.56930	52715
27.57742	44481
27.58555	47884
27.59367	49646
27.60180	46377
27.60992	49688
27.61803	52313
27.62617	54217
27.63428	51422
27.64242	49103
27.65053	52422
27.65865	47670
27.66678	41334
27.67490	45051
27.68302	43189
27.69115	46003
27.69927	41635
27.70740	42472
27.71552	43130
27.72363	41720
27.73177	42921
27.73988	41412
27.74802	39486
27.75613	41990
27.76425	39273
27.77238	41079
27.78050	38515
27.78862	38617
27.79675	39094
27.80487	40490
27.81300	41998
27.82112	43259
27.82923	48242
27.83737	47023
27.84548	47858
27.85362	48873
27.86173	49510
27.86985	46780
27.87798	42988
27.88610	39951
27.89423	46951
27.90235	41034
27.91047	40993
27.91860	44398
27.92672	45628
27.93483	40541
27.94297	39807
27.95108	41907
27.95922	41033
27.96733	40405
27.97545	40840
27.98358	37682
27.99170	39420
27.99983	36979
28.00795	38475
28.01607	39368
28.02420	36848
28.03232	38495
28.04045	39391
28.04857	42113
28.05668	37270
28.06482	43095
28.07293	42327
28.08105	36483
28.08918	39240
28.09730	42592
28.10543	43914
28.11355	45261
28.12167	39142
28.12980	45457
28.13792	42805
28.14605	42619
28.15417	37449
28.16228	35748
28.17042	38959
28.17853	37029
28.18665	35945
28.19478	41911
28.20290	42367
28.21103	41724
28.21915	43198
28.22727	43642
28.23540	46098
28.24352	48414
28.25165	44070
28.25977	40229
28.26788	39783
28.27602	42239
28.28413	38444
28.29227	43574
28.30038	44614
28.30850	43806
28.31663	46313
28.32475	49397
28.33287	56573
28.34100	69116
28.34912	81123
28.35725	96317
28.36537	118411
28.37348	136850
28.38162	145019
28.38973	165913
28.39787	171879
28.40598	162661
28.41410	154699
28.42223	148728
28.43035	138400
28.43848	133286
28.44660	109648
28.45472	106092
28.46285	99692
28.47097	90100
28.47908	86266
28.48722	84075
28.49533	86050
28.50347	72565
28.51158	74916
28.51970	67328
28.52783	67174
28.53595	66215
28.54408	61030
28.55220	60544
28.56032	59635
28.56845	54396
28.57657	51808
28.58468	50856
28.59282	52879
28.60093	51311
28.60907	53866
28.61718	49386
28.62530	50845
28.63343	52773
28.64155	50970
28.64968	53124
28.65780	57977
28.66592	57916
28.67405	58560
28.68217	55380
28.69030	58058
28.69842	59904
28.70653	54345
28.71467	46991
28.72278	48965
28.73090	49322
28.73903	51235
28.74715	49265
28.75528	49768
28.76340	46351
28.77152	50247
28.77965	55950
28.78777	59509
28.79590	69446
28.80402	61889
28.81213	60932
28.82027	52816
28.82838	51228
28.83652	43854
28.84463	44521
28.85275	44745
28.86088	44015
28.86900	42085
28.87712	39781
28.88525	40139
28.89337	44166
28.90150	41314
28.90962	42269
28.91773	43050
28.92587	42218
28.93398	45437
28.94212	42823
28.95023	46953
28.95835	48138
28.96648	51520
28.97460	51981
28.98272	55610
28.99085	53007
28.99897	49843
29.00710	47404
29.01522	39201
29.02333	43022
29.03147	40568
29.03958	42942
29.04772	38192
29.05583	45235
29.06395	41385
29.07208	39867
29.08020	41455
29.08833	41125
29.09645	39723
29.10457	38369
29.11270	42551
29.12082	43807
29.12893	41552
29.13707	39518
29.14518	41452
29.15332	43553
29.16143	45293
29.16955	42048
29.17768	43261
29.18580	42464
29.19393	39783
29.20205	43693
29.21017	44175
29.21830	44224
29.22642	43840
29.23453	41567
29.24267	43480
29.25078	45384
29.25892	42023
29.26703	47694
29.27515	50719
29.28328	49012
29.29140	47968
29.29953	43218
29.30765	44445
29.31577	39284
29.32390	40267
29.33202	35505
29.34015	40310
29.34827	39443
29.35638	42296
29.36452	37964
29.37263	38278
29.38075	39136
29.38888	39652
29.39700	42849
29.40513	40857
29.41325	41150
29.42137	40970
29.42950	43140
29.43762	45293
29.44575	39284
29.45387	41874
29.46198	38928
29.47012	41498
29.47823	37729
29.48637	39429
29.49448	38479
29.50260	44704
29.51073	44599
29.51885	51924
29.52697	48664
29.53510	45861
29.54322	44845
29.55135	40497
29.55947	40292
29.56758	42713
29.57572	39790
29.58383	39443
29.59197	38473
29.60008	41202
29.60820	37276
29.61633	44761
29.62445	37898
29.63257	45246
29.64070	37004
29.64882	37617
29.65695	36499
29.66507	36484
29.67318	36128
29.68132	37741
29.68943	36283
29.69757	42073
29.70568	36630
29.71380	36807
29.72193	37482
29.73005	39470
29.73818	39357
29.74630	40418
29.75442	35100
29.76255	37736
29.77067	36763
29.77878	36771
29.78692	36825
29.79503	37439
29.80317	35713
29.81128	39089
29.81940	41460
29.82753	34728
29.83565	35129
29.84378	36121
29.85190	34337
29.86002	35978
29.86815	40800
29.87627	46608
29.88440	53763
29.89252	66889
29.90063	86171
29.90877	107152
29.91688	104453
29.92500	99689
29.93313	90696
29.94125	68027
29.94938	55074
29.95750	51253
29.96562	51504
29.97375	52578
29.98187	56640
29.99000	63237
29.99812	68050
30.00623	81521
30.01437	85333
30.02248	89945
30.03060	95044
30.03873	96982
30.04685	100948
30.05498	98158
30.06310	99474
30.07122	95878
30.07935	95586
30.08747	88504
30.09560	90724
30.10372	85212
30.11183	88687
30.11997	83000
30.12808	76270
30.13622	72516
30.14433	77473
30.15245	68813
30.16058	64879
30.16870	64383
30.17682	61382
30.18495	60159
30.19307	57212
30.20120	55584
30.20932	51278
30.21743	55163
30.22557	54044
30.23368	55069
30.24182	49541
30.24993	49747
30.25805	50519
30.26618	49708
30.27430	46025
30.28242	48030
30.29055	44694
30.29867	44093
30.30680	43696
30.31492	46325
30.32303	46758
30.33117	44582
30.33928	44991
30.34742	41983
30.35553	43625
30.36365	42577
30.37178	41570
30.37990	46166
30.38803	44365
30.39615	45250
30.40427	44460
30.41240	40418
30.42052	39208
30.42863	44820
30.43677	41977
30.44488	41546
30.45302	41441
30.46113	42951
30.46925	39269
30.47738	39231
30.48550	37733
30.49363	39167
30.50175	40844
30.50987	41413
30.51800	37124
30.52612	43534
30.53425	37264
30.54237	41130
30.55048	39439
30.55862	35613
30.56673	38941
30.57485	38002
30.58298	37104
30.59110	36666
30.59923	37197
30.60735	36941
30.61547	40552
30.62360	37206
30.63172	39658
30.63985	33821
30.64797	34111
30.65608	37456
30.66422	38645
30.67233	35983
30.68045	37319
30.68858	37791
30.69670	38123
30.70483	35992
30.71295	33329
30.72107	43945
30.72920	35854
30.73732	37215
30.74545	38424
30.75357	37718
30.76168	35040
30.76982	35646
30.77793	35971
30.78607	41123
30.79418	37418
30.80230	44895
30.81043	45844
30.81855	43279
30.82667	49210
30.83480	51321
30.84292	43728
30.85105	43934
30.85917	42363
30.86728	41758
30.87542	37535
30.88353	41617
30.89167	45497
30.89978	40646
30.90790	39050
30.91603	36992
30.92415	34167
30.93228	37234
30.94040	41096
30.94852	37570
30.95665	38351
30.96477	37409
30.97288	38906
30.98102	37654
30.98913	38979
30.99727	38331
31.00538	40439
31.01350	39795
31.02163	48204
31.02975	57273
31.03788	63961
31.04600	80332
31.05412	68782
31.06225	69818
31.07037	65930
31.07848	63116
31.08662	66907
31.09473	86837
31.10287	113752
31.11098	139131
31.11910	164320
31.12723	159458
31.13535	146922
31.14348	116517
31.15160	86579
31.15972	62747
31.16785	49427
31.17597	44290
31.18410	48234
31.19222	49224
31.20033	54381
31.20847	63321
31.21658	70482
31.22470	76169
31.23283	80088
31.24095	81194
31.24908	73972
31.25720	65786
31.26532	58309
31.27345	48525
31.28157	49830
31.28970	43345
31.29782	42374
31.30593	42986
31.31407	36847
31.32218	44728
31.33030	40619
31.33843	36225
31.34655	38350
31.35468	36786
31.36280	36412
31.37092	44623
31.37905	46228
31.38717	48772
31.39530	59676
31.40342	56525
31.41153	58267
31.41967	49171
31.42778	44451
31.43592	48320
31.44403	46568
31.45215	41905
31.46028	41983
31.46840	39742
31.47652	37415
31.48465	42388
31.49277	38848
31.50090	35303
31.50902	38501
31.51713	33393
31.52527	38497
31.53338	40519
31.54152	42070
31.54963	36205
31.55775	37099
31.56588	39935
31.57400	38007
31.58213	38037
31.59025	34776
31.59837	34374
31.60650	39859
31.61462	39817
31.62273	38132
31.63087	40407
31.63898	36100
31.64712	40234
31.65523	37783
31.66335	41379
31.67148	39435
31.67960	39943
31.68773	37717
31.69585	39299
31.70397	39741
31.71210	39300
31.72022	39335
31.72835	41417
31.73647	42125
31.74458	43427
31.75272	39364
31.76083	39586
31.76895	42161
31.77708	39745
31.78520	39489
31.79333	41051
31.80145	42994
31.80957	45145
31.81770	43840
31.82582	43263
31.83395	43173
31.84207	46477
31.85018	46596
31.85832	45004
31.86643	51210
31.87455	52080
31.88268	53712
31.89080	50437
31.89893	49550
31.90705	53650
31.91517	50452
31.92330	59680
31.93142	58124
31.93955	60883
31.94767	64709
31.95578	62133
31.96392	76643
31.97203	74143
31.98017	77156
31.98828	78928
31.99640	79467
32.00453	79303
32.01265	74006
32.02077	71154
32.02890	72032
32.03702	66549
32.04515	65273
32.05327	60683
32.06138	63104
32.06952	57069
32.07763	57600
32.08577	58474
32.09388	60724
32.10200	60827
32.11013	54460
32.11825	51067
32.12637	51164
32.13450	48690
32.14262	45597
32.15075	47433
32.15887	47184
32.16698	47079
32.17512	43726
32.18323	43980
32.19137	43264
32.19948	42024
32.20760	44426
32.21573	41897
32.22385	42404
32.23198	41623
32.24010	43930
32.24822	42992
32.25635	44257
32.26447	46372
32.27258	45182
32.28072	44450
32.28883	44470
32.29697	46139
32.30508	42629
32.31320	46358
32.32133	39965
32.32945	44421
32.33758	44717
32.34570	43526
32.35382	42865
32.36195	49245
32.37007	46037
32.37820	45321
32.38632	45641
32.39443	42302
32.40257	41020
32.41068	42048
32.41880	40869
32.42693	44995
32.43505	41370
32.44318	37093
32.45130	39013
32.45942	40790
32.46755	43292
32.47567	39404
32.48380	37252
32.49192	35881
32.50003	36749
32.50817	38139
32.51628	39978
32.52440	37640
32.53253	39046
32.54065	33476
32.54878	39008
32.55690	42684
32.56502	38567
32.57315	42305
32.58127	39443
32.58940	40534
32.59752	34635
32.60563	42271
32.61377	43207
32.62188	40877
32.63002	33674
32.63813	35067
32.64625	36956
32.65438	40338
32.66250	40809
32.67062	48330
32.67875	48530
32.68687	53844
32.69500	57016
32.70312	52821
32.71123	50698
32.71937	47395
32.72748	45736
32.73562	40122
32.74373	42695
32.75185	42639
32.75998	40433
32.76810	38626
32.77623	37914
32.78435	35774
32.79247	41980
32.80060	40023
32.80872	39554
32.81683	33592
32.82497	38971
32.83308	33443
32.84122	37778
32.84933	36349
32.85745	37760
32.86558	36673
32.87370	32556
32.88183	35121
32.88995	44791
32.89807	36101
32.90620	36661
32.91432	39202
32.92243	38595
32.93057	38705
32.93868	36814
32.94682	38326
32.95493	37685
32.96305	34583
32.97118	32214
32.97930	38478
32.98743	42506
32.99555	37858
33.00367	37414
33.01180	37359
33.01992	37302
33.02805	37615
33.03617	37811
33.04428	37173
33.05242	40763
33.06053	37087
33.06865	38048
33.07678	40882
33.08490	42304
33.09303	44591
33.10115	46418
33.10927	52368
33.11740	59769
33.12552	66978
33.13365	67496
33.14177	67038
33.14988	58779
33.15802	51374
33.16613	44439
33.17425	43244
33.18238	44214
33.19050	39318
33.19863	38260
33.20675	41373
33.21487	40387
33.22300	40683
33.23112	50438
33.23925	43631
33.24737	42219
33.25548	42082
33.26362	51371
33.27173	41816
33.27987	41905
33.28798	37522
33.29610	39138
33.30423	38617
33.31235	39844
33.32047	38114
33.32860	37597
33.33672	32874
33.34485	38334
33.35297	40524
33.36108	39571
33.36922	37043
33.37733	35663
33.38547	37376
33.39358	40914
33.40170	39116
33.40983	33925
33.41795	36728
33.42608	35984
33.43420	37094
33.44232	37923
33.45045	39294
33.45857	35222
33.46668	34791
33.47482	37560
33.48293	34347
33.49107	36598
33.49918	41135
33.50730	41340
33.51543	40366
33.52355	35525
33.53168	39956
33.53980	35248
33.54792	38231
33.55605	38604
33.56417	43162
33.57228	39443
33.58042	39118
33.58853	37930
33.59667	39122
33.60478	35177
33.61290	34447
33.62103	33628
33.62915	37743
33.63728	41166
33.64540	37601
33.65352	38234
33.66165	43012
33.66977	38651
33.67790	39018
33.68602	40368
33.69413	36053
33.70227	37415
33.71038	36915
33.71850	36648
33.72663	35832
33.73475	40382
33.74288	38075
33.75100	37889
33.75912	37196
33.76725	38308
33.77537	35375
33.78350	36434
33.79162	38830
33.79973	35575
33.80787	38438
33.81598	36073
33.82412	38355
33.83223	33992
33.84035	36094
33.84848	40273
33.85660	41811
33.86472	42543
33.87285	43531
33.88097	40048
33.88910	43240
33.89722	45623
33.90533	41842
33.91347	42085
33.92158	42034
33.92972	39730
33.93783	39235
33.94595	39811
33.95408	41543
33.96220	38457
33.97032	39097
33.97845	37154
33.98657	40218
33.99470	39285
34.00282	37534
34.01093	41590
34.01907	41787
34.02718	35537
34.03532	40804
34.04343	40589
34.05155	38750
34.05968	41737
34.06780	42387
34.07593	45665
34.08405	40446
34.09217	39606
34.10030	41131
34.10842	40973
34.11653	37357
34.12467	42947
34.13278	42369
34.14092	41669
34.14903	40211
34.15715	37061
34.16528	37682
34.17340	40234
34.18153	38146
34.18965	35062
34.19777	39219
34.20590	36880
34.21402	39849
34.22215	39193
34.23027	37450
34.23838	38621
34.24652	37464
34.25463	41638
34.26275	40250
34.27088	38977
34.27900	39346
34.28713	38468
34.29525	40433
34.30337	36244
34.31150	38004
34.31962	39864
34.32775	43862
34.33587	40585
34.34398	38644
34.35212	40276
34.36023	37330
34.36835	37312
34.37648	37483
34.38460	37071
34.39273	40764
34.40085	38971
34.40897	41992
34.41710	38030
34.42522	38586
34.43335	40436
34.44147	40227
34.44958	42003
34.45772	37584
34.46583	36751
34.47397	38050
34.48208	35123
34.49020	38124
34.49833	40505
34.50645	40790
34.51457	41278
34.52270	43874
34.53082	44793
34.53895	50320
34.54707	51409
34.55518	59872
34.56332	59577
34.57143	72573
34.57957	72021
34.58768	68214
34.59580	64926
34.60393	60354
34.61205	57563
34.62017	55942
34.62830	57435
34.63642	50920
34.64455	50255
34.65267	49973
34.66078	45695
34.66892	47127
34.67703	45221
34.68517	51095
34.69328	45579
34.70140	44524
34.70953	47002
34.71765	46488
34.72578	45226
34.73390	48608
34.74202	48035
34.75015	46772
34.75827	41847
34.76638	43696
34.77452	45861
34.78263	39255
34.79077	40119
34.79888	42264
34.80700	43149
34.81513	40665
34.82325	46192
34.83138	45556
34.83950	45967
34.84762	45246
34.85575	41358
34.86387	41439
34.87200	44375
34.88012	38531
34.88823	40893
34.89637	41415
34.90448	40140
34.91260	39070
34.92073	41014
34.92885	44606
34.93698	47533
34.94510	52936
34.95322	69766
34.96135	101368
34.96947	150129
34.97760	206643
34.98572	260305
34.99383	283224
35.00197	256461
35.01008	198641
35.01820	130098
35.02633	96880
35.03445	71143
35.04258	63423
35.05070	58058
35.05882	54471
35.06695	54747
35.07507	51450
35.08320	50835
35.09132	50295
35.09943	49390
35.10757	49516
35.11568	52644
35.12382	51653
35.13193	50630
35.14005	49648
35.14818	49873
35.15630	46093
35.16442	55796
35.17255	50222
35.18067	45823
35.18880	49997
35.19692	47289
35.20503	50961
35.21317	46903
35.22128	46502
35.22942	44471
35.23753	48093
35.24565	50455
35.25378	47954
35.26190	47373
35.27003	47639
35.27815	50662
35.28627	47519
35.29440	51196
35.30252	49653
35.31063	47459
35.31877	43857
35.32688	47401
35.33502	42575
35.34313	46818
35.35125	41943
35.35938	41723
35.36750	42264
35.37563	42391
35.38375	49409
35.39187	46331
35.40000	43700
35.40812	46975
35.41623	44838
35.42437	44616
35.43248	45415
35.44062	44154
35.44873	45192
35.45685	50927
35.46498	45714
35.47310	49938
35.48123	49747
35.48935	51760
35.49747	44988
35.50560	47475
35.51372	46067
35.52185	44332
35.52997	45837
35.53808	44586
35.54622	51296
35.55433	47779
35.56245	48503
35.57058	46552
35.57870	50612
35.58683	52805
35.59495	51339
35.60307	49664
35.61120	53678
35.61932	52972
35.62745	50604
35.63557	50746
35.64368	44937
35.65182	49292
35.65993	45138
35.66805	44039
35.67618	45982
35.68430	47234
35.69243	47979
35.70055	52871
35.70867	52862
35.71680	52732
35.72492	47696
35.73305	46336
35.74117	45342
35.74928	46611
35.75742	49269
35.76553	50707
35.77367	48470
35.78178	49219
35.78990	47019
35.79803	46353
35.80615	46253
35.81427	42476
35.82240	48773
35.83052	45527
35.83865	48138
35.84677	47191
35.85488	48238
35.86302	46496
35.87113	48466
35.87927	45378
35.88738	46440
35.89550	45822
35.90363	45301
35.91175	45002
35.91988	41690
35.92800	44034
35.93612	45495
35.94425	44705
35.95237	44227
35.96048	43296
35.96862	47463
35.97673	43047
35.98487	43899
35.99298	42046
36.00110	43000
36.00923	46242
36.01735	45027
36.02548	47630
36.03360	52280
36.04172	51530
36.04985	48335
36.05797	46619
36.06610	50186
36.07422	46423
36.08233	46835
36.09047	47318
36.09858	47693
36.10670	46415
36.11483	42922
36.12295	44686
36.13108	50932
36.13920	45237
36.14732	54499
36.15545	52206
36.16357	52344
36.17170	49710
36.17982	49835
36.18793	44740
36.19607	42858
36.20418	47099
36.21230	46290
36.22043	47729
36.22855	43523
36.23668	47245
36.24480	46309
36.25292	44378
36.26105	42816
36.26917	47135
36.27730	44034
36.28542	46067
36.29353	47998
36.30167	44528
36.30978	52410
36.31792	53955
36.32603	57132
36.33415	54686
36.34228	59503
36.35040	59515
36.35852	52130
36.36665	48973
36.37477	51035
36.38290	48368
36.39102	40446
36.39913	44655
36.40727	52352
36.41538	47626
36.42352	51584
36.43163	46364
36.43975	46902
36.44788	45968
36.45600	48014
36.46412	45198
36.47225	45252
36.48037	44085
36.48850	47892
36.49662	46815
36.50473	43994
36.51287	44766
36.52098	44514
36.52912	44861
36.53723	46182
36.54535	46761
36.55348	47303
36.56160	41402
36.56973	48735
36.57785	43966
36.58597	46367
36.59410	45011
36.60222	46339
36.61033	45407
36.61847	42588
36.62658	42414
36.63472	46169
36.64283	46705
36.65095	44233
36.65908	45012
36.66720	50999
36.67533	52355
36.68345	50619
36.69157	49040
36.69970	47102
36.70782	45309
36.71595	49201
36.72407	45643
36.73218	46557
36.74032	44667
36.74843	43950
36.75655	49131
36.76468	44849
36.77280	48365
36.78093	43564
36.78905	44835
36.79717	46998
36.80530	45720
36.81342	48523
36.82155	47181
36.82967	48240
36.83778	48991
36.84592	48521
36.85403	47584
36.86215	45461
36.87028	46768
36.87840	47097
36.88653	42381
36.89465	47122
36.90277	51429
36.91090	47651
36.91902	50310
36.92715	48666
36.93527	47381
36.94338	47319
36.95152	50624
36.95963	47862
36.96777	49780
36.97588	50571
36.98400	48971
36.99213	46768
37.00025	49925
37.00837	47490
37.01650	46216
37.02462	44815
37.03275	43649
37.04087	49622
37.04898	45389
37.05712	48961
37.06523	48726
37.07337	51745
37.08148	46469
37.08960	50647
37.09773	49588
37.10585	49403
37.11398	48686
37.12210	52337
37.13022	52171
37.13835	49182
37.14647	47636
37.15458	51237
37.16272	53541
37.17083	50963
37.17897	52808
37.18708	53279
37.19520	52531
37.20333	53105
37.21145	53433
37.21958	51075
37.22770	48845
37.23582	49238
37.24395	56046
37.25207	48682
37.26018	50255
37.26832	53155
37.27643	54777
37.28457	46010
37.29268	48372
37.30080	51628
37.30893	52145
37.31705	51332
37.32518	45602
37.33330	49194
37.34142	50211
37.34955	61661
37.35767	57915
37.36580	66560
37.37392	63314
37.38203	66428
37.39017	62663
37.39828	62498
37.40640	70323
37.41453	62334
37.42265	62898
37.43078	61456
37.43890	57813
37.44702	53671
37.45515	56692
37.46327	58976
37.47140	57857
37.47952	57152
37.48763	59059
