D:\MassHunter\GCMS\1\data\JTB-E02\BACandSTRAW\JTB-E02-208-27.D Thu Mar 14 16:24:29 2019
Start of data points
2.09527,113458
2.10338,111333
2.11150,114960
2.11963,119411
2.12775,113430
2.13587,110892
2.14400,113423
2.15212,115455
2.16025,111712
2.16837,129504
2.17648,102820
2.18462,103553
2.19273,102354
2.20087,99504
2.20898,98713
2.21710,94369
2.22523,89996
2.23335,93493
2.24148,87363
2.24960,91522
2.25772,88449
2.26585,89824
2.27397,86326
2.28208,86938
2.29022,87334
2.29833,92494
2.30647,86519
2.31458,82267
2.32270,85467
2.33083,82465
2.33895,79850
2.34708,82702
2.35520,84836
2.36332,79053
2.37145,82169
2.37957,81710
2.38770,79839
2.39582,278493
2.40393,4589023
2.41207,1.18275E+07
2.42018,1.030085E+07
2.42830,4318879
2.43643,2614891
2.44455,2149406
2.45268,1822387
2.46080,1579202
2.46892,1377119
2.47705,1261916
2.48517,1091602
2.49330,1005655
2.50142,921162
2.50953,852991
2.51767,786632
2.52578,750787
2.53390,726062
2.54203,667761
2.55015,655618
2.55828,635715
2.56640,617093
2.57452,575955
2.58265,573759
2.59077,541749
2.59890,537057
2.60702,538559
2.61513,508766
2.62327,499905
2.63138,510322
2.63952,509315
2.64763,486019
2.65575,483820
2.66388,478927
2.67200,478672
2.68012,470527
2.68825,477391
2.69637,476194
2.70450,595646
2.71262,780179
2.72073,638731
2.72887,527812
2.73698,472839
2.74512,464966
2.75323,479658
2.76135,751411
2.76948,1030749
2.77760,823144
2.78573,623224
2.79385,547449
2.80197,505646
2.81010,471633
2.81822,454975
2.82633,433873
2.83447,425298
2.84258,426519
2.85072,419882
2.85883,407281
2.86695,406621
2.87508,396001
2.88320,391468
2.89133,387974
2.89945,392990
2.90757,386847
2.91570,389791
2.92382,389686
2.93193,383731
2.94007,500028
2.94818,889741
2.95632,903078
2.96443,601357
2.97255,482729
2.98068,451266
2.98880,427586
2.99693,403343
3.00505,401073
3.01317,391237
3.02130,386303
3.02942,376610
3.03755,354015
3.04567,365642
3.05378,358519
3.06192,350165
3.07003,334113
3.07815,340443
3.08628,339934
3.09440,337164
3.10253,327776
3.11065,327867
3.11877,334647
3.12690,328380
3.13502,334544
3.14315,316063
3.15127,316751
3.15938,321464
3.16752,324743
3.17563,334779
3.18377,345319
3.19188,318454
3.20000,305980
3.20813,297840
3.21625,298838
3.22437,306387
3.23250,295905
3.24062,292732
3.24875,294008
3.25687,309335
3.26498,460178
3.27312,1774176
3.28123,1.478999E+07
3.28937,3.128525E+07
3.29748,3.400104E+07
3.30560,2.795677E+07
3.31373,2.193677E+07
3.32185,1.853362E+07
3.32997,1.61485E+07
3.33810,1.370031E+07
3.34622,1.18289E+07
3.35435,1.035905E+07
3.36247,1.265889E+07
3.37058,2.643992E+07
3.37872,3.681107E+07
3.38683,3.399951E+07
3.39497,2.646782E+07
3.40308,2.232973E+07
3.41120,1.99312E+07
3.41933,1.771907E+07
3.42745,1.578953E+07
3.43558,1.416018E+07
3.44370,1.27709E+07
3.45182,1.153803E+07
3.45995,1.042837E+07
3.46807,9632419
3.47618,9413269
3.48432,9400901
3.49243,8889067
3.50057,8007781
3.50868,7307165
3.51680,6743092
3.52493,6226391
3.53305,5739601
3.54118,5333729
3.54930,4968797
3.55742,4666505
3.56555,4382090
3.57367,4142720
3.58180,3938191
3.58992,3660004
3.59803,3497098
3.60617,3290811
3.61428,3113518
3.62240,2941046
3.63053,2850006
3.63865,2700419
3.64678,2570321
3.65490,2495995
3.66302,2393030
3.67115,2284769
3.67927,2205417
3.68740,2100560
3.69552,2051389
3.70363,1952814
3.71177,1894849
3.71988,1829443
3.72802,1783753
3.73613,1736134
3.74425,1672634
3.75238,1608575
3.76050,1557623
3.76862,1524370
3.77675,1478765
3.78487,1434186
3.79300,1390255
3.80112,1349618
3.80923,1317244
3.81737,1290831
3.82548,1261965
3.83362,1232918
3.84173,1197745
3.84985,1155785
3.85798,1248771
3.86610,3255996
3.87422,1.448063E+07
3.88235,2.83287E+07
3.89047,2.980743E+07
3.89860,2.108792E+07
3.90672,1.343134E+07
3.91483,1.02852E+07
3.92297,8493639
3.93108,7308596
3.93922,6396989
3.94733,5660244
3.95545,5101618
3.96358,4730994
3.97170,4426656
3.97983,5165153
3.98795,1.327171E+07
3.99607,3.034908E+07
4.00420,4.14491E+07
4.01232,3.68147E+07
4.02043,2.350433E+07
4.02857,1.393713E+07
4.03668,1.001718E+07
4.04482,7931037
4.05293,6563979
4.06105,5609566
4.06918,4884263
4.07730,4415370
4.08543,4437008
4.09355,5263512
4.10167,5633238
4.10980,4683223
4.11792,3779993
4.12605,3345315
4.13417,3099647
4.14228,2834012
4.15042,2683303
4.15853,2521562
4.16665,2379840
4.17478,2322600
4.18290,2257021
4.19103,2151012
4.19915,2063942
4.20727,1944326
4.21540,1891011
4.22352,1854365
4.23165,1815946
4.23977,1754391
4.24788,1697527
4.25602,1618558
4.26413,1566976
4.27225,1533993
4.28038,1488993
4.28850,1459306
4.29663,1537799
4.30475,1681171
4.31287,1688587
4.32100,1543160
4.32912,1378769
4.33725,1308671
4.34537,1255117
4.35348,1235937
4.36162,1197561
4.36973,1288244
4.37787,2193115
4.38598,4949433
4.39410,7758507
4.40223,7257171
4.41035,4632729
4.41847,2868825
4.42660,2153188
4.43472,1782132
4.44285,1573087
4.45097,1435202
4.45908,1607449
4.46722,2868081
4.47533,5573951
4.48347,7108170
4.49158,5956265
4.49970,3952815
4.50783,2901518
4.51595,2322862
4.52408,1949973
4.53220,1675770
4.54032,1446498
4.54845,1330933
4.55657,1235925
4.56468,1140271
4.57282,1085651
4.58093,1040889
4.58907,977191
4.59718,961520
4.60530,912893
4.61343,885008
4.62155,870389
4.62968,844692
4.63780,831513
4.64592,811302
4.65405,798641
4.66217,784751
4.67028,767907
4.67842,745778
4.68653,736813
4.69467,707560
4.70278,717814
4.71090,712468
4.71903,704919
4.72715,709651
4.73528,679235
4.74340,673316
4.75152,654954
4.75965,663556
4.76777,723080
4.77590,1020176
4.78402,1479356
4.79213,1529882
4.80027,1228967
4.80838,895013
4.81650,770182
4.82463,735040
4.83275,849809
4.84088,1284743
4.84900,1946571
4.85712,2119771
4.86525,1643801
4.87337,1125288
4.88150,887843
4.88962,833786
4.89773,838440
4.90587,881918
4.91398,884370
4.92212,876037
4.93023,796781
4.93835,694996
4.94648,633257
4.95460,590890
4.96272,587974
4.97085,569599
4.97897,564051
4.98710,543295
4.99522,526929
5.00333,532734
5.01147,513157
5.01958,510193
5.02772,578602
5.03583,876842
5.04395,1475239
5.05208,1848083
5.06020,1576937
5.06833,1115459
5.07645,959540
5.08457,1357477
5.09270,2274527
5.10082,2729280
5.10893,2246883
5.11707,1527734
5.12518,1091655
5.13332,912687
5.14143,827889
5.14955,869836
5.15768,1033129
5.16580,1305780
5.17393,1488302
5.18205,1450926
5.19017,1274611
5.19830,1325081
5.20642,3126807
5.21453,1.318528E+07
5.22267,3.672189E+07
5.23078,5.763388E+07
5.23892,6.400008E+07
5.24703,5.316717E+07
5.25515,3.331991E+07
5.26328,1.989618E+07
5.27140,1.444975E+07
5.27953,1.160714E+07
5.28765,9809255
5.29577,8487657
5.30390,7639818
5.31202,6897865
5.32015,6328298
5.32827,5837364
5.33638,5335776
5.34452,4998258
5.35263,4712723
5.36075,4512658
5.36888,4220431
5.37700,4037226
5.38513,3847870
5.39325,3699652
5.40137,3559918
5.40950,3405378
5.41762,3331130
5.42575,3201397
5.43387,3104633
5.44198,2938016
5.45012,2903765
5.45823,2801022
5.46637,2721596
5.47448,2601109
5.48260,2538108
5.49073,2431191
5.49885,2394854
5.50697,2324974
5.51510,2302215
5.52322,2216375
5.53135,2169963
5.53947,2117106
5.54758,2104666
5.55572,1993374
5.56383,1984058
5.57197,1933564
5.58008,1937065
5.58820,1923414
5.59633,2158459
5.60445,2772939
5.61257,3299571
5.62070,3261972
5.62882,2791489
5.63695,2661458
5.64507,4453822
5.65318,1.015048E+07
5.66132,1.902334E+07
5.66943,2.433766E+07
5.67757,2.171672E+07
5.68568,1.411907E+07
5.69380,8238849
5.70193,6752511
5.71005,1.012883E+07
5.71818,1.692997E+07
5.72630,2.152715E+07
5.73442,1.958876E+07
5.74255,1.329801E+07
5.75067,7703540
5.75878,5009437
5.76692,3899996
5.77503,3289981
5.78317,2989630
5.79128,2816156
5.79940,2708890
5.80753,2683077
5.81565,3016127
5.82378,5060935
5.83190,1.010447E+07
5.84002,1.598476E+07
5.84815,1.758174E+07
5.85627,1.386497E+07
5.86440,8418587
5.87252,5102420
5.88063,3654844
5.88877,3019295
5.89688,2623397
5.90500,2416029
5.91313,2206712
5.92125,2079294
5.92938,1941334
5.93750,1867435
5.94562,1794724
5.95375,1700260
5.96187,1646217
5.97000,1610061
5.97812,1580860
5.98623,1555726
5.99437,1575677
6.00248,1512017
6.01060,1427757
6.01873,1364659
6.02685,1329933
6.03498,1296711
6.04310,1254292
6.05122,1242930
6.05935,1207241
6.06747,1158839
6.07560,1128222
6.08372,1121943
6.09183,1106596
6.09997,1066200
6.10808,1015120
6.11622,1010706
6.12433,1015524
6.13245,978907
6.14058,960745
6.14870,935179
6.15682,947814
6.16495,1135061
6.17307,2412876
6.18120,7569780
6.18932,1.959783E+07
6.19743,3.362273E+07
6.20557,3.954469E+07
6.21368,3.337502E+07
6.22182,1.972626E+07
6.22993,9986917
6.23805,5959678
6.24618,4544852
6.25430,4191027
6.26243,6017317
6.27055,1.401589E+07
6.27867,3.130301E+07
6.28680,4.973672E+07
6.29492,6.006228E+07
6.30303,5.792823E+07
6.31117,4.249078E+07
6.31928,2.309288E+07
6.32742,1.226246E+07
6.33553,8369798
6.34365,6636179
6.35178,5647891
6.35990,5024393
6.36803,4515661
6.37615,4134887
6.38427,3795411
6.39240,3555443
6.40052,3355356
6.40865,3144409
6.41677,3034270
6.42488,2887020
6.43302,2822945
6.44113,2808528
6.44925,2861196
6.45738,2767807
6.46550,2570082
6.47363,2392328
6.48175,2221354
6.48987,2144159
6.49800,2032568
6.50612,1987225
6.51425,1931294
6.52237,2057667
6.53048,2772541
6.53862,4622604
6.54673,7301616
6.55485,8768431
6.56298,7632200
6.57110,5109835
6.57923,3242361
6.58735,2295451
6.59547,1938989
6.60360,1732650
6.61172,1652844
6.61985,1565383
6.62797,1503971
6.63608,1415507
6.64422,1392592
6.65233,1347608
6.66047,1320046
6.66858,1287287
6.67670,1266121
6.68483,1230026
6.69295,1205730
6.70107,1199236
6.70920,1164662
6.71732,1135147
6.72545,1096483
6.73357,1087592
6.74168,1061041
6.74982,1050423
6.75793,1032206
6.76607,1023280
6.77418,1017244
6.78230,989780
6.79043,979929
6.79855,952928
6.80668,951596
6.81480,928872
6.82292,899303
6.83105,904674
6.83917,910798
6.84728,925617
6.85542,1063503
6.86353,1825985
6.87167,3804244
6.87978,6504145
6.88790,7614486
6.89603,6016039
6.90415,3657213
6.91228,2180824
6.92040,1606014
6.92852,1312512
6.93665,1174552
6.94477,1363732
6.95288,2352430
6.96102,4461218
6.96913,6716463
6.97727,8591678
6.98538,1.1122E+07
6.99350,1.390126E+07
7.00163,1.341379E+07
7.00975,9332479
7.01788,5060623
7.02600,2805243
7.03412,1936391
7.04225,1596540
7.05037,1401817
7.05850,1288005
7.06662,1182002
7.07473,1112947
7.08287,1207642
7.09098,1344369
7.09910,1291063
7.10723,1224338
7.11535,1202264
7.12348,1169105
7.13160,1201987
7.13972,1265642
7.14785,1350082
7.15597,1415991
7.16410,1317663
7.17222,1204939
7.18033,1109767
7.18847,1049940
7.19658,976191
7.20472,935795
7.21283,907615
7.22095,852360
7.22908,839980
7.23720,804578
7.24532,812246
7.25345,801724
7.26157,871449
7.26970,984023
7.27782,1147000
7.28593,1268384
7.29407,1157416
7.30218,1006512
7.31032,850205
7.31843,717197
7.32655,688161
7.33468,683174
7.34280,698008
7.35092,714935
7.35905,698204
7.36717,665535
7.37530,681684
7.38342,683622
7.39153,696042
7.39967,717409
7.40778,718906
7.41592,682059
7.42403,664727
7.43215,629535
7.44028,611906
7.44840,598644
7.45653,580587
7.46465,599161
7.47277,563296
7.48090,572375
7.48902,560398
7.49713,579949
7.50527,547506
7.51338,551386
7.52152,552880
7.52963,529616
7.53775,535221
7.54588,599267
7.55400,852644
7.56213,1419133
7.57025,2264599
7.57837,2614200
7.58650,2203465
7.59462,1538244
7.60275,1057648
7.61087,814625
7.61898,724673
7.62712,635352
7.63523,591653
7.64335,504727
7.65148,474682
7.65960,460504
7.66773,453521
7.67585,447076
7.68397,444986
7.69210,435264
7.70022,430825
7.70835,437273
7.71647,432668
7.72458,434336
7.73272,441654
7.74083,445136
7.74897,457018
7.75708,524324
7.76520,644805
7.77333,857789
7.78145,1214510
7.78957,1613583
7.79770,1723275
7.80582,1461414
7.81395,1099850
7.82207,823668
7.83018,697992
7.83832,615933
7.84643,561301
7.85457,540839
7.86268,505920
7.87080,476345
7.87893,469809
7.88705,456244
7.89517,442370
7.90330,457245
7.91142,474282
7.91955,511673
7.92767,572097
7.93578,575982
7.94392,547976
7.95203,506672
7.96017,486497
7.96828,450106
7.97640,428413
7.98453,392822
7.99265,366689
8.00078,320925
8.00890,302854
8.01702,306452
8.02515,287005
8.03327,290206
8.04138,261997
8.04952,254734
8.05763,234821
8.06577,227449
8.07388,225642
8.08200,228228
8.09013,231954
8.09825,227748
8.10638,218541
8.11450,223274
8.12262,228792
8.13075,246857
8.13887,300907
8.14700,544906
8.15512,1277300
8.16323,2726650
8.17137,4788787
8.17948,7021866
8.18760,9940497
8.19573,1.421364E+07
8.20385,1.934062E+07
8.21198,2.196036E+07
8.22010,1.999555E+07
8.22822,1.396261E+07
8.23635,7667245
8.24447,3930078
8.25260,2259974
8.26072,1632327
8.26883,1453309
8.27697,1527977
8.28508,1540628
8.29320,1358910
8.30133,1059359
8.30945,784437
8.31758,611146
8.32570,507926
8.33382,463267
8.34195,482251
8.35007,569768
8.35820,663840
8.36632,742358
8.37443,782806
8.38257,782199
8.39068,743825
8.39882,745362
8.40693,757070
8.41505,853411
8.42318,982817
8.43130,1089379
8.43942,1073717
8.44755,925809
8.45567,774540
8.46380,648705
8.47192,586019
8.48003,550473
8.48817,518447
8.49628,502070
8.50442,482089
8.51253,458665
8.52065,446020
8.52878,443089
8.53690,474659
8.54503,508072
8.55315,526081
8.56127,536505
8.56940,523523
8.57752,582348
8.58563,594269
8.59377,561810
8.60188,507465
8.61002,427365
8.61813,365289
8.62625,336393
8.63438,334088
8.64250,333667
8.65063,364182
8.65875,399153
8.66687,434881
8.67500,443560
8.68312,407675
8.69123,381540
8.69937,394341
8.70748,404332
8.71562,411406
8.72373,389410
8.73185,356105
8.73998,328412
8.74810,321980
8.75623,337167
8.76435,438965
8.77247,613732
8.78060,796186
8.78872,851961
8.79685,769196
8.80497,571610
8.81308,430014
8.82122,337746
8.82933,298962
8.83745,272678
8.84558,264975
8.85370,261321
8.86183,262034
8.86995,263546
8.87807,260322
8.88620,267193
8.89432,292205
8.90245,354121
8.91057,522922
8.91868,718603
8.92682,810507
8.93493,741818
8.94307,566113
8.95118,396673
8.95930,303600
8.96743,263838
8.97555,246325
8.98367,228270
8.99180,232899
8.99992,252117
9.00805,343799
9.01617,591209
9.02428,1013958
9.03242,1503337
9.04053,1703611
9.04867,1505015
9.05678,1114617
9.06490,759691
9.07303,534243
9.08115,452176
9.08928,473728
9.09740,577179
9.10552,656780
9.11365,649105
9.12177,593422
9.12988,476419
9.13802,388121
9.14613,329772
9.15427,313951
9.16238,277648
9.17050,271165
9.17863,309463
9.18675,495831
9.19488,1133176
9.20300,2767640
9.21112,5637590
9.21925,8629079
9.22737,1.027007E+07
9.23548,9437886
9.24362,6710948
9.25173,3844601
9.25987,2024303
9.26798,1120428
9.27610,723597
9.28423,540398
9.29235,444948
9.30048,401948
9.30860,446175
9.31672,650437
9.32485,983334
9.33297,1453136
9.34110,1621485
9.34922,1493901
9.35733,1180925
9.36547,883400
9.37358,701258
9.38170,614406
9.38983,598743
9.39795,552387
9.40608,536729
9.41420,515694
9.42232,493148
9.43045,462844
9.43857,454851
9.44670,438082
9.45482,413264
9.46293,412595
9.47107,411804
9.47918,391828
9.48732,371766
9.49543,355062
9.50355,376949
9.51168,421503
9.51980,594786
9.52792,957199
9.53605,1381275
9.54417,1728783
9.55230,1676924
9.56042,1352662
9.56853,953390
9.57667,621516
9.58478,436732
9.59292,371896
9.60103,360397
9.60915,406092
9.61728,515178
9.62540,580205
9.63352,589995
9.64165,522605
9.64977,431480
9.65790,356295
9.66602,305455
9.67413,291020
9.68227,315475
9.69038,385818
9.69852,556053
9.70663,818815
9.71475,1056277
9.72288,1128879
9.73100,1018992
9.73913,793748
9.74725,546015
9.75537,397619
9.76350,305078
9.77162,281149
9.77973,245886
9.78787,234201
9.79598,216908
9.80412,213170
9.81223,218866
9.82035,224033
9.82848,222221
9.83660,221448
9.84473,236073
9.85285,226743
9.86097,248763
9.86910,321050
9.87722,433374
9.88535,522574
9.89347,545094
9.90158,478801
9.90972,383404
9.91783,275640
9.92595,225281
9.93408,203047
9.94220,191774
9.95033,195883
9.95845,199358
9.96657,223750
9.97470,355314
9.98282,1014665
9.99095,3387115
9.99907,9642922
10.00718,2.067279E+07
10.01532,3.339195E+07
10.02343,4.378167E+07
10.03155,4.726906E+07
10.03968,4.117878E+07
10.04780,2.700143E+07
10.05593,1.322631E+07
10.06405,5493080
10.07217,2599570
10.08030,1727043
10.08842,1745519
10.09655,2327710
10.10467,3118299
10.11278,3788916
10.12092,4316354
10.12903,4664386
10.13717,5015402
10.14528,5213995
10.15340,5056038
10.16153,4482469
10.16965,3574659
10.17777,2797443
10.18590,2270865
10.19402,1990105
10.20215,1811350
10.21027,1734036
10.21838,1669715
10.22652,1658798
10.23463,1674414
10.24277,1640969
10.25088,1686107
10.25900,1664480
10.26713,1640006
10.27525,1554542
10.28338,1459117
10.29150,1370422
10.29962,1338425
10.30775,1303000
10.31587,1335423
10.32398,1290857
10.33212,1231612
10.34023,1166485
10.34837,1129879
10.35648,1075108
10.36460,1043409
10.37273,1023604
10.38085,995261
10.38898,949295
10.39710,949216
10.40522,912135
10.41335,917502
10.42147,927221
10.42960,914386
10.43772,900084
10.44583,880696
10.45397,849734
10.46208,819918
10.47020,818974
10.47833,771717
10.48645,772935
10.49458,749035
10.50270,755959
10.51082,719059
10.51895,711299
10.52707,696475
10.53520,690481
10.54332,684254
10.55143,670290
10.55957,669980
10.56768,680968
10.57580,670070
10.58393,659369
10.59205,641681
10.60018,633357
10.60830,616156
10.61642,605061
10.62455,605500
10.63267,606184
10.64080,584939
10.64892,591841
10.65703,602615
10.66517,698037
10.67328,931012
10.68142,1310902
10.68953,1719584
10.69765,1908984
10.70578,1987986
10.71390,2375882
10.72202,3233380
10.73015,4013256
10.73827,3904729
10.74640,3033127
10.75452,1940840
10.76263,1151908
10.77077,789992
10.77888,655913
10.78702,615429
10.79513,629508
10.80325,678314
10.81138,768802
10.81950,945980
10.82763,1065559
10.83575,1102946
10.84387,1032774
10.85200,918665
10.86012,800567
10.86823,764104
10.87637,696629
10.88448,610532
10.89262,574231
10.90073,548584
10.90885,536539
10.91698,518306
10.92510,550342
10.93323,659990
10.94135,935580
10.94947,1503096
10.95760,2380300
10.96572,3143399
10.97383,3312183
10.98197,2765582
10.99008,1803458
10.99822,983712
11.00633,524190
11.01445,329818
11.02258,266391
11.03070,259429
11.03883,282760
11.04695,293183
11.05507,282553
11.06320,289153
11.07132,265883
11.07945,241949
11.08757,224654
11.09568,221017
11.10382,213223
11.11193,212847
11.12005,237709
11.12818,273638
11.13630,314188
11.14443,348730
11.15255,399192
11.16067,376632
11.16880,326821
11.17692,264442
11.18505,220739
11.19317,198440
11.20128,192273
11.20942,178301
11.21753,181579
11.22567,171893
11.23378,173848
11.24190,171840
11.25003,157294
11.25815,158867
11.26627,151505
11.27440,157509
11.28252,174286
11.29065,223684
11.29877,300076
11.30688,385108
11.31502,436105
11.32313,411421
11.33127,363560
11.33938,257442
11.34750,207723
11.35563,201483
11.36375,251375
11.37187,471153
11.38000,1069229
11.38812,2651599
11.39625,6023574
11.40437,1.167952E+07
11.41248,1.909175E+07
11.42062,2.623411E+07
11.42873,3.062635E+07
11.43687,3.076862E+07
11.44498,2.71017E+07
11.45310,2.078554E+07
11.46123,1.344397E+07
11.46935,7521067
11.47748,4131431
11.48560,2848356
11.49372,2641468
11.50185,2649797
11.50997,2664150
11.51808,2595217
11.52622,2529761
11.53433,2357253
11.54247,2134016
11.55058,1910265
11.55870,1733835
11.56683,1583474
11.57495,1465827
11.58308,1358258
11.59120,1320617
11.59932,1225645
11.60745,1186974
11.61557,1155794
11.62370,1120771
11.63182,1083690
11.63993,1024625
11.64807,994951
11.65618,966493
11.66430,970516
11.67243,961024
11.68055,992295
11.68868,1044260
11.69680,1074108
11.70492,1026875
11.71305,992281
11.72117,909366
11.72930,852982
11.73742,795113
11.74553,741044
11.75367,737504
11.76178,734424
11.76992,724978
11.77803,700766
11.78615,696785
11.79428,679015
11.80240,678232
11.81052,713543
11.81865,779343
11.82677,871908
11.83490,957251
11.84302,1000207
11.85113,901169
11.85927,816594
11.86738,749320
11.87552,782400
11.88363,960284
11.89175,1341769
11.89988,1811999
11.90800,2208061
11.91612,2269071
11.92425,1971567
11.93237,1498254
11.94050,1108603
11.94862,854492
11.95673,755802
11.96487,698407
11.97298,694748
11.98112,657912
11.98923,622571
11.99735,613389
12.00548,605596
12.01360,602934
12.02173,615137
12.02985,651378
12.03797,669884
12.04610,636057
12.05422,615003
12.06233,593393
12.07047,638348
12.07858,738997
12.08672,816613
12.09483,872113
12.10295,808432
12.11108,726639
12.11920,645514
12.12733,592986
12.13545,552814
12.14357,517059
12.15170,472056
12.15982,415643
12.16795,371814
12.17607,319998
12.18418,287983
12.19232,257070
12.20043,224100
12.20855,209252
12.21668,210777
12.22480,196709
12.23293,188183
12.24105,195209
12.24917,187202
12.25730,191240
12.26542,174924
12.27355,172103
12.28167,174344
12.28978,178327
12.29792,165380
12.30603,167415
12.31415,169749
12.32228,183060
12.33040,215885
12.33853,259795
12.34665,336965
12.35477,412815
12.36290,445379
12.37102,408785
12.37915,370450
12.38727,383795
12.39538,610614
12.40352,1366279
12.41163,2820325
12.41977,4809589
12.42788,6670456
12.43600,7284624
12.44413,6354042
12.45225,4329195
12.46037,2504696
12.46850,1369373
12.47662,914798
12.48475,764720
12.49287,755090
12.50098,724415
12.50912,652981
12.51723,576506
12.52537,532780
12.53348,474092
12.54160,415947
12.54973,397633
12.55785,354621
12.56598,340670
12.57410,318189
12.58222,318185
12.59035,341675
12.59847,482493
12.60658,1006756
12.61472,2379267
12.62283,4965048
12.63097,8518355
12.63908,1.155729E+07
12.64720,1.226455E+07
12.65533,1.015219E+07
12.66345,6583078
12.67158,3553939
12.67970,1924886
12.68782,1307424
12.69595,1159997
12.70407,1061592
12.71218,979602
12.72032,894583
12.72843,815274
12.73657,752758
12.74468,720076
12.75280,674150
12.76093,628443
12.76905,624203
12.77718,640187
12.78530,696422
12.79342,770523
12.80155,871672
12.80967,901833
12.81780,856855
12.82592,791947
12.83403,676918
12.84217,585885
12.85028,519348
12.85840,476600
12.86653,484226
12.87465,462571
12.88278,454767
12.89090,452718
12.89902,428297
12.90715,414146
12.91527,394903
12.92340,384532
12.93152,381911
12.93963,375154
12.94777,347846
12.95588,343428
12.96402,338222
12.97213,375325
12.98025,500343
12.98838,825384
12.99650,1401683
13.00462,2010269
13.01275,2347801
13.02087,2099074
13.02900,1509636
13.03712,959019
13.04523,590818
13.05337,422479
13.06148,357507
13.06962,335773
13.07773,306880
13.08585,301297
13.09398,294773
13.10210,284662
13.11023,283320
13.11835,299286
13.12647,295515
13.13460,304024
13.14272,315223
13.15083,343397
13.15897,430333
13.16708,563260
13.17522,723842
13.18333,835997
13.19145,814803
13.19958,676171
13.20770,492430
13.21583,368430
13.22395,274685
13.23207,237494
13.24020,200863
13.24832,178922
13.25643,164395
13.26457,162112
13.27268,151948
13.28082,143793
13.28893,138343
13.29705,137634
13.30518,139686
13.31330,179866
13.32143,267081
13.32955,459390
13.33767,794969
13.34580,1124286
13.35392,1373210
13.36205,1377441
13.37017,1178724
13.37828,894506
13.38642,653027
13.39453,506014
13.40265,392343
13.41078,339189
13.41890,286098
13.42703,261491
13.43515,232401
13.44327,205033
13.45140,189510
13.45952,187108
13.46765,170323
13.47577,168515
13.48388,161959
13.49202,146342
13.50013,140040
13.50827,145537
13.51638,136906
13.52450,129159
13.53263,125143
13.54075,125936
13.54887,122947
13.55700,127141
13.56512,122509
13.57325,112340
13.58137,103950
13.58948,110737
13.59762,105299
13.60573,105950
13.61387,103111
13.62198,100009
13.63010,99428
13.63823,102899
13.64635,96856
13.65447,102329
13.66260,99981
13.67072,103383
13.67885,108931
13.68697,113132
13.69508,107733
13.70322,117987
13.71133,98193
13.71947,100604
13.72758,89070
13.73570,91744
13.74383,103033
13.75195,99164
13.76008,102636
13.76820,93951
13.77632,94888
13.78445,84964
13.79257,85288
13.80068,78075
13.80882,73610
13.81693,85628
13.82507,76714
13.83318,73168
13.84130,86855
13.84943,78342
13.85755,77344
13.86568,70574
13.87380,69070
13.88192,67858
13.89005,66385
13.89817,67959
13.90630,63785
13.91442,68277
13.92253,77133
13.93067,67995
13.93878,66366
13.94690,66517
13.95503,64617
13.96315,65615
13.97128,67290
13.97940,65229
13.98752,81773
13.99565,92402
14.00377,148671
14.01190,239736
14.02002,383709
14.02813,532879
14.03627,574292
14.04438,514757
14.05250,394545
14.06063,270867
14.06875,192138
14.07688,155089
14.08500,167152
14.09312,193798
14.10125,233187
14.10937,272361
14.11750,250282
14.12562,218235
14.13373,165006
14.14187,124630
14.14998,111211
14.15812,100188
14.16623,93827
14.17435,90034
14.18248,99888
14.19060,119001
14.19872,170015
14.20685,231520
14.21497,322757
14.22310,338062
14.23122,327427
14.23933,293109
14.24747,226182
14.25558,175706
14.26372,141629
14.27183,116337
14.27995,108125
14.28808,93350
14.29620,96355
14.30433,107450
14.31245,112780
14.32057,109992
14.32870,118158
14.33682,107642
14.34493,99227
14.35307,89232
14.36118,77229
14.36932,83503
14.37743,74211
14.38555,78678
14.39368,75380
14.40180,72343
14.40993,76975
14.41805,82611
14.42617,77864
14.43430,82602
14.44242,75251
14.45055,82699
14.45867,79310
14.46678,97360
14.47492,118420
14.48303,145888
14.49115,176515
14.49928,173875
14.50740,173040
14.51553,154052
14.52365,150082
14.53177,158138
14.53990,199370
14.54802,287273
14.55615,398326
14.56427,508588
14.57238,549795
14.58052,478668
14.58863,349688
14.59675,249174
14.60488,173992
14.61300,145841
14.62113,122823
14.62925,109579
14.63737,114952
14.64550,112508
14.65362,116068
14.66175,125155
14.66987,127881
14.67798,123196
14.68612,104264
14.69423,95048
14.70237,87823
14.71048,80113
14.71860,80020
14.72673,86952
14.73485,110077
14.74297,132322
14.75110,170034
14.75922,186702
14.76735,187811
14.77547,175104
14.78358,159580
14.79172,129738
14.79983,124673
14.80797,100086
14.81608,95758
14.82420,94250
14.83233,86584
14.84045,93170
14.84858,72724
14.85670,71300
14.86482,72676
14.87295,68592
14.88107,68492
14.88918,75049
14.89732,74032
14.90543,88418
14.91357,108659
14.92168,141655
14.92980,163120
14.93793,173552
14.94605,161541
14.95418,130399
14.96230,102873
14.97042,91107
14.97855,91349
14.98667,106462
14.99478,129756
15.00292,168687
15.01103,199908
15.01917,215280
15.02728,206464
15.03540,169923
15.04353,128269
15.05165,101733
15.05978,84929
15.06790,75949
15.07602,73386
15.08415,66927
15.09227,64340
15.10040,77172
15.10852,64838
15.11663,65842
15.12477,66386
15.13288,69986
15.14100,83661
15.14913,108165
15.15725,173322
15.16538,293210
15.17350,462429
15.18162,608715
15.18975,656287
15.19787,602422
15.20600,464493
15.21412,336562
15.22223,234619
15.23037,205092
15.23848,258896
15.24662,441881
15.25473,863395
15.26285,1431636
15.27098,1891859
15.27910,1973113
15.28722,1564184
15.29535,1094484
15.30347,650457
15.31160,422946
15.31972,312913
15.32783,252495
15.33597,232049
15.34408,200131
15.35222,174311
15.36033,177478
15.36845,169581
15.37658,163776
15.38470,164503
15.39282,140022
15.40095,126975
15.40907,124277
15.41720,117390
15.42532,114831
15.43343,111093
15.44157,102467
15.44968,110954
15.45782,104519
15.46593,115583
15.47405,112885
15.48218,106704
15.49030,97393
15.49843,105426
15.50655,96207
15.51467,91958
15.52280,85856
15.53092,86878
15.53903,81032
15.54717,77237
15.55528,73492
15.56342,77439
15.57153,71990
15.57965,72431
15.58778,68714
15.59590,75894
15.60403,65542
15.61215,63792
15.62027,63591
15.62840,66537
15.63652,59982
15.64465,55709
15.65277,54410
15.66088,52966
15.66902,56173
15.67713,54935
15.68525,51638
15.69338,55629
15.70150,64073
15.70963,62623
15.71775,61388
15.72587,69099
15.73400,71871
15.74212,78444
15.75025,72476
15.75837,77901
15.76648,78526
15.77462,88934
15.78273,80867
15.79087,70948
15.79898,66876
15.80710,63914
15.81523,61841
15.82335,65966
15.83147,72850
15.83960,74218
15.84772,74767
15.85585,85285
15.86397,66576
15.87208,61570
15.88022,57275
15.88833,50459
15.89647,54234
15.90458,52234
15.91270,55387
15.92083,54058
15.92895,50591
15.93707,52506
15.94520,54778
15.95332,47827
15.96145,53804
15.96957,58553
15.97768,54599
15.98582,54520
15.99393,49256
16.00207,54520
16.01018,60171
16.01830,64273
16.02643,86168
16.03455,101231
16.04268,121250
16.05080,123332
16.05892,114120
16.06705,89890
16.07517,71492
16.08328,57715
16.09142,55568
16.09953,52745
16.10767,58746
16.11578,48723
16.12390,46238
16.13203,43663
16.14015,46280
16.14828,46618
16.15640,46487
16.16452,45899
16.17265,52037
16.18077,50950
16.18890,50896
16.19702,51950
16.20513,65118
16.21327,101696
16.22138,168913
16.22950,248060
16.23763,312439
16.24575,328599
16.25388,264043
16.26200,191175
16.27012,133305
16.27825,108945
16.28637,90715
16.29450,93447
16.30262,106037
16.31073,140468
16.31887,196709
16.32698,264635
16.33510,348843
16.34323,405080
16.35135,410997
16.35948,364008
16.36760,276116
16.37572,193994
16.38385,140516
16.39197,114079
16.40010,98959
16.40822,95128
16.41633,100331
16.42447,107825
16.43258,119724
16.44072,132236
16.44883,118025
16.45695,109554
16.46508,92549
16.47320,83654
16.48132,78312
16.48945,73101
16.49757,66982
16.50570,78092
16.51382,64155
16.52193,73898
16.53007,64414
16.53818,60193
16.54632,66975
16.55443,62240
16.56255,58347
16.57068,61326
16.57880,60032
16.58693,70017
16.59505,60907
16.60317,55944
16.61130,57971
16.61942,56779
16.62753,58812
16.63567,60436
16.64378,71920
16.65192,84131
16.66003,102072
16.66815,120750
16.67628,134857
16.68440,126268
16.69253,119954
16.70065,98991
16.70877,89948
16.71690,84161
16.72502,82638
16.73313,88717
16.74127,93668
16.74938,107888
16.75752,113596
16.76563,114317
16.77375,105967
16.78188,101152
16.79000,90222
16.79813,98655
16.80625,105697
16.81437,100002
16.82250,95715
16.83062,86726
16.83875,95146
16.84687,87327
16.85498,98825
16.86312,90245
16.87123,85104
16.87935,84503
16.88748,70051
16.89560,70080
16.90373,64187
16.91185,76580
16.91997,91529
16.92810,103660
16.93622,109691
16.94435,100119
16.95247,88846
16.96058,74240
16.96872,71661
16.97683,63270
16.98497,63973
16.99308,59761
17.00120,65731
17.00933,56979
17.01745,53962
17.02557,51812
17.03370,50464
17.04182,51230
17.04995,54065
17.05807,61285
17.06618,81803
17.07432,101463
17.08243,148345
17.09057,191984
17.09868,218803
17.10680,213626
17.11493,184234
17.12305,151608
17.13118,125141
17.13930,157930
17.14742,268038
17.15555,514778
17.16367,945195
17.17178,1453002
17.17992,1828254
17.18803,1864884
17.19617,1551182
17.20428,1146150
17.21240,749129
17.22053,478535
17.22865,311943
17.23678,231110
17.24490,182600
17.25302,159292
17.26115,134506
17.26927,127730
17.27738,114917
17.28552,106241
17.29363,104440
17.30177,101570
17.30988,95927
17.31800,98706
17.32613,87094
17.33425,85241
17.34238,88539
17.35050,86512
17.35862,88495
17.36675,85897
17.37487,82634
17.38300,88437
17.39112,72588
17.39923,70057
17.40737,77454
17.41548,67385
17.42360,56848
17.43173,53610
17.43985,51891
17.44798,55145
17.45610,50835
17.46422,52206
17.47235,46010
17.48047,50083
17.48860,52648
17.49672,55719
17.50483,59628
17.51297,73869
17.52108,88176
17.52922,113338
17.53733,129694
17.54545,145628
17.55358,137100
17.56170,118451
17.56982,111588
17.57795,87065
17.58607,80404
17.59420,77764
17.60232,64953
17.61043,67342
17.61857,66187
17.62668,65633
17.63482,73429
17.64293,90817
17.65105,94605
17.65918,113547
17.66730,105742
17.67542,109810
17.68355,105231
17.69167,95197
17.69980,79613
17.70792,79401
17.71603,66019
17.72417,64127
17.73228,63627
17.74042,64799
17.74853,72568
17.75665,91531
17.76478,112507
17.77290,135995
17.78103,140631
17.78915,149366
17.79727,135217
17.80540,114532
17.81352,99726
17.82163,105423
17.82977,100346
17.83788,91107
17.84602,86991
17.85413,83281
17.86225,72272
17.87038,77509
17.87850,68826
17.88663,67482
17.89475,58550
17.90287,58620
17.91100,61338
17.91912,63863
17.92725,58385
17.93537,59677
17.94348,56682
17.95162,55865
17.95973,55867
17.96785,55313
17.97598,50463
17.98410,48482
17.99223,52004
18.00035,50641
18.00847,51432
18.01660,49878
18.02472,48937
18.03285,47035
18.04097,51844
18.04908,61899
18.05722,87823
18.06533,146511
18.07345,252154
18.08158,406830
18.08970,540386
18.09783,581336
18.10595,541103
18.11407,440300
18.12220,321658
18.13032,226190
18.13845,159292
18.14657,120265
18.15468,101492
18.16282,97030
18.17093,84547
18.17907,83180
18.18718,70542
18.19530,71715
18.20343,64892
18.21155,61771
18.21967,61098
18.22780,66588
18.23592,69874
18.24405,64687
18.25217,74102
18.26028,69693
18.26842,67484
18.27653,64424
18.28467,66155
18.29278,71506
18.30090,67200
18.30903,69752
18.31715,62073
18.32528,58794
18.33340,58392
18.34152,47795
18.34965,51054
18.35777,49871
18.36588,49174
18.37402,49554
18.38213,51980
18.39027,51659
18.39838,60310
18.40650,52788
18.41463,47817
18.42275,49315
18.43088,46172
18.43900,55872
18.44712,49204
18.45525,57844
18.46337,47939
18.47150,52070
18.47962,52885
18.48773,67871
18.49587,98060
18.50398,144110
18.51210,219099
18.52023,304602
18.52835,388657
18.53648,395593
18.54460,370824
18.55272,305378
18.56085,268424
18.56897,203555
18.57710,180630
18.58522,160234
18.59333,139148
18.60147,120275
18.60958,99820
18.61770,91619
18.62583,76053
18.63395,79372
18.64208,66481
18.65020,71282
18.65832,69819
18.66645,63773
18.67457,64096
18.68270,63201
18.69082,65755
18.69893,78367
18.70707,84813
18.71518,84598
18.72332,91579
18.73143,91710
18.73955,96527
18.74768,90997
18.75580,87122
18.76392,89718
18.77205,93352
18.78017,84189
18.78830,83987
18.79642,88502
18.80453,83100
18.81267,91930
18.82078,84504
18.82892,81966
18.83703,86515
18.84515,84763
18.85328,79814
18.86140,82003
18.86953,86184
18.87765,82291
18.88577,74847
18.89390,75851
18.90202,70156
18.91013,79945
18.91827,70365
18.92638,72544
18.93452,74431
18.94263,78100
18.95075,85473
18.95888,83198
18.96700,82574
18.97513,80026
18.98325,88715
18.99137,104101
18.99950,158280
19.00762,289093
19.01573,486695
19.02387,808995
19.03198,1125034
19.04012,1290172
19.04823,1192273
19.05635,958254
19.06448,654188
19.07260,422337
19.08073,276880
19.08885,188318
19.09697,157667
19.10510,130746
19.11322,119010
19.12135,104490
19.12947,97358
19.13758,90994
19.14572,98064
19.15383,84563
19.16195,88024
19.17008,83455
19.17820,80089
19.18633,76826
19.19445,80446
19.20257,79710
19.21070,84369
19.21882,93655
19.22695,83297
19.23507,83518
19.24318,68550
19.25132,63587
19.25943,73579
19.26757,59415
19.27568,57825
19.28380,52663
19.29193,61072
19.30005,55908
19.30817,60941
19.31630,55340
19.32442,54646
19.33255,58330
19.34067,53174
19.34878,55476
19.35692,53611
19.36503,58568
19.37317,54834
19.38128,56143
19.38940,57894
19.39753,53284
19.40565,56310
19.41377,58809
19.42190,68349
19.43002,56678
19.43815,69633
19.44627,70930
19.45438,66651
19.46252,53076
19.47063,50390
19.47877,50155
19.48688,52555
19.49500,49212
19.50313,46220
19.51125,49770
19.51938,51615
19.52750,60739
19.53562,52193
19.54375,73210
19.55187,73978
19.55998,86252
19.56812,91932
19.57623,104448
19.58437,97232
19.59248,103226
19.60060,112292
19.60873,118982
19.61685,109769
19.62498,106493
19.63310,104978
19.64122,103129
19.64935,85196
19.65747,87515
19.66560,81264
19.67372,70719
19.68183,70289
19.68997,74409
19.69808,64809
19.70620,67723
19.71433,70926
19.72245,71150
19.73058,66332
19.73870,68578
19.74682,61555
19.75495,68886
19.76307,68732
19.77120,72696
19.77932,76750
19.78743,82625
19.79557,103212
19.80368,123405
19.81182,136347
19.81993,138149
19.82805,128043
19.83618,98984
19.84430,83736
19.85242,70350
19.86055,70093
19.86867,52191
19.87680,52429
19.88492,47328
19.89303,50216
19.90117,49260
19.90928,49868
19.91742,54829
19.92553,55678
19.93365,48260
19.94178,47324
19.94990,48445
19.95802,50450
19.96615,49646
19.97427,48560
19.98240,50348
19.99052,48636
19.99863,51721
20.00677,55116
20.01488,69256
20.02302,82260
20.03113,117255
20.03925,173761
20.04738,252783
20.05550,307492
20.06363,329180
20.07175,303285
20.07987,257861
20.08800,202472
20.09612,164335
20.10423,124083
20.11237,107398
20.12048,97740
20.12862,94067
20.13673,74334
20.14485,71288
20.15298,75251
20.16110,75189
20.16923,88376
20.17735,92549
20.18547,103382
20.19360,123643
20.20172,138453
20.20985,148175
20.21797,141218
20.22608,141599
20.23422,113655
20.24233,98173
20.25045,83308
20.25858,77025
20.26670,63056
20.27483,63544
20.28295,60042
20.29107,62402
20.29920,59300
20.30732,63219
20.31545,61052
20.32357,56918
20.33168,61062
20.33982,52430
20.34793,56725
20.35605,59777
20.36418,66721
20.37230,77525
20.38043,84730
20.38855,88836
20.39667,89202
20.40480,89823
20.41292,80725
20.42105,80502
20.42917,76883
20.43728,76709
20.44542,73151
20.45353,75478
20.46167,76796
20.46978,71905
20.47790,70521
20.48603,72208
20.49415,69371
20.50227,73483
20.51040,62982
20.51852,57492
20.52665,55150
20.53477,54463
20.54288,49377
20.55102,51084
20.55913,49286
20.56727,61340
20.57538,56379
20.58350,66275
20.59163,75592
20.59975,104083
20.60788,145066
20.61600,189547
20.62412,209285
20.63225,220264
20.64037,204839
20.64848,167052
20.65662,136885
20.66473,111872
20.67287,92595
20.68098,79935
20.68910,77041
20.69723,68437
20.70535,59183
20.71348,57532
20.72160,61574
20.72972,53710
20.73785,54826
20.74597,55205
20.75408,66122
20.76222,60028
20.77033,68826
20.77847,78506
20.78658,90363
20.79470,89263
20.80283,92721
20.81095,93257
20.81908,77476
20.82720,79233
20.83532,74035
20.84345,85836
20.85157,101652
20.85970,130548
20.86782,137429
20.87593,127911
20.88407,110618
20.89218,86900
20.90030,74158
20.90843,58597
20.91655,57230
20.92468,53904
20.93280,54725
20.94092,61157
20.94905,49983
20.95717,48553
20.96530,47882
20.97342,45842
20.98153,49819
20.98967,51045
20.99778,46367
21.00592,45747
21.01403,46556
21.02215,52302
21.03028,67714
21.03840,70313
21.04652,88320
21.05465,89164
21.06277,87738
21.07090,76228
21.07902,68950
21.08713,63147
21.09527,66204
21.10338,55685
21.11152,52063
21.11963,60999
21.12775,51380
21.13588,50643
21.14400,50220
21.15213,59200
21.16025,51949
21.16837,54498
21.17650,51137
21.18462,52358
21.19273,54804
21.20087,45967
21.20898,50328
21.21712,52488
21.22523,61705
21.23335,88039
21.24148,138936
21.24960,238656
21.25773,357194
21.26585,476714
21.27397,497293
21.28210,434273
21.29022,308607
21.29833,209035
21.30647,133393
21.31458,99479
21.32272,78655
21.33083,73979
21.33895,65367
21.34708,66425
21.35520,59769
21.36333,53593
21.37145,52083
21.37957,53863
21.38770,53709
21.39582,62917
21.40395,52317
21.41207,56560
21.42018,53974
21.42832,62096
21.43643,52247
21.44455,53108
21.45268,53634
21.46080,61856
21.46893,52049
21.47705,53670
21.48517,52983
21.49330,46216
21.50142,52010
21.50955,55452
21.51767,52327
21.52578,49176
21.53392,51927
21.54203,51074
21.55017,51958
21.55828,50763
21.56640,48294
21.57453,53835
21.58265,53964
21.59077,59341
21.59890,79638
21.60702,117790
21.61515,160153
21.62327,198728
21.63138,210126
21.63952,190912
21.64763,154266
21.65577,117070
21.66388,91381
21.67200,78331
21.68013,70867
21.68825,72650
21.69637,67874
21.70450,72760
21.71262,66792
21.72075,67880
21.72887,61218
21.73698,57015
21.74512,56771
21.75323,53269
21.76137,52195
21.76948,59615
21.77760,54148
21.78573,57832
21.79385,55330
21.80198,53161
21.81010,53740
21.81822,47152
21.82635,47750
21.83447,45569
21.84258,46364
21.85072,47343
21.85883,49036
21.86697,49973
21.87508,45125
21.88320,46201
21.89133,45541
21.89945,47635
21.90758,48442
21.91570,46608
21.92382,49762
21.93195,55865
21.94007,64597
21.94820,79769
21.95632,84557
21.96443,99040
21.97257,89683
21.98068,88452
21.98880,75485
21.99693,66533
22.00505,66313
22.01318,57264
22.02130,55130
22.02942,53939
22.03755,49980
22.04567,52355
22.05380,52754
22.06192,54402
22.07003,58444
22.07817,64265
22.08628,64059
22.09440,71250
22.10253,63950
22.11065,65829
22.11878,60185
22.12690,65222
22.13502,70525
22.14315,92582
22.15127,108534
22.15940,112992
22.16752,117315
22.17563,110255
22.18377,93324
22.19188,82231
22.20002,68693
22.20813,71150
22.21625,65376
22.22438,61301
22.23250,68427
22.24062,64982
22.24875,70422
22.25687,83910
22.26500,85295
22.27312,88861
22.28123,83674
22.28937,92494
22.29748,81976
22.30562,79543
22.31373,75882
22.32185,74392
22.32998,75282
22.33810,76695
22.34623,67437
22.35435,71560
22.36247,65856
22.37060,66257
22.37872,71053
22.38683,62352
22.39497,60516
22.40308,59589
22.41122,66220
22.41933,56901
22.42745,56530
22.43558,58973
22.44370,64188
22.45183,59950
22.45995,59967
22.46807,58281
22.47620,54861
22.48432,51539
22.49245,57591
22.50057,52014
22.50868,53845
22.51682,55533
22.52493,57303
22.53305,80459
22.54118,138420
22.54930,320086
22.55743,747850
22.56555,1607324
22.57367,2771376
22.58180,3807397
22.58992,4194679
22.59805,3773769
22.60617,2804002
22.61428,1759827
22.62242,1046561
22.63053,649815
22.63865,428873
22.64678,346759
22.65490,286368
22.66303,240169
22.67115,211726
22.67927,181144
22.68740,165941
22.69552,153399
22.70365,148179
22.71177,126021
22.71988,127115
22.72802,111397
22.73613,113820
22.74427,100758
22.75238,99513
22.76050,94051
22.76863,87115
22.77675,88824
22.78487,82107
22.79300,76114
22.80112,81966
22.80925,84061
22.81737,91279
22.82548,87151
22.83362,94387
22.84173,96278
22.84987,94987
22.85798,87090
22.86610,80283
22.87423,74143
22.88235,76834
22.89048,64546
22.89860,61816
22.90672,59793
22.91485,65869
22.92297,67442
22.93108,56515
22.93922,59843
22.94733,57088
22.95547,55927
22.96358,56788
22.97170,64698
22.97983,61156
22.98795,62382
22.99608,55966
23.00420,58099
23.01232,56922
23.02045,59426
23.02857,52899
23.03668,51530
23.04482,50835
23.05293,51734
23.06107,53010
23.06918,50629
23.07730,51051
23.08543,54241
23.09355,58661
23.10168,65216
23.10980,79180
23.11792,86296
23.12605,90555
23.13417,93449
23.14230,78639
23.15042,82392
23.15853,69417
23.16667,73772
23.17478,70700
23.18290,80870
23.19103,70501
23.19915,71800
23.20728,70539
23.21540,65460
23.22352,65526
23.23165,69646
23.23977,63134
23.24790,60610
23.25602,60595
23.26413,55931
23.27227,52515
23.28038,58573
23.28852,64911
23.29663,81519
23.30475,117726
23.31288,201616
23.32100,296087
23.32912,400077
23.33725,465854
23.34537,483793
23.35350,419992
23.36162,328859
23.36973,252221
23.37787,192299
23.38598,161414
23.39412,145545
23.40223,139069
23.41035,140878
23.41848,144481
23.42660,145370
23.43472,150970
23.44285,135830
23.45097,120806
23.45910,115781
23.46722,114930
23.47533,126029
23.48347,115596
23.49158,117888
23.49972,107540
23.50783,99093
23.51595,92809
23.52408,85915
23.53220,76571
23.54033,75640
23.54845,70613
23.55657,67013
23.56470,66267
23.57282,60741
23.58093,73626
23.58907,74860
23.59718,86150
23.60532,94249
23.61343,109725
23.62155,130890
23.62968,159825
23.63780,167926
23.64593,170130
23.65405,141771
23.66217,116567
23.67030,92806
23.67842,79466
23.68655,69306
23.69467,63596
23.70278,62648
23.71092,62338
23.71903,59974
23.72715,56022
23.73528,53093
23.74340,57850
23.75153,63575
23.75965,52028
23.76777,53218
23.77590,53082
23.78402,52367
23.79215,51419
23.80027,47586
23.80838,48152
23.81652,46713
23.82463,44920
23.83277,51992
23.84088,48291
23.84900,47170
23.85713,46095
23.86525,49794
23.87337,48220
23.88150,44694
23.88962,47126
23.89775,45979
23.90587,45532
23.91398,44200
23.92212,46414
23.93023,50840
23.93837,50157
23.94648,55235
23.95460,43980
23.96273,57860
23.97085,47699
23.97897,53566
23.98710,48791
23.99522,43955
24.00335,47000
24.01147,50024
24.01958,57682
24.02772,69268
24.03583,72969
24.04397,80976
24.05208,90163
24.06020,106713
24.06833,101788
24.07645,100594
24.08458,94667
24.09270,107422
24.10082,130566
24.10895,174110
24.11707,275564
24.12518,430305
24.13332,623531
24.14143,769338
24.14957,842096
24.15768,731329
24.16580,572663
24.17393,422862
24.18205,293239
24.19018,216625
24.19830,159543
24.20642,131735
24.21455,131383
24.22267,120787
24.23080,155755
24.23892,317367
24.24703,783143
24.25517,1790707
24.26328,3363082
24.27140,4750254
24.27953,5417416
24.28765,5217983
24.29578,4362999
24.30390,3434934
24.31202,2664166
24.32015,1995367
24.32827,1530970
24.33640,1195833
24.34452,936409
24.35263,786910
24.36077,659024
24.36888,563804
24.37700,534197
24.38513,511995
24.39325,497736
24.40138,502248
24.40950,465574
24.41762,402479
24.42575,332599
24.43387,272036
24.44200,225063
24.45012,202487
24.45823,181603
24.46637,159990
24.47448,155843
24.48262,137877
24.49073,127016
24.49885,119941
24.50698,117657
24.51510,112258
24.52322,113911
24.53135,113925
24.53947,119440
24.54760,107533
24.55572,103418
24.56383,100553
24.57197,90149
24.58008,93235
24.58822,79311
24.59633,80462
24.60445,81898
24.61258,82235
24.62070,81386
24.62883,84582
24.63695,84332
24.64507,89487
24.65320,94561
24.66132,108690
24.66943,127021
24.67757,151546
24.68568,170504
24.69382,178638
24.70193,175693
24.71005,170919
24.71818,151705
24.72630,141235
24.73443,119514
24.74255,103861
24.75067,95203
24.75880,88435
24.76692,94101
24.77503,90097
24.78317,89634
24.79128,84526
24.79942,84878
24.80753,83866
24.81565,99445
24.82378,85792
24.83190,85862
24.84003,88299
24.84815,73973
24.85627,74240
24.86440,67387
24.87252,66101
24.88065,61431
24.88877,62012
24.89688,64711
24.90502,62825
24.91313,70069
24.92125,58734
24.92938,58331
24.93750,73856
24.94563,63186
24.95375,63798
24.96187,70802
24.97000,75894
24.97812,89550
24.98625,82496
24.99437,81778
25.00248,74431
25.01062,73825
25.01873,67457
25.02687,61392
25.03498,65222
25.04310,61243
25.05123,57115
25.05935,59387
25.06747,56874
25.07560,56601
25.08372,57562
25.09185,64605
25.09997,65513
25.10808,70661
25.11622,68070
25.12433,67978
25.13247,70530
25.14058,68642
25.14870,73975
25.15683,67609
25.16495,68554
25.17308,71341
25.18120,72074
25.18932,64196
25.19745,62298
25.20557,59882
25.21368,67022
25.22182,58522
25.22993,62246
25.23807,64296
25.24618,76195
25.25430,93156
25.26243,113825
25.27055,120166
25.27868,123796
25.28680,124255
25.29492,133244
25.30305,121529
25.31117,119708
25.31928,109542
25.32742,98359
25.33553,99565
25.34367,97488
25.35178,95918
25.35990,92417
25.36803,84894
25.37615,82473
25.38428,87919
25.39240,81518
25.40052,84215
25.40865,78821
25.41677,77490
25.42490,78337
25.43302,80554
25.44113,71764
25.44927,75778
25.45738,73680
25.46550,74342
25.47363,71955
25.48175,66366
25.48988,67656
25.49800,69748
25.50612,68243
25.51425,62449
25.52237,53543
25.53050,59260
25.53862,59633
25.54673,56985
25.55487,58064
25.56298,58500
25.57112,59300
25.57923,56383
25.58735,59904
25.59548,69737
25.60360,73852
25.61172,87461
25.61985,116887
25.62797,129624
25.63610,140765
25.64422,155572
25.65233,151485
25.66047,146298
25.66858,129924
25.67672,118671
25.68483,104261
25.69295,99774
25.70108,90923
25.70920,94771
25.71732,85100
25.72545,79303
25.73357,71732
25.74170,62520
25.74982,57764
25.75793,60476
25.76607,55944
25.77418,58793
25.78232,63359
25.79043,65164
25.79855,74410
25.80668,70218
25.81480,69194
25.82293,75443
25.83105,71493
25.83917,76336
25.84730,72991
25.85542,76330
25.86353,80235
25.87167,87768
25.87978,82829
25.88792,88834
25.89603,87279
25.90415,77422
25.91228,73708
25.92040,79202
25.92853,63415
25.93665,68854
25.94477,64766
25.95290,59460
25.96102,54815
25.96915,55566
25.97727,60414
25.98538,53647
25.99352,52623
26.00163,54931
26.00975,52960
26.01788,55990
26.02600,55031
26.03413,51370
26.04225,50834
26.05037,54773
26.05850,47070
26.06662,52826
26.07475,52851
26.08287,61253
26.09098,51036
26.09912,51620
26.10723,50506
26.11537,56379
26.12348,56590
26.13160,63140
26.13973,53148
26.14785,54177
26.15597,58213
26.16410,53037
26.17222,54068
26.18035,58327
26.18847,51462
26.19658,48643
26.20472,50277
26.21283,61982
26.22097,51114
26.22908,49613
26.23720,53809
26.24533,60476
26.25345,57887
26.26157,53339
26.26970,55239
26.27782,61785
26.28595,57313
26.29407,59692
26.30218,61965
26.31032,75409
26.31843,104427
26.32657,161511
26.33468,272563
26.34280,431564
26.35093,638400
26.35905,863734
26.36718,1006453
26.37530,935980
26.38342,767499
26.39155,564391
26.39967,400096
26.40778,263106
26.41592,224171
26.42403,200604
26.43217,206681
26.44028,196053
26.44840,179794
26.45653,149175
26.46465,121666
26.47278,101324
26.48090,77398
26.48902,75196
26.49715,64875
26.50527,65431
26.51340,57700
26.52152,58685
26.52963,56630
26.53777,68689
26.54588,58513
26.55400,66130
26.56213,61527
26.57025,62647
26.57838,67478
26.58650,55026
26.59462,53210
26.60275,51509
26.61087,55787
26.61900,53930
26.62712,56006
26.63523,56719
26.64337,65920
26.65148,66717
26.65960,81070
26.66773,80961
26.67585,90266
26.68398,91079
26.69210,84357
26.70022,79119
26.70835,73060
26.71647,66160
26.72460,62746
26.73272,58118
26.74083,58402
26.74897,55629
26.75708,53707
26.76522,54239
26.77333,50982
26.78145,54018
26.78958,53368
26.79770,50976
26.80582,56258
26.81395,50729
26.82207,53438
26.83020,56044
26.83832,53210
26.84643,50827
26.85457,45949
26.86268,58006
26.87082,50846
26.87893,50525
26.88705,49531
26.89518,53559
26.90330,49341
26.91143,51648
26.91955,52345
26.92767,52501
26.93580,56980
26.94392,48463
26.95203,49286
26.96017,48447
26.96828,48913
26.97642,50883
26.98453,61794
26.99265,62508
27.00078,56327
27.00890,56216
27.01703,55811
27.02515,54420
27.03327,53853
27.04140,53506
27.04952,51361
27.05763,51066
27.06577,48282
27.07388,52815
27.08202,51838
27.09013,51718
27.09825,54973
27.10638,58923
27.11450,56649
27.12263,68603
27.13075,62705
27.13887,61070
27.14700,60964
27.15512,59451
27.16325,69169
27.17137,53375
27.17948,56828
27.18762,57808
27.19573,58228
27.20385,60717
27.21198,54866
27.22010,54949
27.22823,61770
27.23635,56333
27.24447,60928
27.25260,61438
27.26072,64578
27.26885,67974
27.27697,65702
27.28508,64911
27.29322,66346
27.30133,62323
27.30947,58528
27.31758,58863
27.32570,58337
27.33383,68055
27.34195,57289
27.35007,55316
27.35820,52980
27.36632,65739
27.37445,63041
27.38257,53339
27.39068,64864
27.39882,65100
27.40693,65237
27.41507,97041
27.42318,157103
27.43130,270927
27.43943,436078
27.44755,641880
27.45568,854518
27.46380,968107
27.47192,994013
27.48005,957816
27.48817,861599
27.49628,748753
27.50442,639010
27.51253,524455
27.52067,432148
27.52878,341822
27.53690,278252
27.54503,251474
27.55315,202775
27.56128,185797
27.56940,154703
27.57752,136675
27.58565,129990
27.59377,108885
27.60188,102316
27.61002,99525
27.61813,95553
27.62627,89220
27.63438,81179
27.64250,79404
27.65063,81758
27.65875,87872
27.66688,94186
27.67500,93582
27.68312,105235
27.69125,101947
27.69937,108018
27.70750,92677
27.71562,83569
27.72373,90457
27.73187,76355
27.73998,78077
27.74810,72769
27.75623,74607
27.76435,67151
27.77248,75639
27.78060,65741
27.78872,60742
27.79685,60621
27.80497,74914
27.81310,58443
27.82122,62353
27.82933,65649
27.83747,78280
27.84558,78581
27.85372,77292
27.86183,77373
27.86995,73500
27.87808,68997
27.88620,66617
27.89432,70158
27.90245,58873
27.91057,66363
27.91870,61703
27.92682,58859
27.93493,57337
27.94307,62447
27.95118,56973
27.95932,54924
27.96743,51351
27.97555,51777
27.98368,61212
27.99180,55203
27.99993,56070
28.00805,52860
28.01617,54832
28.02430,51902
28.03242,53856
28.04053,49418
28.04867,51576
28.05678,50818
28.06492,48974
28.07303,56559
28.08115,57086
28.08928,58775
28.09740,58431
28.10553,63777
28.11365,66657
28.12177,72966
28.12990,75657
28.13802,73239
28.14613,82001
28.15427,72969
28.16238,70049
28.17052,65448
28.17863,62886
28.18675,58635
28.19488,59100
28.20300,56638
28.21113,48759
28.21925,53131
28.22737,53614
28.23550,51475
28.24362,55473
28.25175,56801
28.25987,54922
28.26798,51190
28.27612,61110
28.28423,56228
28.29235,61706
28.30048,64656
28.30860,66806
28.31673,68512
28.32485,62227
28.33297,61829
28.34110,56529
28.34922,56786
28.35735,52298
28.36547,56818
28.37358,53335
28.38172,51426
28.38983,52635
28.39797,54841
28.40608,52930
28.41420,51322
28.42233,58743
28.43045,53519
28.43857,57229
28.44670,56395
28.45482,62405
28.46295,65070
28.47107,65614
28.47918,75591
28.48732,64008
28.49543,68344
28.50357,64176
28.51168,64380
28.51980,68271
28.52793,64628
28.53605,62971
28.54417,58376
28.55230,61802
28.56042,64045
28.56855,65474
28.57667,70927
28.58478,68007
28.59292,71360
28.60103,67600
28.60917,66314
28.61728,57948
28.62540,57311
28.63353,57367
28.64165,55701
28.64978,54039
28.65790,54286
28.66602,51863
28.67415,56694
28.68227,54247
28.69038,59873
28.69852,67311
28.70663,76379
28.71477,96704
28.72288,117409
28.73100,140106
28.73913,170559
28.74725,186786
28.75538,211723
28.76350,220341
28.77162,237274
28.77975,237578
28.78787,236892
28.79600,244388
28.80412,254003
28.81223,255871
28.82037,263891
28.82848,244073
28.83660,223081
28.84473,204741
28.85285,177237
28.86098,163982
28.86910,147320
28.87722,138627
28.88535,137454
28.89347,124342
28.90160,120344
28.90972,106577
28.91783,106305
28.92597,105203
28.93408,93497
28.94220,96075
28.95033,89325
28.95845,83668
28.96658,82536
28.97470,77557
28.98282,80658
28.99095,75017
28.99907,70494
29.00720,68930
29.01532,77175
29.02343,72589
29.03157,71726
29.03968,66096
29.04782,75194
29.05593,74094
29.06405,69845
29.07218,74139
29.08030,84629
29.08842,86964
29.09655,88547
29.10467,80983
29.11280,68440
29.12092,67070
29.12903,64532
29.13717,63086
29.14528,60771
29.15342,64500
29.16153,62304
29.16965,78679
29.17778,71668
29.18590,70182
29.19403,68223
29.20215,68382
29.21027,67116
29.21840,67135
29.22652,63581
29.23463,61291
29.24277,59893
29.25088,57501
29.25902,59072
29.26713,62086
29.27525,63882
29.28338,56895
29.29150,55901
29.29963,60599
29.30775,67474
29.31587,62178
29.32400,58516
29.33212,57339
29.34025,60468
29.34837,54088
29.35648,56845
29.36462,52755
29.37273,54079
29.38085,55444
29.38898,56525
29.39710,55867
29.40523,54797
29.41335,53456
29.42147,54309
29.42960,55017
29.43772,53001
29.44585,50528
29.45397,57275
29.46208,51304
29.47022,53880
29.47833,59478
29.48645,58856
29.49458,60161
29.50270,61365
29.51083,57035
29.51895,61914
29.52707,54070
29.53520,55629
29.54332,47114
29.55145,60347
29.55957,53298
29.56768,55715
29.57582,54865
29.58393,53254
29.59207,51611
29.60018,52554
29.60830,50619
29.61643,51575
29.62455,51751
29.63267,52020
29.64080,54132
29.64892,52551
29.65705,52321
29.66517,54178
29.67328,55433
29.68142,54089
29.68953,55661
29.69767,54066
29.70578,58291
29.71390,57385
29.72203,58778
29.73015,60440
29.73828,60562
29.74640,57253
29.75452,58603
29.76265,59428
29.77077,57170
29.77888,55361
29.78702,60234
29.79513,57256
29.80327,62548
29.81138,55441
29.81950,55329
29.82763,56962
29.83575,56627
29.84388,54917
29.85200,54051
29.86012,55445
29.86825,58026
29.87637,55527
29.88448,51614
29.89262,54596
29.90073,51427
29.90887,50335
29.91698,51269
29.92510,54563
29.93323,57336
29.94135,50119
29.94948,49381
29.95760,54059
29.96572,54863
29.97385,57817
29.98197,51868
29.99010,49164
29.99822,57172
30.00633,58496
30.01447,53068
30.02258,57164
30.03070,58112
30.03883,65973
30.04695,62064
30.05508,58390
30.06320,59834
30.07132,57754
30.07945,60366
30.08757,54342
30.09570,55512
30.10382,64610
30.11193,62664
30.12007,53785
30.12818,56259
30.13632,69683
30.14443,61336
30.15255,61511
30.16068,60633
30.16880,66468
30.17692,66735
30.18505,63672
30.19317,67474
30.20130,60628
30.20942,63327
30.21753,64772
30.22567,65881
30.23378,65739
30.24192,62274
30.25003,67196
30.25815,65561
30.26628,70437
30.27440,59414
30.28252,60636
30.29065,58448
30.29877,59701
30.30690,66099
30.31502,75613
30.32313,79625
30.33127,93047
30.33938,110621
30.34752,113258
30.35563,132340
30.36375,126693
30.37188,133608
30.38000,139456
30.38813,130118
30.39625,135925
30.40437,132664
30.41250,132734
30.42062,135988
30.42873,134619
30.43687,133298
30.44498,144598
30.45312,126398
30.46123,126185
30.46935,113609
30.47748,110813
30.48560,89648
30.49373,107519
30.50185,91291
30.50997,89747
30.51810,89095
30.52622,84590
30.53435,80945
30.54247,76150
30.55058,88637
30.55872,76501
30.56683,76882
30.57495,77992
30.58308,72569
30.59120,74592
30.59933,69994
30.60745,72666
30.61557,72712
30.62370,70787
30.63182,66319
30.63995,67736
30.64807,76513
30.65618,66720
30.66432,60514
30.67243,65571
30.68057,62034
30.68868,62739
30.69680,60461
30.70493,60387
30.71305,61065
30.72117,61706
30.72930,62812
30.73742,58346
30.74555,58139
30.75367,57596
30.76178,57559
30.76992,62077
30.77803,57606
30.78617,55307
30.79428,57228
30.80240,56271
30.81053,56523
30.81865,61234
30.82677,62720
30.83490,61351
30.84302,59217
30.85115,55250
30.85927,59747
30.86738,57507
30.87552,56957
30.88363,65025
30.89177,53702
30.89988,61167
30.90800,52854
30.91613,53669
30.92425,58866
30.93238,54447
30.94050,55945
30.94862,66633
30.95675,57137
30.96487,57175
30.97298,61525
30.98112,64585
30.98923,58022
30.99737,54541
31.00548,62505
31.01360,54246
31.02173,53742
31.02985,53223
31.03798,56132
31.04610,62564
31.05422,56559
31.06235,53380
31.07047,66101
31.07860,55783
31.08672,55845
31.09483,55756
31.10297,55247
31.11108,61104
31.11920,54962
31.12733,55181
31.13545,55259
31.14358,54164
31.15170,48753
31.15982,50659
31.16795,55125
31.17607,54204
31.18420,57201
31.19232,53879
31.20043,56262
31.20857,56337
31.21668,58922
31.22480,57250
31.23293,51959
31.24105,48365
31.24918,54847
31.25730,52852
31.26542,51785
31.27355,54661
31.28167,52998
31.28980,55362
31.29792,53879
31.30603,64040
31.31417,61715
31.32228,71143
31.33042,82920
31.33853,89600
31.34665,104320
31.35478,109395
31.36290,114772
31.37102,99644
31.37915,96434
31.38727,81622
31.39540,69802
31.40352,71408
31.41163,63295
31.41977,62642
31.42788,69894
31.43602,58333
31.44413,55600
31.45225,60123
31.46038,62488
31.46850,58214
31.47663,61226
31.48475,56143
31.49287,56702
31.50100,59943
31.50912,56349
31.51723,58183
31.52537,59680
31.53348,63133
31.54162,60970
31.54973,65054
31.55785,61755
31.56598,70563
31.57410,60972
31.58223,55870
31.59035,52473
31.59847,60436
31.60660,58430
31.61472,60285
31.62283,73314
31.63097,91269
31.63908,116299
31.64722,138498
31.65533,169346
31.66345,169740
31.67158,169209
31.67970,160949
31.68783,122414
31.69595,97096
31.70407,79565
31.71220,69312
31.72032,59530
31.72845,67964
31.73657,64888
31.74468,65691
31.75282,70527
31.76093,64658
31.76905,55715
31.77718,57742
31.78530,59212
31.79343,59666
31.80155,55617
31.80967,57370
31.81780,58468
31.82592,56931
31.83405,58467
31.84217,55207
31.85028,55726
31.85842,53586
31.86653,58829
31.87467,55256
31.88278,54567
31.89090,55808
31.89903,53316
31.90715,58626
31.91527,62850
31.92340,56769
31.93152,58123
31.93965,57250
31.94777,56002
31.95588,54702
31.96402,58620
31.97213,55869
31.98027,64249
31.98838,61646
31.99650,53567
32.00463,56681
32.01275,57444
32.02088,55509
32.02900,55300
32.03712,52269
32.04525,53407
32.05337,55492
32.06148,61582
32.06962,57808
32.07773,54095
32.08587,58848
32.09398,58943
32.10210,58293
32.11023,60889
32.11835,65372
32.12648,58455
32.13460,57851
32.14272,63182
32.15085,59998
32.15897,58121
32.16708,63012
32.17522,62028
32.18333,68643
32.19147,58275
32.19958,55023
32.20770,68222
32.21583,64210
32.22395,55889
32.23208,62008
32.24020,61858
32.24832,70916
32.25645,74483
32.26457,85851
32.27270,98690
32.28082,102667
32.28893,108034
32.29707,111503
32.30518,112815
32.31330,112325
32.32143,108117
32.32955,108425
32.33768,108050
32.34580,99874
32.35392,101682
32.36205,102270
32.37017,98884
32.37830,93757
32.38642,91944
32.39453,105401
32.40267,111269
32.41078,111076
32.41892,115179
32.42703,120868
32.43515,111403
32.44328,110082
32.45140,103125
32.45952,94380
32.46765,86484
32.47577,74679
32.48390,72664
32.49202,74670
32.50013,69515
32.50827,71837
32.51638,68404
32.52452,65059
32.53263,65292
32.54075,64561
32.54888,67989
32.55700,65760
32.56512,63909
32.57325,62649
32.58137,67297
32.58950,64187
32.59762,66385
32.60573,68876
32.61387,62915
32.62198,61103
32.63012,60262
32.63823,63288
32.64635,61999
32.65448,61782
32.66260,62232
32.67073,65091
32.67885,56993
32.68697,63801
32.69510,60362
32.70322,67393
32.71133,57570
32.71947,64413
32.72758,63404
32.73572,55986
32.74383,61920
32.75195,62589
32.76008,56122
32.76820,60034
32.77633,59472
32.78445,62890
32.79257,66099
32.80070,60148
32.80882,65794
32.81695,60485
32.82507,69885
32.83318,69855
32.84132,65227
32.84943,62288
32.85755,63568
32.86568,60992
32.87380,60446
32.88193,61784
32.89005,62163
32.89817,70156
32.90630,58366
32.91442,62959
32.92255,62943
32.93067,59172
32.93878,63272
32.94692,66101
32.95503,73831
32.96315,65721
32.97128,63895
32.97940,68006
32.98753,72703
32.99565,73714
33.00377,86765
33.01190,74174
33.02002,65675
33.02815,67110
33.03627,59513
33.04438,58670
33.05252,59991
33.06063,57356
33.06877,59051
33.07688,66415
33.08500,59242
33.09313,64247
33.10125,59106
33.10937,62012
33.11750,59079
33.12562,70775
33.13375,63216
33.14187,61765
33.14998,57715
33.15812,61670
33.16623,67806
33.17437,62845
33.18248,58053
33.19060,64435
33.19873,60700
33.20685,61009
33.21498,63807
33.22310,64348
33.23122,66083
33.23935,66993
33.24747,63719
33.25558,65644
33.26372,61821
33.27183,65002
33.27997,63209
33.28808,61003
33.29620,61239
33.30433,58027
33.31245,66490
33.32058,56870
33.32870,58634
33.33682,54830
33.34495,59158
33.35307,56227
33.36120,60103
33.36932,57486
33.37743,57275
33.38557,65892
33.39368,55658
33.40180,58458
33.40993,59245
33.41805,57533
33.42618,58663
33.43430,58672
33.44242,68000
33.45055,64127
33.45867,56740
33.46680,65522
33.47492,65502
33.48303,66641
33.49117,60595
33.49928,57593
33.50740,64900
33.51553,67089
33.52365,69674
33.53178,65937
33.53990,65342
33.54802,65473
33.55615,56575
33.56427,59755
33.57240,62967
33.58052,61647
33.58863,57785
33.59677,63091
33.60488,62563
33.61302,62820
33.62113,63083
33.62925,66707
33.63738,75120
33.64550,83841
33.65362,97796
33.66175,99542
33.66987,110709
33.67800,89557
33.68612,81188
33.69423,71702
33.70237,70234
33.71048,65612
33.71862,63968
33.72673,63951
33.73485,60734
33.74298,64717
33.75110,63231
33.75923,62660
33.76735,59075
33.77547,61681
33.78360,66664
33.79172,63406
33.79983,64004
33.80797,64911
33.81608,65436
33.82422,69210
33.83233,64908
33.84045,60463
33.84858,63365
33.85670,66186
33.86483,63815
33.87295,68176
33.88107,61578
33.88920,64264
33.89732,63819
33.90543,62243
33.91357,64674
33.92168,61824
33.92982,63399
33.93793,62856
33.94605,62375
33.95418,64708
33.96230,59892
33.97043,60682
33.97855,63776
33.98667,66625
33.99480,75648
34.00292,63483
34.01105,64054
34.01917,63195
34.02728,60409
34.03542,63786
34.04353,61929
34.05165,63909
34.05978,68314
34.06790,66295
34.07603,64128
34.08415,65927
34.09227,63236
34.10040,67611
34.10852,78393
34.11665,77094
34.12477,69706
34.13288,64734
34.14102,63428
34.14913,60833
34.15727,65942
34.16538,68177
34.17350,65272
34.18163,65826
34.18975,75152
34.19787,66178
34.20600,67590
34.21412,64638
34.22225,64226
34.23037,66974
34.23848,70334
34.24662,71807
34.25473,68942
34.26287,64792
34.27098,68193
34.27910,67915
34.28723,64661
34.29535,66923
34.30347,67125
34.31160,70053
34.31972,63525
34.32785,64497
34.33597,65686
34.34408,67055
34.35222,65301
34.36033,65804
34.36847,64119
34.37658,66780
34.38470,71588
34.39283,70845
34.40095,74556
34.40908,74142
34.41720,79863
34.42532,82933
34.43345,73217
34.44157,74075
34.44968,70162
34.45782,77066
34.46593,70775
34.47407,65804
34.48218,66288
34.49030,67925
34.49843,67987
34.50655,67758
34.51468,69148
34.52280,65691
34.53092,69813
34.53905,67808
34.54717,70751
34.55530,79088
34.56342,79028
34.57153,84876
34.57967,88216
34.58778,89976
34.59590,93015
34.60403,82301
34.61215,81683
34.62028,75272
34.62840,75216
34.63652,74670
34.64465,80417
34.65277,72563
34.66090,77575
34.66902,71853
34.67713,71259
34.68527,78227
34.69338,75411
34.70152,69959
34.70963,79828
34.71775,67467
34.72588,67191
34.73400,79055
34.74212,78938
34.75025,65244
34.75837,69079
34.76650,69491
34.77462,67778
34.78273,66065
34.79087,66476
34.79898,70117
34.80712,72129
34.81523,67164
34.82335,66447
34.83148,74114
34.83960,74815
34.84772,74770
34.85585,82256
34.86397,89690
34.87210,102497
34.88022,115196
34.88833,122696
34.89647,129487
34.90458,125247
34.91272,118587
34.92083,111178
34.92895,115589
34.93708,101978
34.94520,94623
34.95333,86310
34.96145,83358
34.96957,85509
34.97770,80948
34.98582,92270
34.99393,83484
35.00207,85134
35.01018,78342
35.01832,74821
35.02643,79231
35.03455,76848
35.04268,75964
35.05080,75113
35.05893,77167
35.06705,72586
35.07517,76409
35.08330,74052
35.09142,85309
35.09955,71342
35.10767,71292
35.11578,72371
35.12392,77246
35.13203,75206
35.14015,72168
35.14828,74682
35.15640,67928
35.16453,71525
35.17265,79522
35.18077,69831
35.18890,69307
35.19702,73904
35.20515,74911
35.21327,72566
35.22138,76736
35.22952,71882
35.23763,76671
35.24575,75244
35.25388,71946
35.26200,72157
35.27013,73838
35.27825,71873
35.28637,74159
35.29450,75680
35.30262,73749
35.31075,72362
35.31887,67798
35.32698,73358
35.33512,70950
35.34323,71440
35.35137,79479
35.35948,71418
35.36760,75725
35.37573,73684
35.38385,71298
35.39197,71667
35.40010,73724
35.40822,74752
35.41635,73635
35.42447,76305
35.43258,76418
35.44072,77934
35.44883,76927
35.45697,88325
35.46508,89082
35.47320,79321
35.48133,85783
35.48945,79656
35.49758,85215
35.50570,80123
35.51382,85257
35.52195,93791
35.53007,80321
35.53818,81398
35.54632,76359
35.55443,81650
35.56257,84715
35.57068,81065
35.57880,83043
35.58693,80968
35.59505,81031
35.60318,93313
35.61130,80799
35.61942,74605
35.62755,88985
35.63567,81936
35.64378,85731
35.65192,81171
35.66003,80155
35.66817,78129
35.67628,81499
35.68440,81033
35.69253,90890
35.70065,77946
35.70878,83485
35.71690,80777
35.72502,81221
35.73315,79509
35.74127,79197
35.74940,75913
35.75752,81686
35.76563,81116
35.77377,80176
35.78188,81023
35.79000,85163
35.79813,80858
35.80625,80341
35.81438,82003
35.82250,90308
35.83062,80273
35.83875,86408
35.84687,81511
35.85500,78986
35.86312,76598
35.87123,74901
35.87937,74193
35.88748,72972
35.89562,76104
35.90373,77734
35.91185,78544
35.91998,83016
35.92810,82085
35.93622,76297
35.94435,78046
35.95247,77485
35.96060,76744
35.96872,84369
35.97683,84266
35.98497,84642
35.99308,89266
36.00122,98794
36.00933,92549
36.01745,90923
36.02558,86876
36.03370,85123
36.04183,84599
36.04995,83566
36.05807,80609
36.06620,85245
36.07432,83048
36.08243,82483
36.09057,79313
36.09868,81984
36.10682,87582
36.11493,82450
36.12305,81506
36.13118,94037
36.13930,81290
36.14743,84518
36.15555,82126
36.16367,82193
36.17180,82815
36.17992,79900
36.18803,80505
36.19617,85662
36.20428,85961
36.21242,85826
36.22053,83299
36.22865,90767
36.23678,91638
36.24490,85387
36.25303,88302
36.26115,91628
36.26927,86136
36.27740,97828
36.28552,83637
36.29365,85541
36.30177,81127
36.30988,81970
36.31802,84358
36.32613,81098
36.33425,88380
36.34238,85460
36.35050,83323
36.35863,85127
36.36675,80735
36.37487,87921
36.38300,82374
36.39112,95008
36.39925,81844
36.40737,84671
36.41548,83720
36.42362,84025
36.43173,82723
36.43987,80226
36.44798,76540
36.45610,83882
36.46423,79049
36.47235,78143
36.48047,81374
36.48860,83318
36.49672,90983
36.50485,80917
36.51297,81170
36.52108,93327
36.52922,85974
36.53733,87407
36.54547,90801
36.55358,83347
36.56170,92999
36.56983,95491
36.57795,84576
36.58607,88998
36.59420,94502
36.60232,93171
36.61045,91002
36.61857,92008
36.62668,93139
36.63482,100286
36.64293,98420
36.65107,104973
36.65918,97841
36.66730,97279
36.67543,96138
36.68355,97518
36.69168,94243
36.69980,96615
36.70792,88709
36.71605,91498
36.72417,86673
36.73228,83934
36.74042,87932
36.74853,88178
36.75667,89460
36.76478,84784
36.77290,85537
36.78103,94140
36.78915,84017
36.79728,84367
36.80540,88250
36.81352,89295
36.82165,93632
36.82977,87660
36.83790,89998
36.84602,90400
36.85413,91119
36.86227,86026
36.87038,98786
36.87850,99938
36.88663,89022
36.89475,87784
36.90288,90255
36.91100,87230
36.91912,90467
36.92725,88989
36.93537,97022
36.94350,103748
36.95162,114773
36.95973,140280
36.96787,184310
36.97598,224574
36.98410,289971
36.99223,334906
37.00035,327111
37.00848,279191
37.01660,217428
37.02472,171978
37.03285,129895
37.04097,113597
37.04910,107195
37.05722,104456
37.06533,108553
37.07347,97079
37.08158,98300
37.08972,95239
37.09783,95455
37.10595,107780
37.11408,99917
37.12220,96561
37.13032,96770
37.13845,102495
37.14657,97747
37.15470,107256
37.16282,100490
37.17093,102676
37.17907,99492
37.18718,96983
37.19532,95081
37.20343,96639
37.21155,89309
37.21968,95847
37.22780,94414
37.23593,94574
37.24405,105510
37.25217,98086
37.26030,98313
37.26842,101862
37.27653,94063
37.28467,93956
37.29278,98458
37.30092,90131
37.30903,96176
37.31715,96693
37.32528,92372
37.33340,97803
37.34153,94564
37.34965,95783
37.35777,91896
37.36590,93622
37.37402,96526
37.38215,94358
37.39027,104085
37.39838,95497
37.40652,98676
37.41463,93535
37.42275,99401
37.43088,101803
37.43900,103194
37.44713,96013
37.45525,96035
37.46337,97668
37.47150,94072
37.47962,98917
37.48775,97189
