Z:\data\JTB-E02\BACandBLUE\JTB-E02-190-13.D Tue Dec 11 17:19:15 2018
Start of data points
2.09517	79265
2.10328	80082
2.11142	79447
2.11953	77414
2.12765	79710
2.13578	84284
2.14390	85006
2.15203	89805
2.16015	81917
2.16827	84569
2.17640	84886
2.18452	83450
2.19263	79402
2.20077	74090
2.20888	75955
2.21702	73061
2.22513	73321
2.23325	72955
2.24138	68990
2.24950	66887
2.25763	65294
2.26575	96352
2.27387	443892
2.28200	1158415
2.29012	1300128
2.29823	686030
2.30637	404551
2.31448	314317
2.32262	274463
2.33073	231463
2.33885	218302
2.34698	200057
2.35510	183998
2.36323	182286
2.37135	170012
2.37947	167349
2.38760	165969
2.39572	161940
2.40385	158806
2.41197	155861
2.42008	152985
2.42822	152736
2.43633	149190
2.44445	149962
2.45258	141061
2.46070	138855
2.46883	137820
2.47695	135841
2.48507	127063
2.49320	132897
2.50132	141910
2.50945	139311
2.51757	131441
2.52568	125867
2.53382	129643
2.54193	128528
2.55005	127444
2.55818	143672
2.56630	145599
2.57443	132786
2.58255	122448
2.59067	127109
2.59880	121522
2.60692	177579
2.61505	368949
2.62317	462452
2.63128	319897
2.63942	217137
2.64753	177940
2.65567	161642
2.66378	146553
2.67190	135358
2.68003	136466
2.68815	123745
2.69627	122061
2.70440	122440
2.71252	119400
2.72065	114767
2.72877	111108
2.73688	109870
2.74502	111228
2.75313	105731
2.76127	110554
2.76938	125869
2.77750	462535
2.78563	2028634
2.79375	3730813
2.80188	3000560
2.81000	1622847
2.81812	1073216
2.82625	877272
2.83437	705496
2.84248	543397
2.85062	450096
2.85873	389880
2.86687	339686
2.87498	301152
2.88310	270600
2.89123	245357
2.89935	229920
2.90748	216859
2.91560	203259
2.92372	185231
2.93185	179872
2.93997	173410
2.94808	165899
2.95622	159623
2.96433	162509
2.97247	177272
2.98058	164314
2.98870	155593
2.99683	161304
3.00495	154538
3.01308	153261
3.02120	148127
3.02932	148087
3.03745	136290
3.04557	137473
3.05370	125282
3.06182	133290
3.06993	129541
3.07807	138504
3.08618	266018
3.09430	701970
3.10243	1702384
3.11055	3721074
3.11868	5351166
3.12680	4328790
3.13492	2660269
3.14305	1724025
3.15117	1284935
3.15930	1014820
3.16742	877934
3.17553	903788
3.18367	1294138
3.19178	3191163
3.19992	6270023
3.20803	6622488
3.21615	4580034
3.22428	3060131
3.23240	2281227
3.24052	1803803
3.24865	1475412
3.25677	1236714
3.26490	1067741
3.27302	921332
3.28113	816194
3.28927	847302
3.29738	1466347
3.30552	3387657
3.31363	5974655
3.32175	6767832
3.32988	5338253
3.33800	3543112
3.34612	2419833
3.35425	1804870
3.36237	1466464
3.37050	1235171
3.37862	1066072
3.38673	923101
3.39487	839869
3.40298	770479
3.41112	691109
3.41923	646816
3.42735	623355
3.43548	609986
3.44360	643406
3.45173	624173
3.45985	573329
3.46797	682531
3.47610	927923
3.48422	1012636
3.49233	828088
3.50047	623828
3.50858	502446
3.51672	454516
3.52483	431073
3.53295	436462
3.54108	486530
3.54920	545369
3.55733	501694
3.56545	430259
3.57357	374715
3.58170	345538
3.58982	334854
3.59793	319798
3.60607	299538
3.61418	303113
3.62232	297563
3.63043	302789
3.63855	311164
3.64668	315163
3.65480	401765
3.66293	1916462
3.67105	1.146736E+07
3.67917	3.246896E+07
3.68730	4.871957E+07
3.69542	4.946874E+07
3.70355	3.780466E+07
3.71167	2.519672E+07
3.71978	1.87542E+07
3.72792	1.500862E+07
3.73603	1.238917E+07
3.74415	1.049161E+07
3.75228	8975408
3.76040	7842092
3.76853	6893707
3.77665	6133312
3.78477	5495394
3.79290	4990382
3.80102	4615438
3.80915	4557595
3.81727	4757989
3.82538	5077536
3.83352	4669577
3.84163	4029440
3.84977	3580915
3.85788	3219175
3.86600	2978849
3.87413	2769783
3.88225	2623058
3.89037	2489226
3.89850	2343021
3.90662	2210986
3.91475	2176416
3.92287	2398339
3.93098	2954590
3.93912	3275342
3.94723	3009744
3.95537	2521941
3.96348	2382562
3.97160	2379191
3.97973	2326950
3.98785	2036989
3.99598	1752085
4.00410	1736539
4.01222	2061402
4.02035	2454248
4.02847	2478372
4.03658	2062102
4.04472	1652627
4.05283	1435039
4.06097	1281193
4.06908	1194024
4.07720	1159914
4.08533	1104847
4.09345	1101338
4.10158	1067872
4.10970	1023917
4.11782	978735
4.12595	959774
4.13407	926265
4.14218	897037
4.15032	906461
4.15843	919372
4.16657	913159
4.17468	898625
4.18280	908142
4.19093	883931
4.19905	870925
4.20718	1003868
4.21530	2341192
4.22342	7128120
4.23155	1.595555E+07
4.23967	2.440859E+07
4.24780	3.044285E+07
4.25592	3.477648E+07
4.26403	3.611902E+07
4.27217	3.033608E+07
4.28028	1.673385E+07
4.28840	1.002002E+07
4.29653	7513741
4.30465	5914444
4.31278	4906577
4.32090	4178807
4.32902	3599104
4.33715	3129577
4.34527	2776752
4.35340	2526534
4.36152	2411241
4.36963	2458309
4.37777	2524988
4.38588	2365161
4.39400	2044779
4.40213	1764761
4.41025	1536106
4.41838	1406217
4.42650	1320030
4.43462	1236824
4.44275	1164178
4.45087	1089894
4.45900	1036466
4.46712	997293
4.47523	952563
4.48337	919015
4.49148	881700
4.49962	853273
4.50773	824711
4.51585	817849
4.52398	797014
4.53210	781367
4.54022	776710
4.54835	789212
4.55647	835735
4.56460	840673
4.57272	767665
4.58083	708652
4.58897	666339
4.59708	655582
4.60522	642736
4.61333	629871
4.62145	664900
4.62958	880472
4.63770	1501116
4.64583	2373483
4.65395	2785057
4.66207	2462259
4.67020	1808441
4.67832	1350047
4.68643	1147691
4.69457	996783
4.70268	883659
4.71082	754095
4.71893	666296
4.72705	636141
4.73518	600538
4.74330	566436
4.75143	563708
4.75955	543650
4.76767	519859
4.77580	508405
4.78392	500578
4.79203	523982
4.80017	617209
4.80828	799527
4.81642	890043
4.82453	840745
4.83265	738630
4.84078	701408
4.84890	770802
4.85703	880283
4.86515	888423
4.87327	767653
4.88140	644238
4.88952	570608
4.89765	536241
4.90577	496709
4.91388	474387
4.92202	453864
4.93013	463503
4.93825	472822
4.94638	598263
4.95450	946069
4.96263	1502093
4.97075	2050857
4.97887	2177043
4.98700	1886102
4.99512	1518880
5.00325	1173176
5.01137	968304
5.01948	904652
5.02762	950885
5.03573	1332593
5.04387	1886057
5.05198	2223071
5.06010	2049327
5.06823	1665839
5.07635	1334794
5.08447	1133576
5.09260	1022903
5.10072	912109
5.10885	863349
5.11697	801336
5.12508	735181
5.13322	703752
5.14133	674337
5.14947	692721
5.15758	826264
5.16570	1109845
5.17383	1389363
5.18195	1448373
5.19007	1269703
5.19820	1112010
5.20632	1128848
5.21445	1232051
5.22257	1281991
5.23068	1161338
5.23882	989933
5.24693	867531
5.25507	756745
5.26318	652722
5.27130	608514
5.27943	505439
5.28755	479518
5.29568	465525
5.30380	445663
5.31192	437430
5.32005	423546
5.32817	428097
5.33628	436045
5.34442	466868
5.35253	482540
5.36067	475325
5.36878	422475
5.37690	406862
5.38503	402525
5.39315	431858
5.40128	495340
5.40940	544555
5.41752	530884
5.42565	483488
5.43377	435013
5.44188	409301
5.45002	444503
5.45813	519906
5.46627	578450
5.47438	591675
5.48250	518239
5.49063	431856
5.49875	378841
5.50688	351950
5.51500	348530
5.52312	370773
5.53125	351232
5.53937	368220
5.54750	369519
5.55562	436334
5.56373	688347
5.57187	1164223
5.57998	1627755
5.58810	1752517
5.59623	1457761
5.60435	1038719
5.61248	722351
5.62060	556749
5.62872	459616
5.63685	421236
5.64497	376943
5.65310	366934
5.66122	345879
5.66933	340049
5.67747	339210
5.68558	371980
5.69372	436383
5.70183	496594
5.70995	527711
5.71808	495681
5.72620	452248
5.73432	391716
5.74245	346671
5.75057	332624
5.75870	307645
5.76682	288749
5.77493	290058
5.78307	282393
5.79118	288152
5.79932	283875
5.80743	278310
5.81555	274566
5.82368	269923
5.83180	273423
5.83992	277975
5.84805	264999
5.85617	270763
5.86430	261816
5.87242	261986
5.88053	253740
5.88867	248252
5.89678	249972
5.90492	258899
5.91303	274603
5.92115	310829
5.92928	338924
5.93740	336157
5.94553	321080
5.95365	338873
5.96177	404668
5.96990	493495
5.97802	647675
5.98613	821235
5.99427	1029482
6.00238	1128395
6.01052	1091264
6.01863	898489
6.02675	678358
6.03488	493708
6.04300	390060
6.05113	335801
6.05925	306109
6.06737	279378
6.07550	259307
6.08362	256653
6.09175	264264
6.09987	239527
6.10798	241600
6.11612	243808
6.12423	297753
6.13235	530968
6.14048	1082566
6.14860	1798332
6.15673	2190998
6.16485	1948371
6.17297	1429746
6.18110	974251
6.18922	735578
6.19735	584871
6.20547	515374
6.21358	439719
6.22172	418866
6.22983	374808
6.23795	364830
6.24608	383678
6.25420	388473
6.26233	449978
6.27045	486454
6.27857	468522
6.28670	425824
6.29482	381213
6.30295	338020
6.31107	324802
6.31918	328368
6.32732	327453
6.33543	335410
6.34357	345413
6.35168	360677
6.35980	339064
6.36793	321102
6.37605	305950
6.38417	305653
6.39230	297291
6.40042	302996
6.40855	292861
6.41667	279761
6.42478	271055
6.43292	276320
6.44103	276124
6.44917	276579
6.45728	286317
6.46540	298805
6.47353	303882
6.48165	294253
6.48978	282664
6.49790	294682
6.50602	295513
6.51415	302860
6.52227	304674
6.53038	299053
6.53852	292312
6.54663	295602
6.55477	301798
6.56288	347511
6.57100	537217
6.57913	905566
6.58725	1323628
6.59538	1485521
6.60350	1245402
6.61162	863498
6.61975	592446
6.62787	450229
6.63598	372676
6.64412	302773
6.65223	267698
6.66037	255379
6.66848	258443
6.67660	256056
6.68473	253472
6.69285	231190
6.70098	212433
6.70910	195831
6.71722	205215
6.72535	195492
6.73347	186972
6.74160	188288
6.74972	178890
6.75783	183813
6.76597	179188
6.77408	181350
6.78220	182693
6.79033	178273
6.79845	179319
6.80658	163622
6.81470	161394
6.82282	155329
6.83095	147940
6.83907	157280
6.84720	163376
6.85532	168662
6.86343	186846
6.87157	205796
6.87968	235092
6.88780	240749
6.89593	217979
6.90405	194414
6.91218	167957
6.92030	151331
6.92842	141867
6.93655	143794
6.94467	130969
6.95280	133101
6.96092	136753
6.96903	138878
6.97717	161649
6.98528	176026
6.99342	193720
7.00153	190173
7.00965	171263
7.01778	162383
7.02590	165930
7.03402	161086
7.04215	155460
7.05027	143358
7.05840	144570
7.06652	172212
7.07463	218565
7.08277	300245
7.09088	368749
7.09902	383033
7.10713	353218
7.11525	300335
7.12338	233379
7.13150	197298
7.13963	185254
7.14775	200566
7.15587	234592
7.16400	277305
7.17212	352277
7.18023	584454
7.18837	1420436
7.19648	3519585
7.20462	6848436
7.21273	9927181
7.22085	1.066261E+07
7.22898	8362298
7.23710	4827245
7.24523	2236803
7.25335	860651
7.26147	380452
7.26960	231307
7.27772	191147
7.28583	187673
7.29397	186151
7.30208	188992
7.31022	181612
7.31833	183328
7.32645	190442
7.33458	204069
7.34270	255111
7.35083	292407
7.35895	343730
7.36707	358331
7.37520	326148
7.38332	275780
7.39145	230640
7.39957	206982
7.40768	179578
7.41582	161412
7.42393	150453
7.43205	152939
7.44018	146553
7.44830	142490
7.45643	140266
7.46455	141130
7.47267	153391
7.48080	163129
7.48892	157877
7.49705	149316
7.50517	136560
7.51328	131626
7.52142	133103
7.52953	150909
7.53767	220860
7.54578	412714
7.55390	910360
7.56203	1954756
7.57015	3456929
7.57827	5196999
7.58640	6488726
7.59452	6755163
7.60265	5936938
7.61077	4408903
7.61888	2974200
7.62702	1867392
7.63513	1137696
7.64327	770635
7.65138	550737
7.65950	432722
7.66763	337520
7.67575	259501
7.68387	214724
7.69200	179226
7.70012	160524
7.70825	159067
7.71637	186244
7.72448	241111
7.73262	303683
7.74073	370259
7.74887	396492
7.75698	400391
7.76510	365931
7.77323	331325
7.78135	305725
7.78948	280782
7.79760	273688
7.80572	283743
7.81385	317260
7.82197	355472
7.83008	369087
7.83822	347784
7.84633	291599
7.85447	241164
7.86258	227573
7.87070	222653
7.87883	239396
7.88695	283448
7.89508	358825
7.90320	420754
7.91132	465824
7.91945	448622
7.92757	361958
7.93568	307654
7.94382	281880
7.95193	308973
7.96007	321545
7.96818	321178
7.97630	291435
7.98443	248857
7.99255	213680
8.00068	175586
8.00880	158458
8.01692	141384
8.02505	138313
8.03317	127158
8.04130	129018
8.04942	126471
8.05753	123597
8.06567	122918
8.07378	124689
8.08190	124935
8.09003	117877
8.09815	110791
8.10628	106699
8.11440	107201
8.12252	108043
8.13065	124732
8.13877	161550
8.14690	246364
8.15502	348722
8.16313	418530
8.17127	406975
8.17938	338420
8.18752	249914
8.19563	202553
8.20375	160831
8.21188	142377
8.22000	132592
8.22812	121110
8.23625	117963
8.24437	106575
8.25250	106403
8.26062	109156
8.26873	98026
8.27687	100650
8.28498	91790
8.29312	92406
8.30123	92939
8.30935	92486
8.31748	102729
8.32560	104879
8.33373	113025
8.34185	116562
8.34997	125168
8.35810	118285
8.36622	107435
8.37433	97843
8.38247	90696
8.39058	93095
8.39872	88367
8.40683	86966
8.41495	84063
8.42308	85372
8.43120	80420
8.43933	84631
8.44745	84157
8.45557	81740
8.46370	83156
8.47182	81342
8.47993	80453
8.48807	71390
8.49618	76950
8.50432	75507
8.51243	87938
8.52055	123032
8.52868	194826
8.53680	277651
8.54493	308395
8.55305	288821
8.56117	216410
8.56930	149404
8.57742	106445
8.58555	87073
8.59367	92615
8.60178	95569
8.60992	101777
8.61803	128890
8.62615	149715
8.63428	188143
8.64240	199440
8.65053	193100
8.65865	168325
8.66677	134861
8.67490	108891
8.68302	87763
8.69115	86912
8.69927	74768
8.70738	82789
8.71552	74513
8.72363	75940
8.73175	78686
8.73988	79404
8.74800	82506
8.75613	77005
8.76425	83095
8.77237	98652
8.78050	133936
8.78862	207550
8.79675	323707
8.80487	422306
8.81298	466076
8.82112	416141
8.82923	349858
8.83737	286075
8.84548	240924
8.85360	225058
8.86173	210714
8.86985	198179
8.87797	191766
8.88610	174666
8.89422	168976
8.90235	168434
8.91047	160598
8.91858	184621
8.92672	241996
8.93483	347594
8.94297	443667
8.95108	472858
8.95920	388072
8.96733	305633
8.97545	254222
8.98358	253684
8.99170	293110
8.99982	333209
9.00795	332524
9.01607	293986
9.02418	242096
9.03232	196671
9.04043	163044
9.04857	143674
9.05668	147444
9.06480	143600
9.07293	135197
9.08105	132401
9.08918	138392
9.09730	160184
9.10542	203042
9.11355	287787
9.12167	406419
9.12978	477379
9.13792	487117
9.14603	431911
9.15417	333023
9.16228	243699
9.17040	198763
9.17853	182821
9.18665	160988
9.19478	164222
9.20290	150530
9.21102	142788
9.21915	145586
9.22727	142567
9.23540	142026
9.24352	144406
9.25163	157315
9.25977	138245
9.26788	140103
9.27600	140024
9.28413	123979
9.29225	125070
9.30038	125485
9.30850	121506
9.31662	121160
9.32475	115703
9.33287	124592
9.34100	114525
9.34912	121194
9.35723	107013
9.36537	109560
9.37348	110939
9.38162	110333
9.38973	120488
9.39785	143428
9.40598	190819
9.41410	258680
9.42222	325582
9.43035	401363
9.43847	461751
9.44660	523696
9.45472	576291
9.46283	557316
9.47097	485858
9.47908	377568
9.48722	288208
9.49533	209907
9.50345	175794
9.51158	171672
9.51970	197435
9.52782	227534
9.53595	242868
9.54407	253022
9.55220	244999
9.56032	221747
9.56843	181489
9.57657	151501
9.58468	135404
9.59282	122237
9.60093	110095
9.60905	111554
9.61718	115559
9.62530	101427
9.63343	96804
9.64155	88939
9.64967	90781
9.65780	90947
9.66592	89096
9.67403	86641
9.68217	89390
9.69028	90487
9.69842	89738
9.70653	95678
9.71465	88089
9.72278	91013
9.73090	96191
9.73903	93031
9.74715	94885
9.75527	82984
9.76340	83858
9.77152	77370
9.77963	75496
9.78777	78132
9.79588	73978
9.80402	71615
9.81213	71880
9.82025	71649
9.82838	75383
9.83650	77272
9.84463	76900
9.85275	79376
9.86087	81735
9.86900	77116
9.87712	71019
9.88525	73226
9.89337	70378
9.90148	69304
9.90962	67171
9.91773	71913
9.92585	76763
9.93398	90191
9.94210	120934
9.95023	182158
9.95835	308698
9.96647	485613
9.97460	637531
9.98272	709165
9.99085	632674
9.99897	486138
10.00708	334414
10.01522	221942
10.02333	149117
10.03147	131071
10.03958	135578
10.04770	144570
10.05583	149318
10.06395	158177
10.07207	155088
10.08020	165206
10.08832	160333
10.09645	148153
10.10457	140670
10.11268	133378
10.12082	131627
10.12893	125442
10.13707	119618
10.14518	117894
10.15330	117513
10.16143	112481
10.16955	116122
10.17767	107648
10.18580	108996
10.19392	102160
10.20205	100273
10.21017	104304
10.21828	97926
10.22642	101769
10.23453	97799
10.24267	105266
10.25078	118654
10.25890	193989
10.26703	438921
10.27515	1138686
10.28328	2691935
10.29140	5094213
10.29952	8082104
10.30765	1.149871E+07
10.31577	1.515238E+07
10.32388	1.951358E+07
10.33202	2.537949E+07
10.34013	3.30856E+07
10.34827	4.191793E+07
10.35638	4.84586E+07
10.36450	4.990667E+07
10.37263	4.139796E+07
10.38075	2.452555E+07
10.38888	1.22332E+07
10.39700	7450167
10.40512	5245239
10.41325	3697256
10.42137	2545937
10.42950	1864448
10.43762	1493973
10.44573	1355091
10.45387	1364997
10.46198	1356783
10.47010	1318809
10.47823	1206479
10.48635	1067668
10.49448	900121
10.50260	774810
10.51072	680809
10.51885	615711
10.52697	555863
10.53510	529320
10.54322	515077
10.55133	490210
10.55947	475770
10.56758	481130
10.57570	465631
10.58383	465764
10.59195	440234
10.60008	427679
10.60820	385742
10.61632	372129
10.62445	353272
10.63257	325817
10.64070	318697
10.64882	307539
10.65693	298891
10.66507	279451
10.67318	274639
10.68132	268513
10.68943	265583
10.69755	285920
10.70568	276382
10.71380	291320
10.72192	302005
10.73005	291820
10.73817	287125
10.74630	278510
10.75442	264665
10.76253	257916
10.77067	235452
10.77878	230210
10.78692	222931
10.79503	216709
10.80315	218165
10.81128	225920
10.81940	256503
10.82753	273693
10.83565	271335
10.84377	263616
10.85190	244000
10.86002	209594
10.86813	183307
10.87627	179304
10.88438	174639
10.89252	171487
10.90063	171667
10.90875	165935
10.91688	159663
10.92500	163157
10.93313	167282
10.94125	163558
10.94937	165886
10.95750	160680
10.96562	149581
10.97373	150089
10.98187	153452
10.98998	152371
10.99812	162210
11.00623	165075
11.01435	172969
11.02248	172540
11.03060	184510
11.03873	186349
11.04685	177262
11.05497	164633
11.06310	159354
11.07122	157388
11.07935	186427
11.08747	206527
11.09558	229828
11.10372	245295
11.11183	228638
11.11995	214829
11.12808	190287
11.13620	175430
11.14433	151844
11.15245	154944
11.16057	136184
11.16870	120752
11.17682	127720
11.18495	126709
11.19307	116756
11.20118	112195
11.20932	105442
11.21743	100817
11.22555	95570
11.23368	93317
11.24180	92265
11.24993	97615
11.25805	87426
11.26617	79733
11.27430	77506
11.28242	80938
11.29055	78796
11.29867	82506
11.30678	113997
11.31492	222383
11.32303	514245
11.33117	1159674
11.33928	2194721
11.34740	3499429
11.35553	4529252
11.36365	4773763
11.37177	4364775
11.37990	3509272
11.38802	2536597
11.39615	1844549
11.40427	1423277
11.41238	1131104
11.42052	946298
11.42863	769892
11.43677	636651
11.44488	527464
11.45300	444468
11.46113	391532
11.46925	340726
11.47738	314886
11.48550	306697
11.49362	326450
11.50175	391282
11.50987	465277
11.51798	530184
11.52612	578321
11.53423	579294
11.54237	515303
11.55048	465081
11.55860	418751
11.56673	376057
11.57485	345868
11.58298	340253
11.59110	350403
11.59922	398462
11.60735	521653
11.61547	694464
11.62358	843707
11.63172	895084
11.63983	784639
11.64797	620885
11.65608	443905
11.66420	317864
11.67233	254662
11.68045	200201
11.68858	186194
11.69670	175384
11.70482	190560
11.71295	171003
11.72107	171295
11.72920	174187
11.73732	168049
11.74543	161460
11.75357	142304
11.76168	126692
11.76980	122069
11.77793	113282
11.78605	110182
11.79418	109763
11.80230	101760
11.81042	102313
11.81855	98850
11.82667	92754
11.83480	94266
11.84292	94208
11.85103	91750
11.85917	93709
11.86728	90782
11.87542	83112
11.88353	94041
11.89165	84388
11.89978	79208
11.90790	82649
11.91602	85533
11.92415	86599
11.93227	97548
11.94040	99164
11.94852	101985
11.95663	97254
11.96477	92791
11.97288	82233
11.98102	77407
11.98913	80392
11.99725	67672
12.00538	73971
12.01350	80049
12.02162	76000
12.02975	75641
12.03787	67039
12.04600	72030
12.05412	72296
12.06223	76492
12.07037	81891
12.07848	84373
12.08662	94238
12.09473	99015
12.10285	124697
12.11098	178602
12.11910	337964
12.12723	608954
12.13535	1040280
12.14347	1501090
12.15160	1773196
12.15972	1763527
12.16783	1456442
12.17597	1075465
12.18408	740129
12.19222	567457
12.20033	474141
12.20845	420525
12.21658	385209
12.22470	342198
12.23283	313088
12.24095	289588
12.24907	277137
12.25720	246965
12.26532	247290
12.27343	235291
12.28157	228079
12.28968	217744
12.29782	201825
12.30593	189403
12.31405	181793
12.32218	184149
12.33030	170040
12.33843	172393
12.34655	162851
12.35467	163383
12.36280	158593
12.37092	154837
12.37905	151335
12.38717	154497
12.39528	156947
12.40342	170326
12.41153	223441
12.41965	303712
12.42778	381151
12.43590	435321
12.44403	431103
12.45215	378178
12.46027	299499
12.46840	248553
12.47652	212399
12.48465	177086
12.49277	178808
12.50088	164304
12.50902	155359
12.51713	150583
12.52527	157137
12.53338	168736
12.54150	223785
12.54963	273260
12.55775	354600
12.56587	419215
12.57400	428955
12.58212	381231
12.59025	329158
12.59837	255496
12.60648	202338
12.61462	186209
12.62273	163187
12.63087	152208
12.63898	144272
12.64710	143074
12.65523	136306
12.66335	136731
12.67147	129356
12.67960	125289
12.68772	124863
12.69585	120703
12.70397	121703
12.71208	116954
12.72022	115597
12.72833	116926
12.73647	113506
12.74458	128136
12.75270	121755
12.76083	117817
12.76895	121276
12.77708	112175
12.78520	105636
12.79332	100189
12.80145	97815
12.80957	94680
12.81768	90361
12.82582	85667
12.83393	78882
12.84207	68841
12.85018	65446
12.85830	61884
12.86643	62659
12.87455	65789
12.88268	62940
12.89080	60910
12.89892	62138
12.90705	65226
12.91517	62616
12.92330	61535
12.93142	68239
12.93953	62134
12.94767	59010
12.95578	65029
12.96390	70129
12.97203	74602
12.98015	84160
12.98828	89121
12.99640	89302
13.00452	92859
13.01265	79650
13.02077	69545
13.02890	64982
13.03702	67044
13.04513	62564
13.05327	62554
13.06138	66356
13.06950	61749
13.07763	63467
13.08575	64979
13.09388	74420
13.10200	78521
13.11012	76793
13.11825	72326
13.12637	70804
13.13450	65368
13.14262	72608
13.15073	60617
13.15887	64659
13.16698	68556
13.17512	67299
13.18323	72647
13.19135	76255
13.19948	79194
13.20760	75003
13.21572	76703
13.22385	79821
13.23197	80495
13.24010	87825
13.24822	86600
13.25633	89023
13.26447	98719
13.27258	99021
13.28072	89660
13.28883	88303
13.29695	77331
13.30508	66577
13.31320	65397
13.32132	61381
13.32945	63731
13.33757	56804
13.34570	56481
13.35382	58974
13.36193	61501
13.37007	59028
13.37818	56664
13.38632	55274
13.39443	53465
13.40255	57779
13.41068	54222
13.41880	58996
13.42693	57899
13.43505	56646
13.44317	56666
13.45130	55159
13.45942	61797
13.46753	68794
13.47567	63000
13.48378	62393
13.49192	61981
13.50003	62084
13.50815	64809
13.51628	64616
13.52440	74302
13.53253	82215
13.54065	79714
13.54877	80099
13.55690	74109
13.56502	68924
13.57315	61464
13.58127	70319
13.58938	84592
13.59752	89825
13.60563	115573
13.61375	129681
13.62188	164457
13.63000	163027
13.63813	167447
13.64625	138083
13.65437	122253
13.66250	95486
13.67062	77771
13.67875	68508
13.68687	61582
13.69498	57219
13.70312	52120
13.71123	59545
13.71937	54607
13.72748	52292
13.73560	51141
13.74373	53377
13.75185	68202
13.75997	82886
13.76810	132209
13.77622	181897
13.78435	267513
13.79247	382601
13.80058	549229
13.80872	694502
13.81683	794423
13.82497	905156
13.83308	1037212
13.84120	1210213
13.84933	1385608
13.85745	1383137
13.86557	1271381
13.87370	1049609
13.88182	783425
13.88995	583807
13.89807	408142
13.90618	305427
13.91432	243004
13.92243	190616
13.93057	160039
13.93868	141793
13.94680	129262
13.95493	115470
13.96305	102620
13.97118	100880
13.97930	95161
13.98742	97050
13.99555	91618
14.00367	99183
14.01178	99404
14.01992	108789
14.02803	98065
14.03617	92723
14.04428	84213
14.05240	86880
14.06053	78422
14.06865	77908
14.07678	74306
14.08490	75407
14.09302	72888
14.10115	70383
14.10927	72173
14.11738	65225
14.12552	67953
14.13363	66081
14.14177	68231
14.14988	74315
14.15800	83176
14.16613	90187
14.17425	103645
14.18238	109087
14.19050	108006
14.19862	110361
14.20675	120805
14.21487	139462
14.22300	170896
14.23112	203546
14.23923	229306
14.24737	241851
14.25548	265747
14.26360	289852
14.27173	303220
14.27985	294526
14.28798	251369
14.29610	217394
14.30422	175277
14.31235	152114
14.32047	132752
14.32860	122067
14.33672	113291
14.34483	120345
14.35297	110723
14.36108	115425
14.36922	109342
14.37733	102570
14.38545	105837
14.39358	97312
14.40170	101449
14.40982	132328
14.41795	168951
14.42607	238940
14.43420	284513
14.44232	296510
14.45043	265001
14.45857	215616
14.46668	177645
14.47482	153605
14.48293	137923
14.49105	139717
14.49918	138838
14.50730	135349
14.51542	127727
14.52355	114297
14.53167	106782
14.53980	96671
14.54792	92212
14.55603	92430
14.56417	85884
14.57228	81488
14.58042	76180
14.58853	74671
14.59665	73605
14.60478	61490
14.61290	59925
14.62103	65910
14.62915	59887
14.63727	58963
14.64540	61972
14.65352	61112
14.66163	55500
14.66977	55775
14.67788	53347
14.68602	54552
14.69413	54154
14.70225	52418
14.71038	57047
14.71850	56331
14.72663	54516
14.73475	63913
14.74287	66970
14.75100	66505
14.75912	64693
14.76725	66474
14.77537	76307
14.78348	80623
14.79162	123339
14.79973	289681
14.80785	838284
14.81598	2289670
14.82410	5195435
14.83223	9710305
14.84035	1.571866E+07
14.84847	2.165617E+07
14.85660	2.539707E+07
14.86472	2.503253E+07
14.87285	1.916986E+07
14.88097	1.198635E+07
14.88908	6514627
14.89722	3602808
14.90533	2336943
14.91345	1773823
14.92158	1530093
14.92970	1314374
14.93783	1188564
14.94595	1090869
14.95407	983675
14.96220	898708
14.97032	840119
14.97845	779339
14.98657	728996
14.99468	697475
15.00282	647561
15.01093	620294
15.01907	599438
15.02718	567871
15.03530	525450
15.04343	505639
15.05155	473213
15.05967	457499
15.06780	433844
15.07592	415935
15.08405	397220
15.09217	378408
15.10028	368806
15.10842	360013
15.11653	347506
15.12467	343303
15.13278	357481
15.14090	418947
15.14903	485629
15.15715	530478
15.16527	515241
15.17340	457036
15.18152	353654
15.18965	261870
15.19777	192919
15.20588	155503
15.21402	142927
15.22213	131837
15.23027	115024
15.23838	121193
15.24650	114792
15.25463	109800
15.26275	108454
15.27088	100356
15.27900	104216
15.28712	99259
15.29525	101359
15.30337	95328
15.31148	92511
15.31962	91041
15.32773	84956
15.33587	89383
15.34398	85575
15.35210	80469
15.36023	80889
15.36835	84387
15.37648	90715
15.38460	98823
15.39272	98473
15.40085	99728
15.40897	101513
15.41710	90938
15.42522	87016
15.43333	81309
15.44147	79605
15.44958	79727
15.45770	80883
15.46583	90472
15.47395	105583
15.48208	149549
15.49020	238183
15.49832	368289
15.50645	542880
15.51457	678725
15.52270	741451
15.53082	732305
15.53893	627886
15.54707	520866
15.55518	397566
15.56330	291104
15.57143	226486
15.57955	172057
15.58768	146874
15.59580	127148
15.60392	128892
15.61205	107440
15.62017	99759
15.62830	105512
15.63642	98901
15.64453	94057
15.65267	95965
15.66078	90831
15.66892	90636
15.67703	86210
15.68515	85141
15.69328	81618
15.70140	73971
15.70952	73408
15.71765	71058
15.72577	67232
15.73390	66544
15.74202	67698
15.75013	80080
15.75827	119890
15.76638	222033
15.77452	470154
15.78263	906510
15.79075	1546360
15.79888	2051332
15.80700	2160453
15.81513	2003158
15.82325	1493471
15.83137	946765
15.83950	575591
15.84762	384937
15.85573	277944
15.86387	239886
15.87198	220190
15.88012	197217
15.88823	183248
15.89635	177108
15.90448	161892
15.91260	146638
15.92073	137989
15.92885	141611
15.93697	130944
15.94510	140354
15.95322	126109
15.96133	124758
15.96947	114991
15.97758	118273
15.98572	110409
15.99383	108484
16.00195	113483
16.01008	108331
16.01820	123317
16.02633	133854
16.03445	136764
16.04257	141961
16.05070	142579
16.05882	129377
16.06695	117715
16.07507	109882
16.08318	92137
16.09132	85482
16.09943	85180
16.10755	74329
16.11568	81110
16.12380	88210
16.13193	98668
16.14005	113934
16.14817	137993
16.15630	153024
16.16442	167491
16.17255	162971
16.18067	147434
16.18878	131284
16.19692	121713
16.20503	107589
16.21317	101299
16.22128	100620
16.22940	107462
16.23753	110789
16.24565	101245
16.25377	88310
16.26190	85616
16.27002	81199
16.27815	80464
16.28627	85136
16.29438	97627
16.30252	110233
16.31063	138822
16.31877	141449
16.32688	144829
16.33500	136933
16.34313	123203
16.35125	120600
16.35937	98391
16.36750	97190
16.37562	91905
16.38375	92392
16.39187	93620
16.39998	79942
16.40812	82788
16.41623	81523
16.42437	80662
16.43248	85735
16.44060	95820
16.44873	138100
16.45685	288970
16.46498	749495
16.47310	1768680
16.48122	3342966
16.48935	5185124
16.49747	6413098
16.50558	6497713
16.51372	5310011
16.52183	3699160
16.52997	2203546
16.53808	1230781
16.54620	758973
16.55433	543189
16.56245	461143
16.57058	392819
16.57870	353210
16.58682	325521
16.59495	317227
16.60307	285668
16.61118	266054
16.61932	247340
16.62743	238644
16.63557	208434
16.64368	202156
16.65180	200140
16.65993	177216
16.66805	183198
16.67618	165870
16.68430	164110
16.69242	159361
16.70055	157786
16.70867	149934
16.71680	138598
16.72492	126855
16.73303	111101
16.74117	106286
16.74928	111986
16.75740	117496
16.76553	151585
16.77365	183902
16.78178	194907
16.78990	204415
16.79802	168112
16.80615	136786
16.81427	111322
16.82240	89950
16.83052	81637
16.83863	78097
16.84677	67992
16.85488	72982
16.86302	71546
16.87113	75732
16.87925	65663
16.88738	64238
16.89550	64427
16.90362	62821
16.91175	65072
16.91987	61665
16.92800	64005
16.93612	66830
16.94423	66987
16.95237	67694
16.96048	66991
16.96862	74065
16.97673	69491
16.98485	65821
16.99298	68231
17.00110	71857
17.00922	71602
17.01735	76900
17.02547	69305
17.03360	72023
17.04172	88006
17.04983	114287
17.05797	141195
17.06608	168208
17.07422	175680
17.08233	176859
17.09045	152091
17.09858	123584
17.10670	108483
17.11483	92651
17.12295	90498
17.13107	90603
17.13920	97127
17.14732	97904
17.15543	100535
17.16357	91380
17.17168	93479
17.17982	90489
17.18793	89941
17.19605	84499
17.20418	82589
17.21230	71508
17.22043	69607
17.22855	64287
17.23667	64166
17.24480	65951
17.25292	72535
17.26105	72321
17.26917	76667
17.27728	74170
17.28542	73159
17.29353	70469
17.30165	61804
17.30978	67934
17.31790	76507
17.32603	98814
17.33415	135573
17.34227	191498
17.35040	239338
17.35852	282618
17.36665	291526
17.37477	282239
17.38288	249412
17.39102	220440
17.39913	201760
17.40725	176573
17.41538	169323
17.42350	163706
17.43163	167210
17.43975	169799
17.44787	162597
17.45600	158214
17.46412	150957
17.47225	141805
17.48037	128455
17.48848	121644
17.49662	109245
17.50473	104075
17.51287	100841
17.52098	104014
17.52910	99502
17.53723	101041
17.54535	97741
17.55347	111792
17.56160	118014
17.56972	189318
17.57785	359534
17.58597	819952
17.59408	1726875
17.60222	3112809
17.61033	4575147
17.61847	5744798
17.62658	6064704
17.63470	5363953
17.64283	4150311
17.65095	2816315
17.65907	1692297
17.66720	1036479
17.67532	661757
17.68345	459454
17.69157	358485
17.69968	302542
17.70782	267547
17.71593	246202
17.72407	221139
17.73218	212057
17.74030	193886
17.74843	177500
17.75655	164322
17.76468	152994
17.77280	134322
17.78092	124048
17.78905	121269
17.79717	108190
17.80528	103895
17.81342	107636
17.82153	97752
17.82967	99435
17.83778	103886
17.84590	128286
17.85403	150603
17.86215	198384
17.87028	255426
17.87840	311393
17.88652	331411
17.89465	313442
17.90277	242224
17.91090	178563
17.91902	137541
17.92713	108356
17.93527	93316
17.94338	90436
17.95150	81619
17.95963	79698
17.96775	75103
17.97588	71000
17.98400	70329
17.99212	70936
18.00025	70106
18.00837	72472
18.01650	91428
18.02462	124076
18.03273	201570
18.04087	305047
18.04898	433160
18.05710	529253
18.06523	730393
18.07335	1289515
18.08148	2590883
18.08960	4792399
18.09772	7758523
18.10585	1.019067E+07
18.11397	1.092735E+07
18.12210	1.001226E+07
18.13022	7965062
18.13833	5811749
18.14647	4014468
18.15458	2989434
18.16272	2418718
18.17083	2051530
18.17895	1772329
18.18708	1548111
18.19520	1392472
18.20332	1215899
18.21145	1120081
18.21957	1011749
18.22770	940093
18.23582	868987
18.24393	823908
18.25207	759032
18.26018	689623
18.26832	632015
18.27643	590278
18.28455	530338
18.29268	444115
18.30080	342996
18.30893	266868
18.31705	203651
18.32517	175247
18.33330	153693
18.34142	148378
18.34953	131910
18.35767	124438
18.36578	136121
18.37392	121619
18.38203	121253
18.39015	113050
18.39828	113660
18.40640	115912
18.41453	119583
18.42265	134028
18.43077	148197
18.43890	186202
18.44702	243610
18.45513	322222
18.46327	506394
18.47138	770610
18.47952	1265883
18.48763	1738713
18.49575	2127371
18.50388	2175114
18.51200	1883277
18.52013	1434574
18.52825	993968
18.53637	634089
18.54450	389040
18.55262	276380
18.56075	209476
18.56887	170788
18.57698	147217
18.58512	130201
18.59323	124364
18.60135	118255
18.60948	121112
18.61760	122414
18.62573	139938
18.63385	145312
18.64197	147301
18.65010	150677
18.65822	133500
18.66635	118217
18.67447	108409
18.68258	98830
18.69072	90108
18.69883	78811
18.70695	78002
18.71508	81009
18.72320	79963
18.73133	79890
18.73945	80127
18.74757	70591
18.75570	73631
18.76382	74040
18.77195	76336
18.78007	69896
18.78818	72289
18.79632	71988
18.80443	74231
18.81257	79482
18.82068	74966
18.82880	74708
18.83693	72932
18.84505	69655
18.85317	74564
18.86130	73463
18.86942	78474
18.87755	85413
18.88567	91297
18.89378	100234
18.90192	95834
18.91003	102571
18.91817	102956
18.92628	108415
18.93440	114883
18.94253	125700
18.95065	131113
18.95878	152275
18.96690	158674
18.97502	155104
18.98315	149111
18.99127	143062
18.99938	123281
19.00752	103524
19.01563	101851
19.02377	87596
19.03188	93125
19.04000	73182
19.04813	81404
19.05625	74360
19.06438	72348
19.07250	74364
19.08062	77247
19.08875	101037
19.09687	128862
19.10500	187745
19.11312	255109
19.12123	297753
19.12937	298208
19.13748	272270
19.14560	215171
19.15373	156760
19.16185	121761
19.16998	101824
19.17810	101109
19.18622	137767
19.19435	166176
19.20247	203838
19.21060	218152
19.21872	215932
19.22683	222344
19.23497	217719
19.24308	218803
19.25120	232916
19.25933	242148
19.26745	234644
19.27558	237191
19.28370	229765
19.29182	243176
19.29995	245729
19.30807	258119
19.31620	263133
19.32432	268742
19.33243	255732
19.34057	245244
19.34868	245488
19.35682	267956
19.36493	314256
19.37305	419773
19.38118	522500
19.38930	612131
19.39742	656500
19.40555	583556
19.41367	505376
19.42180	421223
19.42992	359294
19.43803	316417
19.44617	292683
19.45428	279868
19.46242	268254
19.47053	273626
19.47865	265906
19.48678	266338
19.49490	267055
19.50302	274156
19.51115	290870
19.51927	320399
19.52740	342294
19.53552	365203
19.54363	382238
19.55177	389051
19.55988	367025
19.56802	349465
19.57613	304483
19.58425	286228
19.59238	263966
19.60050	235469
19.60863	222824
19.61675	224015
19.62487	212252
19.63300	220531
19.64112	217448
19.64923	222750
19.65737	256699
19.66548	311590
19.67362	386098
19.68173	496519
19.68985	581706
19.69798	652673
19.70610	672884
19.71423	650666
19.72235	620856
19.73047	566747
19.73860	500382
19.74672	442807
19.75485	387826
19.76297	340208
19.77108	308565
19.77922	294105
19.78733	315930
19.79545	359748
19.80358	414420
19.81170	463032
19.81983	512529
19.82795	516246
19.83607	471147
19.84420	408280
19.85232	336990
19.86045	288430
19.86857	278988
19.87668	318106
19.88482	390117
19.89293	544297
19.90105	753409
19.90918	957873
19.91730	1083716
19.92543	1053253
19.93355	921513
19.94167	723936
19.94980	574323
19.95792	458925
19.96605	410924
19.97417	370070
19.98228	333863
19.99042	325643
19.99853	312776
20.00667	317161
20.01478	291456
20.02290	287698
20.03103	283785
20.03915	286848
20.04727	275998
20.05540	273647
20.06352	270046
20.07165	288302
20.07977	328168
20.08788	374359
20.09602	404808
20.10413	434709
20.11227	434319
20.12038	410551
20.12850	363165
20.13663	314183
20.14475	275348
20.15288	268239
20.16100	325215
20.16912	408639
20.17725	598418
20.18537	863150
20.19348	1175697
20.20162	1426278
20.20973	1528936
20.21787	1522305
20.22598	1363395
20.23410	1110917
20.24223	913617
20.25035	778847
20.25848	778791
20.26660	867268
20.27472	1025619
20.28285	1209186
20.29097	1360643
20.29908	1401383
20.30722	1321638
20.31533	1138241
20.32347	924563
20.33158	724971
20.33970	554052
20.34783	439204
20.35595	364927
20.36408	299950
20.37220	261635
20.38032	227642
20.38845	221226
20.39657	215153
20.40470	201378
20.41282	194523
20.42093	188353
20.42907	185551
20.43718	194638
20.44530	200463
20.45343	212525
20.46155	220025
20.46968	237950
20.47780	230193
20.48592	227224
20.49405	217892
20.50217	192944
20.51030	190753
20.51842	176567
20.52653	172735
20.53467	172906
20.54278	176904
20.55090	181097
20.55903	188455
20.56715	188522
20.57528	181483
20.58340	182626
20.59152	168462
20.59965	159356
20.60777	155325
20.61590	158470
20.62402	152531
20.63213	157790
20.64027	150176
20.64838	156975
20.65652	170091
20.66463	172346
20.67275	186859
20.68088	169842
20.68900	175012
20.69712	175481
20.70525	161110
20.71337	148685
20.72150	144710
20.72962	136451
20.73773	144042
20.74587	142808
20.75398	155948
20.76212	162530
20.77023	178013
20.77835	210809
20.78648	239561
20.79460	321749
20.80273	508160
20.81085	889550
20.81897	1481719
20.82710	2028137
20.83522	2410369
20.84333	2354367
20.85147	1981161
20.85958	1417902
20.86772	883168
20.87583	556601
20.88395	351073
20.89208	277843
20.90020	247112
20.90833	216375
20.91645	210276
20.92457	215478
20.93270	219343
20.94082	239846
20.94893	252161
20.95707	257648
20.96518	244313
20.97332	231782
20.98143	209355
20.98955	193928
20.99768	173866
21.00580	165196
21.01393	152043
21.02205	150872
21.03017	148899
21.03830	159959
21.04642	162384
21.05455	159846
21.06267	156338
21.07078	153588
21.07892	151957
21.08703	147366
21.09515	142544
21.10328	152369
21.11140	134132
21.11953	130677
21.12765	136897
21.13577	156416
21.14390	190657
21.15202	269174
21.16015	398754
21.16827	561249
21.17638	671504
21.18452	688302
21.19263	661822
21.20077	538251
21.20888	416243
21.21700	325660
21.22513	271976
21.23325	242157
21.24137	213092
21.24950	190552
21.25762	169314
21.26575	161920
21.27387	139869
21.28198	138017
21.29012	137484
21.29823	128207
21.30637	128307
21.31448	121828
21.32260	117773
21.33073	122004
21.33885	121530
21.34697	115984
21.35510	123013
21.36322	130192
21.37135	124002
21.37947	130435
21.38758	142427
21.39572	171592
21.40383	212616
21.41197	280360
21.42008	353954
21.42820	407218
21.43633	405787
21.44445	371722
21.45258	314838
21.46070	279813
21.46882	238955
21.47695	210545
21.48507	194411
21.49318	176004
21.50132	166739
21.50943	150707
21.51757	143337
21.52568	137703
21.53380	126946
21.54193	124000
21.55005	117282
21.55818	117782
21.56630	116471
21.57442	123564
21.58255	136558
21.59067	164888
21.59878	187665
21.60692	223446
21.61503	232959
21.62317	222783
21.63128	205430
21.63940	196694
21.64753	186971
21.65565	196756
21.66378	221613
21.67190	249288
21.68002	291477
21.68815	329965
21.69627	350655
21.70440	344004
21.71252	309670
21.72063	264274
21.72877	212190
21.73688	181059
21.74500	158691
21.75313	145419
21.76125	135410
21.76938	133895
21.77750	127846
21.78562	117947
21.79375	124175
21.80187	118201
21.81000	128310
21.81812	122228
21.82623	118685
21.83437	129942
21.84248	133769
21.85062	137827
21.85873	158810
21.86685	180140
21.87498	179858
21.88310	174883
21.89122	171819
21.89935	164883
21.90747	151956
21.91560	143463
21.92372	149579
21.93183	144992
21.93997	137599
21.94808	119954
21.95622	115658
21.96433	107211
21.97245	104052
21.98058	99327
21.98870	90077
21.99682	86274
22.00495	88165
22.01307	88005
22.02120	88590
22.02932	104490
22.03743	107990
22.04557	123582
22.05368	133897
22.06182	136835
22.06993	132407
22.07805	130121
22.08618	124477
22.09430	114840
22.10243	109639
22.11055	106291
22.11867	104984
22.12680	103404
22.13492	100676
22.14303	91403
22.15117	90793
22.15928	93742
22.16742	85331
22.17553	83122
22.18365	88070
22.19178	80960
22.19990	86277
22.20803	88995
22.21615	91070
22.22427	88337
22.23240	85840
22.24052	99259
22.24865	100111
22.25677	107781
22.26488	106641
22.27302	116616
22.28113	124443
22.28925	133811
22.29738	136847
22.30550	153513
22.31363	152273
22.32175	149044
22.32987	148773
22.33800	138431
22.34612	126834
22.35425	124163
22.36237	117804
22.37048	109481
22.37862	106333
22.38673	113152
22.39485	139289
22.40298	187765
22.41110	279178
22.41923	431953
22.42735	579399
22.43547	687425
22.44360	708225
22.45172	640751
22.45985	513309
22.46797	401422
22.47608	283094
22.48422	231573
22.49233	224994
22.50047	239388
22.50858	270506
22.51670	315713
22.52483	333168
22.53295	347388
22.54107	323505
22.54920	289580
22.55732	254155
22.56545	212985
22.57357	184458
22.58168	154882
22.58982	143321
22.59793	131073
22.60607	121561
22.61418	117586
22.62230	102421
22.63043	95937
22.63855	99415
22.64668	101994
22.65480	101818
22.66292	109609
22.67105	117440
22.67917	125868
22.68728	130275
22.69542	144512
22.70353	176464
22.71167	241310
22.71978	307430
22.72790	391884
22.73603	436454
22.74415	433308
22.75228	367635
22.76040	303963
22.76852	257885
22.77665	236343
22.78477	237139
22.79288	273740
22.80102	379641
22.80913	514055
22.81727	643605
22.82538	755461
22.83350	795998
22.84163	719248
22.84975	610729
22.85788	471224
22.86600	378069
22.87412	323395
22.88225	306567
22.89037	314222
22.89850	340211
22.90662	362275
22.91473	374327
22.92287	403934
22.93098	445601
22.93910	467278
22.94723	530421
22.95535	471870
22.96348	418641
22.97160	353762
22.97972	258057
22.98785	198065
22.99597	156105
23.00410	134617
23.01222	117293
23.02033	110023
23.02847	102077
23.03658	101696
23.04470	94342
23.05283	90680
23.06095	101318
23.06908	104366
23.07720	114297
23.08532	115540
23.09345	122441
23.10157	120577
23.10970	119354
23.11782	115760
23.12593	105520
23.13407	101106
23.14218	86468
23.15032	91446
23.15843	89692
23.16655	86922
23.17468	95676
23.18280	88488
23.19092	80656
23.19905	76877
23.20717	73237
23.21530	79143
23.22342	69960
23.23153	76408
23.23967	73915
23.24778	83614
23.25592	100140
23.26403	126735
23.27215	161023
23.28028	199718
23.28840	212282
23.29653	199187
23.30465	176491
23.31277	150961
23.32090	122709
23.32902	120577
23.33713	114210
23.34527	141990
23.35338	187280
23.36152	247149
23.36963	330024
23.37775	404585
23.38588	432765
23.39400	430160
23.40213	384685
23.41025	315737
23.41837	253876
23.42650	209610
23.43462	169169
23.44273	149531
23.45087	129576
23.45898	118885
23.46712	116972
23.47523	117726
23.48335	109745
23.49148	101668
23.49960	97529
23.50773	97322
23.51585	89824
23.52397	93789
23.53210	91831
23.54022	91321
23.54835	98085
23.55647	96255
23.56458	110448
23.57272	129085
23.58083	160324
23.58895	203002
23.59708	268438
23.60520	341998
23.61333	410842
23.62145	431153
23.62957	410353
23.63770	353130
23.64582	272077
23.65395	205589
23.66207	164850
23.67018	149118
23.67832	136670
23.68643	133352
23.69457	127904
23.70268	117432
23.71080	109668
23.71893	100638
23.72705	94172
23.73517	94904
23.74330	87752
23.75142	84790
23.75955	92584
23.76767	101962
23.77578	143505
23.78392	273381
23.79203	510622
23.80017	823749
23.80828	1117011
23.81640	1330317
23.82453	1262484
23.83265	1102856
23.84077	883982
23.84890	693012
23.85702	530923
23.86515	422323
23.87327	351867
23.88138	302615
23.88952	262741
23.89763	253613
23.90577	271772
23.91388	316969
23.92200	380425
23.93013	454281
23.93825	506422
23.94638	489431
23.95450	412086
23.96262	322093
23.97075	247550
23.97887	207571
23.98698	176178
23.99512	158624
24.00323	145460
24.01137	143618
24.01948	135671
24.02760	141047
24.03573	151942
24.04385	156517
24.05198	162960
24.06010	167455
24.06822	151865
24.07635	143097
24.08447	128433
24.09258	115937
24.10072	110193
24.10883	99844
24.11697	100692
24.12508	102152
24.13320	104595
24.14133	112815
24.14945	128846
24.15758	164879
24.16570	184620
24.17382	210590
24.18195	225517
24.19007	235060
24.19820	224051
24.20632	222364
24.21443	219576
24.22257	204045
24.23068	186493
24.23880	180621
24.24693	166981
24.25505	142329
24.26318	144230
24.27130	127670
24.27942	116187
24.28755	112045
24.29567	110829
24.30380	106867
24.31192	110054
24.32003	118921
24.32817	121493
24.33628	127762
24.34442	132182
24.35253	131381
24.36065	118626
24.36878	107897
24.37690	109534
24.38502	93997
24.39315	95769
24.40127	99201
24.40940	106010
24.41752	119983
24.42563	129663
24.43377	143928
24.44188	144430
24.45002	137186
24.45813	122618
24.46625	110894
24.47438	115091
24.48250	103777
24.49063	105206
24.49875	104010
24.50687	102282
24.51500	107961
24.52312	111150
24.53123	126360
24.53937	133064
24.54748	166514
24.55562	196651
24.56373	235818
24.57185	266108
24.57998	285444
24.58810	284957
24.59623	267795
24.60435	228782
24.61247	219323
24.62060	185607
24.62872	165198
24.63683	141214
24.64497	132703
24.65308	120439
24.66122	107973
24.66933	104979
24.67745	108769
24.68558	103507
24.69370	95959
24.70183	97398
24.70995	101594
24.71807	96401
24.72620	98341
24.73432	96924
24.74245	104493
24.75057	101172
24.75868	108517
24.76682	105116
24.77493	119746
24.78305	132254
24.79118	149734
24.79930	170383
24.80743	183160
24.81555	180805
24.82367	180693
24.83180	178184
24.83992	209949
24.84805	268503
24.85617	395861
24.86428	559960
24.87242	832576
24.88053	1220929
24.88865	1784037
24.89678	2441018
24.90490	3097039
24.91303	3419114
24.92115	3200009
24.92927	2545054
24.93740	1787969
24.94552	1159537
24.95365	694230
24.96177	425651
24.96988	274607
24.97802	199923
24.98613	161403
24.99427	147353
25.00238	131807
25.01050	127000
25.01863	125131
25.02675	121667
25.03487	123812
25.04300	121471
25.05112	125449
25.05925	111658
25.06737	119029
25.07548	113840
25.08362	118712
25.09173	123401
25.09987	144155
25.10798	235552
25.11610	505087
25.12423	1218318
25.13235	2778667
25.14048	5575463
25.14860	9627789
25.15672	1.384963E+07
25.16485	1.640308E+07
25.17297	1.65003E+07
25.18108	1.430775E+07
25.18922	1.047792E+07
25.19733	6520897
25.20547	3758252
25.21358	1990392
25.22170	1050322
25.22983	590408
25.23795	382340
25.24608	320518
25.25420	355815
25.26232	461654
25.27045	633981
25.27857	801267
25.28668	939737
25.29482	968193
25.30293	866301
25.31107	699498
25.31918	507095
25.32730	352514
25.33543	246037
25.34355	179076
25.35168	151223
25.35980	130274
25.36792	119563
25.37605	111444
25.38417	107892
25.39230	96260
25.40042	88758
25.40853	93614
25.41667	90135
25.42478	88197
25.43290	87503
25.44103	83004
25.44915	81559
25.45728	87024
25.46540	88521
25.47352	85191
25.48165	84290
25.48977	90558
25.49790	83701
25.50602	95307
25.51413	87531
25.52227	93975
25.53038	89268
25.53852	85247
25.54663	80981
25.55475	76980
25.56288	84016
25.57100	80622
25.57912	81200
25.58725	81618
25.59537	84386
25.60350	84363
25.61162	80160
25.61973	84558
25.62787	76613
25.63598	81513
25.64412	80564
25.65223	92526
25.66035	105117
25.66848	113240
25.67660	98744
25.68472	93195
25.69285	89922
25.70097	101825
25.70910	96615
25.71722	105674
25.72533	107725
25.73347	108828
25.74158	97556
25.74972	97529
25.75783	100814
25.76595	85810
25.77408	79062
25.78220	83784
25.79033	76940
25.79845	73935
25.80657	74439
25.81470	67793
25.82282	80002
25.83093	73050
25.83907	73352
25.84718	79777
25.85532	76658
25.86343	75802
25.87155	79609
25.87968	82410
25.88780	73910
25.89593	77936
25.90405	78867
25.91217	80834
25.92030	74447
25.92842	73144
25.93653	79663
25.94467	84231
25.95278	84016
25.96092	85149
25.96903	87938
25.97715	91087
25.98528	90448
25.99340	86212
26.00153	82372
26.00965	80206
26.01777	77959
26.02590	72202
26.03402	74497
26.04215	85223
26.05027	111451
26.05838	186369
26.06652	275217
26.07463	346683
26.08275	382799
26.09088	410639
26.09900	435503
26.10713	440874
26.11525	435541
26.12337	437130
26.13150	434778
26.13962	437201
26.14775	436045
26.15587	435259
26.16398	442382
26.17212	441183
26.18023	438579
26.18837	458894
26.19648	445982
26.20460	441446
26.21273	431039
26.22085	419691
26.22897	422590
26.23710	411474
26.24522	411873
26.25335	409359
26.26147	404682
26.26958	395577
26.27772	393626
26.28583	393291
26.29397	392569
26.30208	397115
26.31020	380349
26.31833	380818
26.32645	384635
26.33457	382168
26.34270	371301
26.35082	374806
26.35895	405956
26.36707	448481
26.37518	561816
26.38332	786675
26.39143	1058969
26.39957	1365621
26.40768	1730968
26.41580	1881329
26.42393	1856485
26.43205	1630548
26.44018	1342394
26.44830	1054884
26.45642	825022
26.46455	643013
26.47267	514381
26.48078	470875
26.48892	436170
26.49703	409712
26.50517	388238
26.51328	379677
26.52140	356204
26.52953	343092
26.53765	333678
26.54578	326390
26.55390	318369
26.56202	303978
26.57015	309375
26.57827	303819
26.58640	295603
26.59452	305100
26.60263	311067
26.61077	304076
26.61888	304060
26.62700	295178
26.63513	292057
26.64325	292231
26.65138	302300
26.65950	295619
26.66762	288363
26.67575	283895
26.68387	285827
26.69200	282552
26.70012	281293
26.70823	285055
26.71637	275694
26.72448	274405
26.73260	286558
26.74073	278999
26.74885	269675
26.75698	268874
26.76510	272135
26.77322	273606
26.78135	275810
26.78947	271005
26.79760	273310
26.80572	268603
26.81383	281444
26.82197	278284
26.83008	282912
26.83822	276061
26.84633	270548
26.85445	263726
26.86258	258209
26.87070	251434
26.87882	244075
26.88695	248437
26.89507	246801
26.90320	243839
26.91132	246404
26.91943	233827
26.92757	240727
26.93568	240134
26.94382	228572
26.95193	229856
26.96005	233776
26.96818	237213
26.97630	249913
26.98443	259480
26.99255	289468
27.00067	323706
27.00880	388251
27.01692	481377
27.02503	598709
27.03317	682066
27.04128	774321
27.04942	768234
27.05753	693706
27.06565	632552
27.07378	524979
27.08190	449783
27.09003	385438
27.09815	349537
27.10627	339059
27.11440	328177
27.12252	309458
27.13063	311696
27.13877	318578
27.14688	312995
27.15502	311625
27.16313	303327
27.17125	307129
27.17938	345317
27.18750	387016
27.19563	441139
27.20375	493454
27.21187	506457
27.22000	480954
27.22812	443150
27.23625	385760
27.24437	337007
27.25248	292952
27.26062	260273
27.26873	251397
27.27685	230792
27.28498	220663
27.29310	204113
27.30123	206149
27.30935	202339
27.31747	192608
27.32560	202524
27.33372	202406
27.34185	209005
27.34997	208081
27.35808	209117
27.36622	217505
27.37433	216470
27.38245	231117
27.39058	222612
27.39870	215470
27.40683	214653
27.41495	194067
27.42307	193411
27.43120	184635
27.43932	177785
27.44745	191024
27.45557	182793
27.46368	182303
27.47182	174400
27.47993	167294
27.48807	171505
27.49618	173931
27.50430	166684
27.51243	163813
27.52055	161970
27.52867	162464
27.53680	165745
27.54492	157085
27.55305	169270
27.56117	159665
27.56928	171498
27.57742	180182
27.58553	198912
27.59367	241412
27.60178	279191
27.60990	319168
27.61803	345480
27.62615	329390
27.63428	312097
27.64240	266725
27.65052	235643
27.65865	201980
27.66677	186614
27.67488	177797
27.68302	174645
27.69113	176451
27.69927	175880
27.70738	180749
27.71550	175737
27.72363	169832
27.73175	169912
27.73988	156466
27.74800	151833
27.75612	148384
27.76425	136353
27.77237	136314
27.78048	141213
27.78862	157414
27.79673	173746
27.80487	179975
27.81298	188945
27.82110	180677
27.82923	172176
27.83735	148342
27.84548	143686
27.85360	137701
27.86172	133382
27.86985	127160
27.87797	123819
27.88610	118803
27.89422	124106
27.90233	118461
27.91047	120439
27.91858	121566
27.92670	128367
27.93483	121994
27.94295	121013
27.95108	121341
27.95920	120021
27.96732	113558
27.97545	115137
27.98357	111961
27.99170	111316
27.99982	119608
28.00793	124297
28.01607	137449
28.02418	141431
28.03232	157339
28.04043	181801
28.04855	211903
28.05668	246734
28.06480	269373
28.07292	267226
28.08105	266220
28.08917	244547
28.09730	196628
28.10542	166164
28.11353	134749
28.12167	126192
28.12978	126235
28.13792	113239
28.14603	107039
28.15415	105574
28.16228	99788
28.17040	112184
28.17852	108030
28.18665	109074
28.19477	116371
28.20290	141429
28.21102	180965
28.21913	229454
28.22727	291360
28.23538	321919
28.24352	336386
28.25163	329629
28.25975	310493
28.26788	254137
28.27600	197891
28.28413	163016
28.29225	127991
28.30037	125705
28.30850	131921
28.31662	149634
28.32473	180537
28.33287	214804
28.34098	237791
28.34912	253861
28.35723	231940
28.36535	217752
28.37348	200288
28.38160	196706
28.38973	193143
28.39785	194956
28.40597	201190
28.41410	201364
28.42222	212271
28.43033	203079
28.43847	197064
28.44658	184028
28.45472	163644
28.46283	151464
28.47095	136113
28.47908	135239
28.48720	137810
28.49533	142313
28.50345	151384
28.51157	162590
28.51970	180385
28.52782	180513
28.53595	173264
28.54407	159575
28.55218	143165
28.56032	129335
28.56843	119418
28.57655	109883
28.58468	101594
28.59280	101514
28.60093	97806
28.60905	100234
28.61717	103807
28.62530	111106
28.63342	111884
28.64155	124279
28.64967	130964
28.65778	136529
28.66592	129996
28.67403	129022
28.68217	128988
28.69028	120643
28.69840	115084
28.70653	106403
28.71465	105731
28.72277	109380
28.73090	99030
28.73902	99049
28.74715	98895
28.75527	92497
28.76338	92649
28.77152	89905
28.77963	98200
28.78777	104977
28.79588	114132
28.80400	133066
28.81213	147665
28.82025	159174
28.82838	167219
28.83650	170839
28.84462	160866
28.85275	145985
28.86087	132476
28.86898	131663
28.87712	137919
28.88523	154499
28.89337	152931
28.90148	197842
28.90960	238905
28.91773	253826
28.92585	258219
28.93398	225380
28.94210	199220
28.95022	155197
28.95835	135017
28.96647	123852
28.97458	114401
28.98272	111764
28.99083	110128
28.99897	98636
29.00708	101354
29.01520	92746
29.02333	90266
29.03145	88894
29.03958	90414
29.04770	93618
29.05582	91734
29.06395	98224
29.07207	100007
29.08020	106192
29.08832	103740
29.09643	116320
29.10457	118559
29.11268	126865
29.12080	117142
29.12893	114932
29.13705	106452
29.14518	94114
29.15330	92243
29.16142	88678
29.16955	88361
29.17767	87528
29.18580	94054
29.19392	115812
29.20203	146774
29.21017	206676
29.21828	289539
29.22640	364410
29.23453	437544
29.24265	439629
29.25078	401357
29.25890	336415
29.26702	290829
29.27515	245456
29.28327	211735
29.29140	166845
29.29952	145642
29.30763	126326
29.31577	102162
29.32388	94678
29.33202	89647
29.34013	88766
29.34825	85696
29.35638	85979
29.36450	84484
29.37262	79527
29.38075	83018
29.38887	80962
29.39700	86740
29.40512	82830
29.41323	95190
29.42137	88655
29.42948	97701
29.43762	92981
29.44573	98802
29.45385	98704
29.46198	100397
29.47010	92010
29.47822	89278
29.48635	85430
29.49447	84416
29.50260	91289
29.51072	88066
29.51883	88028
29.52697	92830
29.53508	93223
29.54322	95114
29.55133	94612
29.55945	92485
29.56758	93087
29.57570	88327
29.58383	86202
29.59195	81360
29.60007	79829
29.60820	78176
29.61632	79274
29.62443	79908
29.63257	80029
29.64068	77083
29.64882	82310
29.65693	81408
29.66505	80281
29.67318	88262
29.68130	90630
29.68943	98263
29.69755	109489
29.70567	124494
29.71380	139690
29.72192	138113
29.73005	136722
29.73817	117153
29.74628	108752
29.75442	95104
29.76253	87402
29.77065	84698
29.77878	83971
29.78690	77353
29.79503	76316
29.80315	71560
29.81127	74891
29.81940	73598
29.82752	68241
29.83565	76791
29.84377	75276
29.85188	78759
29.86002	79693
29.86813	79989
29.87627	90251
29.88438	102584
29.89250	138203
29.90063	186763
29.90875	239162
29.91687	283985
29.92500	303287
29.93312	266593
29.94125	206996
29.94937	160606
29.95748	124458
29.96562	97125
29.97373	90542
29.98187	91756
29.98998	90857
29.99810	92376
30.00623	99825
30.01435	108074
30.02247	115472
30.03060	123146
30.03872	126355
30.04685	126006
30.05497	126242
30.06308	128286
30.07122	131661
30.07933	121911
30.08747	123382
30.09558	123344
30.10370	113849
30.11183	114680
30.11995	113528
30.12808	118660
30.13620	110212
30.14432	114553
30.15245	107058
30.16057	100143
30.16868	98575
30.17682	103798
30.18493	101941
30.19307	107370
30.20118	111829
30.20930	114809
30.21743	120283
30.22555	119695
30.23368	118976
30.24180	110351
30.24992	100934
30.25805	106260
30.26617	95655
30.27428	87374
30.28242	89034
30.29053	80408
30.29867	82390
30.30678	79780
30.31490	83610
30.32303	80767
30.33115	83183
30.33928	82394
30.34740	84038
30.35552	89794
30.36365	91809
30.37177	88854
30.37990	84145
30.38802	85047
30.39613	88435
30.40427	80098
30.41238	82748
30.42050	89544
30.42863	78188
30.43675	77743
30.44488	77733
30.45300	76520
30.46112	75809
30.46925	87738
30.47737	73596
30.48550	76422
30.49362	78777
30.50173	82263
30.50987	90109
30.51798	95134
30.52612	89443
30.53423	84022
30.54235	85660
30.55048	86851
30.55860	83590
30.56672	87172
30.57485	83948
30.58297	86209
30.59110	86212
30.59922	84964
30.60733	88490
30.61547	86819
30.62358	89360
30.63172	86907
30.63983	89085
30.64795	95996
30.65608	85816
30.66420	86280
30.67232	78554
30.68045	74780
30.68857	68359
30.69670	75399
30.70482	72372
30.71293	73119
30.72107	73941
30.72918	77162
30.73732	73957
30.74543	76859
30.75355	76295
30.76168	80028
30.76980	78650
30.77793	75621
30.78605	91754
30.79417	119581
30.80230	175863
30.81042	267673
30.81853	365725
30.82667	445202
30.83478	447496
30.84292	405894
30.85103	316275
30.85915	233254
30.86728	171755
30.87540	138524
30.88353	117358
30.89165	115739
30.89977	110736
30.90790	118313
30.91602	101388
30.92415	100245
30.93227	92525
30.94038	88062
30.94852	85874
30.95663	84754
30.96475	88357
30.97288	89669
30.98100	98559
30.98913	101133
30.99725	97036
31.00537	88733
31.01350	89271
31.02162	87445
31.02975	85977
31.03787	83722
31.04598	81038
31.05412	76452
31.06223	82315
31.07035	83308
31.07848	83778
31.08660	88090
31.09473	94112
31.10285	109573
31.11097	122807
31.11910	133452
31.12722	144651
31.13535	146954
31.14347	140500
31.15158	133791
31.15972	130882
31.16783	129101
31.17597	130328
31.18408	138486
31.19220	132044
31.20033	149398
31.20845	159468
31.21657	187925
31.22470	221193
31.23282	272982
31.24095	302904
31.24907	297948
31.25718	255855
31.26532	214946
31.27343	170001
31.28157	131532
31.28968	108775
31.29780	94451
31.30593	94597
31.31405	92979
31.32217	91306
31.33030	107642
31.33842	120191
31.34655	132401
31.35467	141559
31.36278	137849
31.37092	130582
31.37903	129557
31.38717	109305
31.39528	99551
31.40340	91918
31.41153	86847
31.41965	80099
31.42778	83466
31.43590	84925
31.44402	82642
31.45215	79951
31.46027	84934
31.46838	86092
31.47652	81452
31.48463	87776
31.49277	89901
31.50088	95821
31.50900	102031
31.51713	114188
31.52525	117208
31.53338	121132
31.54150	118956
31.54962	125009
31.55775	126959
31.56587	121038
31.57400	122387
31.58212	114648
31.59023	116814
31.59837	105864
31.60648	94641
31.61460	99490
31.62273	84648
31.63085	84213
31.63898	82539
31.64710	85075
31.65522	91567
31.66335	98870
31.67147	117850
31.67960	133494
31.68772	155523
31.69583	160677
31.70397	158112
31.71208	156004
31.72020	138718
31.72833	122345
31.73645	102181
31.74458	93399
31.75270	86075
31.76082	87335
31.76895	78404
31.77707	83886
31.78520	86220
31.79332	79244
31.80143	82169
31.80957	86941
31.81768	83660
31.82582	81851
31.83393	84064
31.84205	82844
31.85018	80778
31.85830	82011
31.86642	84240
31.87455	88695
31.88267	93100
31.89080	98227
31.89892	97037
31.90703	85532
31.91517	87230
31.92328	82811
31.93142	84525
31.93953	86527
31.94765	83109
31.95578	96121
31.96390	98371
31.97203	106695
31.98015	107374
31.98827	112677
31.99640	121729
32.00452	132505
32.01263	139237
32.02077	149082
32.02888	164359
32.03702	160120
32.04513	155797
32.05325	142545
32.06138	134704
32.06950	112926
32.07763	105015
32.08575	107211
32.09387	94659
32.10200	96786
32.11012	100158
32.11823	101643
32.12637	97084
32.13448	93219
32.14262	90542
32.15073	93186
32.15885	90870
32.16698	78312
32.17510	79166
32.18323	83864
32.19135	84766
32.19947	82901
32.20760	87130
32.21572	83889
32.22385	80708
32.23197	83796
32.24008	82150
32.24822	83117
32.25633	82249
32.26445	82653
32.27258	80121
32.28070	86251
32.28883	84144
32.29695	92519
32.30507	87607
32.31320	88075
32.32132	82112
32.32945	82965
32.33757	81139
32.34568	79646
32.35382	85693
32.36193	79585
32.37007	78983
32.37818	84223
32.38630	84864
32.39443	81975
32.40255	85655
32.41067	81606
32.41880	81248
32.42692	80400
32.43505	78215
32.44317	83005
32.45128	76009
32.45942	76184
32.46753	76470
32.47567	79243
32.48378	75044
32.49190	75951
32.50003	81351
32.50815	80478
32.51627	82424
32.52440	76133
32.53252	84919
32.54065	82569
32.54877	84589
32.55688	79224
32.56502	80787
32.57313	77518
32.58127	76978
32.58938	74592
32.59750	77761
32.60563	76523
32.61375	72764
32.62188	78882
32.63000	79142
32.63812	79961
32.64625	80818
32.65437	76163
32.66248	79077
32.67062	77743
32.67873	83062
32.68687	86675
32.69498	92573
32.70310	87609
32.71123	92031
32.71935	90607
32.72748	88984
32.73560	82418
32.74372	82494
32.75185	80014
32.75997	82880
32.76808	79877
32.77622	81883
32.78433	73340
32.79247	72484
32.80058	77533
32.80870	70474
32.81683	73830
32.82495	77391
32.83308	83400
32.84120	83057
32.84932	78581
32.85745	81412
32.86557	80628
32.87370	77742
32.88182	83753
32.88993	83494
32.89807	94322
32.90618	101822
32.91430	106353
32.92243	109215
32.93055	110117
32.93868	107357
32.94680	102390
32.95492	99651
32.96305	90941
32.97117	92075
32.97930	97244
32.98742	112778
32.99553	154738
33.00367	218186
33.01178	294285
33.01992	355464
33.02803	375333
33.03615	346459
33.04428	300549
33.05240	223412
33.06052	186048
33.06865	168984
33.07677	185873
33.08490	199272
33.09302	222275
33.10113	247146
33.10927	280831
33.11738	291474
33.12552	299986
33.13363	291917
33.14175	255889
33.14988	229258
33.15800	199076
33.16612	188288
33.17425	173958
33.18237	155077
33.19050	140140
33.19862	130945
33.20673	114561
33.21487	104640
33.22298	103426
33.23112	103206
33.23923	111015
33.24735	108293
33.25548	104497
33.26360	98836
33.27173	101920
33.27985	95291
33.28797	96393
33.29610	96280
33.30422	88426
33.31233	88379
33.32047	95811
33.32858	93483
33.33672	97050
33.34483	100225
33.35295	100605
33.36108	116151
33.36920	126739
33.37733	134210
33.38545	144154
33.39357	135895
33.40170	125315
33.40982	124244
33.41795	96381
33.42607	96067
33.43418	84894
33.44232	82531
33.45043	80119
33.45855	79162
33.46668	77575
33.47480	78996
33.48293	80521
33.49105	83337
33.49917	84886
33.50730	84688
33.51542	94067
33.52355	97251
33.53167	104560
33.53978	112411
33.54792	125481
33.55603	132903
33.56415	143446
33.57228	160408
33.58040	169364
33.58853	168760
33.59665	146979
33.60477	120116
33.61290	107758
33.62102	96935
33.62915	92086
33.63727	83595
33.64538	89344
33.65352	99197
33.66163	98775
33.66977	102039
33.67788	111081
33.68600	113426
33.69413	106734
33.70225	100629
33.71037	91975
33.71850	85604
33.72662	83401
33.73475	80991
33.74287	81596
33.75098	80716
33.75912	76798
33.76723	81980
33.77537	86390
33.78348	81870
33.79160	78791
33.79973	81678
33.80785	78348
33.81597	81523
33.82410	79669
33.83222	76573
33.84035	82487
33.84847	76324
33.85658	80970
33.86472	80476
33.87283	78978
33.88097	80797
33.88908	91697
33.89720	83180
33.90533	92419
33.91345	87126
33.92158	83121
33.92970	92597
33.93782	90103
33.94595	81142
33.95407	84477
33.96218	85382
33.97032	75227
33.97843	72364
33.98657	77916
33.99468	78383
34.00280	74992
34.01093	78028
34.01905	79673
34.02718	76195
34.03530	75804
34.04342	75908
34.05155	78701
34.05967	73545
34.06780	83214
34.07592	80416
34.08403	77667
34.09217	76066
34.10028	81926
34.10840	79347
34.11653	82655
34.12465	83818
34.13278	78423
34.14090	77255
34.14902	80189
34.15715	83311
34.16527	85123
34.17340	88725
34.18152	81060
34.18963	80776
34.19777	80062
34.20588	80947
34.21400	80280
34.22213	87561
34.23025	78286
34.23838	82930
34.24650	71568
34.25462	75522
34.26275	79486
34.27087	78526
34.27900	73219
34.28712	76669
34.29523	70238
34.30337	69550
34.31148	71497
34.31962	74327
34.32773	76870
34.33585	72317
34.34398	75709
34.35210	80329
34.36022	77753
34.36835	75709
34.37647	77199
34.38460	82918
34.39272	78724
34.40083	76189
34.40897	76878
34.41708	74120
34.42522	80531
34.43333	73666
34.44145	82922
34.44958	84507
34.45770	78138
34.46583	83192
34.47395	81369
34.48207	79919
34.49020	72704
34.49832	73370
34.50643	75197
34.51457	74695
34.52268	72210
34.53082	80528
34.53893	83669
34.54705	82269
34.55518	94955
34.56330	97647
34.57143	114967
34.57955	121208
34.58767	115711
34.59580	127776
34.60392	119430
34.61203	113825
34.62017	106777
34.62828	98622
34.63642	92393
34.64453	92985
34.65265	90561
34.66078	95169
34.66890	87147
34.67703	88270
34.68515	86387
34.69327	83191
34.70140	86543
34.70952	87696
34.71765	82575
34.72577	80588
34.73388	82767
34.74202	87435
34.75013	88281
34.75825	80315
34.76638	87041
34.77450	85826
34.78263	92422
34.79075	96772
34.79887	95060
34.80700	97746
34.81512	104959
34.82325	92377
34.83137	89838
34.83948	84348
34.84762	84224
34.85573	88312
34.86385	89725
34.87198	86315
34.88010	85993
34.88823	87664
34.89635	82817
34.90447	81306
34.91260	80634
34.92072	79299
34.92885	79207
34.93697	82108
34.94508	92993
34.95322	85335
34.96133	86017
34.96947	93230
34.97758	99406
34.98570	110146
34.99383	114138
35.00195	115619
35.01007	111147
35.01820	105291
35.02632	92563
35.03445	88574
35.04257	83204
35.05068	86234
35.05882	83618
35.06693	91204
35.07507	81700
35.08318	80031
35.09130	81594
35.09943	87513
35.10755	82333
35.11568	89196
35.12380	80708
35.13192	78973
35.14005	86596
35.14817	86845
35.15628	88627
35.16442	83602
35.17253	87819
35.18067	88732
35.18878	93961
35.19690	87426
35.20503	89968
35.21315	84685
35.22128	85129
35.22940	87253
35.23752	86803
35.24565	85297
35.25377	84353
35.26190	84534
35.27002	83106
35.27813	89501
35.28627	91145
35.29438	87898
35.30250	87743
35.31063	88159
35.31875	86145
35.32688	83488
35.33500	86849
35.34312	89808
35.35125	80637
35.35937	83903
35.36750	80699
35.37562	86810
35.38373	83896
35.39187	86163
35.39998	81459
35.40810	91886
35.41623	95966
35.42435	98944
35.43248	108724
35.44060	113445
35.44872	116813
35.45685	120941
35.46497	111349
35.47310	100564
35.48122	109673
35.48933	105035
35.49747	104750
35.50558	102171
35.51372	102173
35.52183	104103
35.52995	105602
35.53808	98289
35.54620	91199
35.55432	91376
35.56245	87253
35.57057	90754
35.57870	88956
35.58682	84335
35.59493	83756
35.60307	80476
35.61118	83990
35.61932	78411
35.62743	85823
35.63555	87786
35.64368	80742
35.65180	84085
35.65992	83557
35.66805	85723
35.67617	83915
35.68430	86375
35.69242	90293
35.70053	88073
35.70867	84202
35.71678	89959
35.72492	91802
35.73303	91792
35.74115	97401
35.74928	103523
35.75740	116756
35.76553	128680
35.77365	153542
35.78177	180561
35.78990	199673
35.79802	184385
35.80613	172717
35.81427	149361
35.82238	132936
35.83052	112257
35.83863	100355
35.84675	100384
35.85488	93649
35.86300	87481
35.87113	90335
35.87925	84854
35.88737	93181
35.89550	90613
35.90362	90360
35.91175	91793
35.91987	94186
35.92798	92924
35.93612	92197
35.94423	92291
35.95235	92906
35.96048	92558
35.96860	89686
35.97673	91106
35.98485	88355
35.99297	93666
36.00110	88287
36.00922	89596
36.01735	85990
36.02547	95284
36.03358	97775
36.04172	95119
36.04983	99388
36.05795	100576
36.06608	101380
36.07420	93866
36.08233	90123
36.09045	90464
36.09857	90626
36.10670	91510
36.11482	95901
36.12295	90521
36.13107	103641
36.13918	100512
36.14732	116674
36.15543	122311
36.16357	126248
36.17168	127275
36.17980	122598
36.18793	116298
36.19605	111674
36.20417	101427
36.21230	93978
36.22042	90690
36.22855	91970
36.23667	91886
36.24478	93713
36.25292	89976
36.26103	90484
36.26917	89782
36.27728	93114
36.28540	88235
36.29353	90595
36.30165	92299
36.30978	94149
36.31790	101183
36.32602	100610
36.33415	96482
36.34227	106113
36.35038	110293
36.35852	107164
36.36663	112399
36.37477	95621
36.38288	98705
36.39100	104546
36.39913	103789
36.40725	105839
36.41538	105222
36.42350	109539
36.43162	109014
36.43975	108091
36.44787	108456
36.45598	108965
36.46412	110102
36.47223	101638
36.48037	95877
36.48848	98222
36.49660	92279
36.50473	95820
36.51285	91905
36.52098	89572
36.52910	91908
36.53722	92888
36.54535	93805
36.55347	102768
36.56160	90191
36.56972	93793
36.57783	95514
36.58597	91917
36.59408	94059
36.60220	91104
36.61033	93929
36.61845	92234
36.62658	92232
36.63470	97030
36.64282	93334
36.65095	98043
36.65907	99519
36.66720	92503
36.67532	94235
36.68343	88349
36.69157	96101
36.69968	97138
36.70780	97474
36.71593	93653
36.72405	91713
36.73218	99841
36.74030	96280
36.74842	103837
36.75655	109129
36.76467	110939
36.77280	105052
36.78092	97372
36.78903	99118
36.79717	99563
36.80528	91705
36.81342	106199
36.82153	95677
36.82965	96901
36.83778	95858
36.84590	95382
36.85402	90985
36.86215	92764
36.87027	94243
36.87840	89599
36.88652	92232
36.89463	89106
36.90277	92166
36.91088	89008
36.91902	91448
36.92713	90327
36.93525	95953
36.94338	98370
36.95150	118610
36.95963	140998
36.96775	181319
36.97587	251272
36.98400	315352
36.99212	352122
37.00023	334826
37.00837	283967
37.01648	238682
37.02462	174576
37.03273	147826
37.04085	121376
37.04898	109787
37.05710	102824
37.06523	111513
37.07335	106865
37.08147	114661
37.08960	111814
37.09772	113366
37.10583	120727
37.11397	120454
37.12208	128425
37.13022	122709
37.13833	118714
37.14645	111285
37.15458	109372
37.16270	105662
37.17083	98891
37.17895	103814
37.18707	105045
37.19520	101213
37.20332	94307
37.21145	104423
37.21957	102550
37.22768	101108
37.23582	99173
37.24393	106759
37.25205	101764
37.26018	102502
37.26830	108640
37.27643	111278
37.28455	103134
37.29267	95480
37.30080	101389
37.30892	102516
37.31705	95554
37.32517	102103
37.33328	99089
37.34142	99818
37.34953	100732
37.35767	104915
37.36578	101806
37.37390	104052
37.38203	109570
37.39015	112770
37.39827	107134
37.40640	109768
37.41452	116764
37.42265	119786
37.43077	121917
37.43888	123414
37.44702	125700
37.45513	128579
37.46327	125299
37.47138	125575
37.47950	119457
37.48763	126374
