C:\MassHunter\GCMS\1\data\JTB-E02\BACandBLUE\JTB-E18-018-12.D Thu Jul 04 14:30:40 2019
Start of data points
2.09522,47641
2.10335,53025
2.11147,54492
2.11960,50461
2.12772,48090
2.13583,50675
2.14397,53967
2.15208,49060
2.16020,53696
2.16833,46500
2.17645,53859
2.18458,47582
2.19270,49225
2.20082,49489
2.20895,45203
2.21707,43167
2.22520,44948
2.23332,45610
2.24143,46947
2.24957,40677
2.25768,44969
2.26582,64381
2.27393,450184
2.28205,1324917
2.29018,956511
2.29830,397000
2.30642,266588
2.31455,214809
2.32267,197499
2.33080,167579
2.33892,156456
2.34703,145515
2.35517,131574
2.36328,123917
2.37142,111581
2.37953,108696
2.38765,107894
2.39578,100638
2.40390,89406
2.41203,101090
2.42015,93199
2.42827,97475
2.43640,86191
2.44452,86907
2.45263,86411
2.46077,88699
2.46888,86920
2.47702,81498
2.48513,83362
2.49325,132048
2.50138,148725
2.50950,113036
2.51763,94138
2.52575,94732
2.53387,87502
2.54200,89644
2.55012,92351
2.55823,153078
2.56637,226184
2.57448,176664
2.58262,136139
2.59073,117504
2.59885,124725
2.60698,342617
2.61510,976066
2.62323,918426
2.63135,503907
2.63947,313190
2.64760,231834
2.65572,187863
2.66385,159055
2.67197,135650
2.68008,125605
2.68822,121297
2.69633,111935
2.70445,106280
2.71258,103121
2.72070,95498
2.72883,95371
2.73695,93019
2.74507,90651
2.75320,88661
2.76132,90001
2.76945,87585
2.77757,94047
2.78568,178518
2.79382,252202
2.80193,176067
2.81005,143483
2.81818,142449
2.82630,150468
2.83443,152555
2.84255,142231
2.85067,113428
2.85880,105305
2.86692,102009
2.87505,91405
2.88317,93170
2.89128,86495
2.89942,86541
2.90753,82618
2.91567,78529
2.92378,77559
2.93190,78206
2.94003,78127
2.94815,77878
2.95627,79995
2.96440,83639
2.97252,91803
2.98065,86351
2.98877,78699
2.99688,82772
3.00502,83562
3.01313,83637
3.02127,81549
3.02938,76169
3.03750,70758
3.04563,72838
3.05375,75569
3.06188,80622
3.07000,91768
3.07812,148466
3.08625,751835
3.09437,2458636
3.10248,4012997
3.11062,5334230
3.11873,5229535
3.12687,3393104
3.13498,2195209
3.14310,1646415
3.15123,1302334
3.15935,1054971
3.16748,895412
3.17560,820295
3.18372,839245
3.19185,1265143
3.19997,1755341
3.20808,1489902
3.21622,1068219
3.22433,847383
3.23247,721388
3.24058,627784
3.24870,547132
3.25683,485106
3.26495,438943
3.27308,393084
3.28120,374139
3.28932,506337
3.29745,1195802
3.30557,2901942
3.31370,4485169
3.32182,4464432
3.32993,3359595
3.33807,2388892
3.34618,1862793
3.35430,1529593
3.36243,1283216
3.37055,1114371
3.37868,1008522
3.38680,884298
3.39492,809823
3.40305,731815
3.41117,684399
3.41930,645934
3.42742,603448
3.43553,580447
3.44367,545375
3.45178,532300
3.45992,511178
3.46803,514837
3.47615,516196
3.48428,512768
3.49240,493258
3.50052,461489
3.50865,437063
3.51677,408492
3.52490,401576
3.53302,408862
3.54113,406753
3.54927,389124
3.55738,390033
3.56552,369646
3.57363,403827
3.58175,442088
3.58988,416509
3.59800,379078
3.60612,361861
3.61425,356986
3.62237,370032
3.63050,377814
3.63862,398018
3.64673,395063
3.65487,361663
3.66298,533245
3.67112,1724648
3.67923,4493040
3.68735,6088121
3.69548,4592570
3.70360,2796755
3.71173,1957893
3.71985,1582175
3.72797,1328299
3.73610,1171655
3.74422,1029891
3.75233,943070
3.76047,877520
3.76858,814178
3.77672,774876
3.78483,724802
3.79295,687104
3.80108,755771
3.80920,1122977
3.81733,1806540
3.82545,2031168
3.83357,1562971
3.84170,1180071
3.84982,963011
3.85793,841322
3.86607,764295
3.87418,691916
3.88232,655956
3.89043,613417
3.89855,586704
3.90668,553719
3.91480,577238
3.92293,674445
3.93105,809948
3.93917,849888
3.94730,1041525
3.95542,2459476
3.96355,5688991
3.97167,8230552
3.97978,7317371
3.98792,4768901
3.99603,4342829
4.00415,1.018405E+07
4.01228,2.260794E+07
4.02040,3.206505E+07
4.02853,2.910553E+07
4.03665,1.816508E+07
4.04477,9717584
4.05290,5955026
4.06102,4318348
4.06915,3288509
4.07727,2655415
4.08538,2196916
4.09352,1898099
4.10163,1659230
4.10977,1477249
4.11788,1343229
4.12600,1235351
4.13413,1161750
4.14225,1160366
4.15037,1259999
4.15850,1267988
4.16662,1160050
4.17475,1046523
4.18287,978581
4.19098,878911
4.19912,844459
4.20723,1015524
4.21537,2475944
4.22348,6999093
4.23160,1.322671E+07
4.23973,1.667043E+07
4.24785,1.508062E+07
4.25597,1.004307E+07
4.26410,6257628
4.27222,4378016
4.28035,3312109
4.28847,2594911
4.29658,2140698
4.30472,1831498
4.31283,1618908
4.32097,1409315
4.32908,1293941
4.33720,1179503
4.34533,1122555
4.35345,1083677
4.36158,1070565
4.36970,1035592
4.37782,974892
4.38595,903526
4.39407,852283
4.40218,800905
4.41032,760022
4.41843,728656
4.42657,703993
4.43468,683134
4.44280,659838
4.45093,622841
4.45905,619061
4.46718,607542
4.47530,588160
4.48342,556788
4.49155,547928
4.49967,544949
4.50780,528435
4.51592,523286
4.52403,509571
4.53217,479559
4.54028,478500
4.54840,480000
4.55653,468987
4.56465,460443
4.57278,446299
4.58090,429326
4.58902,421935
4.59715,404144
4.60527,412078
4.61340,403257
4.62152,434567
4.62963,538405
4.63777,751059
4.64588,941688
4.65400,914769
4.66213,734609
4.67025,577290
4.67838,505881
4.68650,466337
4.69462,445427
4.70275,411983
4.71087,398796
4.71900,392410
4.72712,390786
4.73523,399197
4.74337,370465
4.75148,357265
4.75962,356616
4.76773,331224
4.77585,340100
4.78398,361919
4.79210,488588
4.80022,862033
4.80835,1310297
4.81647,1415643
4.82460,1166346
4.83272,903970
4.84083,756054
4.84897,686110
4.85708,626093
4.86522,568744
4.87333,529111
4.88145,495927
4.88958,455003
4.89770,431373
4.90583,417614
4.91395,398435
4.92207,384554
4.93020,410933
4.93832,560948
4.94643,1021411
4.95457,1797333
4.96268,2523463
4.97082,2787785
4.97893,2432629
4.98705,1873390
4.99518,1423930
5.00330,1150719
5.01143,960046
5.01955,881602
5.02767,923279
5.03580,1154928
5.04392,1403789
5.05203,1469291
5.06017,1274463
5.06828,1043552
5.07642,900181
5.08453,826320
5.09265,758918
5.10078,705388
5.10890,660099
5.11703,630212
5.12515,590185
5.13327,578731
5.14140,552271
5.14952,551654
5.15765,561052
5.16577,605614
5.17388,626446
5.18202,614517
5.19013,561495
5.19825,555313
5.20638,565657
5.21450,599071
5.22263,570476
5.23075,545555
5.23887,519401
5.24700,501943
5.25512,469616
5.26325,438013
5.27137,411861
5.27948,402223
5.28762,383117
5.29573,376438
5.30385,378245
5.31198,375033
5.32010,370461
5.32823,379237
5.33635,414326
5.34447,443008
5.35260,439358
5.36072,414494
5.36885,374319
5.37697,366053
5.38508,362957
5.39322,378520
5.40133,379307
5.40947,381146
5.41758,358402
5.42570,354396
5.43383,347066
5.44195,347599
5.45007,343815
5.45820,341791
5.46632,340124
5.47445,325865
5.48257,319298
5.49068,303084
5.49882,299638
5.50693,302797
5.51507,309518
5.52318,315373
5.53130,310245
5.53943,319253
5.54755,301799
5.55568,306256
5.56380,319916
5.57192,346221
5.58005,358834
5.58817,348271
5.59628,328770
5.60442,305688
5.61253,292566
5.62067,290395
5.62878,296497
5.63690,302107
5.64503,311080
5.65315,314038
5.66128,311918
5.66940,290721
5.67752,318324
5.68565,344759
5.69377,361212
5.70188,377320
5.71002,356700
5.71813,319628
5.72627,294330
5.73438,291270
5.74250,274084
5.75063,276641
5.75875,260936
5.76688,264610
5.77500,257496
5.78312,250485
5.79125,252308
5.79937,257512
5.80750,243707
5.81562,245132
5.82373,243090
5.83187,242452
5.83998,254635
5.84810,252314
5.85623,245998
5.86435,255947
5.87248,241482
5.88060,237176
5.88872,235976
5.89685,232529
5.90497,225280
5.91310,206945
5.92122,186257
5.92933,180072
5.93747,172248
5.94558,172968
5.95372,196960
5.96183,230495
5.96995,249698
5.97808,280794
5.98620,317115
5.99432,332280
6.00245,315637
6.01057,278441
6.01870,256995
6.02682,243196
6.03493,226976
6.04307,208135
6.05118,202441
6.05932,182729
6.06743,178540
6.07555,171644
6.08368,169587
6.09180,169719
6.09992,177550
6.10805,194235
6.11617,221900
6.12430,257262
6.13242,316376
6.14053,423572
6.14867,552369
6.15678,562718
6.16492,473482
6.17303,369720
6.18115,296452
6.18928,256963
6.19740,243018
6.20553,249931
6.21365,245303
6.22177,237519
6.22990,222973
6.23802,218926
6.24613,224199
6.25427,213657
6.26238,219908
6.27052,215053
6.27863,210305
6.28675,211607
6.29488,214951
6.30300,211019
6.31113,209619
6.31925,220271
6.32737,237807
6.33550,261533
6.34362,288371
6.35173,285952
6.35987,259833
6.36798,235950
6.37612,228468
6.38423,223360
6.39235,215198
6.40048,216306
6.40860,216075
6.41673,215789
6.42485,201194
6.43297,203639
6.44110,209516
6.44922,210187
6.45735,215094
6.46547,206635
6.47358,201150
6.48172,211798
6.48983,208128
6.49795,212008
6.50608,214760
6.51420,215532
6.52233,216597
6.53045,219770
6.53857,216894
6.54670,217455
6.55482,219380
6.56295,219441
6.57107,239427
6.57918,256144
6.58732,270204
6.59543,267162
6.60357,252783
6.61168,235192
6.61980,221689
6.62793,220917
6.63605,220959
6.64417,228182
6.65230,258130
6.66042,342146
6.66855,458782
6.67667,558274
6.68478,533260
6.69292,436019
6.70103,341674
6.70917,292348
6.71728,269523
6.72540,261875
6.73353,260759
6.74165,253124
6.74977,228830
6.75790,219670
6.76602,199804
6.77415,189034
6.78227,185688
6.79038,181804
6.79852,168602
6.80663,162532
6.81477,168733
6.82288,157871
6.83100,162273
6.83913,165478
6.84725,178226
6.85538,204903
6.86350,221806
6.87162,225002
6.87975,207327
6.88787,171949
6.89598,135876
6.90412,120400
6.91223,114268
6.92037,106071
6.92848,100580
6.93660,100585
6.94473,99170
6.95285,100903
6.96098,107550
6.96910,120234
6.97722,132162
6.98535,144488
6.99347,138384
7.00160,126270
7.00972,114216
7.01783,102011
7.02597,101569
7.03408,98834
7.04220,98042
7.05033,97595
7.05845,99852
7.06658,97372
7.07470,102041
7.08282,92920
7.09095,93670
7.09907,94057
7.10720,87711
7.11532,86717
7.12343,85036
7.13157,91433
7.13968,102507
7.14780,135318
7.15593,187743
7.16405,243421
7.17218,261683
7.18030,238266
7.18842,196532
7.19655,155325
7.20467,148906
7.21280,215003
7.22092,468881
7.22903,963184
7.23717,1413019
7.24528,1545484
7.25342,1234115
7.26153,762896
7.26965,483467
7.27778,338684
7.28590,257411
7.29402,188038
7.30215,143785
7.31027,124069
7.31840,118634
7.32652,124880
7.33463,127116
7.34277,125362
7.35088,119916
7.35902,110838
7.36713,107140
7.37525,105668
7.38338,107171
7.39150,111314
7.39962,116853
7.40775,113536
7.41587,110767
7.42400,101749
7.43212,102258
7.44023,104005
7.44837,101606
7.45648,100997
7.46462,102285
7.47273,96944
7.48085,94709
7.48898,83031
7.49710,85607
7.50523,86129
7.51335,91858
7.52147,108972
7.52960,147588
7.53772,213487
7.54583,292952
7.55397,375372
7.56208,425898
7.57022,415865
7.57833,351133
7.58645,274228
7.59458,200740
7.60270,163473
7.61083,129862
7.61895,111258
7.62707,103010
7.63520,96780
7.64332,91128
7.65145,86645
7.65957,87196
7.66768,78877
7.67582,83164
7.68393,82434
7.69205,83334
7.70018,78589
7.70830,79831
7.71643,84437
7.72455,81138
7.73267,79530
7.74080,84190
7.74892,80150
7.75705,85648
7.76517,83548
7.77328,89119
7.78142,91700
7.78953,97387
7.79767,103516
7.80578,106446
7.81390,112152
7.82203,103661
7.83015,98589
7.83827,88412
7.84640,80912
7.85452,81057
7.86265,85564
7.87077,89654
7.87888,89376
7.88702,106379
7.89513,92432
7.90327,93413
7.91138,89351
7.91950,87754
7.92763,93773
7.93575,115230
7.94387,131415
7.95200,133518
7.96012,140898
7.96825,126035
7.97637,104923
7.98448,90610
7.99262,83769
8.00073,80361
8.00887,72091
8.01698,71831
8.02510,71569
8.03323,74153
8.04135,73293
8.04948,73858
8.05760,69449
8.06572,70676
8.07385,67497
8.08197,68148
8.09008,63988
8.09822,66858
8.10633,70578
8.11447,63344
8.12258,69205
8.13070,73818
8.13883,86417
8.14695,106224
8.15508,119681
8.16320,115463
8.17132,105401
8.17945,88819
8.18757,82523
8.19568,73576
8.20382,75204
8.21193,71543
8.22007,70433
8.22818,76054
8.23630,68511
8.24443,74603
8.25255,67519
8.26068,67132
8.26880,68911
8.27692,60332
8.28505,64562
8.29317,62304
8.30130,68650
8.30942,72421
8.31753,78422
8.32567,78746
8.33378,76033
8.34190,75260
8.35003,69413
8.35815,68236
8.36628,66554
8.37440,71004
8.38252,71939
8.39065,71928
8.39877,73934
8.40690,67730
8.41502,67180
8.42313,69746
8.43127,60606
8.43938,60582
8.44752,56935
8.45563,62207
8.46375,61475
8.47188,62371
8.48000,59452
8.48812,62839
8.49625,62697
8.50437,63982
8.51250,65041
8.52062,79567
8.52873,121589
8.53687,211370
8.54498,357134
8.55312,438532
8.56123,438142
8.56935,358841
8.57748,230896
8.58560,150529
8.59372,128098
8.60185,131699
8.60997,141109
8.61810,141752
8.62622,129050
8.63433,104913
8.64247,92464
8.65058,84911
8.65872,81876
8.66683,74022
8.67495,72992
8.68308,76054
8.69120,78605
8.69933,84353
8.70745,85237
8.71557,84936
8.72370,81726
8.73182,79305
8.73993,85190
8.74807,101535
8.75618,171302
8.76432,339907
8.77243,575483
8.78055,782557
8.78868,845526
8.79680,756341
8.80493,578271
8.81305,397929
8.82117,280223
8.82930,222808
8.83742,206551
8.84555,202905
8.85367,209404
8.86178,204581
8.86992,202097
8.87803,191692
8.88615,177431
8.89428,172178
8.90240,172615
8.91053,161725
8.91865,158871
8.92677,156898
8.93490,161174
8.94302,173273
8.95115,177874
8.95927,184713
8.96738,167941
8.97552,161428
8.98363,161353
8.99175,169543
8.99988,166858
9.00800,153011
9.01613,148579
9.02425,138781
9.03237,131451
9.04050,130628
9.04862,120413
9.05675,119167
9.06487,122710
9.07298,117638
9.08112,124543
9.08923,122300
9.09737,123869
9.10548,140215
9.11360,153430
9.12173,164318
9.12985,162219
9.13797,156379
9.14610,143954
9.15422,134739
9.16235,128698
9.17047,123452
9.17858,120626
9.18672,114468
9.19483,109091
9.20297,112043
9.21108,102744
9.21920,106812
9.22733,107105
9.23545,111422
9.24357,112266
9.25170,106744
9.25982,103256
9.26795,105383
9.27607,104037
9.28418,103846
9.29232,99717
9.30043,104196
9.30857,106171
9.31668,98317
9.32480,96673
9.33293,98142
9.34105,95090
9.34918,98840
9.35730,93305
9.36542,91210
9.37355,90323
9.38167,96579
9.38978,102539
9.39792,98843
9.40603,103535
9.41417,113399
9.42228,126371
9.43040,143006
9.43853,158635
9.44665,163647
9.45478,159119
9.46290,136684
9.47102,119722
9.47915,111666
9.48727,101413
9.49540,104103
9.50352,102637
9.51163,126911
9.51977,140236
9.52788,153748
9.53600,147844
9.54413,129947
9.55225,117925
9.56038,107266
9.56850,88069
9.57662,89692
9.58475,83123
9.59287,83717
9.60100,84514
9.60912,80229
9.61723,75886
9.62537,71140
9.63348,68079
9.64160,65417
9.64973,63616
9.65785,65531
9.66598,65186
9.67410,69043
9.68222,65901
9.69035,65943
9.69847,65910
9.70660,63411
9.71472,62982
9.72283,59005
9.73097,59271
9.73908,59548
9.74722,59570
9.75533,60150
9.76345,58443
9.77158,58213
9.77970,57424
9.78782,64579
9.79595,66550
9.80407,61263
9.81220,58905
9.82032,62157
9.82843,60135
9.83657,62478
9.84468,63671
9.85282,62403
9.86093,64792
9.86905,65250
9.87718,67210
9.88530,61908
9.89343,66706
9.90155,65530
9.90967,70665
9.91780,67965
9.92592,80625
9.93403,95464
9.94217,124000
9.95028,165801
9.95842,212374
9.96653,235491
9.97465,233094
9.98278,198285
9.99090,166665
9.99903,151813
10.00715,123817
10.01527,102819
10.02340,94229
10.03152,89100
10.03963,84770
10.04777,78763
10.05588,80983
10.06402,77704
10.07213,72830
10.08025,76134
10.08838,79259
10.09650,84118
10.10463,83183
10.11275,74512
10.12087,86815
10.12900,88191
10.13712,83525
10.14525,78341
10.15337,80326
10.16148,75919
10.16962,77927
10.17773,70544
10.18585,66065
10.19398,71150
10.20210,68021
10.21023,65751
10.21835,66903
10.22647,73572
10.23460,82459
10.24272,79880
10.25085,89500
10.25897,109570
10.26708,187962
10.27522,399633
10.28333,834891
10.29147,1423430
10.29958,2149700
10.30770,2957860
10.31583,4358182
10.32395,6304848
10.33207,8337634
10.34020,9319474
10.34832,8661273
10.35645,6580308
10.36457,4681904
10.37268,3452541
10.38082,2658233
10.38893,1987108
10.39707,1421351
10.40518,1005281
10.41330,723459
10.42143,581227
10.42955,504248
10.43767,464189
10.44580,424802
10.45392,403363
10.46205,378819
10.47017,357861
10.47828,339706
10.48642,320848
10.49453,292816
10.50267,275506
10.51078,260641
10.51890,244738
10.52703,244282
10.53515,232306
10.54328,227987
10.55140,221651
10.55952,210387
10.56765,215570
10.57577,212835
10.58388,202198
10.59202,197278
10.60013,188474
10.60827,183636
10.61638,179455
10.62450,168751
10.63263,165541
10.64075,162331
10.64888,160185
10.65700,151137
10.66512,146421
10.67325,142146
10.68137,150179
10.68948,141423
10.69762,148590
10.70573,138225
10.71387,140895
10.72198,142947
10.73010,137878
10.73823,137768
10.74635,136664
10.75448,136281
10.76260,130500
10.77072,125222
10.77885,121856
10.78697,119808
10.79510,118671
10.80322,118156
10.81133,116684
10.81947,117657
10.82758,116989
10.83570,115063
10.84383,106647
10.85195,107008
10.86008,100170
10.86820,98802
10.87632,97319
10.88445,102528
10.89257,104291
10.90070,102635
10.90882,93992
10.91693,98575
10.92507,99712
10.93318,95090
10.94132,95972
10.94943,94723
10.95755,89084
10.96568,95275
10.97380,95699
10.98192,98406
10.99005,100860
10.99817,97915
11.00630,102296
11.01442,95290
11.02253,94153
11.03067,90257
11.03878,85891
11.04692,85229
11.05503,86071
11.06315,89291
11.07128,85162
11.07940,90447
11.08752,92607
11.09565,95788
11.10377,90336
11.11190,95167
11.12002,87947
11.12813,80602
11.13627,79386
11.14438,79295
11.15252,76512
11.16063,76176
11.16875,80819
11.17688,83134
11.18500,82307
11.19313,83355
11.20125,89656
11.20937,89424
11.21750,85398
11.22562,85262
11.23373,81166
11.24187,79881
11.24998,81579
11.25812,75512
11.26623,72895
11.27435,71099
11.28248,76078
11.29060,80130
11.29873,87731
11.30685,110603
11.31497,170241
11.32310,277988
11.33122,417786
11.33935,561370
11.34747,657935
11.35558,642038
11.36372,548876
11.37183,403837
11.37995,277453
11.38808,203438
11.39620,166118
11.40433,153099
11.41245,144582
11.42057,142518
11.42870,138832
11.43682,135205
11.44495,135639
11.45307,127917
11.46118,113803
11.46932,110488
11.47743,117352
11.48555,123952
11.49368,147475
11.50180,153568
11.50993,165752
11.51805,161152
11.52617,144959
11.53430,138547
11.54242,122504
11.55055,120788
11.55867,114301
11.56678,109104
11.57492,106194
11.58303,108840
11.59117,107653
11.59928,126042
11.60740,138459
11.61553,169250
11.62365,180412
11.63177,173682
11.63990,156568
11.64802,134622
11.65615,113575
11.66427,105402
11.67238,100462
11.68052,103635
11.68863,106499
11.69677,109147
11.70488,113821
11.71300,114813
11.72113,119695
11.72925,112113
11.73737,104695
11.74550,96172
11.75362,84544
11.76175,84900
11.76987,81952
11.77798,80869
11.78612,79959
11.79423,83334
11.80237,84457
11.81048,80232
11.81860,85181
11.82673,86116
11.83485,81972
11.84298,83628
11.85110,84840
11.85922,82525
11.86735,81961
11.87547,78352
11.88358,77936
11.89172,72066
11.89983,73614
11.90797,79136
11.91608,76946
11.92420,81020
11.93233,84939
11.94045,89338
11.94858,86330
11.95670,83468
11.96482,84672
11.97295,103925
11.98107,158896
11.98920,299359
11.99732,540805
12.00543,846237
12.01357,1043963
12.02168,1058732
12.02980,880399
12.03793,655164
12.04605,434971
12.05418,305969
12.06230,230978
12.07042,195928
12.07855,184369
12.08667,171613
12.09480,157023
12.10292,155572
12.11103,146002
12.11917,155310
12.12728,153935
12.13542,144606
12.14353,134453
12.15165,133042
12.15978,124418
12.16790,122964
12.17602,107113
12.18415,114551
12.19227,109303
12.20040,106153
12.20852,107479
12.21663,110660
12.22477,108784
12.23288,111387
12.24102,110767
12.24913,105251
12.25725,100014
12.26538,101119
12.27350,102740
12.28162,103987
12.28975,90108
12.29787,98196
12.30600,93284
12.31412,93670
12.32223,91093
12.33037,93342
12.33848,86469
12.34662,91192
12.35473,92609
12.36285,84469
12.37098,84473
12.37910,90462
12.38723,92199
12.39535,97186
12.40347,105383
12.41160,106371
12.41972,120496
12.42783,126589
12.43597,130022
12.44408,132438
12.45222,117173
12.46033,109214
12.46845,104282
12.47658,95356
12.48470,97552
12.49283,86754
12.50095,88605
12.50907,85425
12.51720,86294
12.52532,101067
12.53343,149023
12.54157,278650
12.54968,553687
12.55782,946088
12.56593,1290822
12.57405,1361425
12.58218,1148960
12.59030,793936
12.59843,502644
12.60655,315161
12.61467,226060
12.62280,187482
12.63092,171529
12.63905,150769
12.64717,147145
12.65528,134887
12.66342,125334
12.67153,118092
12.67965,113094
12.68778,106770
12.69590,102216
12.70403,96385
12.71215,100843
12.72027,105329
12.72840,103974
12.73652,106752
12.74465,117151
12.75277,110513
12.76088,107889
12.76902,95969
12.77713,97933
12.78527,92689
12.79338,86507
12.80150,87835
12.80963,81657
12.81775,80575
12.82587,74840
12.83400,74044
12.84212,79367
12.85025,77386
12.85837,76225
12.86648,77266
12.87462,81864
12.88273,77376
12.89087,85154
12.89898,80690
12.90710,80567
12.91523,78213
12.92335,79086
12.93147,74074
12.93960,75818
12.94772,83117
12.95585,108398
12.96397,161054
12.97208,254953
12.98022,349741
12.98833,408898
12.99647,374868
13.00458,304287
13.01270,223874
13.02083,167119
13.02895,129719
13.03708,125190
13.04520,114255
13.05332,121124
13.06145,130683
13.06957,145573
13.07768,149876
13.08582,144896
13.09393,135862
13.10207,113446
13.11018,106418
13.11830,101738
13.12643,94610
13.13455,90561
13.14268,92324
13.15080,87131
13.15892,92751
13.16705,85204
13.17517,88212
13.18330,90526
13.19142,90005
13.19953,95564
13.20767,88764
13.21578,91572
13.22390,89403
13.23203,86344
13.24015,91156
13.24828,81973
13.25640,84894
13.26452,76672
13.27265,76989
13.28077,74784
13.28890,69186
13.29702,68765
13.30513,74032
13.31327,69702
13.32138,69321
13.32950,65838
13.33763,66694
13.34575,66228
13.35388,68400
13.36200,68254
13.37012,71121
13.37825,71818
13.38637,68300
13.39450,68539
13.40262,66376
13.41073,60888
13.41887,60404
13.42698,64591
13.43512,66380
13.44323,62264
13.45135,64212
13.45948,64505
13.46760,64935
13.47572,69869
13.48385,68418
13.49197,68453
13.50010,70947
13.50822,70051
13.51633,72135
13.52447,71332
13.53258,74601
13.54072,72014
13.54883,70695
13.55695,68429
13.56508,72038
13.57320,64434
13.58132,73430
13.58945,73028
13.59757,82321
13.60570,107591
13.61382,139194
13.62193,167543
13.63007,185753
13.63818,176821
13.64632,140871
13.65443,115396
13.66255,96696
13.67068,83864
13.67880,75231
13.68693,71740
13.69505,75723
13.70317,76671
13.71130,74380
13.71942,73646
13.72753,87472
13.73567,150756
13.74378,331750
13.75192,843415
13.76003,1843081
13.76815,3156983
13.77628,4435927
13.78440,5036267
13.79253,4634643
13.80065,3530832
13.80877,2378933
13.81690,1544390
13.82502,1114911
13.83315,918988
13.84127,835167
13.84938,756627
13.85752,671355
13.86563,575372
13.87375,524542
13.88188,455328
13.89000,396984
13.89813,377424
13.90625,355755
13.91437,323399
13.92250,308566
13.93062,293524
13.93875,280226
13.94687,277900
13.95498,296539
13.96312,303247
13.97123,388003
13.97935,411386
13.98748,446052
13.99560,412763
14.00373,363850
14.01185,320076
14.01997,280821
14.02810,243049
14.03622,230186
14.04435,217533
14.05247,220248
14.06058,215640
14.06872,212548
14.07683,199843
14.08497,203098
14.09308,195059
14.10120,203194
14.10933,188075
14.11745,185875
14.12557,190012
14.13370,204035
14.14182,244738
14.14995,258160
14.15807,288054
14.16618,276257
14.17432,287610
14.18243,297658
14.19057,314376
14.19868,363557
14.20680,387601
14.21493,387648
14.22305,351013
14.23118,317678
14.23930,292293
14.24742,289319
14.25555,248432
14.26367,235462
14.27178,209585
14.27992,200452
14.28803,174241
14.29617,166931
14.30428,157780
14.31240,148652
14.32053,154131
14.32865,141515
14.33678,139405
14.34490,130307
14.35302,124017
14.36115,118429
14.36927,117337
14.37738,107112
14.38552,109940
14.39363,132360
14.40177,184064
14.40988,274280
14.41800,380452
14.42613,476730
14.43425,470216
14.44238,394607
14.45050,296896
14.45862,211411
14.46675,170620
14.47487,141902
14.48300,126227
14.49112,124226
14.49923,115268
14.50737,122875
14.51548,125835
14.52360,134432
14.53173,135160
14.53985,134246
14.54798,121399
14.55610,111443
14.56422,106023
14.57235,100826
14.58047,92741
14.58860,90118
14.59672,91007
14.60483,86688
14.61297,83966
14.62108,89883
14.62922,90703
14.63733,87296
14.64545,84992
14.65358,80496
14.66170,81784
14.66982,80143
14.67795,75228
14.68607,84342
14.69420,76838
14.70232,77400
14.71043,84075
14.71857,79498
14.72668,85092
14.73482,85857
14.74293,90750
14.75105,87740
14.75918,91421
14.76730,88940
14.77542,93763
14.78355,102944
14.79167,139080
14.79980,249283
14.80792,529272
14.81603,1076626
14.82417,1863279
14.83228,2499989
14.84042,2728719
14.84853,2397345
14.85665,1778679
14.86478,1192206
14.87290,736852
14.88103,504694
14.88915,374828
14.89727,312108
14.90540,258460
14.91352,223896
14.92163,208605
14.92977,191847
14.93788,187033
14.94602,171387
14.95413,176948
14.96225,179509
14.97038,181253
14.97850,181155
14.98663,175986
14.99475,162812
15.00287,153689
15.01100,147773
15.01912,135759
15.02723,124736
15.03537,123907
15.04348,114821
15.05162,111952
15.05973,115654
15.06785,118261
15.07598,112321
15.08410,110245
15.09223,108039
15.10035,100193
15.10847,103699
15.11660,99925
15.12472,104663
15.13285,108196
15.14097,113889
15.14908,117220
15.15722,114469
15.16533,109716
15.17345,101685
15.18158,98596
15.18970,91727
15.19783,86667
15.20595,79653
15.21407,82600
15.22220,77758
15.23032,78048
15.23845,81806
15.24657,79340
15.25468,80458
15.26282,76531
15.27093,78461
15.27907,72969
15.28718,74022
15.29530,71339
15.30343,76593
15.31155,69977
15.31967,66909
15.32780,67752
15.33592,71712
15.34405,68603
15.35217,70084
15.36028,69958
15.36842,70401
15.37653,67378
15.38467,73720
15.39278,84414
15.40090,96191
15.40903,106653
15.41715,121555
15.42527,126510
15.43340,127334
15.44152,112094
15.44965,94200
15.45777,88743
15.46588,88760
15.47402,92575
15.48213,107795
15.49027,129814
15.49838,157039
15.50650,170441
15.51463,173446
15.52275,164532
15.53088,153577
15.53900,146993
15.54712,138717
15.55525,136710
15.56337,121431
15.57148,109231
15.57962,98659
15.58773,87032
15.59587,77276
15.60398,76342
15.61210,69518
15.62023,71990
15.62835,70625
15.63648,70450
15.64460,67170
15.65272,68070
15.66085,63700
15.66897,67276
15.67710,67572
15.68522,66911
15.69333,69420
15.70147,64950
15.70958,68267
15.71770,63505
15.72583,68706
15.73395,73109
15.74208,71608
15.75020,78036
15.75832,90576
15.76645,134064
15.77457,193872
15.78270,266579
15.79082,309080
15.79893,335210
15.80707,296248
15.81518,232609
15.82330,173064
15.83143,138700
15.83955,110980
15.84768,99643
15.85580,90512
15.86392,98337
15.87205,88620
15.88017,85478
15.88830,88839
15.89642,88993
15.90453,82393
15.91267,83096
15.92078,76903
15.92892,81356
15.93703,86965
15.94515,106562
15.95328,136027
15.96140,182586
15.96952,240095
15.97765,287134
15.98577,321176
15.99390,302811
16.00202,257344
16.01013,204481
16.01827,166896
16.02638,149073
16.03452,136278
16.04263,127618
16.05075,119405
16.05888,109133
16.06700,101435
16.07512,92550
16.08325,94168
16.09137,89793
16.09950,83947
16.10762,89677
16.11573,85907
16.12387,87053
16.13198,89118
16.14012,87694
16.14823,91051
16.15635,94377
16.16448,86155
16.17260,91230
16.18073,84018
16.18885,82663
16.19697,83937
16.20510,78470
16.21322,78745
16.22133,77020
16.22947,81062
16.23758,75581
16.24572,84736
16.25383,78179
16.26195,79444
16.27008,78654
16.27820,81178
16.28633,78648
16.29445,81054
16.30257,81808
16.31070,84876
16.31882,80973
16.32695,84570
16.33507,84387
16.34318,89570
16.35132,112434
16.35943,161102
16.36755,222704
16.37568,264020
16.38380,296924
16.39193,287402
16.40005,237317
16.40817,186450
16.41630,144757
16.42442,118023
16.43255,107444
16.44067,105819
16.44878,113016
16.45692,147947
16.46503,204857
16.47315,309473
16.48128,402585
16.48940,445743
16.49753,413870
16.50565,347647
16.51377,240656
16.52190,174939
16.53002,133848
16.53815,115038
16.54627,103139
16.55438,98828
16.56252,98458
16.57063,94924
16.57877,94302
16.58688,109143
16.59500,109645
16.60313,133735
16.61125,150411
16.61937,159329
16.62750,164368
16.63562,153256
16.64375,137049
16.65187,121314
16.65998,98101
16.66812,95412
16.67623,87285
16.68437,86826
16.69248,82197
16.70060,83955
16.70873,76846
16.71685,76541
16.72498,75137
16.73310,71564
16.74122,74767
16.74935,71362
16.75747,72214
16.76558,72568
16.77372,74880
16.78183,74184
16.78997,70284
16.79808,73908
16.80620,67038
16.81433,68126
16.82245,60235
16.83058,66867
16.83870,65317
16.84682,64629
16.85495,58619
16.86307,62961
16.87118,60094
16.87932,59281
16.88743,59824
16.89557,62001
16.90368,62882
16.91180,66082
16.91993,59589
16.92805,58648
16.93618,59115
16.94430,62020
16.95242,59964
16.96055,60605
16.96867,59902
16.97680,61367
16.98492,61750
16.99303,64969
17.00117,61214
17.00928,61151
17.01740,65204
17.02553,63162
17.03365,63048
17.04178,68384
17.04990,75033
17.05802,80696
17.06615,80711
17.07427,88382
17.08240,82184
17.09052,90382
17.09863,97726
17.10677,125448
17.11488,125884
17.12300,135858
17.13113,136228
17.13925,127760
17.14738,119024
17.15550,107859
17.16362,101841
17.17175,94418
17.17987,83443
17.18800,79170
17.19612,73436
17.20423,72752
17.21237,70899
17.22048,70133
17.22862,65791
17.23673,68962
17.24485,63979
17.25298,65985
17.26110,65873
17.26922,63833
17.27735,66552
17.28547,60882
17.29360,58000
17.30172,60586
17.30983,67672
17.31797,70430
17.32608,76149
17.33422,82532
17.34233,93658
17.35045,102794
17.35858,108906
17.36670,107988
17.37483,106929
17.38295,97963
17.39107,93351
17.39920,83372
17.40732,81926
17.41543,79619
17.42357,77958
17.43168,80185
17.43982,79055
17.44793,75461
17.45605,76681
17.46418,71398
17.47230,71465
17.48043,70113
17.48855,67670
17.49667,67637
17.50480,67802
17.51292,65084
17.52105,66749
17.52917,68893
17.53728,63995
17.54542,68319
17.55353,71570
17.56165,89008
17.56978,129365
17.57790,209619
17.58603,329705
17.59415,545158
17.60227,802084
17.61040,988613
17.61852,1022971
17.62665,901960
17.63477,710883
17.64288,551098
17.65102,454840
17.65913,410625
17.66725,400469
17.67538,377976
17.68350,332462
17.69163,290187
17.69975,241676
17.70787,193840
17.71600,164821
17.72412,147838
17.73225,131246
17.74037,120135
17.74848,115859
17.75662,112494
17.76473,107966
17.77287,102853
17.78098,103244
17.78910,114664
17.79723,151654
17.80535,207992
17.81347,329317
17.82160,464116
17.82972,608621
17.83785,638306
17.84597,549500
17.85408,445118
17.86222,341934
17.87033,265318
17.87847,210568
17.88658,175084
17.89470,152212
17.90283,139600
17.91095,125391
17.91907,118348
17.92720,111029
17.93532,100687
17.94345,101076
17.95157,102687
17.95968,93448
17.96782,88814
17.97593,94849
17.98407,88035
17.99218,81361
18.00030,84924
18.00843,88049
18.01655,95429
18.02468,102043
18.03280,116650
18.04092,124444
18.04905,136276
18.05717,183853
18.06528,315540
18.07342,579291
18.08153,1043377
18.08967,1457185
18.09778,1850783
18.10590,1870130
18.11403,1589864
18.12215,1204090
18.13028,891954
18.13840,703597
18.14652,642284
18.15465,670904
18.16277,742700
18.17090,775921
18.17902,798114
18.18713,791031
18.19527,782928
18.20338,766059
18.21150,746244
18.21963,728840
18.22775,713088
18.23588,680217
18.24400,663139
18.25212,653971
18.26025,651525
18.26837,629670
18.27650,603346
18.28462,575067
18.29273,556188
18.30087,535112
18.30898,540266
18.31710,519878
18.32523,500765
18.33335,481961
18.34148,481815
18.34960,478649
18.35772,470374
18.36585,471879
18.37397,470739
18.38210,478811
18.39022,509090
18.39833,575735
18.40647,691155
18.41458,828830
18.42272,975184
18.43083,989704
18.43895,937236
18.44708,844121
18.45520,758625
18.46332,717857
18.47145,746351
18.47957,788288
18.48770,805159
18.49582,764740
18.50393,683924
18.51207,606076
18.52018,539523
18.52832,493368
18.53643,440482
18.54455,422757
18.55268,407115
18.56080,387089
18.56893,393952
18.57705,374991
18.58517,363368
18.59330,345717
18.60142,351542
18.60953,350337
18.61767,357386
18.62578,347200
18.63392,348162
18.64203,334774
18.65015,327589
18.65828,328144
18.66640,328805
18.67453,316273
18.68265,308707
18.69077,300442
18.69890,304908
18.70702,302141
18.71513,300895
18.72327,300118
18.73138,290613
18.73952,292509
18.74763,277239
18.75575,268575
18.76388,268714
18.77200,265260
18.78013,267374
18.78825,258964
18.79637,256965
18.80450,261503
18.81262,254486
18.82075,253465
18.82887,248000
18.83698,250872
18.84512,239067
18.85323,238201
18.86135,239281
18.86948,238650
18.87760,230139
18.88573,243737
18.89385,233424
18.90197,229987
18.91010,228315
18.91822,229523
18.92635,223175
18.93447,232363
18.94258,234866
18.95072,230801
18.95883,235547
18.96695,233478
18.97508,227027
18.98320,221263
18.99133,217207
18.99945,218672
19.00757,214513
19.01570,205616
19.02382,201435
19.03195,197562
19.04007,193668
19.04818,189986
19.05632,197301
19.06443,204165
19.07257,209933
19.08068,241705
19.08880,280590
19.09693,336206
19.10505,383993
19.11317,412300
19.12130,402471
19.12942,345412
19.13755,311889
19.14567,265669
19.15378,255697
19.16192,238167
19.17003,218470
19.17817,208051
19.18628,201604
19.19440,198488
19.20253,192359
19.21065,185201
19.21878,182265
19.22690,177858
19.23502,179432
19.24315,167221
19.25127,170537
19.25938,167709
19.26752,169072
19.27563,169054
19.28377,167195
19.29188,168851
19.30000,180107
19.30813,176363
19.31625,168722
19.32438,176537
19.33250,173132
19.34062,183113
19.34875,183671
19.35687,200889
19.36498,239324
19.37312,262950
19.38123,274253
19.38937,264904
19.39748,239906
19.40560,206576
19.41373,188580
19.42185,177362
19.42998,161609
19.43810,160232
19.44622,158427
19.45435,156244
19.46247,151677
19.47060,159091
19.47872,169624
19.48683,198205
19.49497,243675
19.50308,264948
19.51120,282452
19.51933,271044
19.52745,243793
19.53558,211163
19.54370,181021
19.55182,163632
19.55995,155993
19.56807,153738
19.57620,145678
19.58432,144464
19.59243,137928
19.60057,139379
19.60868,132798
19.61682,129596
19.62493,132910
19.63305,144681
19.64118,160936
19.64930,178633
19.65742,223124
19.66555,272771
19.67367,311662
19.68180,322003
19.68992,337027
19.69803,319937
19.70617,293641
19.71428,267032
19.72242,231047
19.73053,216348
19.73865,199845
19.74678,186747
19.75490,168112
19.76302,164425
19.77115,157466
19.77927,158730
19.78740,165430
19.79552,172738
19.80363,174616
19.81177,175755
19.81988,170351
19.82802,162825
19.83613,153246
19.84425,154994
19.85238,199308
19.86050,345918
19.86863,715213
19.87675,1508136
19.88487,2809878
19.89300,4404129
19.90112,5733386
19.90923,6122758
19.91737,5579867
19.92548,4389284
19.93362,3161290
19.94173,2140532
19.94985,1532057
19.95798,1221426
19.96610,1054693
19.97423,941530
19.98235,846493
19.99047,774788
19.99860,712565
20.00672,669505
20.01485,631955
20.02297,602659
20.03108,585970
20.03922,520203
20.04733,478846
20.05545,411784
20.06358,339867
20.07170,288036
20.07983,255382
20.08795,237956
20.09607,220208
20.10420,212045
20.11232,203277
20.12045,185738
20.12857,181554
20.13668,166687
20.14482,172274
20.15293,161349
20.16105,163478
20.16918,174315
20.17730,195036
20.18543,205663
20.19355,215449
20.20167,217102
20.20980,217653
20.21792,194741
20.22605,191604
20.23417,183294
20.24228,183822
20.25042,190275
20.25853,206972
20.26667,244686
20.27478,270507
20.28290,311980
20.29103,308460
20.29915,305180
20.30727,268783
20.31540,240039
20.32352,207802
20.33165,183105
20.33977,173010
20.34788,161808
20.35602,142789
20.36413,139626
20.37227,130894
20.38038,128676
20.38850,128751
20.39663,124392
20.40475,120828
20.41287,126337
20.42100,126983
20.42912,132988
20.43725,132664
20.44537,141031
20.45348,155524
20.46162,160951
20.46973,164186
20.47787,163640
20.48598,164333
20.49410,159046
20.50223,139990
20.51035,135853
20.51848,129533
20.52660,119498
20.53472,116936
20.54285,119084
20.55097,120368
20.55908,111940
20.56722,106096
20.57533,114361
20.58347,112526
20.59158,106140
20.59970,108272
20.60783,105522
20.61595,102293
20.62408,106278
20.63220,103717
20.64032,103125
20.64845,103332
20.65657,107129
20.66470,117107
20.67282,104343
20.68093,107350
20.68907,103022
20.69718,102708
20.70530,101080
20.71343,99250
20.72155,96253
20.72968,95928
20.73780,100216
20.74592,101194
20.75405,99197
20.76217,97809
20.77030,107574
20.77842,113210
20.78653,137597
20.79467,175721
20.80278,244333
20.81090,330202
20.81903,405526
20.82715,426941
20.83528,397027
20.84340,316279
20.85152,238941
20.85965,182126
20.86777,149931
20.87590,127096
20.88402,117843
20.89213,115703
20.90027,111929
20.90838,108826
20.91652,106263
20.92463,103538
20.93275,106147
20.94088,105533
20.94900,101617
20.95712,98945
20.96525,103579
20.97337,95365
20.98150,96421
20.98962,92924
20.99773,86041
21.00587,89732
21.01398,95076
21.02212,95743
21.03023,100319
21.03835,96099
21.04648,96086
21.05460,94421
21.06273,89496
21.07085,88111
21.07897,93989
21.08710,90193
21.09522,88651
21.10333,91250
21.11147,91204
21.11958,88078
21.12772,93473
21.13583,97749
21.14395,105654
21.15208,116056
21.16020,133558
21.16833,137782
21.17645,133398
21.18457,126884
21.19270,115077
21.20082,108802
21.20893,100681
21.21707,100856
21.22518,96878
21.23332,89828
21.24143,93519
21.24955,90406
21.25768,90018
21.26580,91523
21.27393,88906
21.28205,87447
21.29017,85918
21.29830,89256
21.30642,87880
21.31455,80705
21.32267,81347
21.33078,81644
21.33892,82636
21.34703,86887
21.35515,82225
21.36328,86724
21.37140,86185
21.37953,86194
21.38765,96661
21.39577,106011
21.40390,120941
21.41202,128444
21.42015,122124
21.42827,125357
21.43638,113555
21.44452,106997
21.45263,99115
21.46075,97538
21.46888,91707
21.47700,93654
21.48513,88271
21.49325,90055
21.50137,83391
21.50950,83178
21.51762,82763
21.52575,85569
21.53387,82449
21.54198,81268
21.55012,78087
21.55823,81758
21.56637,82774
21.57448,84524
21.58260,93095
21.59073,100873
21.59885,102003
21.60697,104895
21.61510,105943
21.62322,111964
21.63135,119795
21.63947,121038
21.64758,123776
21.65572,130475
21.66383,127072
21.67197,123223
21.68008,122489
21.68820,123329
21.69633,121265
21.70445,111871
21.71258,101984
21.72070,101386
21.72882,91123
21.73695,85188
21.74507,91310
21.75318,85368
21.76132,85118
21.76943,87219
21.77757,89271
21.78568,91552
21.79380,95488
21.80193,96882
21.81005,99367
21.81818,105929
21.82630,103564
21.83442,106506
21.84255,109770
21.85067,108630
21.85880,107513
21.86692,97795
21.87503,95071
21.88317,89234
21.89128,89192
21.89940,83205
21.90753,83995
21.91565,83423
21.92378,80618
21.93190,80092
21.94002,81953
21.94815,77427
21.95627,73456
21.96440,73456
21.97252,75253
21.98063,66670
21.98877,68302
21.99688,69706
22.00500,68589
22.01313,68318
22.02125,75122
22.02938,72050
22.03750,76738
22.04562,73920
22.05375,73352
22.06187,70613
22.07000,71012
22.07812,67012
22.08623,72843
22.09437,73701
22.10248,70152
22.11062,72944
22.11873,64462
22.12685,70481
22.13498,71592
22.14310,71247
22.15122,72847
22.15935,73131
22.16747,65535
22.17560,67028
22.18372,70785
22.19183,71337
22.19997,71281
22.20808,69738
22.21622,72764
22.22433,71075
22.23245,75843
22.24058,71166
22.24870,79090
22.25682,69510
22.26495,71477
22.27307,76226
22.28120,76460
22.28932,77113
22.29743,80052
22.30557,84805
22.31368,84229
22.32182,86756
22.32993,80717
22.33805,86848
22.34618,83023
22.35430,77058
22.36243,75060
22.37055,73526
22.37867,77014
22.38680,77846
22.39492,92152
22.40303,110019
22.41117,129718
22.41928,152010
22.42742,165047
22.43553,166461
22.44365,153856
22.45178,130723
22.45990,118248
22.46803,113712
22.47615,118577
22.48427,118520
22.49240,140606
22.50052,143408
22.50863,146069
22.51677,141742
22.52488,129616
22.53302,129212
22.54113,111851
22.54925,110124
22.55738,96432
22.56550,96817
22.57363,91877
22.58175,91358
22.58987,84286
22.59800,79498
22.60612,79108
22.61425,73527
22.62237,74733
22.63048,77878
22.63862,84483
22.64673,82005
22.65485,84203
22.66298,80673
22.67110,77304
22.67923,76420
22.68735,78559
22.69547,76273
22.70360,84258
22.71172,89645
22.71985,95497
22.72797,93029
22.73608,91227
22.74422,89236
22.75233,81806
22.76047,77952
22.76858,77065
22.77670,78402
22.78483,82002
22.79295,99843
22.80107,107667
22.80920,112784
22.81732,119147
22.82545,116242
22.83357,112667
22.84168,101356
22.84982,86330
22.85793,84946
22.86607,89595
22.87418,95504
22.88230,98658
22.89043,109941
22.89855,124604
22.90668,143468
22.91480,182226
22.92292,204084
22.93105,221005
22.93917,212227
22.94728,199760
22.95542,167010
22.96353,150351
22.97167,141743
22.97978,130083
22.98790,119668
22.99603,120997
23.00415,117446
23.01228,112425
23.02040,112038
23.02852,112335
23.03665,109355
23.04477,105601
23.05288,110724
23.06102,109000
23.06913,105700
23.07727,105476
23.08538,107479
23.09350,101539
23.10163,106304
23.10975,106982
23.11788,104383
23.12600,102498
23.13412,101314
23.14225,96301
23.15037,106209
23.15850,102457
23.16662,108575
23.17473,103981
23.18287,109252
23.19098,106133
23.19910,111593
23.20723,104857
23.21535,101713
23.22348,103194
23.23160,103864
23.23972,103557
23.24785,103228
23.25597,109648
23.26410,113028
23.27222,119144
23.28033,115096
23.28847,106901
23.29658,104900
23.30470,104829
23.31283,106720
23.32095,105924
23.32908,112572
23.33720,119543
23.34532,142895
23.35345,189781
23.36157,236018
23.36970,311941
23.37782,427509
23.38593,529820
23.39407,637741
23.40218,719085
23.41032,755558
23.41843,798719
23.42655,807251
23.43468,818646
23.44280,769982
23.45092,756512
23.45905,696120
23.46717,654301
23.47530,601614
23.48342,560957
23.49153,530305
23.49967,485745
23.50778,446320
23.51592,420293
23.52403,388635
23.53215,349294
23.54028,336985
23.54840,318006
23.55653,293355
23.56465,289959
23.57277,297308
23.58090,288255
23.58902,320136
23.59713,326244
23.60527,345481
23.61338,345274
23.62152,316174
23.62963,295893
23.63775,276558
23.64588,270467
23.65400,284541
23.66213,291600
23.67025,313810
23.67837,304782
23.68650,271577
23.69462,242953
23.70273,211138
23.71087,191282
23.71898,163997
23.72712,158679
23.73523,162379
23.74335,170010
23.75148,218671
23.75960,345206
23.76773,623756
23.77585,1096612
23.78397,1703063
23.79210,2207414
23.80022,2447252
23.80835,2394588
23.81647,2056231
23.82458,1672966
23.83272,1300539
23.84083,1033121
23.84895,815858
23.85708,678598
23.86520,574970
23.87333,494324
23.88145,418339
23.88957,393655
23.89770,362879
23.90582,345023
23.91395,321692
23.92207,304507
23.93018,292330
23.93832,263434
23.94643,255643
23.95457,236152
23.96268,224744
23.97080,211844
23.97893,214287
23.98705,204554
23.99517,217211
24.00330,259418
24.01142,384036
24.01955,578320
24.02767,876982
24.03578,1117944
24.04392,1145923
24.05203,1011850
24.06017,754635
24.06828,510976
24.07640,348684
24.08453,252445
24.09265,208862
24.10077,182757
24.10890,170449
24.11702,162947
24.12515,156757
24.13327,154993
24.14138,154041
24.14952,155150
24.15763,148918
24.16577,146881
24.17388,149666
24.18200,142279
24.19013,147458
24.19825,147413
24.20638,142644
24.21450,142545
24.22262,144676
24.23075,132490
24.23887,130314
24.24698,124871
24.25512,121368
24.26323,122955
24.27137,110482
24.27948,113411
24.28760,110582
24.29573,113632
24.30385,106985
24.31198,105463
24.32010,112182
24.32822,103632
24.33635,104445
24.34447,109057
24.35258,106882
24.36072,109338
24.36883,117078
24.37697,131796
24.38508,152770
24.39320,166196
24.40133,166503
24.40945,159220
24.41758,150907
24.42570,156813
24.43382,168511
24.44195,189690
24.45007,199682
24.45820,218207
24.46632,231335
24.47443,262037
24.48257,278785
24.49068,306029
24.49880,323601
24.50693,331065
24.51505,340735
24.52318,347032
24.53130,356564
24.53942,366383
24.54755,377220
24.55567,409216
24.56380,401504
24.57192,399677
24.58003,385414
24.58817,353963
24.59628,331713
24.60442,320955
24.61253,317535
24.62065,304753
24.62878,301459
24.63690,296516
24.64502,295804
24.65315,287146
24.66127,288487
24.66940,294841
24.67752,279942
24.68563,277282
24.69377,262120
24.70188,265958
24.71002,271730
24.71813,268049
24.72625,260631
24.73438,260094
24.74250,249682
24.75062,254976
24.75875,250088
24.76687,251729
24.77500,248301
24.78312,251715
24.79123,248706
24.79937,242067
24.80748,241902
24.81562,243347
24.82373,243931
24.83185,243069
24.83998,271630
24.84810,297312
24.85623,337246
24.86435,393936
24.87247,468227
24.88060,568644
24.88872,660476
24.89683,716734
24.90497,685109
24.91308,583746
24.92122,471566
24.92933,341845
24.93745,239875
24.94558,183515
24.95370,155385
24.96183,136853
24.96995,128961
24.97807,118753
24.98620,112428
24.99432,115594
25.00245,111499
25.01057,103661
25.01868,100990
25.02682,97526
25.03493,96194
25.04305,99518
25.05118,97698
25.05930,95073
25.06743,100481
25.07555,99835
25.08367,104052
25.09180,116430
25.09992,152673
25.10805,254118
25.11617,504446
25.12428,977409
25.13242,1713826
25.14053,2469806
25.14865,2996421
25.15678,2989727
25.16490,2557312
25.17303,1867921
25.18115,1229364
25.18927,773476
25.19740,457514
25.20552,296012
25.21365,208906
25.22177,171526
25.22988,162926
25.23802,171057
25.24613,186927
25.25427,227312
25.26238,277251
25.27050,326478
25.27863,351579
25.28675,346636
25.29487,343807
25.30300,350945
25.31112,387255
25.31925,402677
25.32737,409566
25.33548,406806
25.34362,421712
25.35173,420517
25.35987,426115
25.36798,421212
25.37610,427945
25.38423,425325
25.39235,420205
25.40048,420741
25.40860,410160
25.41672,414839
25.42485,423521
25.43297,408971
25.44108,407754
25.44922,403139
25.45733,410646
25.46547,412209
25.47358,402130
25.48170,398614
25.48983,396204
25.49795,395766
25.50608,382176
25.51420,375834
25.52232,374750
25.53045,367296
25.53857,357069
25.54668,361662
25.55482,373124
25.56293,361323
25.57107,358586
25.57918,358729
25.58730,349843
25.59543,350216
25.60355,347130
25.61168,344637
25.61980,337378
25.62792,330790
25.63605,334280
25.64417,331345
25.65230,328587
25.66042,327042
25.66853,319803
25.67667,309981
25.68478,305309
25.69290,298185
25.70103,296812
25.70915,293938
25.71728,295373
25.72540,289971
25.73352,281729
25.74165,275495
25.74977,278158
25.75790,269560
25.76602,275187
25.77413,275884
25.78227,280435
25.79038,271738
25.79850,273353
25.80663,274198
25.81475,269684
25.82288,283694
25.83100,290051
25.83912,286704
25.84725,298332
25.85537,304419
25.86350,298081
25.87162,276884
25.87973,266078
25.88787,250945
25.89598,238740
25.90412,229294
25.91223,221032
25.92035,225072
25.92848,220530
25.93660,218483
25.94472,209566
25.95285,206851
25.96097,206652
25.96910,204589
25.97722,205647
25.98533,193507
25.99347,197533
26.00158,192842
26.00972,200148
26.01783,189919
26.02595,185104
26.03408,190113
26.04220,189155
26.05033,186898
26.05845,173412
26.06657,177635
26.07470,179185
26.08282,182720
26.09093,178359
26.09907,173110
26.10718,176533
26.11532,172398
26.12343,175311
26.13155,166670
26.13968,173087
26.14780,176210
26.15593,176814
26.16405,170325
26.17217,177278
26.18030,173206
26.18842,165558
26.19653,164270
26.20467,161725
26.21278,155934
26.22092,157109
26.22903,159260
26.23715,148056
26.24528,153401
26.25340,150985
26.26153,148146
26.26965,145866
26.27777,144375
26.28590,138956
26.29402,143477
26.30215,139309
26.31027,133539
26.31838,134681
26.32652,133297
26.33463,130099
26.34275,130073
26.35088,134072
26.35900,132033
26.36713,132813
26.37525,140278
26.38337,143488
26.39150,153126
26.39962,151790
26.40775,152586
26.41587,144326
26.42398,141953
26.43212,135320
26.44023,136487
26.44837,131105
26.45648,124723
26.46460,133586
26.47273,128503
26.48085,125081
26.48897,123553
26.49710,118340
26.50522,119217
26.51335,111944
26.52147,109069
26.52958,108110
26.53772,113178
26.54583,107074
26.55397,111342
26.56208,104914
26.57020,106190
26.57833,104206
26.58645,98778
26.59457,100626
26.60270,99707
26.61082,101599
26.61895,100098
26.62707,99570
26.63518,100241
26.64332,105107
26.65143,103122
26.65957,97439
26.66768,108659
26.67580,109387
26.68393,111075
26.69205,107644
26.70018,97733
26.70830,101867
26.71642,97129
26.72455,96284
26.73267,97852
26.74078,93205
26.74892,93256
26.75703,90601
26.76517,91061
26.77328,92135
26.78140,95935
26.78953,97814
26.79765,100146
26.80578,95035
26.81390,95878
26.82202,95737
26.83015,98233
26.83827,95330
26.84638,92646
26.85452,84795
26.86263,86221
26.87077,88490
26.87888,89206
26.88700,80886
26.89513,82029
26.90325,79024
26.91138,82818
26.91950,86051
26.92762,80648
26.93575,80864
26.94387,79090
26.95200,84167
26.96012,83449
26.96823,97590
26.97637,109968
26.98448,139562
26.99260,187351
27.00073,262793
27.00885,369072
27.01698,458104
27.02510,551954
27.03322,589600
27.04135,593204
27.04947,535451
27.05760,471179
27.06572,408634
27.07383,343710
27.08197,304973
27.09008,263283
27.09822,229214
27.10633,207198
27.11445,193075
27.12258,192224
27.13070,182822
27.13882,178113
27.14695,160892
27.15507,157369
27.16320,154689
27.17132,156802
27.17943,150423
27.18757,152195
27.19568,142495
27.20382,130851
27.21193,130987
27.22005,129156
27.22818,127373
27.23630,126333
27.24442,121505
27.25255,118226
27.26067,121463
27.26880,113330
27.27692,110168
27.28503,109794
27.29317,98963
27.30128,95949
27.30942,93453
27.31753,95183
27.32565,95544
27.33378,97639
27.34190,96055
27.35003,96622
27.35815,96037
27.36627,95748
27.37440,95729
27.38252,92399
27.39063,90642
27.39877,96904
27.40688,92373
27.41502,81371
27.42313,84627
27.43125,86922
27.43938,87254
27.44750,86542
27.45563,88553
27.46375,83657
27.47187,85458
27.48000,82642
27.48812,83183
27.49625,85901
27.50437,81344
27.51248,83687
27.52062,91028
27.52873,86474
27.53685,88088
27.54498,89001
27.55310,85008
27.56123,85403
27.56935,84575
27.57747,94660
27.58560,97178
27.59372,111404
27.60185,106713
27.60997,111609
27.61808,104317
27.62622,97289
27.63433,91496
27.64245,84800
27.65058,80095
27.65870,77817
27.66683,83424
27.67495,83895
27.68307,86809
27.69120,90255
27.69932,88707
27.70745,88043
27.71557,80782
27.72368,78869
27.73182,78202
27.73993,73989
27.74807,76396
27.75618,72584
27.76430,81624
27.77243,73949
27.78055,79448
27.78867,75463
27.79680,75796
27.80492,76262
27.81305,78310
27.82117,72789
27.82928,76047
27.83742,71383
27.84553,77073
27.85367,72320
27.86178,73563
27.86990,72369
27.87803,70073
27.88615,71595
27.89428,64882
27.90240,72160
27.91052,68453
27.91865,70822
27.92677,67142
27.93488,70891
27.94302,68856
27.95113,68668
27.95927,66280
27.96738,66760
27.97550,66046
27.98363,68875
27.99175,66061
27.99988,70022
28.00800,71862
28.01612,75994
28.02425,82455
28.03237,85387
28.04048,100333
28.04862,109518
28.05673,115348
28.06487,106684
28.07298,102949
28.08110,98210
28.08923,87637
28.09735,94807
28.10548,81342
28.11360,85512
28.12172,79852
28.12985,73127
28.13797,69910
28.14610,68170
28.15422,66527
28.16233,64964
28.17047,72386
28.17858,76358
28.18670,79559
28.19483,89254
28.20295,98592
28.21108,106398
28.21920,108703
28.22732,111970
28.23545,105820
28.24357,99047
28.25170,92638
28.25982,81970
28.26793,80484
28.27607,77748
28.28418,77971
28.29232,74210
28.30043,74908
28.30855,82674
28.31668,97601
28.32480,110599
28.33292,128339
28.34105,137562
28.34917,147370
28.35730,167771
28.36542,185613
28.37353,196080
28.38167,211712
28.38978,221556
28.39792,233559
28.40603,230729
28.41415,221324
28.42228,211093
28.43040,205647
28.43852,191450
28.44665,183167
28.45477,164895
28.46290,170700
28.47102,157184
28.47913,139224
28.48727,137519
28.49538,129626
28.50352,131981
28.51163,116149
28.51975,117476
28.52788,115586
28.53600,111785
28.54413,101946
28.55225,103844
28.56037,100968
28.56850,103859
28.57662,94052
28.58473,94020
28.59287,92674
28.60098,92494
28.60912,88990
28.61723,89082
28.62535,90898
28.63348,94521
28.64160,89245
28.64973,97389
28.65785,94315
28.66597,97458
28.67410,89928
28.68222,95139
28.69033,90755
28.69847,87752
28.70658,84309
28.71472,81296
28.72283,83567
28.73095,81618
28.73908,87963
28.74720,89243
28.75533,100776
28.76345,109699
28.77157,106439
28.77970,102392
28.78782,97069
28.79595,91952
28.80407,90142
28.81218,93393
28.82032,92695
28.82843,88851
28.83655,86885
28.84468,86160
28.85280,78538
28.86093,82185
28.86905,87585
28.87717,86597
28.88530,87584
28.89342,93781
28.90155,96964
28.90967,93825
28.91778,90520
28.92592,86992
28.93403,86231
28.94217,80740
28.95028,80946
28.95840,82910
28.96653,83383
28.97465,84362
28.98277,75802
28.99090,78382
28.99902,70994
29.00715,70022
29.01527,72295
29.02338,70459
29.03152,67119
29.03963,71071
29.04777,70507
29.05588,73463
29.06400,69609
29.07213,72765
29.08025,69543
29.08837,74369
29.09650,72766
29.10462,75034
29.11275,72553
29.12087,69573
29.12898,66729
29.13712,67281
29.14523,70746
29.15337,65909
29.16148,69313
29.16960,70228
29.17773,74830
29.18585,83122
29.19398,88367
29.20210,103766
29.21022,119364
29.21835,128698
29.22647,131298
29.23458,138395
29.24272,134092
29.25083,145584
29.25897,159313
29.26708,171331
29.27520,172856
29.28333,166893
29.29145,138864
29.29958,116443
29.30770,98760
29.31582,84205
29.32395,78777
29.33207,77137
29.34020,71427
29.34832,75347
29.35643,71007
29.36457,70333
29.37268,67913
29.38080,68131
29.38893,68886
29.39705,69480
29.40518,72772
29.41330,77638
29.42142,83536
29.42955,83192
29.43767,82891
29.44580,80253
29.45392,76288
29.46203,75522
29.47017,76733
29.47828,70537
29.48640,74624
29.49453,72040
29.50265,72129
29.51078,69982
29.51890,74402
29.52702,72171
29.53515,70586
29.54327,73373
29.55140,70340
29.55952,67899
29.56763,64886
29.57577,63367
29.58388,62761
29.59202,64271
29.60013,66496
29.60825,66080
29.61638,64855
29.62450,65536
29.63262,63440
29.64075,63321
29.64887,64909
29.65700,62520
29.66512,67442
29.67323,69553
29.68137,65913
29.68948,69842
29.69762,72057
29.70573,71628
29.71385,67549
29.72198,69067
29.73010,67393
29.73822,69229
29.74635,68647
29.75447,67119
29.76260,66845
29.77072,61555
29.77883,64710
29.78697,63334
29.79508,57032
29.80322,58911
29.81133,58700
29.81945,61440
29.82758,60730
29.83570,58501
29.84383,62944
29.85195,58424
29.86007,60593
29.86820,65502
29.87632,75805
29.88443,89752
29.89257,106228
29.90068,112274
29.90882,115309
29.91693,107906
29.92505,95245
29.93318,85767
29.94130,80061
29.94943,78877
29.95755,82024
29.96567,87844
29.97380,91607
29.98192,96734
29.99005,108921
29.99817,107678
30.00628,121402
30.01442,127267
30.02253,134912
30.03065,128307
30.03878,131974
30.04690,129074
30.05503,132113
30.06315,135942
30.07127,135422
30.07940,131047
30.08752,132889
30.09565,134087
30.10377,127223
30.11188,123073
30.12002,121257
30.12813,118488
30.13625,118854
30.14438,109749
30.15250,111204
30.16063,105451
30.16875,104428
30.17687,104461
30.18500,106338
30.19312,106944
30.20125,100990
30.20937,96341
30.21748,98457
30.22562,89489
30.23373,92249
30.24187,83941
30.24998,88289
30.25810,89539
30.26623,83474
30.27435,80964
30.28247,75835
30.29060,82634
30.29872,77097
30.30685,76385
30.31497,73172
30.32308,72890
30.33122,77666
30.33933,74993
30.34747,73819
30.35558,73626
30.36370,73317
30.37183,70794
30.37995,73489
30.38808,67261
30.39620,70870
30.40432,70370
30.41245,68452
30.42057,68882
30.42868,66272
30.43682,68829
30.44493,63484
30.45307,65553
30.46118,64451
30.46930,67241
30.47743,64748
30.48555,64129
30.49368,71097
30.50180,73215
30.50992,68119
30.51805,69913
30.52617,63031
30.53428,62765
30.54242,65529
30.55053,63765
30.55867,63710
30.56678,64119
30.57490,65726
30.58303,66229
30.59115,65618
30.59928,67384
30.60740,64614
30.61552,63452
30.62365,62247
30.63177,60265
30.63990,60536
30.64802,62096
30.65613,61557
30.66427,60525
30.67238,62739
30.68050,63371
30.68863,68626
30.69675,80124
30.70488,82823
30.71300,91463
30.72112,94302
30.72925,101650
30.73737,105173
30.74550,101771
30.75362,111626
30.76173,105935
30.76987,110009
30.77798,126367
30.78612,146290
30.79423,162521
30.80235,185208
30.81048,195402
30.81860,203812
30.82672,193513
30.83485,174763
30.84297,151588
30.85110,140532
30.85922,139578
30.86733,134462
30.87547,130397
30.88358,129723
30.89172,128623
30.89983,132710
30.90795,130061
30.91608,125013
30.92420,126835
30.93232,122411
30.94045,124415
30.94857,122061
30.95670,131339
30.96482,123460
30.97293,124175
30.98107,123961
30.98918,118384
30.99732,116536
31.00543,124331
31.01355,126196
31.02168,119017
31.02980,124682
31.03793,123877
31.04605,127162
31.05417,123877
31.06230,124721
31.07042,120511
31.07853,127189
31.08667,131450
31.09478,141041
31.10292,144596
31.11103,148207
31.11915,140039
31.12728,137548
31.13540,128990
31.14353,128139
31.15165,125967
31.15977,126023
31.16790,126443
31.17602,129696
31.18413,141018
31.19227,164983
31.20038,196005
31.20852,242566
31.21663,284335
31.22475,315739
31.23288,320853
31.24100,295617
31.24913,248864
31.25725,203970
31.26537,158928
31.27350,142491
31.28162,122460
31.28975,114586
31.29787,107030
31.30598,108547
31.31412,107185
31.32223,111706
31.33035,111760
31.33848,105818
31.34660,107008
31.35473,102297
31.36285,106600
31.37097,107929
31.37910,111836
31.38722,109338
31.39535,114209
31.40347,106974
31.41158,105639
31.41972,100019
31.42783,96615
31.43597,93614
31.44408,99240
31.45220,90951
31.46033,90534
31.46845,90256
31.47657,93345
31.48470,96154
31.49282,94900
31.50095,94177
31.50907,88407
31.51718,91362
31.52532,95424
31.53343,93488
31.54157,89540
31.54968,94685
31.55780,94710
31.56593,92271
31.57405,87743
31.58217,86103
31.59030,85745
31.59842,90103
31.60655,89352
31.61467,88259
31.62278,84524
31.63092,86289
31.63903,84894
31.64717,88047
31.65528,88751
31.66340,86318
31.67153,89531
31.67965,95114
31.68778,88225
31.69590,85728
31.70402,83110
31.71215,84318
31.72027,82993
31.72838,79295
31.73652,79427
31.74463,74673
31.75277,78931
31.76088,75712
31.76900,79603
31.77713,76373
31.78525,78103
31.79338,76615
31.80150,78461
31.80962,80661
31.81775,77508
31.82587,75971
31.83400,76703
31.84212,74875
31.85023,78808
31.85837,81219
31.86648,81384
31.87460,82339
31.88273,81071
31.89085,84278
31.89898,89459
31.90710,103493
31.91522,109233
31.92335,112089
31.93147,117326
31.93960,118527
31.94772,122675
31.95583,125253
31.96397,129776
31.97208,132777
31.98020,132185
31.98833,135061
31.99645,133253
32.00458,135513
32.01270,131383
32.02082,129201
32.02895,129399
32.03707,119501
32.04520,125580
32.05332,119851
32.06143,116512
32.06957,114978
32.07768,108261
32.08582,107219
32.09393,103515
32.10205,99365
32.11018,97099
32.11830,94937
32.12642,90542
32.13455,90678
32.14267,83901
32.15080,85730
32.15892,86787
32.16703,81442
32.17517,86827
32.18328,83666
32.19142,84733
32.19953,80144
32.20765,81462
32.21578,77401
32.22390,77233
32.23202,77096
32.24015,81588
32.24827,77334
32.25640,83331
32.26452,82747
32.27263,84169
32.28077,80639
32.28888,80191
32.29702,81615
32.30513,76027
32.31325,76784
32.32138,72885
32.32950,72221
32.33763,75090
32.34575,74792
32.35387,78225
32.36200,74506
32.37012,74993
32.37823,75562
32.38637,69082
32.39448,69737
32.40262,78406
32.41073,68929
32.41885,70992
32.42698,71877
32.43510,68133
32.44323,69488
32.45135,67487
32.45947,69962
32.46760,67369
32.47572,66463
32.48385,67401
32.49197,65787
32.50008,62928
32.50822,68389
32.51633,70639
32.52445,62254
32.53258,66299
32.54070,71045
32.54883,64921
32.55695,63576
32.56507,65425
32.57320,66435
32.58132,66492
32.58945,67593
32.59757,68084
32.60568,66383
32.61382,66532
32.62193,64628
32.63007,68612
32.63818,72510
32.64630,72860
32.65443,79587
32.66255,80959
32.67067,79791
32.67880,81631
32.68692,76953
32.69505,75788
32.70317,70667
32.71128,73426
32.71942,69543
32.72753,72217
32.73567,71004
32.74378,67112
32.75190,69131
32.76003,67079
32.76815,64522
32.77627,70936
32.78440,65458
32.79252,64000
32.80065,61398
32.80877,63494
32.81688,63679
32.82502,60687
32.83313,63807
32.84127,65838
32.84938,73193
32.85750,65121
32.86563,67039
32.87375,65220
32.88188,62106
32.89000,65832
32.89812,64743
32.90625,69780
32.91437,69548
32.92248,70922
32.93062,67605
32.93873,69368
32.94687,68204
32.95498,65682
32.96310,71205
32.97123,73621
32.97935,70384
32.98748,75913
32.99560,83564
33.00372,92228
33.01185,91626
33.01997,83502
33.02808,82734
33.03622,77605
33.04433,79070
33.05247,79859
33.06058,74008
33.06870,68746
33.07683,77130
33.08495,80268
33.09308,87941
33.10120,94414
33.10932,92674
33.11745,96628
33.12557,94788
33.13370,89783
33.14182,87141
33.14993,84513
33.15807,87607
33.16618,72188
33.17430,74449
33.18243,73454
33.19055,71696
33.19868,66966
33.20680,68979
33.21492,69622
33.22305,68069
33.23117,71722
33.23930,65252
33.24742,66232
33.25553,65709
33.26367,69807
33.27178,62937
33.27992,62958
33.28803,67039
33.29615,67351
33.30428,63022
33.31240,66050
33.32052,65463
33.32865,65932
33.33677,65420
33.34490,63349
33.35302,69157
33.36113,69505
33.36927,72769
33.37738,69378
33.38552,70147
33.39363,66895
33.40175,61445
33.40988,64634
33.41800,62367
33.42612,68086
33.43425,66096
33.44237,63365
33.45050,59130
33.45862,61797
33.46673,65266
33.47487,63839
33.48298,64196
33.49112,71367
33.49923,66644
33.50735,63867
33.51548,64380
33.52360,64908
33.53173,67368
33.53985,71293
33.54797,74418
33.55610,71633
33.56422,74381
33.57233,75402
33.58047,70248
33.58858,68934
33.59672,66559
33.60483,62954
33.61295,64756
33.62108,62262
33.62920,69316
33.63733,63625
33.64545,70405
33.65357,67582
33.66170,74844
33.66982,69025
33.67795,69752
33.68607,68473
33.69418,68424
33.70232,63511
33.71043,63726
33.71855,65621
33.72668,61879
33.73480,61486
33.74293,58666
33.75105,62212
33.75917,65601
33.76730,65916
33.77542,62507
33.78355,58342
33.79167,61186
33.79978,61977
33.80792,63055
33.81603,55304
33.82415,59295
33.83228,60898
33.84040,66016
33.84853,63262
33.85665,65516
33.86477,65566
33.87290,66934
33.88102,63769
33.88915,64356
33.89727,66784
33.90538,64922
33.91352,69764
33.92163,66617
33.92977,69181
33.93788,61521
33.94600,63129
33.95413,62481
33.96225,61053
33.97037,60732
33.97850,65659
33.98662,58697
33.99475,64370
34.00287,61581
34.01098,67001
34.01912,61220
34.02723,62256
34.03537,60620
34.04348,64526
34.05160,64285
34.05973,62383
34.06785,61996
34.07597,65525
34.08410,66097
34.09222,60143
34.10035,65557
34.10847,62268
34.11658,63449
34.12472,65981
34.13283,71711
34.14097,67557
34.14908,66268
34.15720,66617
34.16533,65977
34.17345,64320
34.18158,65675
34.18970,64502
34.19782,64805
34.20595,66296
34.21407,63746
34.22218,65220
34.23032,60916
34.23843,60352
34.24657,62792
34.25468,65886
34.26280,62840
34.27093,67835
34.27905,70439
34.28718,58199
34.29530,65174
34.30342,63332
34.31155,63469
34.31967,60732
34.32780,63568
34.33592,62214
34.34403,60120
34.35217,59507
34.36028,61400
34.36840,58950
34.37653,63149
34.38465,61922
34.39278,58825
34.40090,62123
34.40902,63280
34.41715,58622
34.42527,63232
34.43340,65805
34.44152,61999
34.44963,62249
34.45777,62938
34.46588,59705
34.47400,65101
34.48213,65514
34.49025,67993
34.49838,68911
34.50650,72486
34.51462,84344
34.52275,95578
34.53087,97281
34.53900,114363
34.54712,121248
34.55523,120512
34.56337,121866
34.57148,113662
34.57962,110340
34.58773,101101
34.59585,101577
34.60398,95884
34.61210,88649
34.62022,91667
34.62835,91186
34.63647,76303
34.64460,82441
34.65272,82332
34.66083,79596
34.66897,75979
34.67708,71606
34.68522,74766
34.69333,76781
34.70145,81982
34.70958,69162
34.71770,71876
34.72583,73026
34.73395,72503
34.74207,70948
34.75020,72742
34.75832,71422
34.76643,72060
34.77457,72979
34.78268,73822
34.79082,75478
34.79893,74125
34.80705,72772
34.81518,78925
34.82330,71638
34.83143,75263
34.83955,75537
34.84767,71337
34.85580,77347
34.86392,76672
34.87203,68652
34.88017,76826
34.88828,72575
34.89642,75057
34.90453,75229
34.91265,68236
34.92078,72668
34.92890,73491
34.93703,73400
34.94515,77582
34.95327,74214
34.96140,79301
34.96952,80238
34.97765,82250
34.98577,77736
34.99388,83252
35.00202,80735
35.01013,74892
35.01825,72692
35.02638,68687
35.03450,67644
35.04263,69680
35.05075,64640
35.05887,64576
35.06700,63835
35.07512,63742
35.08325,67547
35.09137,68370
35.09948,67028
35.10762,69545
35.11573,66991
35.12387,66160
35.13198,69910
35.14010,66705
35.14823,66239
35.15635,72066
35.16447,65087
35.17260,67419
35.18072,68632
35.18885,65567
35.19697,66086
35.20508,65994
35.21322,62278
35.22133,62591
35.22947,65030
35.23758,66869
35.24570,65036
35.25383,64579
35.26195,67536
35.27007,68103
35.27820,67191
35.28632,67336
35.29445,65077
35.30257,63009
35.31068,67012
35.31882,62222
35.32693,60813
35.33507,61736
35.34318,67813
35.35130,65544
35.35943,66781
35.36755,61639
35.37568,64942
35.38380,62627
35.39192,67417
35.40005,69909
35.40817,69911
35.41628,69324
35.42442,73826
35.43253,78613
35.44067,75122
35.44878,76105
35.45690,71688
35.46503,74250
35.47315,74075
35.48128,73190
35.48940,70648
35.49752,69494
35.50565,65012
35.51377,68368
35.52188,70258
35.53002,68265
35.53813,67660
35.54627,70283
35.55438,65871
35.56250,66662
35.57063,65005
35.57875,65412
35.58688,65256
35.59500,70256
35.60312,68957
35.61125,64369
35.61937,71821
35.62750,62160
35.63562,66881
35.64373,61908
35.65187,68688
35.65998,68034
35.66810,70621
35.67623,72246
35.68435,71917
35.69248,67738
35.70060,70968
35.70872,66175
35.71685,65618
35.72497,66961
35.73310,65164
35.74122,67699
35.74933,74440
35.75747,75415
35.76558,76774
35.77372,75750
35.78183,71901
35.78995,69410
35.79808,70879
35.80620,68942
35.81432,69141
35.82245,61308
35.83057,65716
35.83870,67200
35.84682,69282
35.85493,67077
35.86307,68389
35.87118,69905
35.87932,63537
35.88743,66730
35.89555,64157
35.90368,67361
35.91180,63760
35.91992,64785
35.92805,68322
35.93617,65696
35.94430,65320
35.95242,67617
35.96053,63125
35.96867,66173
35.97678,67970
35.98492,63441
35.99303,63937
36.00115,63629
36.00928,66279
36.01740,65190
36.02553,68601
36.03365,69699
36.04177,65487
36.04990,66141
36.05802,70217
36.06613,69144
36.07427,70155
36.08238,66118
36.09052,67191
36.09863,67947
36.10675,68856
36.11488,65921
36.12300,67888
36.13113,66839
36.13925,73208
36.14737,77322
36.15550,72720
36.16362,76141
36.17175,72708
36.17987,72118
36.18798,65755
36.19612,66809
36.20423,69025
36.21235,64660
36.22048,68309
36.22860,65690
36.23673,67798
36.24485,68178
36.25297,73473
36.26110,73014
36.26922,71996
36.27735,79727
36.28547,86994
36.29358,97563
36.30172,100945
36.30983,101225
36.31795,106233
36.32608,102097
36.33420,98505
36.34233,94322
36.35045,96450
36.35857,97977
36.36670,97539
36.37482,100226
36.38295,102156
36.39107,98128
36.39918,101473
36.40732,104434
36.41543,101727
36.42357,100105
36.43168,99151
36.43980,97293
36.44793,92731
36.45605,95498
36.46417,97837
36.47230,98943
36.48042,100836
36.48855,101087
36.49667,95668
36.50478,97102
36.51292,99123
36.52103,99410
36.52917,96610
36.53728,97973
36.54540,93684
36.55353,100431
36.56165,95832
36.56977,92684
36.57790,97636
36.58602,96139
36.59415,92339
36.60227,97010
36.61038,92076
36.61852,93288
36.62663,92225
36.63477,93151
36.64288,93231
36.65100,99701
36.65913,96613
36.66725,95733
36.67538,93775
36.68350,90545
36.69162,91125
36.69975,92195
36.70787,91324
36.71598,95337
36.72412,92764
36.73223,95843
36.74037,98392
36.74848,94079
36.75660,94961
36.76473,90239
36.77285,89362
36.78098,87482
36.78910,89983
36.79722,88772
36.80535,87094
36.81347,90738
36.82160,86935
36.82972,91447
36.83783,89793
36.84597,89135
36.85408,87976
36.86220,85679
36.87033,86746
36.87845,83580
36.88658,90439
36.89470,85940
36.90282,88851
36.91095,88190
36.91907,86371
36.92720,95485
36.93532,89769
36.94343,95468
36.95157,94505
36.95968,102726
36.96780,108129
36.97593,101973
36.98405,103876
36.99218,94825
37.00030,92943
37.00842,90732
37.01655,84493
37.02467,89481
37.03280,90481
37.04092,86840
37.04903,83276
37.05717,87316
37.06528,86100
37.07342,84634
37.08153,84050
37.08965,86011
37.09778,85109
37.10590,83931
37.11402,86209
37.12215,85727
37.13027,86184
37.13840,90508
37.14652,85772
37.15463,81117
37.16277,86484
37.17088,79184
37.17902,83609
37.18713,85614
37.19525,87030
37.20338,83584
37.21150,85265
37.21963,81316
37.22775,82820
37.23587,81065
37.24400,77248
37.25212,81908
37.26023,80712
37.26837,80680
37.27648,83152
37.28462,83310
37.29273,79719
37.30085,81298
37.30898,84127
37.31710,97309
37.32523,101204
37.33335,111010
37.34147,120586
37.34960,118881
37.35772,127525
37.36583,123522
37.37397,120951
37.38208,110749
37.39022,107031
37.39833,100155
37.40645,104193
37.41458,100276
37.42270,100146
37.43083,105495
37.43895,101283
37.44707,102534
37.45520,91703
37.46332,93864
37.47145,90227
37.47957,95378
37.48768,93340
