Z:\data\JTB-E02\BACandBLUE\JTB-E02-200-15.D Thu Feb 28 14:00:43 2019
Start of data points
2.09517,69995
2.10328,70198
2.11142,67575
2.11953,66894
2.12765,68782
2.13578,61490
2.14390,67446
2.15203,68158
2.16015,63496
2.16827,62121
2.17640,63265
2.18452,63259
2.19263,62698
2.20077,59057
2.20888,61743
2.21702,57534
2.22513,55676
2.23325,59527
2.24138,54700
2.24950,56561
2.25763,54687
2.26575,104274
2.27387,643571
2.28200,1589783
2.29012,1373390
2.29825,682885
2.30637,470956
2.31448,379655
2.32262,321298
2.33073,299223
2.33885,281935
2.34698,245515
2.35510,226186
2.36323,204855
2.37135,193682
2.37947,183543
2.38760,174715
2.39572,163393
2.40385,167881
2.41197,172461
2.42008,200515
2.42822,220543
2.43633,171729
2.44447,154901
2.45258,155572
2.46070,137864
2.46883,141389
2.47695,123990
2.48507,129190
2.49320,132763
2.50132,132624
2.50945,121253
2.51757,123983
2.52568,120463
2.53382,122559
2.54193,114798
2.55007,131789
2.55818,211113
2.56630,362656
2.57443,347297
2.58255,241719
2.59067,208113
2.59880,175794
2.60692,171120
2.61505,204429
2.62317,216229
2.63128,187005
2.63942,171051
2.64753,162746
2.65567,154114
2.66378,143934
2.67190,139169
2.68003,132703
2.68815,129240
2.69628,126834
2.70440,126586
2.71252,120992
2.72065,114987
2.72877,123310
2.73688,117508
2.74502,119252
2.75313,115856
2.76127,114197
2.76938,120516
2.77750,254170
2.78563,973041
2.79375,1683014
2.80188,1281684
2.81000,768393
2.81812,582821
2.82625,501316
2.83437,419895
2.84248,366481
2.85062,312466
2.85873,283885
2.86687,271642
2.87498,260213
2.88310,232584
2.89123,218814
2.89935,214188
2.90748,183789
2.91560,171346
2.92372,166834
2.93185,152338
2.93997,149124
2.94810,148641
2.95622,146163
2.96433,142722
2.97247,141632
2.98058,133876
2.98870,134909
2.99683,138544
3.00495,181469
3.01308,254792
3.02120,234521
3.02932,180021
3.03745,151814
3.04557,135910
3.05370,143558
3.06182,155114
3.06993,162380
3.07807,145031
3.08618,168177
3.09432,303323
3.10243,1285820
3.11055,4145276
3.11868,6001136
3.12680,4667358
3.13492,3073799
3.14305,2273545
3.15117,1801704
3.15930,1451769
3.16742,1232834
3.17553,1098250
3.18367,1076146
3.19178,1528174
3.19992,2185397
3.20803,2065033
3.21615,1481369
3.22428,1160146
3.23240,983809
3.24053,845729
3.24865,716949
3.25677,642733
3.26490,564781
3.27302,523210
3.28113,486719
3.28927,587542
3.29738,1296570
3.30552,3326078
3.31363,5710937
3.32175,6221980
3.32988,4855962
3.33800,3224228
3.34613,2284109
3.35425,1786438
3.36237,1454453
3.37050,1242779
3.37862,1121057
3.38673,1040189
3.39487,962520
3.40298,892536
3.41112,845712
3.41923,795643
3.42735,743951
3.43548,698750
3.44360,660926
3.45173,605017
3.45985,570600
3.46797,574936
3.47610,566422
3.48422,562515
3.49235,552758
3.50047,547831
3.50858,524031
3.51672,503637
3.52483,491994
3.53295,509158
3.54108,510462
3.54920,479543
3.55733,429574
3.56545,384961
3.57357,359928
3.58170,347545
3.58982,330126
3.59795,328246
3.60607,316758
3.61418,309769
3.62232,329644
3.63043,344862
3.63855,358707
3.64668,365424
3.65480,365222
3.66293,829034
3.67105,4150645
3.67917,1.291116E+07
3.68730,1.952932E+07
3.69542,1.698909E+07
3.70355,1.056302E+07
3.71167,6663221
3.71978,5091369
3.72792,4222590
3.73603,3561713
3.74417,3094523
3.75228,2697525
3.76040,2444398
3.76853,2204895
3.77665,2019497
3.78477,1895194
3.79290,1822952
3.80102,1867784
3.80915,2564599
3.81727,4051882
3.82538,5057506
3.83352,4215477
3.84163,3016574
3.84977,2349419
3.85788,2005442
3.86600,1762723
3.87413,1608636
3.88225,1480050
3.89038,1365973
3.89850,1280176
3.90662,1224733
3.91475,1165869
3.92287,1216353
3.93098,1361292
3.93912,1388529
3.94723,1261204
3.95537,1134929
3.96348,1081641
3.97160,1066702
3.97973,1021721
3.98785,925808
3.99598,889529
4.00410,999780
4.01222,1389830
4.02035,1766835
4.02847,1707846
4.03658,1341701
4.04472,1068136
4.05283,885484
4.06097,800905
4.06908,722896
4.07720,681679
4.08533,660611
4.09345,625200
4.10158,604346
4.10970,601983
4.11782,601014
4.12595,569003
4.13407,572076
4.14220,578852
4.15032,612995
4.15843,658843
4.16657,689192
4.17468,689404
4.18280,693966
4.19093,613334
4.19905,569720
4.20718,583170
4.21530,1233386
4.22342,4058061
4.23155,9927117
4.23967,1.561358E+07
4.24780,1.716225E+07
4.25592,1.411813E+07
4.26403,9204240
4.27217,6035794
4.28028,4344356
4.28842,3329045
4.29653,2598110
4.30465,2117246
4.31278,1743773
4.32090,1467667
4.32902,1260381
4.33715,1121819
4.34527,1011747
4.35340,940573
4.36152,919073
4.36963,942584
4.37777,903306
4.38588,829390
4.39402,712779
4.40213,656690
4.41025,598557
4.41838,569461
4.42650,538710
4.43462,512616
4.44275,489623
4.45087,457974
4.45900,462628
4.46712,434934
4.47523,431828
4.48337,424398
4.49148,419095
4.49962,419580
4.50773,424283
4.51585,429608
4.52398,419962
4.53210,396490
4.54023,395170
4.54835,407455
4.55647,408404
4.56460,399600
4.57272,372748
4.58083,353258
4.58897,330959
4.59708,332516
4.60522,334699
4.61333,326490
4.62145,328620
4.62958,426367
4.63770,631817
4.64583,852549
4.65395,908735
4.66207,770467
4.67020,584208
4.67832,502588
4.68643,455793
4.69457,416743
4.70268,376847
4.71082,337130
4.71893,310616
4.72705,300996
4.73518,296500
4.74330,287287
4.75143,277418
4.75955,268954
4.76767,265993
4.77580,269857
4.78392,275599
4.79205,361021
4.80017,618176
4.80828,1071654
4.81642,1318685
4.82453,1152256
4.83265,867120
4.84078,731982
4.84890,679589
4.85703,648751
4.86515,594118
4.87327,503789
4.88140,436552
4.88952,418834
4.89765,386279
4.90577,370078
4.91388,347875
4.92202,326322
4.93013,318220
4.93827,350711
4.94638,492305
4.95450,894998
4.96263,1532656
4.97075,2172289
4.97887,2300397
4.98700,1933735
4.99512,1454713
5.00325,1125120
5.01137,902203
5.01948,772921
5.02762,708480
5.03573,758425
5.04387,854805
5.05198,900638
5.06010,823476
5.06823,721205
5.07635,619961
5.08447,577725
5.09260,528387
5.10072,506287
5.10885,462220
5.11697,458329
5.12508,436715
5.13322,432547
5.14133,404287
5.14947,414911
5.15758,454300
5.16570,554603
5.17383,628150
5.18195,642990
5.19008,594092
5.19820,582374
5.20632,583895
5.21445,594217
5.22257,575978
5.23068,532431
5.23882,476836
5.24693,450373
5.25507,416906
5.26318,382660
5.27130,347282
5.27943,315010
5.28755,298840
5.29568,290964
5.30380,293149
5.31192,278248
5.32005,283841
5.32817,301802
5.33630,323995
5.34442,367141
5.35253,394250
5.36067,365552
5.36878,336477
5.37690,317031
5.38503,309104
5.39315,321331
5.40128,335598
5.40940,345155
5.41752,331621
5.42565,307016
5.43377,275010
5.44190,254484
5.45002,279077
5.45813,297442
5.46627,321293
5.47438,311229
5.48250,284736
5.49063,259289
5.49875,254426
5.50688,242682
5.51500,251570
5.52312,256940
5.53125,270931
5.53937,265591
5.54750,251141
5.55562,264671
5.56373,348181
5.57187,487229
5.57998,618609
5.58812,655514
5.59623,554520
5.60435,423565
5.61248,333589
5.62060,299850
5.62872,272176
5.63685,251775
5.64497,247227
5.65310,250047
5.66122,245734
5.66933,227506
5.67747,238714
5.68558,270005
5.69372,324214
5.70183,367626
5.70995,381405
5.71808,358344
5.72620,310852
5.73433,272526
5.74245,246654
5.75057,234794
5.75870,225971
5.76682,213266
5.77493,207013
5.78307,205041
5.79118,204464
5.79932,202718
5.80743,203519
5.81555,200115
5.82368,189714
5.83180,199735
5.83993,200645
5.84805,206476
5.85617,199285
5.86430,203218
5.87242,189678
5.88053,183005
5.88867,169554
5.89678,175337
5.90492,174752
5.91303,180188
5.92115,180383
5.92928,192593
5.93740,186099
5.94553,175172
5.95365,193667
5.96177,207336
5.96990,295963
5.97802,427880
5.98615,613502
5.99427,741266
6.00238,705022
6.01052,567067
6.01863,435814
6.02675,345754
6.03488,274321
6.04300,248456
6.05113,226445
6.05925,219118
6.06737,200978
6.07550,188612
6.08362,190667
6.09175,189707
6.09987,179369
6.10798,170062
6.11612,166666
6.12423,190540
6.13235,238151
6.14048,377371
6.14860,575556
6.15673,658264
6.16485,608759
6.17297,471110
6.18110,356708
6.18922,294671
6.19735,253208
6.20547,240852
6.21358,223978
6.22172,222530
6.22983,214843
6.23797,224567
6.24608,213231
6.25420,222015
6.26233,237137
6.27045,251565
6.27857,243816
6.28670,225088
6.29482,223190
6.30295,211446
6.31107,204625
6.31918,211229
6.32732,225967
6.33543,242647
6.34357,266263
6.35168,275272
6.35980,263707
6.36793,247462
6.37605,230947
6.38418,217066
6.39230,222415
6.40042,223136
6.40855,216877
6.41667,204203
6.42478,201685
6.43292,204801
6.44103,210041
6.44917,214576
6.45728,216786
6.46540,215849
6.47353,217911
6.48165,229208
6.48978,216439
6.49790,215909
6.50602,211941
6.51415,224049
6.52227,219777
6.53038,221181
6.53852,217649
6.54663,231565
6.55477,224337
6.56288,240617
6.57100,281847
6.57913,384696
6.58725,479906
6.59538,502367
6.60350,441026
6.61162,366675
6.61975,304782
6.62787,277455
6.63600,247864
6.64412,259670
6.65223,349782
6.66037,621125
6.66848,1178702
6.67660,1771617
6.68473,1839334
6.69285,1401409
6.70098,876022
6.70910,574665
6.71722,452489
6.72535,410790
6.73347,364061
6.74160,344331
6.74972,328526
6.75783,311881
6.76597,288499
6.77408,250257
6.78222,224870
6.79033,220476
6.79845,207692
6.80658,197784
6.81470,191984
6.82282,180082
6.83095,184260
6.83907,176549
6.84720,175776
6.85532,186134
6.86343,186112
6.87157,171331
6.87968,151410
6.88782,143140
6.89593,128838
6.90405,132864
6.91218,127267
6.92030,120986
6.92842,127494
6.93655,120383
6.94467,118824
6.95280,121338
6.96092,127181
6.96903,145294
6.97717,176290
6.98528,214258
6.99342,225416
7.00153,208771
7.00965,171545
7.01778,144457
7.02590,135381
7.03403,130909
7.04215,131308
7.05027,144612
7.05840,151237
7.06652,162737
7.07463,157550
7.08277,150214
7.09088,140883
7.09902,129713
7.10713,127944
7.11525,138927
7.12338,140077
7.13150,141728
7.13963,141522
7.14775,144603
7.15587,160928
7.16400,206807
7.17212,233819
7.18023,233987
7.18837,204241
7.19648,164241
7.20462,141949
7.21273,152902
7.22085,247737
7.22898,585009
7.23710,1344284
7.24523,2283286
7.25335,2774504
7.26147,2501992
7.26960,1693539
7.27772,1028491
7.28585,660616
7.29397,453239
7.30208,324201
7.31022,215945
7.31833,173051
7.32645,157821
7.33458,143762
7.34270,140866
7.35083,131615
7.35895,129199
7.36707,116768
7.37520,119879
7.38332,115058
7.39145,124426
7.39957,118073
7.40768,114278
7.41582,109903
7.42393,112877
7.43207,103286
7.44018,115507
7.44830,111660
7.45643,110312
7.46455,114304
7.47267,117883
7.48080,112343
7.48892,102016
7.49705,99347
7.50517,103064
7.51328,124147
7.52142,184780
7.52953,335480
7.53767,589770
7.54578,965015
7.55390,1296865
7.56203,1547184
7.57015,1491480
7.57828,1254208
7.58640,940927
7.59452,622233
7.60265,407963
7.61077,298913
7.61888,237711
7.62702,198302
7.63513,171081
7.64327,154721
7.65138,135513
7.65950,120606
7.66763,115981
7.67575,114940
7.68388,104626
7.69200,101193
7.70012,102804
7.70825,102947
7.71637,104865
7.72448,110484
7.73262,101530
7.74073,92620
7.74887,90949
7.75698,84212
7.76510,91828
7.77323,96202
7.78135,103815
7.78948,116094
7.79760,121431
7.80572,130253
7.81385,153683
7.82197,149260
7.83010,137301
7.83822,124390
7.84633,112394
7.85447,103083
7.86258,112632
7.87070,120264
7.87883,134976
7.88695,143307
7.89508,156007
7.90320,142308
7.91132,126918
7.91945,119125
7.92757,143454
7.93570,201261
7.94382,300610
7.95193,400939
7.96007,429132
7.96818,382840
7.97630,283937
7.98443,216666
7.99255,159780
8.00068,126498
8.00880,106951
8.01692,101375
8.02505,92641
8.03317,93083
8.04130,91363
8.04942,88730
8.05753,87349
8.06567,84874
8.07378,89345
8.08192,83250
8.09003,85187
8.09815,80482
8.10628,85177
8.11440,79385
8.12252,81950
8.13065,87817
8.13877,94591
8.14690,115871
8.15502,129725
8.16313,140701
8.17127,126052
8.17938,114112
8.18752,104499
8.19563,95825
8.20375,83826
8.21188,79251
8.22000,78732
8.22813,81664
8.23625,76822
8.24437,77496
8.25250,74548
8.26062,71215
8.26873,76743
8.27687,69629
8.28498,74744
8.29312,74488
8.30123,77195
8.30935,86865
8.31748,104364
8.32560,105343
8.33373,103100
8.34185,92998
8.34997,87901
8.35810,72659
8.36622,77789
8.37433,76620
8.38247,78429
8.39058,77846
8.39872,85924
8.40683,79290
8.41495,72254
8.42308,72246
8.43120,66905
8.43933,74886
8.44745,72731
8.45557,66707
8.46370,64252
8.47182,70672
8.47995,65557
8.48807,72297
8.49618,64981
8.50432,65491
8.51243,65702
8.52055,72074
8.52868,93659
8.53680,179103
8.54493,377186
8.55305,681305
8.56117,1005134
8.56930,1022430
8.57742,843896
8.58555,551918
8.59367,326671
8.60178,195356
8.60992,150217
8.61803,129169
8.62617,123603
8.63428,118210
8.64240,108575
8.65053,98180
8.65865,88429
8.66677,91404
8.67490,93941
8.68302,91469
8.69115,102643
8.69927,89860
8.70738,89103
8.71552,90103
8.72363,88300
8.73177,81100
8.73988,83940
8.74800,82124
8.75613,78358
8.76425,91476
8.77237,141568
8.78050,236863
8.78862,366983
8.79675,482664
8.80487,527681
8.81298,455178
8.82112,356097
8.82923,262794
8.83737,193560
8.84548,184936
8.85360,168150
8.86173,167682
8.86985,169150
8.87798,165469
8.88610,150859
8.89422,155585
8.90235,139297
8.91047,135202
8.91858,129187
8.92672,130459
8.93483,139698
8.94297,147917
8.95108,166037
8.95920,179192
8.96733,187950
8.97545,185430
8.98358,168638
8.99170,161931
8.99982,155865
9.00795,143330
9.01607,140369
9.02418,120117
9.03232,115910
9.04043,106617
9.04857,102208
9.05668,100237
9.06480,101046
9.07293,96514
9.08105,100067
9.08918,104591
9.09730,117050
9.10542,133829
9.11355,159154
9.12167,181694
9.12980,197130
9.13792,174918
9.14603,150086
9.15417,130771
9.16228,117461
9.17040,114137
9.17853,108791
9.18665,91456
9.19478,88660
9.20290,92143
9.21102,90387
9.21915,86828
9.22727,87350
9.23540,94110
9.24352,91930
9.25163,94179
9.25977,96494
9.26788,93174
9.27602,87872
9.28413,91345
9.29225,79628
9.30038,78848
9.30850,81139
9.31662,80375
9.32475,85753
9.33287,79283
9.34100,83331
9.34912,81106
9.35723,81198
9.36537,81434
9.37348,81848
9.38162,79086
9.38973,91721
9.39785,98596
9.40598,95497
9.41410,106021
9.42222,125416
9.43035,146408
9.43847,166769
9.44660,176690
9.45472,163885
9.46283,143987
9.47097,118815
9.47908,102114
9.48722,94038
9.49533,87060
9.50345,93026
9.51158,120887
9.51970,153742
9.52783,183318
9.53595,198618
9.54407,182346
9.55220,161990
9.56032,131809
9.56843,103774
9.57657,92383
9.58468,81366
9.59282,82544
9.60093,78266
9.60905,73537
9.61718,68831
9.62530,68331
9.63343,63956
9.64155,63432
9.64967,58171
9.65780,62732
9.66592,64279
9.67405,60704
9.68217,64508
9.69028,58951
9.69842,59331
9.70653,56007
9.71465,55460
9.72278,57983
9.73090,60070
9.73903,55658
9.74715,58497
9.75527,59331
9.76340,55905
9.77152,58910
9.77965,55002
9.78777,48830
9.79588,52119
9.80402,56191
9.81213,53237
9.82025,52685
9.82838,54351
9.83650,56772
9.84463,53955
9.85275,58470
9.86087,54216
9.86900,56715
9.87712,65888
9.88525,59721
9.89337,56877
9.90148,56087
9.90962,57654
9.91773,54360
9.92587,66687
9.93398,80752
9.94210,103884
9.95023,125644
9.95835,155993
9.96647,161597
9.97460,161338
9.98272,140182
9.99085,112684
9.99897,95959
10.00708,81905
10.01522,81912
10.02333,78581
10.03147,79671
10.03958,79409
10.04770,67862
10.05583,66029
10.06395,65412
10.07207,65093
10.08020,63512
10.08832,69472
10.09645,64197
10.10457,68451
10.11268,73069
10.12082,69327
10.12893,66696
10.13707,62381
10.14518,56870
10.15330,55361
10.16143,59747
10.16955,58285
10.17768,55625
10.18580,55297
10.19392,54681
10.20205,49780
10.21017,54023
10.21828,57867
10.22642,61909
10.23453,56200
10.24267,61559
10.25078,66481
10.25890,74909
10.26703,109297
10.27515,224889
10.28328,531901
10.29140,1223124
10.29952,2233709
10.30765,3563064
10.31577,5225412
10.32390,7583893
10.33202,1.155163E+07
10.34013,1.674039E+07
10.34827,2.132156E+07
10.35638,2.190529E+07
10.36450,1.807175E+07
10.37263,1.159791E+07
10.38075,6111082
10.38888,3096035
10.39700,1830347
10.40512,1194394
10.41325,850781
10.42137,635586
10.42950,537411
10.43762,471800
10.44573,437166
10.45387,401759
10.46198,387392
10.47010,365316
10.47823,356176
10.48635,315032
10.49448,296904
10.50260,273715
10.51072,257054
10.51885,237932
10.52697,223423
10.53510,212814
10.54322,209643
10.55133,195068
10.55947,187274
10.56758,194718
10.57572,186609
10.58383,185334
10.59195,179574
10.60008,168198
10.60820,166490
10.61632,154702
10.62445,152191
10.63257,151064
10.64070,134446
10.64882,128723
10.65693,128570
10.66507,131460
10.67318,125931
10.68132,124504
10.68943,128349
10.69755,125675
10.70568,127256
10.71380,129050
10.72193,120760
10.73005,119431
10.73817,120709
10.74630,117676
10.75442,112993
10.76253,117840
10.77067,120571
10.77878,102462
10.78692,105999
10.79503,97906
10.80315,100939
10.81128,105146
10.81940,109821
10.82753,107387
10.83565,104096
10.84377,94400
10.85190,88061
10.86002,82894
10.86813,84583
10.87627,76442
10.88438,82937
10.89252,83602
10.90063,80720
10.90875,82752
10.91688,76513
10.92500,74790
10.93313,79701
10.94125,76328
10.94937,74767
10.95750,77831
10.96562,76036
10.97375,75536
10.98187,73138
10.98998,75793
10.99812,76926
11.00623,75930
11.01435,79521
11.02248,79804
11.03060,75454
11.03873,71202
11.04685,69258
11.05497,69094
11.06310,68524
11.07122,75179
11.07935,71802
11.08747,86521
11.09558,79597
11.10372,76885
11.11183,75061
11.11997,76081
11.12808,67119
11.13620,61975
11.14433,62219
11.15245,57214
11.16057,59311
11.16870,66822
11.17682,61683
11.18495,71179
11.19307,65025
11.20118,65121
11.20932,65980
11.21743,64551
11.22557,59598
11.23368,57448
11.24180,53827
11.24993,51660
11.25805,52849
11.26617,50517
11.27430,49389
11.28242,50978
11.29055,55825
11.29867,62515
11.30678,90459
11.31492,146918
11.32303,279955
11.33117,464553
11.33928,714888
11.34740,911455
11.35553,934687
11.36365,829421
11.37178,624616
11.37990,430339
11.38802,297302
11.39615,201497
11.40427,172444
11.41238,161404
11.42052,160606
11.42863,153384
11.43677,146117
11.44488,132867
11.45300,118939
11.46113,117747
11.46925,107820
11.47738,113138
11.48550,123562
11.49362,157876
11.50175,188389
11.50987,216879
11.51798,222795
11.52612,204472
11.53423,168537
11.54237,149899
11.55048,147742
11.55860,129836
11.56673,139344
11.57485,126326
11.58298,108627
11.59110,111555
11.59922,108232
11.60735,116476
11.61547,146436
11.62360,194731
11.63172,220896
11.63983,216258
11.64797,193461
11.65608,144457
11.66420,124577
11.67233,99392
11.68045,93778
11.68858,96813
11.69670,93966
11.70482,91262
11.71295,88302
11.72107,87763
11.72920,81126
11.73732,74899
11.74543,72453
11.75357,78426
11.76168,66784
11.76982,70512
11.77793,66987
11.78605,58571
11.79418,65878
11.80230,62538
11.81042,59501
11.81855,57448
11.82667,58502
11.83480,58426
11.84292,59032
11.85103,63927
11.85917,61301
11.86728,58475
11.87542,63191
11.88353,52533
11.89165,58921
11.89978,57307
11.90790,52055
11.91602,55691
11.92415,62696
11.93227,60102
11.94040,57558
11.94852,63376
11.95663,55304
11.96477,59514
11.97288,52337
11.98102,54151
11.98913,56037
11.99725,62038
12.00538,68409
12.01350,78393
12.02163,96145
12.02975,97710
12.03787,91084
12.04600,75880
12.05412,67158
12.06223,60549
12.07037,59578
12.07848,54725
12.08662,55924
12.09473,61897
12.10285,69096
12.11098,88511
12.11910,132490
12.12723,192190
12.13535,251026
12.14347,262042
12.15160,250457
12.15972,193712
12.16785,143644
12.17597,105807
12.18408,86491
12.19222,73432
12.20033,76477
12.20845,71458
12.21658,76889
12.22470,72997
12.23283,75028
12.24095,72766
12.24907,70333
12.25720,63739
12.26532,63863
12.27345,64834
12.28157,62836
12.28968,59504
12.29782,63769
12.30593,54275
12.31405,58460
12.32218,58504
12.33030,60305
12.33843,54946
12.34655,57414
12.35467,58243
12.36280,57782
12.37092,58708
12.37905,56837
12.38717,57223
12.39528,56056
12.40342,58062
12.41153,67295
12.41967,76194
12.42778,97418
12.43590,115960
12.44403,116559
12.45215,116992
12.46027,112987
12.46840,92997
12.47652,84842
12.48465,70904
12.49277,66614
12.50088,67495
12.50902,59378
12.51713,56931
12.52527,61238
12.53338,62102
12.54150,64938
12.54963,72326
12.55775,95078
12.56587,116830
12.57400,130961
12.58212,143225
12.59025,136213
12.59837,114866
12.60648,102356
12.61462,82670
12.62273,77373
12.63087,73198
12.63898,66491
12.64710,66821
12.65523,64566
12.66335,57519
12.67148,63149
12.67960,61571
12.68772,54619
12.69585,53902
12.70397,57379
12.71208,55219
12.72022,54920
12.72833,52537
12.73647,58667
12.74458,58563
12.75270,55467
12.76083,56106
12.76895,55611
12.77708,52971
12.78520,52674
12.79332,50671
12.80145,50147
12.80957,47084
12.81770,49927
12.82582,48803
12.83393,49802
12.84207,45762
12.85018,45596
12.85830,43788
12.86643,41474
12.87455,46540
12.88268,39152
12.89080,44772
12.89892,41725
12.90705,41180
12.91517,39382
12.92330,36814
12.93142,39664
12.93953,43243
12.94767,42474
12.95578,39797
12.96392,40817
12.97203,47371
12.98015,50207
12.98828,49195
12.99640,57751
13.00452,49659
13.01265,51531
13.02077,45507
13.02890,48286
13.03702,45170
13.04513,47085
13.05327,42525
13.06138,41526
13.06952,43797
13.07763,39949
13.08575,43878
13.09388,43917
13.10200,49456
13.11012,50474
13.11825,47051
13.12637,47347
13.13450,46575
13.14262,47205
13.15073,43124
13.15887,41383
13.16698,47154
13.17512,46909
13.18323,47710
13.19135,51084
13.19948,51227
13.20760,53383
13.21573,48321
13.22385,48645
13.23197,50837
13.24010,48664
13.24822,52867
13.25633,53327
13.26447,49458
13.27258,50036
13.28072,43983
13.28883,45933
13.29695,44575
13.30508,40372
13.31320,42107
13.32133,39793
13.32945,40166
13.33757,40172
13.34570,43551
13.35382,42906
13.36193,41105
13.37007,41343
13.37818,38888
13.38632,36504
13.39443,39869
13.40255,38282
13.41068,35209
13.41880,40879
13.42693,34060
13.43505,35003
13.44317,39974
13.45130,47159
13.45942,43185
13.46755,39323
13.47567,41415
13.48378,38348
13.49192,40422
13.50003,36880
13.50815,45475
13.51628,38136
13.52440,40888
13.53253,42504
13.54065,45183
13.54877,45901
13.55690,44417
13.56502,46817
13.57315,47622
13.58127,46116
13.58938,50525
13.59752,48191
13.60563,53724
13.61377,52633
13.62188,62013
13.63000,60515
13.63813,63459
13.64625,60191
13.65437,52991
13.66250,52455
13.67062,40152
13.67875,40788
13.68687,36628
13.69498,38054
13.70312,36620
13.71123,37642
13.71937,34584
13.72748,39941
13.73560,40792
13.74373,44654
13.75185,44064
13.75997,64828
13.76810,89719
13.77622,130823
13.78435,195284
13.79247,254000
13.80058,317856
13.80872,349654
13.81683,364185
13.82497,356765
13.83308,367855
13.84120,347306
13.84933,339522
13.85745,305090
13.86558,258776
13.87370,217678
13.88182,166397
13.88995,136806
13.89807,110389
13.90618,98346
13.91432,88141
13.92243,77405
13.93057,74619
13.93868,70866
13.94680,64727
13.95493,68500
13.96305,76675
13.97118,97623
13.97930,114722
13.98742,149536
13.99555,169473
14.00367,179544
14.01180,165363
14.01992,148689
14.02803,107696
14.03617,90952
14.04428,87446
14.05240,75489
14.06053,74980
14.06865,74214
14.07678,68932
14.08490,64165
14.09302,63863
14.10115,64000
14.10927,63619
14.11740,56150
14.12552,61233
14.13363,56728
14.14177,55217
14.14988,61245
14.15800,64123
14.16613,67345
14.17425,66904
14.18238,69665
14.19050,74862
14.19862,73784
14.20675,89063
14.21487,108517
14.22300,140011
14.23112,150224
14.23923,160420
14.24737,159343
14.25548,158568
14.26362,164369
14.27173,147246
14.27985,143477
14.28798,120306
14.29610,106772
14.30422,94511
14.31235,88653
14.32047,83121
14.32860,79061
14.33672,74240
14.34483,82062
14.35297,77834
14.36108,82813
14.36922,87151
14.37733,76941
14.38545,75180
14.39358,63479
14.40170,62291
14.40982,61485
14.41795,63582
14.42607,71633
14.43420,79708
14.44232,81819
14.45043,74309
14.45857,71845
14.46668,60918
14.47482,52862
14.48293,48256
14.49105,53796
14.49918,48326
14.50730,48624
14.51543,46080
14.52355,48311
14.53167,49175
14.53980,53272
14.54792,48088
14.55603,47430
14.56417,48072
14.57228,48204
14.58042,46756
14.58853,44748
14.59665,45226
14.60478,42925
14.61290,39287
14.62103,38175
14.62915,41654
14.63727,39780
14.64540,40050
14.65352,41996
14.66165,36118
14.66977,39952
14.67788,42771
14.68602,44495
14.69413,40463
14.70225,39605
14.71038,41449
14.71850,42057
14.72663,45276
14.73475,40603
14.74287,43722
14.75100,46084
14.75912,41708
14.76725,43622
14.77537,44296
14.78348,50623
14.79162,57902
14.79973,110004
14.80785,271229
14.81598,749660
14.82410,1790000
14.83223,3428623
14.84035,5152103
14.84847,6061020
14.85660,5664785
14.86472,4375322
14.87285,2828560
14.88097,1700475
14.88908,1001006
14.89722,663197
14.90533,523462
14.91347,426831
14.92158,372694
14.92970,332902
14.93783,308862
14.94595,264086
14.95407,253195
14.96220,235765
14.97032,219951
14.97845,201553
14.98657,187793
14.99468,185510
15.00282,173604
15.01093,165142
15.01907,168465
15.02718,154116
15.03530,143288
15.04343,147800
15.05155,132866
15.05968,132828
15.06780,126015
15.07592,113931
15.08405,105865
15.09217,111632
15.10028,108555
15.10842,106339
15.11653,99720
15.12467,99533
15.13278,114020
15.14090,117672
15.14903,129124
15.15715,142479
15.16528,140863
15.17340,128791
15.18152,110191
15.18965,91257
15.19777,78221
15.20588,76966
15.21402,64685
15.22213,62177
15.23027,62267
15.23838,63779
15.24650,60363
15.25463,55779
15.26275,54538
15.27088,59007
15.27900,49487
15.28712,50863
15.29525,51990
15.30337,48302
15.31150,50980
15.31962,48975
15.32773,46436
15.33587,54813
15.34398,47974
15.35210,47662
15.36023,48415
15.36835,48279
15.37648,51488
15.38460,48781
15.39272,45519
15.40085,51820
15.40897,47249
15.41710,47573
15.42522,48824
15.43333,43982
15.44147,44421
15.44958,43265
15.45772,40955
15.46583,48478
15.47395,61040
15.48208,73921
15.49020,89989
15.49832,109771
15.50645,147287
15.51457,149844
15.52270,150318
15.53082,139489
15.53893,125439
15.54707,113354
15.55518,112487
15.56332,97124
15.57143,84653
15.57955,73067
15.58768,68006
15.59580,62469
15.60392,54594
15.61205,55156
15.62017,51280
15.62830,54228
15.63642,57033
15.64453,52227
15.65267,45482
15.66078,48874
15.66892,48554
15.67703,52453
15.68515,45279
15.69328,45333
15.70140,47129
15.70953,45570
15.71765,45560
15.72577,45488
15.73390,47685
15.74202,47041
15.75013,47425
15.75827,62878
15.76638,87444
15.77452,150161
15.78263,271281
15.79075,427376
15.79888,585488
15.80700,649961
15.81513,561143
15.82325,442677
15.83137,291446
15.83950,193041
15.84762,142179
15.85573,121816
15.86387,110539
15.87198,108244
15.88012,111330
15.88823,116102
15.89635,128804
15.90448,130159
15.91260,140297
15.92073,120031
15.92885,104797
15.93697,96612
15.94510,83187
15.95322,74796
15.96135,74573
15.96947,75951
15.97758,80930
15.98572,91187
15.99383,90546
16.00195,90830
16.01008,88177
16.01820,90165
16.02633,81744
16.03445,82059
16.04257,79010
16.05070,71460
16.05882,70604
16.06695,63582
16.07507,55994
16.08318,62160
16.09132,57565
16.09943,54203
16.10757,53059
16.11568,58359
16.12380,53219
16.13193,58629
16.14005,63056
16.14817,60491
16.15630,61980
16.16442,63229
16.17255,62993
16.18067,60722
16.18878,54850
16.19692,54252
16.20503,49025
16.21317,49847
16.22128,51981
16.22940,47918
16.23753,51569
16.24565,53247
16.25377,48848
16.26190,47118
16.27002,48414
16.27815,53155
16.28627,48560
16.29438,54531
16.30252,61034
16.31063,56456
16.31877,59583
16.32688,56055
16.33500,58567
16.34313,60987
16.35125,57367
16.35938,57643
16.36750,72133
16.37562,84115
16.38375,94346
16.39187,101780
16.39998,98305
16.40812,87438
16.41623,81381
16.42437,66626
16.43248,63000
16.44060,62624
16.44873,67947
16.45685,102481
16.46498,187080
16.47310,362560
16.48122,676969
16.48935,1025730
16.49747,1223101
16.50560,1181177
16.51372,911527
16.52183,620783
16.52997,377905
16.53808,243673
16.54620,176859
16.55433,142438
16.56245,131682
16.57058,110629
16.57870,99684
16.58682,107126
16.59495,97249
16.60307,99063
16.61120,100700
16.61932,98819
16.62743,105710
16.63557,100922
16.64368,87934
16.65180,84577
16.65993,84709
16.66805,75035
16.67618,72097
16.68430,68311
16.69242,67718
16.70055,61380
16.70867,63706
16.71680,57897
16.72492,55931
16.73303,54748
16.74117,53092
16.74928,53324
16.75742,59154
16.76553,57984
16.77365,65526
16.78178,67218
16.78990,67975
16.79802,64897
16.80615,58895
16.81427,49555
16.82240,51852
16.83052,53513
16.83863,46285
16.84677,49429
16.85488,49558
16.86302,46140
16.87113,49137
16.87925,43452
16.88738,49810
16.89550,44658
16.90362,46757
16.91175,43504
16.91987,41959
16.92800,41766
16.93612,43349
16.94423,50934
16.95237,42957
16.96048,44123
16.96862,46858
16.97673,43845
16.98485,45009
16.99298,42070
17.00110,47918
17.00923,40218
17.01735,45902
17.02547,45923
17.03360,44232
17.04172,44952
17.04983,49620
17.05797,52280
17.06608,55899
17.07422,58806
17.08233,60708
17.09045,62586
17.09858,76928
17.10670,77938
17.11483,85221
17.12295,96024
17.13107,94861
17.13920,93705
17.14732,91675
17.15545,78963
17.16357,75283
17.17168,71358
17.17982,63425
17.18793,63569
17.19605,52617
17.20418,54894
17.21230,52491
17.22043,47130
17.22855,50636
17.23667,49734
17.24480,49628
17.25292,49931
17.26105,50352
17.26917,47882
17.27728,52421
17.28542,48320
17.29353,46606
17.30165,51077
17.30978,47654
17.31790,44825
17.32603,48191
17.33415,50890
17.34227,55511
17.35040,58676
17.35852,58456
17.36665,66538
17.37477,60081
17.38288,62683
17.39102,60188
17.39913,55071
17.40727,59419
17.41538,57348
17.42350,56139
17.43163,62636
17.43975,51772
17.44787,58244
17.45600,52829
17.46412,53704
17.47225,52990
17.48037,51234
17.48848,47757
17.49662,50911
17.50473,49496
17.51287,44775
17.52098,52112
17.52910,48897
17.53723,49294
17.54535,45427
17.55348,51219
17.56160,55835
17.56972,75172
17.57785,116673
17.58597,199210
17.59408,373533
17.60222,605936
17.61033,906206
17.61847,1083119
17.62658,1104264
17.63470,960095
17.64283,738501
17.65095,523277
17.65908,427526
17.66720,372698
17.67532,351096
17.68345,346125
17.69157,327621
17.69968,282054
17.70782,220481
17.71593,183777
17.72407,147097
17.73218,123970
17.74030,117607
17.74843,101943
17.75655,94049
17.76468,89602
17.77280,80035
17.78092,81982
17.78905,77496
17.79717,74172
17.80530,75391
17.81342,69337
17.82153,72430
17.82967,72316
17.83778,74043
17.84590,72026
17.85403,77133
17.86215,87568
17.87028,103980
17.87840,106035
17.88652,101117
17.89465,92891
17.90277,81211
17.91090,71597
17.91902,62580
17.92713,58747
17.93527,55138
17.94338,56356
17.95152,53852
17.95963,49659
17.96775,52461
17.97588,48484
17.98400,50682
17.99212,54660
18.00025,48200
18.00837,47239
18.01650,53492
18.02462,69664
18.03273,77260
18.04087,103673
18.04898,118010
18.05712,126924
18.06523,121332
18.07335,126393
18.08148,139458
18.08960,183375
18.09772,245305
18.10585,299704
18.11397,310660
18.12210,293408
18.13022,254004
18.13833,195843
18.14647,181054
18.15458,156839
18.16272,148034
18.17083,139112
18.17895,125301
18.18708,128043
18.19520,118144
18.20333,113837
18.21145,107835
18.21957,104111
18.22770,90238
18.23582,83939
18.24393,83257
18.25207,81281
18.26018,82633
18.26832,74516
18.27643,72084
18.28455,71968
18.29268,68496
18.30080,61745
18.30893,56307
18.31705,53380
18.32517,53117
18.33330,49303
18.34142,46194
18.34955,45762
18.35767,48172
18.36578,49882
18.37392,43293
18.38203,53662
18.39015,48271
18.39828,49011
18.40640,48247
18.41453,48484
18.42265,51082
18.43077,55722
18.43890,55886
18.44702,64009
18.45515,94011
18.46327,127228
18.47138,184204
18.47952,257636
18.48763,344601
18.49575,398615
18.50388,407717
18.51200,351702
18.52013,279204
18.52825,208704
18.53637,146971
18.54450,115008
18.55262,95072
18.56075,78575
18.56887,80536
18.57698,67749
18.58512,68827
18.59323,68122
18.60137,73133
18.60948,69277
18.61760,67611
18.62573,65430
18.63385,70119
18.64197,65886
18.65010,65210
18.65822,55058
18.66635,57274
18.67447,54957
18.68258,55308
18.69072,51633
18.69883,47558
18.70697,51457
18.71508,50235
18.72320,46553
18.73133,43865
18.73945,50498
18.74757,44358
18.75570,47041
18.76382,44063
18.77195,44810
18.78007,45552
18.78818,48358
18.79632,43806
18.80443,46313
18.81257,43170
18.82068,44970
18.82880,46075
18.83693,42755
18.84505,42867
18.85318,42094
18.86130,61741
18.86942,93145
18.87755,126919
18.88567,158152
18.89378,170692
18.90192,180509
18.91003,189773
18.91817,199806
18.92628,201815
18.93440,209308
18.94253,209321
18.95065,219005
18.95878,216561
18.96690,222180
18.97502,226198
18.98315,219497
18.99127,212519
18.99940,219730
19.00752,210740
19.01563,209120
19.02377,212403
19.03188,208201
19.04000,206829
19.04813,201604
19.05625,195345
19.06438,196140
19.07250,200227
19.08062,202405
19.08875,215014
19.09687,224599
19.10500,245421
19.11312,268907
19.12123,283544
19.12937,285962
19.13748,264661
19.14560,245201
19.15373,233596
19.16185,228439
19.16998,222173
19.17810,211636
19.18622,217685
19.19435,215121
19.20247,209732
19.21060,211156
19.21872,215742
19.22683,197573
19.23497,204005
19.24308,191566
19.25122,185491
19.25933,194911
19.26745,187804
19.27558,183870
19.28370,184060
19.29182,187222
19.29995,187007
19.30807,183289
19.31620,183509
19.32432,192984
19.33243,175175
19.34057,183692
19.34868,183506
19.35682,181899
19.36493,195970
19.37305,215339
19.38118,237261
19.38930,246294
19.39743,243389
19.40555,231640
19.41367,201413
19.42180,197899
19.42992,180016
19.43803,177253
19.44617,163376
19.45428,166546
19.46242,160544
19.47053,168376
19.47865,163477
19.48678,163088
19.49490,166354
19.50303,163999
19.51115,190626
19.51927,202254
19.52740,226073
19.53552,224762
19.54363,229756
19.55177,217753
19.55988,192825
19.56802,178853
19.57613,167009
19.58425,151925
19.59238,156700
19.60050,148728
19.60863,152777
19.61675,143907
19.62487,145591
19.63300,145674
19.64112,158083
19.64925,178247
19.65737,242531
19.66548,324244
19.67362,432578
19.68173,540463
19.68985,593551
19.69798,602782
19.70610,535599
19.71423,483085
19.72235,410991
19.73047,339972
19.73860,301082
19.74672,248249
19.75485,234749
19.76297,212074
19.77108,196853
19.77922,189701
19.78733,192702
19.79545,195086
19.80358,196348
19.81170,203676
19.81983,205256
19.82795,194750
19.83607,178600
19.84420,165211
19.85232,162392
19.86045,184264
19.86857,275603
19.87668,514096
19.88482,1028315
19.89293,1899142
19.90107,3018124
19.90918,4010647
19.91730,4698868
19.92543,4744469
19.93355,4370613
19.94167,3663389
19.94980,3029668
19.95792,2595661
19.96605,2360153
19.97417,2086908
19.98228,1947289
19.99042,1851167
19.99853,1725221
20.00667,1605061
20.01478,1573690
20.02290,1473049
20.03103,1385741
20.03915,1337024
20.04728,1224243
20.05540,1070890
20.06352,885800
20.07165,726754
20.07977,573513
20.08788,462451
20.09602,402232
20.10413,351225
20.11227,339608
20.12038,311671
20.12850,298270
20.13663,278997
20.14475,273434
20.15288,270062
20.16100,273242
20.16912,291076
20.17725,325381
20.18537,334021
20.19348,361507
20.20162,390976
20.20973,386798
20.21787,346267
20.22598,328438
20.23410,315455
20.24223,286610
20.25035,289788
20.25848,295332
20.26660,323005
20.27472,378519
20.28285,451042
20.29097,524904
20.29910,556764
20.30722,548759
20.31533,508046
20.32347,425675
20.33158,356443
20.33970,293924
20.34783,254816
20.35595,201288
20.36408,180718
20.37220,158603
20.38032,137826
20.38845,127376
20.39657,121273
20.40470,116542
20.41282,113098
20.42093,125302
20.42907,122715
20.43718,132026
20.44532,144118
20.45343,153815
20.46155,158354
20.46968,170241
20.47780,155720
20.48592,144530
20.49405,136698
20.50217,124734
20.51030,115777
20.51842,115117
20.52653,114910
20.53467,105135
20.54278,106467
20.55092,104008
20.55903,100126
20.56715,96481
20.57528,94318
20.58340,94684
20.59152,94563
20.59965,92063
20.60777,96092
20.61590,92468
20.62402,99776
20.63213,87553
20.64027,89127
20.64838,90447
20.65652,92014
20.66463,92003
20.67275,94187
20.68088,86538
20.68900,91386
20.69713,89736
20.70525,89252
20.71337,90805
20.72150,88357
20.72962,85484
20.73773,80449
20.74587,80510
20.75398,82154
20.76212,88317
20.77023,91754
20.77835,94795
20.78648,95698
20.79460,116269
20.80273,153544
20.81085,206392
20.81897,282407
20.82710,356476
20.83522,389165
20.84335,365432
20.85147,300132
20.85958,237789
20.86772,170831
20.87583,135187
20.88395,114110
20.89208,105060
20.90020,104101
20.90833,100806
20.91645,96058
20.92457,88541
20.93270,89042
20.94082,96295
20.94895,88806
20.95707,85667
20.96518,84131
20.97332,84930
20.98143,81128
20.98955,78848
20.99768,78851
21.00580,75229
21.01393,80451
21.02205,78908
21.03017,78495
21.03830,76223
21.04642,80224
21.05455,78253
21.06267,75910
21.07078,72528
21.07892,73593
21.08703,76818
21.09517,74984
21.10328,76705
21.11140,72583
21.11953,75252
21.12765,80161
21.13577,92604
21.14390,108903
21.15202,129603
21.16015,183906
21.16827,231154
21.17638,254468
21.18452,255130
21.19263,230064
21.20077,190533
21.20888,159587
21.21700,129198
21.22513,106408
21.23325,99045
21.24137,102024
21.24950,101717
21.25762,91345
21.26575,87819
21.27387,87624
21.28198,87755
21.29012,82383
21.29823,86961
21.30637,89950
21.31448,81002
21.32260,77401
21.33073,77360
21.33885,77535
21.34698,77542
21.35510,78059
21.36322,77920
21.37135,78267
21.37947,75645
21.38758,80156
21.39572,75902
21.40383,82331
21.41197,85670
21.42008,94568
21.42820,106523
21.43633,111462
21.44445,113980
21.45258,106946
21.46070,101398
21.46882,93207
21.47695,89649
21.48507,82668
21.49320,82364
21.50132,77718
21.50943,76901
21.51757,75057
21.52568,81017
21.53380,77448
21.54193,73212
21.55005,69712
21.55818,73004
21.56630,70046
21.57442,73337
21.58255,76156
21.59067,75455
21.59880,84814
21.60692,88153
21.61503,89606
21.62317,86507
21.63128,85193
21.63940,89625
21.64753,97737
21.65565,110541
21.66378,123019
21.67190,118154
21.68002,126668
21.68815,118440
21.69627,116198
21.70440,104570
21.71252,98670
21.72063,84617
21.72877,84356
21.73688,73550
21.74502,70027
21.75313,68020
21.76125,64927
21.76938,69904
21.77750,66122
21.78562,60674
21.79375,61272
21.80187,60882
21.81000,56893
21.81812,61307
21.82623,67274
21.83437,72007
21.84248,77595
21.85062,95974
21.85873,104510
21.86685,112140
21.87498,107849
21.88310,89627
21.89123,84274
21.89935,75121
21.90747,71561
21.91560,69382
21.92372,64142
21.93183,62057
21.93997,57098
21.94808,54167
21.95622,54955
21.96433,53517
21.97245,57331
21.98058,50683
21.98870,49005
21.99683,46595
22.00495,46394
22.01307,47814
22.02120,50577
22.02932,50473
22.03743,51593
22.04557,52329
22.05368,55317
22.06182,56779
22.06993,53292
22.07805,58868
22.08618,57475
22.09430,53151
22.10243,54601
22.11055,55654
22.11867,52553
22.12680,54473
22.13492,49808
22.14305,51404
22.15117,52855
22.15928,47837
22.16742,49843
22.17553,50431
22.18365,46307
22.19178,47574
22.19990,48190
22.20803,46293
22.21615,48592
22.22427,48563
22.23240,51444
22.24052,56173
22.24865,57982
22.25677,57684
22.26488,55089
22.27302,56830
22.28113,57104
22.28925,58287
22.29738,65162
22.30550,76541
22.31363,82019
22.32175,94486
22.32987,115511
22.33800,135914
22.34612,147839
22.35425,159763
22.36237,146440
22.37048,129035
22.37862,113279
22.38673,93997
22.39487,93923
22.40298,99187
22.41110,104872
22.41923,126701
22.42735,136660
22.43547,150713
22.44360,141885
22.45172,125714
22.45985,106254
22.46797,100742
22.47608,98027
22.48422,101496
22.49233,103254
22.50047,109691
22.50858,122662
22.51670,129209
22.52483,127394
22.53295,134624
22.54108,131648
22.54920,125779
22.55732,128104
22.56545,117764
22.57357,116416
22.58168,111694
22.58982,109007
22.59793,102904
22.60607,101217
22.61418,97821
22.62230,100278
22.63043,100534
22.63855,93613
22.64668,103609
22.65480,102138
22.66292,104642
22.67105,107839
22.67917,106753
22.68728,111939
22.69542,128813
22.70353,137578
22.71167,141650
22.71978,156457
22.72790,171026
22.73603,170537
22.74415,162317
22.75228,145332
22.76040,134286
22.76852,125126
22.77665,122659
22.78477,119682
22.79290,115487
22.80102,118796
22.80913,132066
22.81727,142134
22.82538,148044
22.83350,141353
22.84163,140350
22.84975,126556
22.85788,119292
22.86600,122210
22.87412,121336
22.88225,124421
22.89037,126085
22.89850,129726
22.90662,129388
22.91473,146799
22.92287,156058
22.93098,164822
22.93912,175968
22.94723,192551
22.95535,177317
22.96348,164952
22.97160,136441
22.97972,119963
22.98785,104960
22.99597,91883
23.00410,92458
23.01222,86628
23.02033,75870
23.02847,75471
23.03658,67720
23.04472,73613
23.05283,69910
23.06095,64255
23.06908,65905
23.07720,68115
23.08532,68524
23.09345,68607
23.10157,70040
23.10970,65866
23.11782,60099
23.12593,57885
23.13407,55685
23.14218,62488
23.15032,56100
23.15843,50892
23.16655,50923
23.17468,53566
23.18280,49960
23.19093,51604
23.19905,53090
23.20717,51322
23.21530,57968
23.22342,69416
23.23153,84210
23.23967,104102
23.24778,118270
23.25592,137522
23.26403,155933
23.27215,163770
23.28028,169493
23.28840,177369
23.29653,156398
23.30465,153757
23.31277,139436
23.32090,135328
23.32902,141369
23.33715,135770
23.34527,145272
23.35338,150590
23.36152,185153
23.36963,191950
23.37775,194225
23.38588,206129
23.39400,205054
23.40213,193136
23.41025,183864
23.41837,174502
23.42650,168900
23.43462,168574
23.44275,165998
23.45087,153510
23.45898,155988
23.46712,153361
23.47523,155296
23.48335,145818
23.49148,150376
23.49960,152363
23.50773,151305
23.51585,146079
23.52397,142213
23.53210,136795
23.54022,143963
23.54835,136531
23.55647,137516
23.56458,140062
23.57272,146572
23.58083,157055
23.58897,166116
23.59708,181399
23.60520,201875
23.61333,219436
23.62145,221918
23.62957,221268
23.63770,222081
23.64582,245349
23.65395,331014
23.66207,431123
23.67018,571719
23.67832,671646
23.68643,688750
23.69457,624969
23.70268,502527
23.71080,385287
23.71893,293330
23.72705,237120
23.73518,207258
23.74330,186848
23.75142,173977
23.75955,186068
23.76767,260902
23.77578,472718
23.78392,873687
23.79203,1488119
23.80017,2149677
23.80828,2603758
23.81640,2685306
23.82453,2466568
23.83265,1953180
23.84078,1453083
23.84890,1097766
23.85702,809026
23.86515,645991
23.87327,534764
23.88138,467802
23.88952,408781
23.89763,361576
23.90577,341983
23.91388,327033
23.92200,328344
23.93013,312014
23.93825,283290
23.94638,279782
23.95450,252204
23.96262,255157
23.97075,249694
23.97887,227002
23.98700,211572
23.99512,202359
24.00323,199544
24.01137,194622
24.01948,205944
24.02760,237697
24.03573,283586
24.04385,327768
24.05198,353939
24.06010,350057
24.06822,312868
24.07635,260192
24.08447,220826
24.09260,192307
24.10072,172102
24.10883,166284
24.11697,148767
24.12508,160530
24.13320,153895
24.14133,166589
24.14945,175747
24.15758,179413
24.16570,198268
24.17382,199880
24.18195,187175
24.19007,182232
24.19820,167407
24.20632,166237
24.21443,164897
24.22257,155377
24.23068,153631
24.23882,146514
24.24693,154812
24.25505,137413
24.26318,135898
24.27130,130296
24.27942,118743
24.28755,114467
24.29567,116797
24.30380,121040
24.31192,114495
24.32003,117184
24.32817,121008
24.33628,112453
24.34442,111396
24.35253,104200
24.36065,109981
24.36878,105386
24.37690,106401
24.38503,102014
24.39315,101291
24.40127,100890
24.40940,105870
24.41752,117647
24.42563,116114
24.43377,115814
24.44188,105203
24.45002,95692
24.45813,86339
24.46625,77591
24.47438,79312
24.48250,77892
24.49063,75558
24.49875,79436
24.50687,86959
24.51500,91080
24.52312,97155
24.53123,103614
24.53937,117350
24.54748,134871
24.55562,136375
24.56373,150583
24.57185,154800
24.57998,150801
24.58810,134485
24.59623,120307
24.60435,113852
24.61247,97545
24.62060,101174
24.62872,95707
24.63685,89965
24.64497,89830
24.65308,87121
24.66122,85804
24.66933,80612
24.67745,76371
24.68558,76189
24.69370,76638
24.70183,74530
24.70995,75325
24.71807,68824
24.72620,62781
24.73432,61652
24.74245,65720
24.75057,72375
24.75868,66216
24.76682,67464
24.77493,72082
24.78307,74897
24.79118,75854
24.79930,82422
24.80743,84458
24.81555,84552
24.82367,82648
24.83180,79359
24.83992,90285
24.84805,101536
24.85617,128644
24.86428,156657
24.87242,201824
24.88053,265104
24.88867,365618
24.89678,456898
24.90490,542125
24.91303,602345
24.92115,566695
24.92927,504319
24.93740,424503
24.94552,335184
24.95365,305557
24.96177,277099
24.96988,257940
24.97802,241925
24.98613,244979
24.99427,237715
25.00238,246906
25.01050,238823
25.01863,251190
25.02675,241871
25.03488,247279
25.04300,237773
25.05112,243834
25.05925,250293
25.06737,235100
25.07548,230599
25.08362,238025
25.09173,239072
25.09987,246987
25.10798,295412
25.11610,374983
25.12423,580377
25.13235,1048167
25.14048,1748346
25.14860,2583748
25.15672,3237408
25.16485,3473214
25.17297,3110386
25.18108,2512195
25.18922,1833176
25.19733,1198443
25.20547,792217
25.21358,561220
25.22170,422208
25.22983,346976
25.23795,323943
25.24608,349036
25.25420,419365
25.26232,564026
25.27045,791341
25.27857,1003770
25.28670,1155625
25.29482,1181347
25.30293,1065470
25.31107,848325
25.31918,623510
25.32730,439196
25.33543,332680
25.34355,276779
25.35168,233615
25.35980,218278
25.36792,207681
25.37605,201196
25.38417,192499
25.39230,188604
25.40042,181580
25.40853,185885
25.41667,173840
25.42478,178200
25.43292,177111
25.44103,172266
25.44915,159942
25.45728,160161
25.46540,150692
25.47352,134081
25.48165,122028
25.48977,103410
25.49790,113900
25.50602,101023
25.51413,100665
25.52227,93743
25.53038,83978
25.53852,81909
25.54663,79059
25.55475,78248
25.56288,78314
25.57100,71763
25.57912,74843
25.58725,72973
25.59537,74927
25.60350,74574
25.61162,70296
25.61973,74429
25.62787,72433
25.63598,72315
25.64412,75646
25.65223,79559
25.66035,85871
25.66848,86449
25.67660,85592
25.68473,88077
25.69285,79268
25.70097,75509
25.70910,70108
25.71722,73125
25.72533,73581
25.73347,71182
25.74158,69072
25.74972,70998
25.75783,71284
25.76595,72012
25.77408,69392
25.78220,69904
25.79033,68776
25.79845,67519
25.80657,67559
25.81470,68928
25.82282,76387
25.83095,67175
25.83907,72588
25.84718,79556
25.85532,86175
25.86343,106689
25.87155,140121
25.87968,186427
25.88780,226335
25.89593,243189
25.90405,263519
25.91217,260372
25.92030,281983
25.92842,279474
25.93655,277612
25.94467,279224
25.95278,277790
25.96092,289906
25.96903,288125
25.97715,279169
25.98528,281973
25.99340,279524
26.00153,279096
26.00965,277928
26.01777,270566
26.02590,276842
26.03402,268216
26.04215,266486
26.05027,272011
26.05838,274071
26.06652,262370
26.07463,269390
26.08277,276094
26.09088,275905
26.09900,272205
26.10713,268568
26.11525,265454
26.12337,257756
26.13150,265088
26.13962,261419
26.14775,261783
26.15587,259058
26.16398,266954
26.17212,271280
26.18023,260206
26.18837,265763
26.19648,261717
26.20460,248886
26.21273,248330
26.22085,235798
26.22898,235674
26.23710,242441
26.24522,224609
26.25335,228269
26.26147,229061
26.26958,227569
26.27772,233266
26.28583,223561
26.29397,220761
26.30208,228458
26.31020,228514
26.31833,220054
26.32645,216977
26.33458,218140
26.34270,209539
26.35082,213837
26.35895,212967
26.36707,219341
26.37518,224194
26.38332,233858
26.39143,261506
26.39957,280144
26.40768,299101
26.41580,300435
26.42393,290820
26.43205,279460
26.44018,253107
26.44830,241493
26.45642,224024
26.46455,214003
26.47267,204588
26.48080,193246
26.48892,198782
26.49703,199988
26.50517,204161
26.51328,189255
26.52140,189321
26.52953,184657
26.53765,180275
26.54578,175385
26.55390,172553
26.56202,178270
26.57015,170767
26.57827,168126
26.58640,171126
26.59452,171107
26.60263,171456
26.61077,169254
26.61888,164824
26.62700,156770
26.63513,167140
26.64325,169696
26.65138,162531
26.65950,161094
26.66762,163954
26.67575,165993
26.68387,173751
26.69200,172433
26.70012,156287
26.70823,161460
26.71637,150795
26.72448,150687
26.73262,149894
26.74073,145665
26.74885,137059
26.75698,140584
26.76510,134793
26.77322,140007
26.78135,140717
26.78947,135248
26.79760,135996
26.80572,139373
26.81383,138525
26.82197,142686
26.83008,145628
26.83822,143346
26.84633,133182
26.85445,132766
26.86258,126362
26.87070,129014
26.87883,131446
26.88695,122998
26.89507,117668
26.90320,115184
26.91132,117331
26.91943,108986
26.92757,111619
26.93568,117179
26.94382,110574
26.95193,112225
26.96005,109927
26.96818,109030
26.97630,123693
26.98443,138791
26.99255,173691
27.00067,248885
27.00880,370260
27.01692,535837
27.02503,722344
27.03317,897207
27.04128,943031
27.04942,882600
27.05753,797997
27.06565,652127
27.07378,524908
27.08190,424198
27.09003,337351
27.09815,291488
27.10627,259404
27.11440,241609
27.12252,224725
27.13065,211112
27.13877,196593
27.14688,186805
27.15502,190265
27.16313,181657
27.17125,196000
27.17938,201635
27.18750,229207
27.19563,246003
27.20375,243684
27.21187,225572
27.22000,216332
27.22812,180758
27.23625,169497
27.24437,149307
27.25248,142845
27.26062,128838
27.26873,130147
27.27687,123826
27.28498,117570
27.29310,111698
27.30123,113333
27.30935,110099
27.31747,108117
27.32560,115303
27.33372,104792
27.34185,107520
27.34997,110957
27.35808,101990
27.36622,106330
27.37433,106309
27.38247,116815
27.39058,112271
27.39870,107099
27.40683,109833
27.41495,97895
27.42307,101786
27.43120,89798
27.43932,95341
27.44745,91080
27.45557,87836
27.46368,97884
27.47182,91799
27.47993,90317
27.48807,91679
27.49618,92103
27.50430,84655
27.51243,87622
27.52055,87158
27.52868,85650
27.53680,89367
27.54492,90362
27.55305,81890
27.56117,86893
27.56928,80279
27.57742,84971
27.58553,90898
27.59367,97080
27.60178,109131
27.60990,114924
27.61803,115262
27.62615,107345
27.63428,100013
27.64240,92730
27.65052,90331
27.65865,83829
27.66677,82658
27.67488,77833
27.68302,79733
27.69113,77643
27.69927,78366
27.70738,77926
27.71550,82300
27.72363,75507
27.73175,70026
27.73988,74834
27.74800,72816
27.75612,72709
27.76425,78653
27.77237,86908
27.78050,107849
27.78862,131608
27.79673,149924
27.80487,152604
27.81298,152816
27.82110,139808
27.82923,122218
27.83735,101551
27.84548,93339
27.85360,87305
27.86172,81014
27.86985,71480
27.87797,78501
27.88610,67928
27.89422,67380
27.90233,69251
27.91047,71989
27.91858,70735
27.92672,66611
27.93483,65512
27.94295,66109
27.95108,66739
27.95920,66227
27.96732,66072
27.97545,62500
27.98357,66636
27.99170,71442
27.99982,73497
28.00793,76861
28.01607,83321
28.02418,82045
28.03232,79290
28.04043,81186
28.04855,81755
28.05668,80403
28.06480,78640
28.07292,78483
28.08105,74798
28.08917,70287
28.09730,70404
28.10542,67019
28.11353,64181
28.12167,64228
28.12978,61986
28.13792,63731
28.14603,62509
28.15415,58862
28.16228,61820
28.17040,59487
28.17853,64141
28.18665,59917
28.19477,59123
28.20290,71346
28.21102,81301
28.21913,83197
28.22727,96826
28.23538,108005
28.24352,100884
28.25163,94712
28.25975,78560
28.26788,79604
28.27600,76024
28.28413,68733
28.29225,65441
28.30037,64765
28.30850,72102
28.31662,73922
28.32475,81075
28.33287,93803
28.34098,103864
28.34912,111429
28.35723,129558
28.36535,147452
28.37348,162160
28.38160,162766
28.38973,174856
28.39785,176419
28.40597,175777
28.41410,166078
28.42222,162062
28.43035,146932
28.43847,140306
28.44658,126564
28.45472,114939
28.46283,109664
28.47095,107969
28.47908,98010
28.48720,93780
28.49533,97419
28.50345,91291
28.51157,93208
28.51970,87111
28.52782,85342
28.53595,84320
28.54407,83286
28.55218,76594
28.56032,79478
28.56843,69046
28.57657,72493
28.58468,69093
28.59280,66974
28.60093,73446
28.60905,73731
28.61717,70451
28.62530,69591
28.63342,71600
28.64155,69308
28.64967,71082
28.65778,74471
28.66592,69876
28.67403,76518
28.68217,83587
28.69028,77652
28.69840,75964
28.70653,71208
28.71465,72718
28.72277,68810
28.73090,66310
28.73902,69399
28.74715,63991
28.75527,68152
28.76338,69317
28.77152,70574
28.77963,67254
28.78777,72161
28.79588,73678
28.80400,79961
28.81213,77167
28.82025,74420
28.82838,74306
28.83650,69160
28.84462,70132
28.85275,70746
28.86087,66868
28.86898,66739
28.87712,65517
28.88523,74928
28.89337,69984
28.90148,75285
28.90960,76138
28.91773,73843
28.92585,77596
28.93398,77791
28.94210,72416
28.95022,76211
28.95835,73520
28.96647,81378
28.97460,85540
28.98272,78006
28.99083,76407
28.99897,71723
29.00708,65326
29.01520,60625
29.02333,60541
29.03145,57247
29.03958,60640
29.04770,58192
29.05582,59316
29.06395,67289
29.07207,74945
29.08020,80485
29.08832,84017
29.09643,82060
29.10457,88643
29.11268,93617
29.12082,79552
29.12893,74857
29.13705,70464
29.14518,68875
29.15330,66523
29.16142,68667
29.16955,69577
29.17767,68385
29.18580,67077
29.19392,71824
29.20203,81956
29.21017,96779
29.21828,102204
29.22642,118447
29.23453,120094
29.24265,124300
29.25078,110477
29.25890,111917
29.26702,103078
29.27515,95582
29.28327,83936
29.29140,77650
29.29952,69567
29.30763,67687
29.31577,64676
29.32388,64264
29.33202,58994
29.34013,58243
29.34825,58120
29.35638,60564
29.36450,56199
29.37263,57169
29.38075,54907
29.38887,57361
29.39700,62004
29.40512,59915
29.41323,62802
29.42137,61041
29.42948,56661
29.43762,57017
29.44573,58806
29.45385,55459
29.46198,58856
29.47010,54982
29.47823,57802
29.48635,55490
29.49447,58688
29.50260,57414
29.51072,60911
29.51883,64789
29.52697,64587
29.53508,64111
29.54322,57119
29.55133,66536
29.55945,62075
29.56758,62287
29.57570,58149
29.58383,56622
29.59195,55562
29.60007,54638
29.60820,57760
29.61632,56350
29.62445,59036
29.63257,58384
29.64068,53940
29.64882,51104
29.65693,53711
29.66505,54171
29.67318,57139
29.68130,51411
29.68943,56617
29.69755,58339
29.70567,59135
29.71380,61951
29.72192,61422
29.73005,55235
29.73817,55352
29.74628,55821
29.75442,52571
29.76253,53669
29.77067,50931
29.77878,51618
29.78690,52698
29.79503,44667
29.80315,50070
29.81127,50201
29.81940,52675
29.82752,51001
29.83565,53354
29.84377,54192
29.85188,57297
29.86002,65090
29.86813,86123
29.87627,129611
29.88438,228649
29.89250,404773
29.90063,660355
29.90875,931390
29.91687,1058580
29.92500,964871
29.93312,771992
29.94125,509808
29.94937,305499
29.95748,184601
29.96562,130965
29.97373,96802
29.98187,89772
29.98998,89652
29.99810,92171
30.00623,98348
30.01435,103635
30.02248,107749
30.03060,111654
30.03872,118118
30.04685,111526
30.05497,109406
30.06308,102498
30.07122,103809
30.07933,97051
30.08747,100454
30.09558,95226
30.10370,92141
30.11183,91062
30.11995,89060
30.12808,85920
30.13620,85610
30.14432,80223
30.15245,79766
30.16057,71870
30.16870,73213
30.17682,72886
30.18493,71126
30.19307,69280
30.20118,71553
30.20930,67154
30.21743,70324
30.22555,70240
30.23368,68543
30.24180,63607
30.24992,67672
30.25805,64852
30.26617,61306
30.27430,61709
30.28242,62913
30.29053,57646
30.29867,58313
30.30678,57152
30.31490,59233
30.32303,53848
30.33115,57708
30.33928,59321
30.34740,62626
30.35552,57614
30.36365,61169
30.37177,61767
30.37990,56945
30.38802,60357
30.39613,62010
30.40427,59230
30.41238,56938
30.42052,58372
30.42863,52850
30.43675,52426
30.44488,57663
30.45300,59267
30.46112,56861
30.46925,52312
30.47737,55222
30.48550,59809
30.49362,58414
30.50173,64901
30.50987,60524
30.51798,62509
30.52612,70695
30.53423,64373
30.54235,59843
30.55048,54079
30.55860,58377
30.56672,52601
30.57485,52403
30.58297,53035
30.59110,58220
30.59922,49769
30.60733,52113
30.61547,54243
30.62358,54591
30.63172,54548
30.63983,53488
30.64795,49376
30.65608,50948
30.66420,54303
30.67233,51954
30.68045,54997
30.68857,48093
30.69670,50373
30.70482,53542
30.71293,57095
30.72107,54304
30.72918,55810
30.73732,48909
30.74543,56998
30.75355,56700
30.76168,55853
30.76980,66226
30.77793,64738
30.78605,80245
30.79417,112808
30.80230,171078
30.81042,245413
30.81855,307854
30.82667,331279
30.83478,321919
30.84292,276228
30.85103,201295
30.85915,137729
30.86728,104559
30.87540,92993
30.88353,76251
30.89165,74724
30.89977,68953
30.90790,69191
30.91602,68521
30.92415,64645
30.93227,64896
30.94038,68149
30.94852,69021
30.95663,66292
30.96475,65636
30.97288,66230
30.98100,66442
30.98913,66421
30.99725,68430
31.00537,68531
31.01350,67553
31.02162,65193
31.02975,68179
31.03787,68729
31.04598,68595
31.05412,67646
31.06223,67149
31.07037,72280
31.07848,74294
31.08660,85097
31.09473,110019
31.10285,137907
31.11097,190434
31.11910,229832
31.12722,240743
31.13535,217461
31.14347,180421
31.15158,128597
31.15972,104349
31.16783,87712
31.17597,74773
31.18408,75195
31.19220,76323
31.20033,81170
31.20845,90110
31.21658,106147
31.22470,115612
31.23282,122564
31.24095,130368
31.24907,120183
31.25718,104184
31.26532,100347
31.27343,77440
31.28157,67653
31.28968,62972
31.29780,60069
31.30593,54493
31.31405,54612
31.32218,52239
31.33030,61053
31.33842,55697
31.34655,60082
31.35467,61394
31.36278,60573
31.37092,60377
31.37903,70678
31.38717,73034
31.39528,76399
31.40340,76975
31.41153,76890
31.41965,68128
31.42778,66414
31.43590,62202
31.44402,57462
31.45215,55303
31.46027,57257
31.46840,62683
31.47652,73421
31.48463,83330
31.49277,84365
31.50088,89867
31.50900,93290
31.51713,88447
31.52525,82222
31.53338,80410
31.54150,76975
31.54962,67373
31.55775,71829
31.56587,87703
31.57400,87586
31.58212,97578
31.59023,100024
31.59837,102694
31.60648,92259
31.61460,85634
31.62273,79235
31.63085,83034
31.63898,76833
31.64710,75952
31.65522,81694
31.66335,79342
31.67147,85981
31.67960,83709
31.68772,84803
31.69583,90747
31.70397,86620
31.71208,88931
31.72022,81651
31.72833,82771
31.73645,80418
31.74458,82180
31.75270,82148
31.76082,73971
31.76895,71820
31.77707,75159
31.78520,77308
31.79332,73294
31.80143,79287
31.80957,82907
31.81768,75445
31.82582,79621
31.83393,82088
31.84205,75009
31.85018,81527
31.85830,80291
31.86643,86456
31.87455,96477
31.88267,89878
31.89080,89447
31.89892,95547
31.90703,87847
31.91517,91502
31.92328,96262
31.93142,97526
31.93953,99455
31.94765,99342
31.95578,103055
31.96390,95847
31.97203,94085
31.98015,102662
31.98827,114832
31.99640,106574
32.00452,103589
32.01263,99616
32.02077,98090
32.02888,104125
32.03702,98522
32.04513,98132
32.05325,84911
32.06138,92850
32.06950,91834
32.07763,81248
32.08575,82453
32.09387,83470
32.10200,75818
32.11012,79895
32.11825,78380
32.12637,73979
32.13448,69947
32.14262,69231
32.15073,67019
32.15885,72666
32.16698,69958
32.17510,68473
32.18323,64956
32.19135,66636
32.19947,67389
32.20760,72975
32.21572,67298
32.22385,66418
32.23197,60971
32.24008,63745
32.24822,69633
32.25633,61386
32.26447,62538
32.27258,70983
32.28070,76867
32.28883,72224
32.29695,78954
32.30507,67097
32.31320,65118
32.32132,62702
32.32945,64110
32.33757,58042
32.34568,64157
32.35382,67870
32.36193,74218
32.37007,73940
32.37818,76673
32.38630,71781
32.39443,71768
32.40255,70499
32.41067,60243
32.41880,58207
32.42692,56374
32.43505,58151
32.44317,62222
32.45128,60060
32.45942,55662
32.46753,56126
32.47567,58051
32.48378,55114
32.49190,51954
32.50003,57776
32.50815,55653
32.51628,60744
32.52440,55939
32.53252,53962
32.54065,53953
32.54877,57941
32.55688,53634
32.56502,53704
32.57313,59287
32.58127,54171
32.58938,62066
32.59750,53837
32.60563,52200
32.61375,56452
32.62188,50211
32.63000,51552
32.63812,51662
32.64625,60389
32.65437,48918
32.66250,55728
32.67062,54306
32.67873,57652
32.68687,62754
32.69498,58071
32.70310,64298
32.71123,61520
32.71935,59980
32.72748,58160
32.73560,56191
32.74372,56679
32.75185,54922
32.75997,50379
32.76810,49177
32.77622,51325
32.78433,51196
32.79247,51355
32.80058,49913
32.80870,51043
32.81683,50127
32.82495,45162
32.83308,48527
32.84120,43257
32.84932,45620
32.85745,53953
32.86557,49845
32.87370,48821
32.88182,54078
32.88993,51631
32.89807,49348
32.90618,56419
32.91432,50749
32.92243,51531
32.93055,55727
32.93868,54397
32.94680,50897
32.95492,47087
32.96305,51219
32.97117,55764
32.97930,67919
32.98742,74868
32.99553,102244
33.00367,129890
33.01178,161223
33.01992,175127
33.02803,178440
33.03615,151901
33.04428,115787
33.05240,97519
33.06052,82166
33.06865,80771
33.07677,74558
33.08490,73154
33.09302,81230
33.10113,84357
33.10927,87595
33.11738,99118
33.12552,113704
33.13363,114119
33.14175,109465
33.14988,107667
33.15800,89592
33.16613,79571
33.17425,73602
33.18237,64268
33.19050,70036
33.19862,63086
33.20673,60691
33.21487,61283
33.22298,58573
33.23112,62341
33.23923,60086
33.24735,58897
33.25548,57516
33.26360,56837
33.27173,57004
33.27985,56714
33.28797,56165
33.29610,61966
33.30422,55161
33.31235,50417
33.32047,61600
33.32858,54867
33.33672,53523
33.34483,54529
33.35295,59173
33.36108,55485
33.36920,56622
33.37733,57424
33.38545,60005
33.39357,55553
33.40170,57656
33.40982,51566
33.41795,54588
33.42607,47934
33.43418,54263
33.44232,51943
33.45043,51712
33.45855,47017
33.46668,53866
33.47480,50781
33.48293,49331
33.49105,50576
33.49917,58801
33.50730,62917
33.51542,59398
33.52355,60411
33.53167,58941
33.53978,61121
33.54792,61743
33.55603,61224
33.56417,64833
33.57228,67316
33.58040,65960
33.58853,63616
33.59665,57101
33.60477,57286
33.61290,55236
33.62102,54319
33.62915,51082
33.63727,50528
33.64538,52075
33.65352,54107
33.66163,58730
33.66977,58334
33.67788,58778
33.68600,57491
33.69413,55535
33.70225,52202
33.71038,53026
33.71850,51819
33.72662,49315
33.73475,50624
33.74287,51516
33.75098,53155
33.75912,54794
33.76723,53643
33.77537,48133
33.78348,47152
33.79160,58787
33.79973,50995
33.80785,48499
33.81598,48871
33.82410,51097
33.83222,51956
33.84035,54744
33.84847,56233
33.85658,59991
33.86472,57790
33.87283,59136
33.88097,53750
33.88908,54568
33.89720,57977
33.90533,56037
33.91345,55729
33.92158,56724
33.92970,53193
33.93782,53173
33.94595,52666
33.95407,51771
33.96220,53925
33.97032,55285
33.97843,48562
33.98657,59718
33.99468,55096
34.00280,53738
34.01093,54384
34.01905,51787
34.02718,55691
34.03530,56196
34.04342,51777
34.05155,51837
34.05967,50819
34.06780,52598
34.07592,53681
34.08403,48954
34.09217,52980
34.10028,54771
34.10840,54510
34.11653,50439
34.12465,52069
34.13278,54911
34.14090,54894
34.14902,55762
34.15715,52672
34.16527,57931
34.17340,56186
34.18152,55091
34.18963,52033
34.19777,51920
34.20588,54096
34.21402,51183
34.22213,52602
34.23025,53342
34.23838,55170
34.24650,55162
34.25462,50425
34.26275,52966
34.27087,46704
34.27900,55842
34.28712,54175
34.29523,47686
34.30337,53177
34.31148,51820
34.31962,52107
34.32773,51710
34.33585,58150
34.34398,54163
34.35210,48926
34.36023,50880
34.36835,50857
34.37647,53339
34.38460,54843
34.39272,54807
34.40083,56890
34.40897,49814
34.41708,52297
34.42522,54923
34.43333,54996
34.44145,56825
34.44958,55281
34.45770,48781
34.46583,52096
34.47395,52446
34.48207,57529
34.49020,54170
34.49832,52808
34.50645,55313
34.51457,55361
34.52268,53131
34.53082,49747
34.53893,54556
34.54705,61643
34.55518,57440
34.56330,66786
34.57143,67582
34.57955,73497
34.58767,70404
34.59580,71113
34.60392,62086
34.61205,63123
34.62017,63845
34.62828,61269
34.63642,56005
34.64453,56738
34.65265,59595
34.66078,62700
34.66890,56637
34.67703,56943
34.68515,54742
34.69327,56730
34.70140,51237
34.70952,56472
34.71765,56271
34.72577,55681
34.73388,53104
34.74202,51787
34.75013,53548
34.75827,55601
34.76638,63479
34.77450,56739
34.78263,58604
34.79075,55486
34.79887,56600
34.80700,55432
34.81512,56402
34.82325,46513
34.83137,53600
34.83948,56265
34.84762,53775
34.85573,50054
34.86387,52718
34.87198,55668
34.88010,56562
34.88823,54151
34.89635,52315
34.90447,52249
34.91260,53152
34.92072,52053
34.92885,52933
34.93697,55266
34.94508,60777
34.95322,77410
34.96133,108044
34.96947,154066
34.97758,230326
34.98570,313731
34.99383,355202
35.00195,341049
35.01008,278534
35.01820,190323
35.02632,130260
35.03445,97678
35.04257,80247
35.05068,67284
35.05882,68391
35.06693,66254
35.07507,58740
35.08318,62057
35.09130,63507
35.09943,60302
35.10755,63547
35.11568,60680
35.12380,58556
35.13192,59388
35.14005,60514
35.14817,59289
35.15630,63082
35.16442,60306
35.17253,64236
35.18067,64666
35.18878,60369
35.19690,59488
35.20503,57309
35.21315,53788
35.22128,58068
35.22940,54489
35.23752,59066
35.24565,61468
35.25377,55935
35.26190,57506
35.27002,56118
35.27813,61741
35.28627,59806
35.29438,60399
35.30250,56455
35.31063,58457
35.31875,58317
35.32688,58877
35.33500,54363
35.34312,54518
35.35125,53300
35.35937,53551
35.36750,56508
35.37562,60452
35.38373,55555
35.39187,53391
35.39998,56494
35.40812,54578
35.41623,54719
35.42435,55590
35.43248,55551
35.44060,54265
35.44872,59999
35.45685,61151
35.46497,62170
35.47310,58715
35.48122,62157
35.48933,61943
35.49747,65770
35.50558,61135
35.51372,57150
35.52183,63572
35.52995,57232
35.53808,58312
35.54620,56423
35.55433,58717
35.56245,57733
35.57057,55153
35.57870,54524
35.58682,62650
35.59493,55698
35.60307,56424
35.61118,55199
35.61932,61107
35.62743,54990
35.63555,59912
35.64368,56224
35.65180,55004
35.65993,57753
35.66805,53066
35.67617,53093
35.68430,56941
35.69242,54783
35.70053,58916
35.70867,63323
35.71678,58500
35.72492,59364
35.73303,56849
35.74115,59139
35.74928,58236
35.75740,59722
35.76553,59606
35.77365,65818
35.78177,68166
35.78990,64429
35.79802,68931
35.80615,73243
35.81427,62516
35.82238,59994
35.83052,62150
35.83863,60256
35.84675,56350
35.85488,59456
35.86300,64565
35.87113,52822
35.87925,55406
35.88737,55765
35.89550,57104
35.90362,59581
35.91175,56648
35.91987,60716
35.92798,56478
35.93612,57323
35.94423,57637
35.95235,60583
35.96048,58713
35.96860,56926
35.97673,57077
35.98485,54808
35.99297,53186
36.00110,57795
36.00922,60478
36.01735,61227
36.02547,61231
36.03358,61439
36.04172,57650
36.04983,61525
36.05797,60919
36.06608,63400
36.07420,59263
36.08233,58345
36.09045,57948
36.09857,57750
36.10670,53396
36.11482,57863
36.12295,61360
36.13107,58528
36.13918,59283
36.14732,59150
36.15543,65005
36.16357,62970
36.17168,61611
36.17980,65043
36.18793,62871
36.19605,61856
36.20418,57579
36.21230,59892
36.22042,59715
36.22855,59242
36.23667,54846
36.24478,54630
36.25292,59542
36.26103,57922
36.26917,63469
36.27728,58961
36.28540,59068
36.29353,54975
36.30165,58953
36.30978,60475
36.31790,60241
36.32602,63277
36.33415,66565
36.34227,64406
36.35038,61358
36.35852,61544
36.36663,63320
36.37477,61534
36.38288,56877
36.39100,62788
36.39913,65399
36.40725,59147
36.41538,60867
36.42350,59913
36.43162,62041
36.43975,59289
36.44787,59967
36.45600,61396
36.46412,66096
36.47223,60665
36.48037,53054
36.48848,56247
36.49660,59479
36.50473,65616
36.51285,56761
36.52098,58556
36.52910,58834
36.53722,57892
36.54535,59445
36.55347,62829
36.56160,59794
36.56972,60479
36.57783,60269
36.58597,62752
36.59408,65467
36.60222,56816
36.61033,64582
36.61845,60238
36.62658,58841
36.63470,60474
36.64282,69157
36.65095,60461
36.65907,62880
36.66720,61333
36.67532,64016
36.68343,62816
36.69157,59694
36.69968,62470
36.70782,59754
36.71593,58733
36.72405,57276
36.73218,65045
36.74030,59170
36.74842,62107
36.75655,59873
36.76467,61013
36.77280,59939
36.78092,59929
36.78903,61965
36.79717,71336
36.80528,56945
36.81342,58074
36.82153,59235
36.82965,56330
36.83778,62656
36.84590,61565
36.85403,62182
36.86215,58016
36.87027,62635
36.87840,58113
36.88652,57485
36.89463,64544
36.90277,63178
36.91088,58507
36.91902,59351
36.92713,67521
36.93525,66203
36.94338,75535
36.95150,84860
36.95963,105148
36.96775,129562
36.97587,150616
36.98400,167412
36.99212,164314
37.00025,153217
37.00837,119130
37.01648,102429
37.02462,83963
37.03273,80619
37.04085,68092
37.04898,75659
37.05710,69243
37.06523,71332
37.07335,72813
37.08147,76210
37.08960,79301
37.09772,82768
37.10585,81834
37.11397,82663
37.12208,80015
37.13022,84887
37.13833,80938
37.14645,82395
37.15458,82208
37.16270,75699
37.17083,80924
37.17895,83767
37.18707,82069
37.19520,87427
37.20332,83150
37.21145,88044
37.21957,84157
37.22768,82902
37.23582,85528
37.24393,80651
37.25207,77560
37.26018,82573
37.26830,75052
37.27643,77068
37.28455,81100
37.29267,80075
37.30080,76749
37.30892,79117
37.31705,80926
37.32517,79018
37.33328,80549
37.34142,78093
37.34953,82493
37.35767,80786
37.36578,82644
37.37390,87640
37.38203,89894
37.39015,85894
37.39827,82317
37.40640,82445
37.41452,88095
37.42265,86324
37.43077,84145
37.43888,83798
37.44702,82069
37.45513,80404
37.46327,85554
37.47138,79221
37.47950,81035
37.48763,80488
