C:\MassHunter\GCMS\1\data\JTB-E18\JTB-E18-033-07.D Mon Oct 14 12:17:57 2019
Start of data points
2.09532,162388
2.10345,150653
2.11157,151016
2.11970,141332
2.12782,135292
2.13593,137247
2.14407,132557
2.15218,128778
2.16030,121017
2.16843,125659
2.17655,115095
2.18468,116199
2.19280,108931
2.20092,113044
2.20905,105278
2.21717,107425
2.22530,101815
2.23342,104730
2.24153,99891
2.24967,101014
2.25778,103127
2.26592,186531
2.27403,1091143
2.28215,2263016
2.29028,1430130
2.29840,686061
2.30652,445740
2.31465,353329
2.32277,318199
2.33090,275136
2.33902,247946
2.34713,221688
2.35527,199614
2.36338,187249
2.37152,182817
2.37963,176263
2.38775,183448
2.39588,165325
2.40400,158796
2.41213,156818
2.42025,154897
2.42837,163939
2.43650,152426
2.44462,162944
2.45273,161713
2.46087,139454
2.46898,135059
2.47712,134451
2.48523,123376
2.49335,133176
2.50148,129338
2.50960,124971
2.51773,121261
2.52585,124716
2.53397,121460
2.54210,130714
2.55022,139000
2.55835,132473
2.56647,121549
2.57458,116578
2.58272,116463
2.59083,110200
2.59895,112179
2.60708,115857
2.61520,121660
2.62333,122096
2.63145,112663
2.63957,112273
2.64770,114688
2.65582,107883
2.66395,111072
2.67207,112204
2.68018,116408
2.68832,110220
2.69643,103629
2.70455,105534
2.71268,96540
2.72080,98988
2.72893,101013
2.73705,112204
2.74517,136677
2.75330,118402
2.76142,103104
2.76955,98050
2.77767,104121
2.78578,100487
2.79392,95713
2.80203,101496
2.81017,103725
2.81828,100978
2.82640,139320
2.83453,194267
2.84265,168785
2.85077,120300
2.85890,111748
2.86702,111453
2.87515,105353
2.88327,102400
2.89138,97792
2.89952,96194
2.90763,93293
2.91577,90038
2.92388,89946
2.93200,89267
2.94013,86769
2.94825,88185
2.95637,86851
2.96450,90010
2.97262,81925
2.98075,84460
2.98887,87091
2.99698,88302
3.00512,103614
3.01323,102625
3.02137,111238
3.02948,159541
3.03760,236800
3.04573,319701
3.05385,858229
3.06198,1816433
3.07010,1695431
3.07822,884029
3.08635,490682
3.09447,336300
3.10258,256910
3.11072,217326
3.11883,204898
3.12697,178661
3.13508,157832
3.14320,145220
3.15133,140004
3.15945,130417
3.16758,132423
3.17570,124403
3.18382,119492
3.19195,120998
3.20007,114157
3.20820,107020
3.21632,105491
3.22443,109969
3.23257,109720
3.24068,109141
3.24880,101856
3.25693,103539
3.26505,105482
3.27318,105414
3.28130,153398
3.28942,362948
3.29755,846861
3.30567,1433940
3.31380,1701013
3.32192,1514452
3.33003,1179183
3.33817,932837
3.34628,773558
3.35440,656328
3.36253,584496
3.37065,551759
3.37878,578165
3.38690,557089
3.39502,500421
3.40315,548090
3.41127,830720
3.41940,1113130
3.42752,950239
3.43563,624611
3.44377,457414
3.45188,383582
3.46002,348410
3.46813,323379
3.47625,293016
3.48438,286960
3.49250,272654
3.50062,265893
3.50875,246377
3.51687,246943
3.52500,232277
3.53312,226778
3.54123,216053
3.54937,209971
3.55748,204049
3.56562,200184
3.57373,203917
3.58185,199528
3.58998,191477
3.59810,187429
3.60623,185270
3.61435,209945
3.62247,292097
3.63060,433974
3.63872,542860
3.64683,471066
3.65497,340962
3.66308,274738
3.67122,228319
3.67933,216970
3.68745,204472
3.69558,201437
3.70370,190735
3.71183,180973
3.71995,175560
3.72807,169569
3.73620,168906
3.74432,177071
3.75243,194293
3.76057,196335
3.76868,176164
3.77682,167904
3.78493,160715
3.79305,163292
3.80118,156760
3.80930,153251
3.81743,158252
3.82555,155093
3.83367,154697
3.84180,153488
3.84992,152089
3.85805,148819
3.86617,145397
3.87428,139214
3.88242,137661
3.89053,140872
3.89865,141618
3.90678,138837
3.91490,136835
3.92303,134531
3.93115,131437
3.93927,137081
3.94740,128276
3.95552,131347
3.96365,123626
3.97177,131595
3.97988,135767
3.98802,128696
3.99613,128201
4.00425,129241
4.01238,124049
4.02050,129880
4.02863,124898
4.03675,123754
4.04487,120837
4.05300,127016
4.06112,122451
4.06925,124104
4.07737,119995
4.08548,120583
4.09362,122359
4.10173,123475
4.10987,130290
4.11798,147107
4.12610,145591
4.13423,132162
4.14235,124870
4.15047,131732
4.15860,129884
4.16672,127340
4.17485,123974
4.18297,120555
4.19108,118666
4.19922,115631
4.20733,119702
4.21547,116424
4.22358,127071
4.23170,138022
4.23983,150666
4.24795,146456
4.25608,137405
4.26420,138632
4.27232,134142
4.28045,120302
4.28857,120042
4.29668,118418
4.30482,114079
4.31293,117245
4.32107,121139
4.32918,123529
4.33730,121611
4.34543,116973
4.35355,115859
4.36168,115227
4.36980,115010
4.37792,110656
4.38605,114076
4.39417,112982
4.40228,106959
4.41042,106272
4.41853,111413
4.42667,110189
4.43478,107556
4.44290,107301
4.45103,112957
4.45915,116357
4.46728,114456
4.47540,115917
4.48352,114571
4.49165,108806
4.49977,113888
4.50790,132023
4.51602,132406
4.52413,115738
4.53227,107510
4.54038,110563
4.54850,104817
4.55663,106192
4.56475,106366
4.57288,112119
4.58100,108071
4.58912,103615
4.59725,107660
4.60537,101107
4.61350,104277
4.62162,104265
4.62973,98973
4.63787,104636
4.64598,96391
4.65412,106361
4.66223,102469
4.67035,102189
4.67848,97308
4.68660,98984
4.69472,100621
4.70285,102184
4.71097,100793
4.71910,98013
4.72722,99999
4.73533,101222
4.74347,96787
4.75158,101030
4.75972,97635
4.76783,96156
4.77595,95290
4.78408,94072
4.79220,97829
4.80032,98516
4.80845,95979
4.81657,103011
4.82470,101100
4.83282,97790
4.84093,99199
4.84907,101105
4.85718,105252
4.86532,104893
4.87343,110000
4.88155,111186
4.88968,107084
4.89780,105963
4.90593,104114
4.91405,120938
4.92217,161915
4.93030,278241
4.93842,450703
4.94653,584756
4.95467,610120
4.96278,540674
4.97092,432927
4.97903,355441
4.98715,290920
4.99528,266880
5.00340,242551
5.01153,224623
5.01965,205621
5.02777,195526
5.03590,182587
5.04402,183302
5.05213,179032
5.06027,178083
5.06838,167441
5.07652,165066
5.08463,164069
5.09275,167577
5.10088,166581
5.10900,178589
5.11713,188124
5.12525,184476
5.13337,176011
5.14150,170547
5.14962,157459
5.15775,151496
5.16587,154831
5.17398,170468
5.18212,181435
5.19023,177842
5.19835,177583
5.20648,165195
5.21460,156120
5.22273,144939
5.23085,149090
5.23897,156016
5.24710,149051
5.25522,149049
5.26335,142242
5.27147,130975
5.27958,133523
5.28772,128873
5.29583,126226
5.30397,123772
5.31208,124009
5.32020,119796
5.32833,126589
5.33645,120646
5.34457,120194
5.35270,126792
5.36082,122002
5.36895,119245
5.37707,116366
5.38518,117762
5.39332,115873
5.40143,110007
5.40957,113116
5.41768,109754
5.42580,113028
5.43393,108866
5.44205,109909
5.45017,111340
5.45830,107228
5.46642,111355
5.47455,109385
5.48267,110196
5.49078,107712
5.49892,110652
5.50703,109981
5.51517,113851
5.52328,105907
5.53140,110503
5.53953,103683
5.54765,108949
5.55578,101927
5.56390,106322
5.57202,107438
5.58015,110273
5.58827,114472
5.59638,115329
5.60452,117684
5.61263,124167
5.62077,126355
5.62888,125798
5.63700,140141
5.64513,131296
5.65325,129596
5.66138,116391
5.66950,114267
5.67762,118834
5.68575,120343
5.69387,124447
5.70200,127525
5.71012,125061
5.71823,131077
5.72637,124337
5.73448,127453
5.74260,126170
5.75073,121796
5.75885,129202
5.76698,129596
5.77510,131174
5.78322,132648
5.79135,122299
5.79947,135436
5.80760,162938
5.81572,250734
5.82383,354326
5.83197,438161
5.84008,459068
5.84820,373573
5.85633,294677
5.86445,225211
5.87258,182073
5.88070,155333
5.88882,149396
5.89695,141782
5.90507,153638
5.91320,162307
5.92132,187318
5.92943,223579
5.93757,236831
5.94568,217710
5.95382,176865
5.96193,146869
5.97005,140127
5.97818,138031
5.98630,145442
5.99442,135206
6.00255,124598
6.01067,108114
6.01880,98446
6.02692,99501
6.03503,97989
6.04317,93071
6.05128,93958
6.05942,94020
6.06753,92426
6.07565,84921
6.08378,84392
6.09190,86213
6.10003,80901
6.10815,78671
6.11627,81906
6.12440,80317
6.13252,85197
6.14063,85291
6.14877,82269
6.15688,83883
6.16502,86488
6.17313,93527
6.18125,101890
6.18938,102673
6.19750,114004
6.20563,110426
6.21375,116063
6.22187,119908
6.23000,108980
6.23812,114567
6.24623,112779
6.25437,115744
6.26248,118117
6.27062,114200
6.27873,125375
6.28685,125639
6.29498,122038
6.30310,127792
6.31123,127964
6.31935,131903
6.32747,132485
6.33560,137699
6.34372,140132
6.35185,148828
6.35997,146198
6.36808,145115
6.37622,151470
6.38433,153949
6.39245,153426
6.40058,155259
6.40870,149108
6.41683,159074
6.42495,159184
6.43307,163373
6.44120,165886
6.44932,165387
6.45745,172419
6.46557,171074
6.47368,170410
6.48182,176481
6.48993,177372
6.49805,178959
6.50618,174277
6.51430,185531
6.52243,189372
6.53055,184058
6.53867,190590
6.54680,187774
6.55492,196215
6.56305,181917
6.57117,194771
6.57928,170358
6.58742,125852
6.59553,110309
6.60367,108386
6.61178,104865
6.61990,97605
6.62803,98736
6.63615,93383
6.64427,86208
6.65240,83384
6.66052,82609
6.66865,83606
6.67677,83541
6.68488,85369
6.69302,80696
6.70113,87756
6.70927,94935
6.71738,101998
6.72550,113976
6.73363,116427
6.74175,111871
6.74988,96969
6.75800,95342
6.76612,83091
6.77425,79011
6.78237,80245
6.79048,75761
6.79862,73582
6.80673,72304
6.81487,75556
6.82298,82016
6.83110,92132
6.83923,117514
6.84735,156569
6.85548,221403
6.86360,289994
6.87172,326757
6.87985,330185
6.88797,283793
6.89608,203230
6.90422,137073
6.91233,103336
6.92047,87576
6.92858,76007
6.93670,72270
6.94483,66353
6.95295,66291
6.96108,62813
6.96920,61164
6.97732,62831
6.98545,68366
6.99357,78531
7.00170,89249
7.00982,112011
7.01793,134555
7.02607,140084
7.03418,133349
7.04230,116684
7.05043,100531
7.05855,84240
7.06668,71794
7.07480,66365
7.08292,65369
7.09105,63595
7.09917,67683
7.10730,70292
7.11542,69005
7.12353,69210
7.13167,66584
7.13978,68368
7.14792,60148
7.15603,58950
7.16415,59370
7.17228,62138
7.18040,60637
7.18852,58448
7.19665,54823
7.20477,58102
7.21290,54948
7.22102,59911
7.22913,62389
7.23727,61237
7.24538,74060
7.25352,73786
7.26163,79666
7.26975,77085
7.27788,71773
7.28600,71851
7.29412,65523
7.30225,64288
7.31037,66514
7.31850,66324
7.32662,63142
7.33473,64022
7.34287,66931
7.35098,63700
7.35912,64144
7.36723,71215
7.37535,81043
7.38348,92603
7.39160,107157
7.39973,105498
7.40785,98427
7.41597,83548
7.42410,76900
7.43222,73058
7.44033,70875
7.44847,66852
7.45658,65394
7.46472,62706
7.47283,71507
7.48095,73454
7.48908,79219
7.49720,82668
7.50533,88096
7.51345,78827
7.52157,70970
7.52970,65886
7.53782,61086
7.54593,54390
7.55407,58695
7.56218,55712
7.57032,54105
7.57843,54044
7.58655,54361
7.59468,56765
7.60280,51395
7.61093,51104
7.61905,50806
7.62717,53578
7.63530,49597
7.64342,53664
7.65155,50257
7.65967,48807
7.66778,50197
7.67592,48016
7.68403,51020
7.69215,50552
7.70028,49389
7.70840,52016
7.71653,52684
7.72465,52811
7.73277,53744
7.74090,50062
7.74902,45791
7.75715,46027
7.76527,44211
7.77338,45355
7.78152,45002
7.78963,48901
7.79777,46840
7.80588,46508
7.81400,45545
7.82213,41932
7.83025,45374
7.83837,47344
7.84650,42289
7.85462,45334
7.86275,42327
7.87087,44621
7.87898,45183
7.88712,43600
7.89523,43773
7.90337,43001
7.91148,45917
7.91960,46011
7.92773,45877
7.93585,41970
7.94398,39187
7.95210,44280
7.96022,44246
7.96835,46391
7.97647,47784
7.98458,50436
7.99272,45893
8.00083,43798
8.00897,43288
8.01708,45392
8.02520,41882
8.03333,41127
8.04145,40110
8.04958,43687
8.05770,43320
8.06582,41477
8.07395,40536
8.08207,39561
8.09018,41444
8.09832,42221
8.10643,41774
8.11457,41283
8.12268,39897
8.13080,43697
8.13893,42559
8.14705,41282
8.15518,43969
8.16330,43231
8.17142,46076
8.17955,45714
8.18767,50539
8.19580,40613
8.20392,40582
8.21203,39465
8.22017,42712
8.22828,42705
8.23640,39319
8.24453,33999
8.25265,42100
8.26078,38470
8.26890,40563
8.27702,38748
8.28515,38364
8.29327,40736
8.30140,42398
8.30952,42029
8.31763,46014
8.32577,43227
8.33388,47032
8.34200,47724
8.35013,51502
8.35825,48014
8.36638,43228
8.37450,41841
8.38262,43196
8.39075,37811
8.39887,38475
8.40700,38294
8.41512,40513
8.42323,41462
8.43137,36789
8.43948,37114
8.44762,40502
8.45573,35416
8.46385,38173
8.47198,39008
8.48010,37729
8.48822,37185
8.49635,35864
8.50447,41486
8.51260,46746
8.52072,51058
8.52883,52473
8.53697,60495
8.54508,50706
8.55322,51062
8.56133,46209
8.56945,45152
8.57758,41816
8.58570,41969
8.59383,39587
8.60195,41498
8.61007,42057
8.61820,39030
8.62632,39373
8.63443,37686
8.64257,38873
8.65068,37975
8.65882,37073
8.66693,39777
8.67505,38956
8.68318,37762
8.69130,39468
8.69943,46709
8.70755,44788
8.71567,51591
8.72380,60955
8.73192,76225
8.74003,106453
8.74817,143158
8.75628,156154
8.76442,149389
8.77253,126998
8.78065,101752
8.78878,82817
8.79690,75001
8.80503,72260
8.81315,75867
8.82127,73623
8.82940,66726
8.83752,65159
8.84565,63427
8.85377,58310
8.86188,59059
8.87002,59245
8.87813,58033
8.88625,58113
8.89438,57893
8.90250,58522
8.91063,59943
8.91875,50657
8.92687,50757
8.93500,50937
8.94312,52219
8.95125,52698
8.95937,46204
8.96748,46302
8.97562,46276
8.98373,51032
8.99187,49045
8.99998,47079
9.00810,48243
9.01623,45670
9.02435,45314
9.03247,47256
9.04060,44937
9.04872,45121
9.05685,47118
9.06497,48849
9.07308,46735
9.08122,43338
9.08933,43050
9.09747,45393
9.10558,44743
9.11370,47130
9.12183,47622
9.12995,44999
9.13807,45720
9.14620,42690
9.15432,49409
9.16245,43222
9.17057,39891
9.17868,46400
9.18682,44828
9.19493,45913
9.20307,44117
9.21118,44967
9.21930,41485
9.22743,44855
9.23555,42990
9.24368,45608
9.25180,42418
9.25992,44098
9.26805,43860
9.27617,50283
9.28428,52538
9.29242,57462
9.30053,55434
9.30867,52531
9.31678,52743
9.32490,46491
9.33303,43728
9.34115,48293
9.34928,44857
9.35740,43807
9.36552,42118
9.37365,43043
9.38177,42360
9.38988,42089
9.39802,36689
9.40613,38535
9.41427,38369
9.42238,43441
9.43050,37881
9.43863,39271
9.44675,44347
9.45488,36200
9.46300,37356
9.47112,38790
9.47925,38103
9.48737,37929
9.49550,39864
9.50362,35145
9.51173,38144
9.51987,35563
9.52798,40379
9.53610,35732
9.54423,38905
9.55235,40235
9.56048,35989
9.56860,37341
9.57672,35022
9.58485,36428
9.59297,41464
9.60110,45954
9.60922,41118
9.61733,41029
9.62547,41171
9.63358,38424
9.64172,44680
9.64983,43326
9.65795,49646
9.66608,43926
9.67420,41647
9.68232,37898
9.69045,33574
9.69857,33650
9.70670,32006
9.71482,32644
9.72293,31563
9.73107,31618
9.73918,33177
9.74732,31628
9.75543,30137
9.76355,30154
9.77168,28606
9.77980,29421
9.78792,31796
9.79605,28621
9.80417,29371
9.81230,29729
9.82042,30167
9.82853,29742
9.83667,31591
9.84478,29398
9.85292,31759
9.86103,29597
9.86915,31238
9.87728,32463
9.88540,29171
9.89353,32747
9.90165,28465
9.90977,28363
9.91790,29348
9.92602,28305
9.93413,30369
9.94227,32072
9.95038,29042
9.95852,32786
9.96663,33684
9.97475,40593
9.98288,35849
9.99100,35875
9.99913,37032
10.00725,35662
10.01537,30827
10.02350,30118
10.03162,28781
10.03975,27648
10.04787,26466
10.05598,29837
10.06412,29845
10.07223,30877
10.08035,32905
10.08848,29297
10.09660,29072
10.10473,28242
10.11285,28347
10.12097,29470
10.12910,27959
10.13722,30802
10.14535,29083
10.15347,28462
10.16158,28605
10.16972,27622
10.17783,24873
10.18595,28527
10.19408,26523
10.20220,28045
10.21033,32357
10.21845,33213
10.22657,32543
10.23470,32292
10.24282,28812
10.25095,29565
10.25907,28386
10.26718,29974
10.27532,32825
10.28343,28832
10.29157,27763
10.29968,31258
10.30780,30013
10.31593,26115
10.32405,28242
10.33217,33493
10.34030,25424
10.34842,27832
10.35655,28130
10.36467,29242
10.37278,24167
10.38092,27632
10.38903,28579
10.39717,31346
10.40528,28777
10.41340,29210
10.42153,29227
10.42965,30162
10.43778,29303
10.44590,27623
10.45402,29188
10.46215,24092
10.47027,26159
10.47838,26750
10.48652,31558
10.49463,27876
10.50277,28611
10.51088,27985
10.51900,26851
10.52713,28361
10.53525,32799
10.54338,31160
10.55150,29720
10.55962,28406
10.56775,25448
10.57587,27579
10.58398,25541
10.59212,29063
10.60023,27596
10.60837,23840
10.61648,24989
10.62460,24384
10.63273,25703
10.64085,26469
10.64898,24077
10.65710,27544
10.66522,27338
10.67335,27402
10.68147,24581
10.68960,26312
10.69772,28009
10.70583,32229
10.71397,29453
10.72208,28551
10.73020,29145
10.73833,29691
10.74645,32227
10.75458,31673
10.76270,32043
10.77082,32516
10.77895,32679
10.78707,30042
10.79520,32682
10.80332,24886
10.81143,27201
10.81957,27522
10.82768,27121
10.83580,27367
10.84393,28386
10.85205,26695
10.86018,26075
10.86830,23869
10.87642,25579
10.88455,25730
10.89267,25946
10.90080,25411
10.90892,24162
10.91703,24569
10.92517,26337
10.93328,24582
10.94142,25447
10.94953,27724
10.95765,26852
10.96578,25082
10.97390,30996
10.98202,26545
10.99015,28134
10.99827,28187
11.00640,28349
11.01452,26753
11.02263,24819
11.03077,27003
11.03888,26237
11.04702,25311
11.05513,24721
11.06325,25121
11.07138,28788
11.07950,25110
11.08763,26076
11.09575,27279
11.10387,26726
11.11200,29263
11.12012,30336
11.12823,31687
11.13637,31158
11.14448,30054
11.15262,29665
11.16073,29207
11.16885,28788
11.17698,27363
11.18510,31015
11.19323,28656
11.20135,31609
11.20947,31747
11.21760,29705
11.22572,34089
11.23383,29888
11.24197,31214
11.25008,28123
11.25822,29969
11.26633,29909
11.27445,35764
11.28258,36683
11.29070,43950
11.29883,51697
11.30695,55120
11.31507,52510
11.32320,54105
11.33132,45885
11.33945,43305
11.34757,42741
11.35568,42567
11.36382,44621
11.37193,38224
11.38005,39078
11.38818,36716
11.39630,34696
11.40443,33788
11.41255,33939
11.42067,29627
11.42880,28746
11.43692,29455
11.44505,29439
11.45317,30432
11.46128,30851
11.46942,30888
11.47753,31042
11.48567,28175
11.49378,31536
11.50190,30394
11.51003,30991
11.51815,31257
11.52627,34631
11.53440,32754
11.54252,34484
11.55065,35352
11.55877,31584
11.56688,30952
11.57502,32461
11.58313,34495
11.59127,31473
11.59938,33469
11.60750,35612
11.61563,30898
11.62375,32795
11.63187,29085
11.64000,32333
11.64812,31672
11.65625,30982
11.66437,29818
11.67248,29455
11.68062,31133
11.68873,34747
11.69687,36419
11.70498,38615
11.71310,41786
11.72123,42976
11.72935,39143
11.73748,39759
11.74560,38842
11.75372,37610
11.76185,35471
11.76997,37296
11.77808,33622
11.78622,35892
11.79433,33782
11.80247,32523
11.81058,30375
11.81870,31446
11.82683,32375
11.83495,28280
11.84308,31422
11.85120,34468
11.85932,30315
11.86745,28149
11.87557,29342
11.88368,27737
11.89182,26022
11.89993,28540
11.90807,27759
11.91618,30829
11.92430,30073
11.93243,28216
11.94055,33146
11.94868,31666
11.95680,32123
11.96492,30660
11.97305,32985
11.98117,31473
11.98930,29821
11.99742,29943
12.00553,28249
12.01367,28195
12.02178,27230
12.02990,26500
12.03803,27571
12.04615,25116
12.05428,30553
12.06240,27086
12.07052,28336
12.07865,28031
12.08677,27132
12.09490,29576
12.10302,26147
12.11113,25165
12.11927,24897
12.12738,24319
12.13552,24987
12.14363,26747
12.15175,26671
12.15988,28065
12.16800,27340
12.17612,25226
12.18425,27161
12.19237,26645
12.20050,26174
12.20862,24106
12.21673,27501
12.22487,25738
12.23298,25153
12.24112,24151
12.24923,22693
12.25735,23814
12.26548,23681
12.27360,24615
12.28172,26236
12.28985,27321
12.29797,28951
12.30610,25574
12.31422,25104
12.32233,23539
12.33047,25549
12.33858,27717
12.34672,22957
12.35483,24935
12.36295,29669
12.37108,28510
12.37920,27714
12.38733,27230
12.39545,27335
12.40357,26184
12.41170,24757
12.41982,26343
12.42793,28484
12.43607,26310
12.44418,26101
12.45232,26340
12.46043,24867
12.46855,28317
12.47668,27368
12.48480,23087
12.49293,25664
12.50105,27521
12.50917,25926
12.51730,26174
12.52542,29219
12.53355,26355
12.54167,25588
12.54978,25023
12.55792,26440
12.56603,23778
12.57415,21720
12.58228,23898
12.59040,24422
12.59853,24794
12.60665,22462
12.61477,25315
12.62290,22916
12.63102,24136
12.63915,26528
12.64727,26185
12.65538,22769
12.66352,25685
12.67163,24411
12.67975,24972
12.68788,25781
12.69600,26879
12.70413,23010
12.71225,26256
12.72037,27826
12.72850,31838
12.73662,33786
12.74475,33869
12.75287,34348
12.76098,31348
12.76912,30696
12.77723,32788
12.78537,30461
12.79348,27688
12.80160,27985
12.80973,28413
12.81785,25163
12.82597,30392
12.83410,27774
12.84222,27049
12.85035,27579
12.85847,29107
12.86658,26325
12.87472,25657
12.88283,27675
12.89097,24258
12.89908,23952
12.90720,21838
12.91533,23078
12.92345,24150
12.93157,19806
12.93970,25649
12.94782,28954
12.95595,32101
12.96407,35096
12.97218,38829
12.98032,44533
12.98843,41519
12.99657,46135
13.00468,39373
13.01280,37197
13.02093,35570
13.02905,35584
13.03718,32705
13.04530,31233
13.05342,26475
13.06155,30749
13.06967,30871
13.07778,27234
13.08592,26643
13.09403,26200
13.10217,25242
13.11028,27259
13.11840,28025
13.12653,27385
13.13465,25115
13.14278,27569
13.15090,25236
13.15902,24092
13.16715,23855
13.17527,26358
13.18340,26499
13.19152,23593
13.19963,23825
13.20777,27709
13.21588,24545
13.22400,25005
13.23213,23511
13.24025,26794
13.24838,25642
13.25650,25376
13.26462,26505
13.27275,26421
13.28087,28078
13.28900,26908
13.29712,28460
13.30523,30012
13.31337,30184
13.32148,30678
13.32962,28736
13.33773,28766
13.34585,29024
13.35398,27758
13.36210,28194
13.37022,28615
13.37835,29594
13.38647,27886
13.39460,26853
13.40272,23974
13.41083,24793
13.41897,23915
13.42708,23546
13.43522,26298
13.44333,20956
13.45145,22455
13.45958,25166
13.46770,24003
13.47582,25410
13.48395,23480
13.49207,24546
13.50020,22558
13.50832,23582
13.51643,21327
13.52457,24903
13.53268,21208
13.54082,27201
13.54893,24337
13.55705,24857
13.56518,27482
13.57330,26463
13.58143,32121
13.58955,27098
13.59767,28198
13.60580,28848
13.61392,27655
13.62203,26462
13.63017,31519
13.63828,33817
13.64642,29200
13.65453,30780
13.66265,32373
13.67078,31218
13.67890,29403
13.68703,29083
13.69515,26638
13.70327,28393
13.71140,25632
13.71952,26021
13.72763,25192
13.73577,24522
13.74388,24126
13.75202,27730
13.76013,29024
13.76825,26293
13.77638,24749
13.78450,26650
13.79263,24070
13.80075,24116
13.80887,24537
13.81700,24447
13.82512,25397
13.83325,23491
13.84137,25729
13.84948,24353
13.85762,24623
13.86573,24375
13.87385,27668
13.88198,25649
13.89010,26390
13.89823,26056
13.90635,27466
13.91447,26428
13.92260,28039
13.93072,28875
13.93885,29314
13.94697,28085
13.95508,26461
13.96322,25651
13.97133,29081
13.97947,24110
13.98758,22828
13.99570,24570
14.00383,24683
14.01195,23334
14.02007,26218
14.02820,26403
14.03632,24172
14.04445,24409
14.05257,22276
14.06068,25260
14.06882,29144
14.07693,24912
14.08507,22179
14.09318,24812
14.10130,23950
14.10943,24952
14.11755,27725
14.12567,27321
14.13380,34522
14.14192,44227
14.15005,53618
14.15817,63227
14.16628,65263
14.17442,60557
14.18253,55692
14.19067,56156
14.19878,42896
14.20690,43346
14.21503,40979
14.22315,43315
14.23128,37944
14.23940,38074
14.24752,38080
14.25565,36631
14.26377,39066
14.27188,31779
14.28002,34076
14.28813,34502
14.29627,29899
14.30438,28356
14.31250,26232
14.32063,23289
14.32875,26076
14.33688,19800
14.34500,22285
14.35312,24984
14.36125,21740
14.36937,23221
14.37750,23066
14.38562,25277
14.39373,24979
14.40187,23011
14.40998,27583
14.41810,24000
14.42623,19636
14.43435,20836
14.44248,22541
14.45060,21843
14.45872,21919
14.46685,21594
14.47497,23738
14.48310,25570
14.49122,23356
14.49933,23620
14.50747,23304
14.51558,24844
14.52370,23974
14.53183,20943
14.53995,19695
14.54808,20040
14.55620,24081
14.56432,21139
14.57245,20567
14.58057,24055
14.58870,20567
14.59682,23566
14.60493,21745
14.61307,21444
14.62118,21080
14.62932,25367
14.63743,21590
14.64555,20967
14.65368,20822
14.66180,24408
14.66992,22618
14.67805,21264
14.68617,20462
14.69430,22090
14.70242,21880
14.71053,22569
14.71867,22831
14.72678,21475
14.73492,22607
14.74303,21259
14.75115,20337
14.75928,21402
14.76740,21439
14.77552,21417
14.78365,22039
14.79177,20924
14.79990,21928
14.80802,23641
14.81613,21739
14.82427,23482
14.83238,24279
14.84052,23364
14.84863,23944
14.85675,23161
14.86488,21752
14.87300,21271
14.88113,23987
14.88925,24093
14.89737,26799
14.90550,21589
14.91362,27386
14.92173,22161
14.92987,23487
14.93798,24883
14.94612,21453
14.95423,24156
14.96235,22080
14.97048,24409
14.97860,22426
14.98673,23209
14.99485,19950
15.00297,19260
15.01110,23499
15.01922,21465
15.02735,20489
15.03547,18167
15.04358,21416
15.05172,22418
15.05983,24110
15.06795,22135
15.07608,21006
15.08420,22159
15.09233,20313
15.10045,21389
15.10857,21251
15.11670,21117
15.12482,20889
15.13295,21929
15.14107,21070
15.14918,21371
15.15732,20756
15.16543,21698
15.17355,21897
15.18168,21970
15.18980,22140
15.19793,21490
15.20605,23944
15.21417,25170
15.22230,23321
15.23042,19967
15.23855,23805
15.24667,22581
15.25478,19534
15.26292,19768
15.27103,21161
15.27917,21160
15.28728,20178
15.29540,18190
15.30353,20944
15.31165,21332
15.31977,22469
15.32790,21251
15.33602,21426
15.34415,21110
15.35227,22199
15.36038,21111
15.36852,21903
15.37663,19121
15.38477,19576
15.39288,21055
15.40100,21066
15.40913,20923
15.41725,18744
15.42538,21233
15.43350,22439
15.44162,19224
15.44975,19612
15.45787,21211
15.46598,19918
15.47412,22435
15.48223,20566
15.49037,20220
15.49848,20640
15.50660,21130
15.51473,20539
15.52285,20493
15.53098,20342
15.53910,21225
15.54722,20675
15.55535,19111
15.56347,25911
15.57158,19494
15.57972,20960
15.58783,19252
15.59597,17856
15.60408,22169
15.61220,19532
15.62033,23015
15.62845,21815
15.63658,19794
15.64470,20669
15.65282,21959
15.66095,20829
15.66907,19156
15.67720,20168
15.68532,20153
15.69343,23457
15.70157,17326
15.70968,19736
15.71780,21253
15.72593,21734
15.73405,24334
15.74218,21841
15.75030,25231
15.75842,23520
15.76655,25672
15.77467,33668
15.78280,30153
15.79092,25851
15.79903,26295
15.80717,25153
15.81528,23895
15.82342,20983
15.83153,21076
15.83965,19807
15.84778,21568
15.85590,21162
15.86402,21625
15.87215,23154
15.88027,22496
15.88840,20115
15.89652,21209
15.90463,18093
15.91277,20549
15.92088,22070
15.92902,22155
15.93713,22824
15.94525,26625
15.95338,24623
15.96150,22644
15.96962,20409
15.97775,23540
15.98587,23339
15.99400,26935
16.00212,27759
16.01023,31987
16.01837,38038
16.02648,39099
16.03462,40676
16.04273,38138
16.05085,36504
16.05898,30724
16.06710,30220
16.07523,27320
16.08335,26223
16.09147,23309
16.09960,24671
16.10772,22477
16.11583,24733
16.12397,23689
16.13208,22310
16.14022,23566
16.14833,23471
16.15645,24367
16.16458,23061
16.17270,22443
16.18083,22070
16.18895,21873
16.19707,21180
16.20520,21517
16.21332,23700
16.22143,20755
16.22957,20721
16.23768,20939
16.24582,23425
16.25393,20367
16.26205,22933
16.27018,21582
16.27830,21963
16.28643,21169
16.29455,23191
16.30267,19458
16.31080,20765
16.31892,22625
16.32705,20455
16.33517,23883
16.34328,22809
16.35142,23918
16.35953,24824
16.36765,23767
16.37578,20407
16.38390,22977
16.39203,20823
16.40015,23235
16.40827,23389
16.41640,23728
16.42452,19416
16.43265,20784
16.44077,21696
16.44888,18745
16.45702,22191
16.46513,21506
16.47327,20686
16.48138,20262
16.48950,19917
16.49763,21605
16.50575,24306
16.51387,22251
16.52200,20938
16.53012,22949
16.53825,20568
16.54637,22475
16.55448,21812
16.56262,23632
16.57073,21574
16.57887,19684
16.58698,24432
16.59510,22078
16.60323,22769
16.61135,21483
16.61947,21875
16.62760,23878
16.63572,24627
16.64385,24036
16.65197,21787
16.66008,20051
16.66822,21873
16.67633,23644
16.68447,21939
16.69258,24010
16.70070,22116
16.70883,26442
16.71695,21297
16.72508,19475
16.73320,19318
16.74132,19483
16.74945,24152
16.75757,21685
16.76568,25693
16.77382,20629
16.78193,20535
16.79007,21140
16.79818,20447
16.80630,22594
16.81443,21276
16.82255,22921
16.83068,21973
16.83880,20564
16.84692,20713
16.85505,20472
16.86317,20866
16.87130,25807
16.87942,26775
16.88753,22232
16.89567,21492
16.90378,21271
16.91190,21308
16.92003,21786
16.92815,23560
16.93628,21704
16.94440,23609
16.95252,19351
16.96065,23217
16.96877,23078
16.97690,24093
16.98502,24344
16.99313,22687
17.00127,25746
17.00938,23236
17.01750,22221
17.02563,23480
17.03375,21297
17.04188,24910
17.05000,22327
17.05812,20041
17.06625,21711
17.07437,20674
17.08250,19637
17.09062,27022
17.09873,22020
17.10687,23022
17.11498,22966
17.12312,21657
17.13123,22583
17.13935,23991
17.14748,25402
17.15560,23508
17.16372,22608
17.17185,21422
17.17997,21329
17.18810,23593
17.19622,20799
17.20433,19513
17.21247,21628
17.22058,20717
17.22872,19946
17.23683,26864
17.24495,22464
17.25308,20881
17.26120,20071
17.26932,20341
17.27745,21160
17.28557,22000
17.29370,22203
17.30182,21341
17.30993,22352
17.31807,23069
17.32618,22667
17.33432,24817
17.34243,21311
17.35055,24185
17.35868,21754
17.36680,24294
17.37493,24954
17.38305,29474
17.39117,26923
17.39930,23270
17.40742,23608
17.41553,26281
17.42367,24460
17.43178,28110
17.43992,27271
17.44803,23650
17.45615,22486
17.46428,25050
17.47240,24350
17.48053,23443
17.48865,23587
17.49677,23399
17.50490,25633
17.51302,23986
17.52115,30472
17.52927,30187
17.53738,30825
17.54552,31358
17.55363,33793
17.56175,31835
17.56988,29063
17.57800,31271
17.58613,27969
17.59425,26553
17.60237,27564
17.61050,25367
17.61862,26748
17.62675,22794
17.63487,23157
17.64298,21728
17.65112,21975
17.65923,21381
17.66735,21336
17.67548,23792
17.68360,24117
17.69173,25555
17.69985,23987
17.70797,24728
17.71610,23013
17.72422,21514
17.73235,25576
17.74047,21892
17.74858,20814
17.75672,23480
17.76483,24023
17.77297,22747
17.78108,24030
17.78920,20714
17.79733,23379
17.80545,24708
17.81357,24966
17.82170,23487
17.82982,23605
17.83795,25035
17.84607,26105
17.85418,28748
17.86232,26739
17.87043,27273
17.87857,24782
17.88668,24963
17.89480,25251
17.90293,25977
17.91105,24437
17.91918,22825
17.92730,25504
17.93542,24338
17.94355,23821
17.95167,23786
17.95978,21376
17.96792,24544
17.97603,22275
17.98417,24678
17.99228,25679
18.00040,28584
18.00853,25211
18.01665,25211
18.02478,25575
18.03290,25720
18.04102,26463
18.04915,24762
18.05727,26846
18.06538,26384
18.07352,24973
18.08163,24826
18.08977,26541
18.09788,24567
18.10600,23902
18.11413,24758
18.12225,25191
18.13038,23723
18.13850,21963
18.14662,23889
18.15475,22905
18.16287,25286
18.17100,25107
18.17912,24833
18.18723,24470
18.19537,26152
18.20348,23936
18.21160,24010
18.21973,22804
18.22785,23400
18.23598,24762
18.24410,25340
18.25222,22010
18.26035,25046
18.26847,25834
18.27660,24077
18.28472,21439
18.29283,22346
18.30097,21675
18.30908,22178
18.31722,21801
18.32533,24416
18.33345,24601
18.34158,22571
18.34970,22641
18.35782,21706
18.36595,25767
18.37407,21274
18.38220,21482
18.39032,22269
18.39843,21334
18.40657,23092
18.41468,23292
18.42282,22498
18.43093,22292
18.43905,21390
18.44718,22497
18.45530,23315
18.46342,20251
18.47155,21157
18.47967,23955
18.48780,22682
18.49592,21795
18.50403,19248
18.51217,22806
18.52028,19483
18.52842,21983
18.53653,22795
18.54465,22027
18.55278,22495
18.56090,19901
18.56903,18550
18.57715,22134
18.58527,22841
18.59340,21775
18.60152,22958
18.60963,22139
18.61777,26128
18.62588,21185
18.63402,26174
18.64213,22335
18.65025,23644
18.65838,22454
18.66650,22161
18.67463,24534
18.68275,21307
18.69087,20101
18.69900,22739
18.70712,22592
18.71525,21388
18.72337,23105
18.73148,19649
18.73962,21948
18.74773,21417
18.75585,21823
18.76398,23275
18.77210,24499
18.78023,27269
18.78835,23937
18.79647,25677
18.80460,26802
18.81272,22637
18.82085,25611
18.82897,26395
18.83708,25427
18.84522,25984
18.85333,26624
18.86145,29564
18.86958,27338
18.87770,26657
18.88583,29287
18.89395,27269
18.90207,29133
18.91020,25458
18.91832,29962
18.92645,28426
18.93457,27261
18.94268,24786
18.95082,28226
18.95893,24271
18.96707,25860
18.97518,27621
18.98330,26533
18.99143,27134
18.99955,23922
19.00767,26062
19.01580,30311
19.02392,25216
19.03205,25884
19.04017,27088
19.04828,25536
19.05642,28191
19.06453,29306
19.07267,33720
19.08078,45424
19.08890,53192
19.09703,67131
19.10515,71209
19.11327,68208
19.12140,62470
19.12952,60871
19.13765,48186
19.14577,47419
19.15388,46884
19.16202,43927
19.17013,39553
19.17827,37047
19.18638,36205
19.19450,33660
19.20263,31559
19.21075,32411
19.21888,32488
19.22700,30598
19.23512,28073
19.24325,27966
19.25137,26515
19.25948,27876
19.26762,29197
19.27573,28639
19.28387,30275
19.29198,31533
19.30010,30473
19.30823,29717
19.31635,30046
19.32448,29228
19.33260,26168
19.34072,29326
19.34885,29986
19.35697,26770
19.36510,27794
19.37322,27778
19.38133,26353
19.38947,28716
19.39758,27124
19.40570,27059
19.41383,28501
19.42195,30934
19.43008,38473
19.43820,44272
19.44632,56594
19.45445,55763
19.46257,58824
19.47070,51337
19.47882,42300
19.48693,33016
19.49507,31940
19.50318,30721
19.51130,27723
19.51943,26845
19.52755,28461
19.53568,29839
19.54380,29823
19.55192,29139
19.56005,27719
19.56817,28840
19.57630,27056
19.58442,24083
19.59253,25557
19.60067,24848
19.60878,24812
19.61692,28098
19.62503,31820
19.63315,36004
19.64128,42363
19.64940,54196
19.65752,59335
19.66565,62331
19.67377,61128
19.68190,50609
19.69002,44585
19.69813,44575
19.70627,36833
19.71438,33240
19.72252,32728
19.73063,33597
19.73875,29910
19.74688,27738
19.75500,29254
19.76313,24690
19.77125,27833
19.77937,23723
19.78750,29407
19.79562,28527
19.80373,25326
19.81187,25290
19.81998,25290
19.82812,28529
19.83623,27360
19.84435,25949
19.85248,29057
19.86060,29299
19.86873,33624
19.87685,30343
19.88497,33520
19.89310,35509
19.90122,36454
19.90933,37779
19.91747,35542
19.92558,36994
19.93372,41000
19.94183,36257
19.94995,36186
19.95808,36658
19.96620,34881
19.97433,33565
19.98245,36819
19.99057,35273
19.99870,34417
20.00682,33410
20.01495,31989
20.02307,30705
20.03118,31684
20.03932,28130
20.04743,28576
20.05555,28845
20.06368,27493
20.07180,27285
20.07993,25552
20.08805,26792
20.09617,27984
20.10430,24528
20.11242,28162
20.12055,25497
20.12867,25063
20.13678,25676
20.14492,24716
20.15303,25975
20.16115,27125
20.16928,25313
20.17740,29018
20.18553,27584
20.19365,28728
20.20177,27015
20.20990,28249
20.21802,28463
20.22615,30757
20.23427,32474
20.24238,38518
20.25052,43529
20.25863,48516
20.26677,47575
20.27488,49355
20.28300,43246
20.29113,38734
20.29925,37008
20.30737,33787
20.31550,30031
20.32362,31233
20.33175,27446
20.33987,27002
20.34798,28159
20.35612,25405
20.36423,25492
20.37237,26728
20.38048,28354
20.38860,26324
20.39673,26525
20.40485,32524
20.41298,31698
20.42110,36021
20.42922,30903
20.43735,29477
20.44547,30840
20.45358,27576
20.46172,27887
20.46983,28173
20.47797,25545
20.48608,27168
20.49420,26604
20.50233,25554
20.51045,23367
20.51858,26507
20.52670,23693
20.53482,22831
20.54295,23818
20.55107,26882
20.55918,24592
20.56732,23973
20.57543,21238
20.58357,25556
20.59168,23083
20.59980,25082
20.60793,25942
20.61605,21829
20.62418,23840
20.63230,22809
20.64042,22513
20.64855,22062
20.65667,22351
20.66480,21545
20.67292,23249
20.68103,24010
20.68917,21817
20.69728,22207
20.70540,24069
20.71353,24620
20.72165,25590
20.72978,25420
20.73790,21154
20.74602,21003
20.75415,24736
20.76227,22745
20.77040,24945
20.77852,23848
20.78663,23613
20.79477,22359
20.80288,22769
20.81102,28171
20.81913,24915
20.82725,22465
20.83538,27273
20.84350,24942
20.85162,24096
20.85975,23568
20.86787,22184
20.87600,22206
20.88412,21568
20.89223,24097
20.90037,21206
20.90848,23082
20.91662,23083
20.92473,21264
20.93285,21382
20.94098,23679
20.94910,21276
20.95722,22741
20.96535,21428
20.97347,21611
20.98160,23736
20.98972,26522
20.99783,23980
21.00597,22288
21.01408,21189
21.02222,23426
21.03033,23969
21.03845,24306
21.04658,23939
21.05470,23943
21.06283,23503
21.07095,20655
21.07907,20914
21.08720,21770
21.09532,21800
21.10343,24413
21.11157,22264
21.11968,20906
21.12782,24518
21.13593,21988
21.14405,26518
21.15218,23370
21.16030,21284
21.16843,22580
21.17655,25309
21.18467,24209
21.19280,22694
21.20092,23461
21.20905,22591
21.21717,24131
21.22528,24232
21.23342,23736
21.24153,23044
21.24965,26109
21.25778,25751
21.26590,22900
21.27403,20527
21.28215,24543
21.29027,23751
21.29840,22696
21.30652,21613
21.31465,24316
21.32277,22187
21.33088,20817
21.33902,24235
21.34713,23720
21.35525,24210
21.36338,22322
21.37150,23246
21.37963,19823
21.38775,22554
21.39587,24680
21.40400,25066
21.41212,22652
21.42025,22422
21.42837,23935
21.43648,22727
21.44462,25481
21.45273,26767
21.46087,23501
21.46898,22561
21.47710,25023
21.48523,23189
21.49335,22964
21.50147,21094
21.50960,22760
21.51772,23405
21.52585,25878
21.53397,21702
21.54208,23636
21.55022,26024
21.55833,22539
21.56647,24036
21.57458,26440
21.58270,26215
21.59083,29708
21.59895,31227
21.60707,30971
21.61520,30639
21.62332,30167
21.63145,28465
21.63957,24167
21.64768,24715
21.65582,25232
21.66393,24315
21.67207,22350
21.68018,23105
21.68830,22744
21.69643,23573
21.70455,22596
21.71268,25909
21.72080,26031
21.72892,22557
21.73705,21339
21.74517,24650
21.75328,24137
21.76142,26848
21.76953,25475
21.77767,30021
21.78578,28164
21.79390,29625
21.80203,30050
21.81015,29594
21.81828,26668
21.82640,24946
21.83452,23853
21.84265,27048
21.85077,25040
21.85890,22815
21.86702,20534
21.87513,19470
21.88327,23109
21.89138,24181
21.89950,21124
21.90763,24315
21.91575,25066
21.92388,21041
21.93200,22454
21.94012,23157
21.94825,21018
21.95637,21930
21.96450,25338
21.97262,22938
21.98073,20182
21.98887,21737
21.99698,19326
22.00510,20320
22.01323,21040
22.02135,20926
22.02948,23577
22.03760,24386
22.04572,25514
22.05385,21280
22.06197,22812
22.07010,25284
22.07822,25597
22.08633,24221
22.09447,23745
22.10258,26065
22.11072,25569
22.11883,24101
22.12695,22597
22.13508,22918
22.14320,23078
22.15132,22835
22.15945,22151
22.16757,24768
22.17570,21409
22.18382,24613
22.19193,24442
22.20007,26539
22.20818,23264
22.21632,22990
22.22443,20278
22.23255,21290
22.24068,22598
22.24880,23043
22.25693,20829
22.26505,22530
22.27317,23707
22.28130,23310
22.28942,22764
22.29753,23105
22.30567,23840
22.31378,24300
22.32192,23955
22.33003,24154
22.33815,24380
22.34628,23719
22.35440,23825
22.36253,23000
22.37065,24797
22.37877,25970
22.38690,23307
22.39502,20446
22.40313,24113
22.41127,19372
22.41938,23440
22.42752,21171
22.43563,20230
22.44375,22508
22.45188,22002
22.46000,20484
22.46813,23256
22.47625,20464
22.48437,22436
22.49250,21440
22.50062,22510
22.50875,21181
22.51687,21815
22.52498,20925
22.53312,22086
22.54123,22536
22.54935,21405
22.55748,20269
22.56560,18460
22.57373,20676
22.58185,23851
22.58997,23143
22.59810,19789
22.60622,21131
22.61435,20228
22.62247,20987
22.63058,21949
22.63872,22574
22.64683,19910
22.65495,22224
22.66308,20676
22.67120,24026
22.67933,23986
22.68745,21729
22.69557,23958
22.70370,21105
22.71182,22140
22.71995,24015
22.72807,24031
22.73618,22444
22.74432,21625
22.75243,22643
22.76057,23770
22.76868,24826
22.77680,18524
22.78493,22447
22.79305,20462
22.80117,21895
22.80930,19412
22.81742,20926
22.82555,21659
22.83367,22483
22.84178,19327
22.84992,22906
22.85803,23179
22.86617,24640
22.87428,25087
22.88240,28584
22.89053,22191
22.89865,27993
22.90678,29629
22.91490,29852
22.92302,27944
22.93115,32947
22.93927,38519
22.94738,35918
22.95552,34230
22.96363,35319
22.97177,36013
22.97988,35744
22.98800,36605
22.99613,32729
23.00425,34060
23.01238,30258
23.02050,29880
23.02862,28612
23.03675,29833
23.04487,26861
23.05300,25690
23.06112,28324
23.06923,25573
23.07737,27383
23.08548,23650
23.09360,28982
23.10173,25056
23.10985,24068
23.11798,24145
23.12610,24805
23.13422,24795
23.14235,27686
23.15047,23034
23.15860,23239
23.16672,22349
23.17483,20359
23.18297,24097
23.19108,22833
23.19920,26589
23.20733,23418
23.21545,24554
23.22358,25667
23.23170,25107
23.23982,24732
23.24795,23908
23.25607,22330
23.26420,23531
23.27232,23355
23.28043,23432
23.28857,25159
23.29668,24667
23.30482,25097
23.31293,21759
23.32105,23131
23.32918,24521
23.33730,23445
23.34542,22013
23.35355,24504
23.36167,25218
23.36980,22498
23.37792,20884
23.38603,23494
23.39417,25326
23.40228,26616
23.41042,24997
23.41853,24164
23.42665,23448
23.43478,27425
23.44290,23710
23.45102,24357
23.45915,22429
23.46727,24393
23.47540,22758
23.48352,26202
23.49163,22071
23.49977,23710
23.50788,22399
23.51602,19889
23.52413,22265
23.53225,22529
23.54038,24324
23.54850,22467
23.55663,21163
23.56475,24886
23.57287,23929
23.58100,24693
23.58912,24548
23.59723,23941
23.60537,25480
23.61348,23653
23.62162,21614
23.62973,23468
23.63785,28234
23.64598,25260
23.65410,23479
23.66223,28398
23.67035,26462
23.67847,29394
23.68660,29503
23.69472,28644
23.70285,30229
23.71097,24730
23.71908,30235
23.72722,33920
23.73533,54485
23.74345,103871
23.75158,223038
23.75970,491832
23.76783,977363
23.77595,1697525
23.78407,2303977
23.79220,2439957
23.80032,2310087
23.80845,1888870
23.81657,1336169
23.82468,990624
23.83282,734331
23.84093,576477
23.84905,446821
23.85718,370812
23.86530,292241
23.87343,248558
23.88155,216837
23.88967,193702
23.89780,177152
23.90592,155055
23.91405,149047
23.92217,138855
23.93028,122752
23.93842,119371
23.94653,111339
23.95467,101845
23.96278,101375
23.97090,97637
23.97903,92954
23.98715,85035
23.99527,77484
24.00340,79429
24.01152,78848
24.01965,76576
24.02777,67760
24.03588,68149
24.04402,69377
24.05213,66879
24.06027,66876
24.06838,61960
24.07650,63080
24.08463,61529
24.09275,62943
24.10088,56518
24.10900,53923
24.11712,52472
24.12525,55345
24.13337,55936
24.14148,55244
24.14962,55312
24.15773,56936
24.16587,53359
24.17398,52278
24.18210,50169
24.19023,51053
24.19835,53496
24.20648,46090
24.21460,49099
24.22272,53902
24.23085,48339
24.23897,49725
24.24708,47118
24.25522,48014
24.26333,42527
24.27147,42508
24.27958,45706
24.28770,42051
24.29583,42294
24.30395,47401
24.31208,54585
24.32020,58917
24.32832,64561
24.33645,66021
24.34457,58294
24.35270,53124
24.36082,43092
24.36893,44137
24.37707,41232
24.38518,39000
24.39330,39769
24.40143,37616
24.40955,34520
24.41768,36874
24.42580,39929
24.43392,37622
24.44205,39393
24.45017,42036
24.45830,47123
24.46642,40881
24.47453,40814
24.48267,37064
24.49078,35924
24.49890,35500
24.50703,33343
24.51515,33486
24.52328,34462
24.53140,34649
24.53952,35912
24.54765,32922
24.55577,35047
24.56390,34075
24.57202,32000
24.58013,36367
24.58827,34218
24.59638,35089
24.60452,32074
24.61263,31188
24.62075,30831
24.62888,31654
24.63700,32838
24.64512,35006
24.65325,31223
24.66137,32115
24.66950,31150
24.67762,29097
24.68573,30159
24.69387,32068
24.70198,32473
24.71012,28853
24.71823,29342
24.72635,30784
24.73448,30459
24.74260,30617
24.75073,31473
24.75885,30710
24.76697,33101
24.77510,31040
24.78322,33160
24.79133,33756
24.79947,31478
24.80758,28439
24.81572,28535
24.82383,30597
24.83195,30469
24.84008,30736
24.84820,29781
24.85633,24839
24.86445,28939
24.87257,29506
24.88070,29882
24.88882,29832
24.89693,27224
24.90507,29756
24.91318,29542
24.92132,27270
24.92943,30603
24.93755,31161
24.94568,27733
24.95380,26627
24.96193,27127
24.97005,25435
24.97817,28907
24.98630,29832
24.99442,24135
25.00255,29675
25.01067,26117
25.01878,28294
25.02692,30999
25.03503,27306
25.04315,27494
25.05128,25740
25.05940,28179
25.06753,27152
25.07565,26205
25.08377,26039
25.09190,26896
25.10002,26499
25.10815,27203
25.11627,29775
25.12438,28370
25.13252,27376
25.14063,29291
25.14877,26314
25.15688,27647
25.16500,27241
25.17313,30028
25.18125,30867
25.18937,27679
25.19750,24810
25.20562,27997
25.21375,24350
25.22187,25546
25.22998,27328
25.23812,32064
25.24623,25213
25.25437,24070
25.26248,25370
25.27060,28071
25.27873,28208
25.28685,25081
25.29497,28445
25.30310,27426
25.31122,29662
25.31935,29007
25.32747,27876
25.33558,28671
25.34372,28432
25.35183,28246
25.35997,25914
25.36808,22702
25.37620,23862
25.38433,23208
25.39245,28524
25.40058,26236
25.40870,29747
25.41682,25916
25.42495,27688
25.43307,24372
25.44118,26993
25.44932,26878
25.45743,25758
25.46557,26127
25.47368,24074
25.48180,30083
25.48993,25981
25.49805,27173
25.50618,24056
25.51430,25848
25.52242,24922
25.53055,22691
25.53867,25845
25.54680,23074
25.55492,24077
25.56303,23471
25.57117,22899
25.57928,25582
25.58740,25081
25.59553,23575
25.60365,24076
25.61178,23418
25.61990,23284
25.62802,24689
25.63615,24486
25.64427,22867
25.65240,23280
25.66052,23504
25.66863,22014
25.67677,20677
25.68488,25050
25.69300,23669
25.70113,25107
25.70925,21503
25.71738,24489
25.72550,24036
25.73362,22374
25.74175,26233
25.74987,24202
25.75800,25855
25.76612,25508
25.77423,24146
25.78237,22479
25.79048,22625
25.79862,26408
25.80673,24655
25.81485,24005
25.82298,20475
25.83110,24841
25.83922,22298
25.84735,21397
25.85547,23292
25.86360,22074
25.87172,22689
25.87983,23973
25.88797,25594
25.89608,24573
25.90422,21245
25.91233,22931
25.92045,19781
25.92858,25278
25.93670,23895
25.94482,23396
25.95295,24177
25.96107,22790
25.96920,22659
25.97732,23860
25.98543,22355
25.99357,24231
26.00168,23026
26.00982,22535
26.01793,22731
26.02605,21004
26.03418,22122
26.04230,21316
26.05043,21103
26.05855,21240
26.06667,24007
26.07480,26153
26.08292,24034
26.09103,23315
26.09917,24836
26.10728,25546
26.11542,24027
26.12353,24425
26.13165,28486
26.13978,32145
26.14790,27491
26.15603,25986
26.16415,30937
26.17227,25675
26.18040,26893
26.18852,26714
26.19665,24026
26.20477,22930
26.21288,23101
26.22102,24495
26.22913,25913
26.23725,20453
26.24538,24324
26.25350,24254
26.26163,22367
26.26975,19793
26.27787,22266
26.28600,20724
26.29412,25000
26.30225,23234
26.31037,24153
26.31848,21452
26.32662,25405
26.33473,21290
26.34285,24357
26.35098,22187
26.35910,24429
26.36723,22577
26.37535,26571
26.38347,23092
26.39160,22236
26.39972,21228
26.40785,22586
26.41597,22633
26.42408,21882
26.43222,22432
26.44033,21719
26.44847,22931
26.45658,24993
26.46470,22714
26.47283,24030
26.48095,20983
26.48907,25312
26.49720,22656
26.50532,24924
26.51345,21906
26.52157,24107
26.52968,25687
26.53782,21681
26.54593,24613
26.55407,23394
26.56218,25734
26.57030,24198
26.57843,23071
26.58655,22136
26.59468,22834
26.60280,20560
26.61092,21858
26.61905,22292
26.62717,26575
26.63528,22098
26.64342,23517
26.65153,23474
26.65967,24474
26.66778,25463
26.67590,26829
26.68403,21993
26.69215,22652
26.70028,23156
26.70840,21347
26.71652,23197
26.72465,23656
26.73277,22437
26.74088,22125
26.74902,22569
26.75713,21543
26.76527,22477
26.77338,23696
26.78150,26355
26.78963,25035
26.79775,28579
26.80588,24525
26.81400,25880
26.82212,25285
26.83025,26624
26.83837,24163
26.84650,23779
26.85462,21934
26.86273,22537
26.87087,25205
26.87898,23811
26.88710,23508
26.89523,26762
26.90335,22334
26.91148,24541
26.91960,25695
26.92772,25820
26.93585,28442
26.94397,33171
26.95210,51994
26.96022,79345
26.96833,125299
26.97647,185538
26.98458,259596
26.99270,343272
27.00083,380219
27.00895,386283
27.01708,355451
27.02520,301442
27.03332,244680
27.04145,198816
27.04957,160554
27.05770,127595
27.06582,102276
27.07393,89156
27.08207,80412
27.09018,68199
27.09832,65285
27.10643,57466
27.11455,53554
27.12268,55147
27.13080,51632
27.13892,50313
27.14705,46875
27.15517,45921
27.16330,44563
27.17142,41827
27.17953,40213
27.18767,41891
27.19578,36116
27.20392,38799
27.21203,37906
27.22015,38047
27.22828,36683
27.23640,34738
27.24453,33169
27.25265,32834
27.26077,31322
27.26890,36162
27.27702,35641
27.28513,33138
27.29327,33573
27.30138,34803
27.30952,29505
27.31763,29939
27.32575,30010
27.33388,29691
27.34200,32759
27.35013,26868
27.35825,31649
27.36637,31697
27.37450,26842
27.38262,31308
27.39075,29752
27.39887,32747
27.40698,30500
27.41512,29725
27.42323,26333
27.43135,31381
27.43948,29814
27.44760,29851
27.45573,28655
27.46385,29323
27.47197,30937
27.48010,27854
27.48822,26689
27.49635,27580
27.50447,26188
27.51258,26763
27.52072,26266
27.52883,26533
27.53695,25246
27.54508,28288
27.55320,28502
27.56133,28942
27.56945,26290
27.57757,25402
27.58570,27792
27.59382,26574
27.60195,24176
27.61007,26408
27.61818,25055
27.62632,22080
27.63443,26106
27.64257,26393
27.65068,26642
27.65880,27089
27.66693,26090
27.67505,26636
27.68317,24335
27.69130,23545
27.69942,23873
27.70755,22969
27.71567,25360
27.72378,24855
27.73192,25348
27.74003,24674
27.74817,25982
27.75628,25090
27.76440,26938
27.77253,27285
27.78065,24575
27.78877,24769
27.79690,25369
27.80502,23975
27.81315,24967
27.82127,25837
27.82938,23003
27.83752,23771
27.84563,22344
27.85377,23300
27.86188,22101
27.87000,25688
27.87813,24677
27.88625,25344
27.89438,23555
27.90250,24949
27.91062,23750
27.91875,22670
27.92687,22375
27.93498,23539
27.94312,24300
27.95123,25481
27.95937,26110
27.96748,23248
27.97560,25681
27.98373,28770
27.99185,27078
27.99998,25566
28.00810,26007
28.01622,26214
28.02435,24995
28.03247,22056
28.04060,23411
28.04872,22653
28.05683,25360
28.06497,26285
28.07308,24843
28.08120,26828
28.08933,27062
28.09745,24442
28.10558,26961
28.11370,31163
28.12182,29746
28.12995,33163
28.13807,31186
28.14620,28058
28.15432,26886
28.16243,21469
28.17057,25383
28.17868,24240
28.18680,23857
28.19493,25334
28.20305,20937
28.21118,22126
28.21930,24517
28.22742,26723
28.23555,26159
28.24367,26619
28.25180,32861
28.25992,37189
28.26803,43765
28.27617,61076
28.28428,66390
28.29242,83913
28.30053,100845
28.30865,107292
28.31678,106742
28.32490,105654
28.33302,111170
28.34115,98081
28.34927,90245
28.35740,86371
28.36552,80258
28.37363,76223
28.38177,65055
28.38988,63506
28.39802,59324
28.40613,49869
28.41425,46445
28.42238,44897
28.43050,41434
28.43863,38515
28.44675,34462
28.45487,39218
28.46300,36855
28.47112,36837
28.47923,34818
28.48737,34536
28.49548,36744
28.50362,32696
28.51173,31361
28.51985,29847
28.52798,29590
28.53610,31600
28.54423,30020
28.55235,29614
28.56047,30863
28.56860,28623
28.57672,30608
28.58483,31243
28.59297,28307
28.60108,25059
28.60922,29290
28.61733,28864
28.62545,29203
28.63358,29586
28.64170,30813
28.64983,32678
28.65795,31225
28.66607,33377
28.67420,34524
28.68232,39885
28.69045,41447
28.69857,43685
28.70668,44794
28.71482,37439
28.72293,34224
28.73105,30780
28.73918,27510
28.74730,25792
28.75543,26714
28.76355,26139
28.77167,22879
28.77980,26295
28.78792,24149
28.79605,26470
28.80417,23541
28.81228,29608
28.82042,24311
28.82853,26604
28.83665,23685
28.84478,24231
28.85290,23563
28.86103,32875
28.86915,25146
28.87727,26807
28.88540,28859
28.89352,33181
28.90165,26431
28.90977,28390
28.91788,25855
28.92602,25963
28.93413,26020
28.94227,26069
28.95038,24660
28.95850,27894
28.96663,26762
28.97475,27097
28.98287,27681
28.99100,28020
28.99912,28247
29.00725,26443
29.01537,24459
29.02348,26213
29.03162,27545
29.03973,26754
29.04787,25345
29.05598,28042
29.06410,25325
29.07223,24001
29.08035,25956
29.08848,27511
29.09660,27878
29.10472,27180
29.11285,25125
29.12097,23671
29.12908,25192
29.13722,22901
29.14533,25974
29.15347,25846
29.16158,28907
29.16970,21926
29.17783,24590
29.18595,25351
29.19408,25457
29.20220,23185
29.21032,25556
29.21845,23746
29.22657,23975
29.23468,24532
29.24282,23542
29.25093,22319
29.25907,24474
29.26718,27554
29.27530,25364
29.28343,25225
29.29155,22696
29.29968,24700
29.30780,24173
29.31592,25577
29.32405,24814
29.33217,24697
29.34030,26357
29.34842,24720
29.35653,23265
29.36467,22503
29.37278,24417
29.38090,24342
29.38903,24403
29.39715,25374
29.40528,24891
29.41340,24561
29.42152,25380
29.42965,29190
29.43777,28385
29.44590,25546
29.45402,23457
29.46213,24246
29.47027,24065
29.47838,25969
29.48652,23665
29.49463,28187
29.50275,25695
29.51088,25073
29.51900,25764
29.52712,26380
29.53525,24436
29.54337,23929
29.55150,26331
29.55962,23323
29.56773,25928
29.57587,25047
29.58398,27093
29.59212,25565
29.60023,22864
29.60835,22348
29.61648,23625
29.62460,27190
29.63272,25203
29.64085,24037
29.64897,22523
29.65710,20321
29.66522,23801
29.67333,25053
29.68147,20388
29.68958,23898
29.69772,22988
29.70583,24363
29.71395,23005
29.72208,21575
29.73020,23698
29.73833,24662
29.74645,22568
29.75457,22567
29.76270,23836
29.77082,20942
29.77893,23559
29.78707,22782
29.79518,24458
29.80332,21779
29.81143,23796
29.81955,23095
29.82768,25593
29.83580,24062
29.84393,22250
29.85205,21506
29.86017,22962
29.86830,26430
29.87642,31770
29.88455,31816
29.89267,37658
29.90078,42490
29.90892,45871
29.91703,50258
29.92515,55506
29.93328,56829
29.94140,55528
29.94953,51702
29.95765,56908
29.96577,58876
29.97390,57291
29.98202,57067
29.99015,51556
29.99827,48886
30.00638,46502
30.01452,43256
30.02263,40548
30.03075,39247
30.03888,36783
30.04700,38542
30.05513,41782
30.06325,32600
30.07137,34089
30.07950,32666
30.08762,33264
30.09575,29520
30.10387,32038
30.11198,31730
30.12012,33089
30.12823,30655
30.13637,34286
30.14448,29273
30.15260,28487
30.16073,37891
30.16885,32553
30.17697,30676
30.18510,28808
30.19322,27721
30.20135,26849
30.20947,28945
30.21758,28250
30.22572,27396
30.23383,28317
30.24197,28204
30.25008,27162
30.25820,24601
30.26633,25277
30.27445,26189
30.28257,28958
30.29070,26412
30.29882,27673
30.30695,27141
30.31507,25624
30.32318,26520
30.33132,26200
30.33943,27019
30.34757,26831
30.35568,27224
30.36380,24936
30.37193,23203
30.38005,26116
30.38818,25447
30.39630,26706
30.40442,26589
30.41255,28717
30.42067,25907
30.42878,22324
30.43692,25276
30.44503,23226
30.45317,23983
30.46128,27251
30.46940,24677
30.47753,24959
30.48565,21508
30.49378,25282
30.50190,26420
30.51002,23405
30.51815,23905
30.52627,23720
30.53440,23970
30.54252,22892
30.55063,24761
30.55877,23202
30.56688,25695
30.57500,27773
30.58313,24898
30.59125,22774
30.59938,22189
30.60750,24469
30.61562,25821
30.62375,23960
30.63187,24685
30.64000,22546
30.64812,24691
30.65623,24708
30.66437,23950
30.67248,24152
30.68060,22064
30.68873,23810
30.69685,27158
30.70498,24719
30.71310,24384
30.72122,23222
30.72935,25191
30.73747,23700
30.74560,24844
30.75372,25440
30.76183,25072
30.76997,25151
30.77808,27458
30.78622,26554
30.79433,27238
30.80245,25252
30.81058,26343
30.81870,25960
30.82682,27697
30.83495,25521
30.84307,23227
30.85120,23818
30.85932,25797
30.86743,22271
30.87557,26662
30.88368,24283
30.89182,25925
30.89993,25294
30.90805,23412
30.91618,25495
30.92430,25118
30.93243,22547
30.94055,23690
30.94867,21680
30.95680,22357
30.96492,24693
30.97303,25053
30.98117,24069
30.98928,25162
30.99742,25121
31.00553,21974
31.01365,23956
31.02178,25328
31.02990,23162
31.03803,24990
31.04615,28314
31.05427,23123
31.06240,25036
31.07052,25869
31.07863,27129
31.08677,27697
31.09488,30654
31.10302,29940
31.11113,28936
31.11925,26735
31.12738,28564
31.13550,24945
31.14363,23786
31.15175,28448
31.15987,28265
31.16800,32099
31.17612,40392
31.18425,50887
31.19237,67828
31.20048,84210
31.20862,87499
31.21673,94499
31.22485,81139
31.23298,73565
31.24110,56012
31.24923,40519
31.25735,33805
31.26547,29623
31.27360,28894
31.28172,30231
31.28985,26024
31.29797,27183
31.30608,29340
31.31422,33025
31.32233,25771
31.33045,24447
31.33858,27873
31.34670,26036
31.35483,24556
31.36295,26251
31.37107,29759
31.37920,22773
31.38732,26670
31.39545,28050
31.40357,25372
31.41168,23685
31.41982,27093
31.42793,23220
31.43607,26470
31.44418,26462
31.45230,22992
31.46043,23330
31.46855,24590
31.47667,21909
31.48480,23286
31.49292,25539
31.50105,26742
31.50917,23361
31.51728,21397
31.52542,25193
31.53353,27029
31.54167,24249
31.54978,25229
31.55790,24460
31.56603,24502
31.57415,26375
31.58228,24857
31.59040,25429
31.59852,25564
31.60665,25285
31.61477,26451
31.62288,25939
31.63102,26215
31.63913,24037
31.64727,25032
31.65538,23240
31.66350,24497
31.67163,26690
31.67975,27920
31.68788,30533
31.69600,25534
31.70412,28299
31.71225,26404
31.72037,24752
31.72848,27179
31.73662,22814
31.74473,28591
31.75287,24528
31.76098,27770
31.76910,26529
31.77723,28497
31.78535,25768
31.79348,25653
31.80160,26531
31.80972,27589
31.81785,28166
31.82597,28405
31.83410,33725
31.84222,35474
31.85033,36366
31.85847,41133
31.86658,45597
31.87470,48461
31.88283,48622
31.89095,45559
31.89908,44720
31.90720,47330
31.91532,47189
31.92345,39934
31.93157,35060
31.93970,38789
31.94782,36391
31.95593,35151
31.96407,38720
31.97218,32737
31.98032,37600
31.98843,37185
31.99655,34475
32.00468,31763
32.01280,33784
32.02092,31695
32.02905,34923
32.03717,28404
32.04530,26817
32.05342,29323
32.06153,29740
32.06967,28951
32.07778,30998
32.08592,26441
32.09403,27972
32.10215,28585
32.11028,28169
32.11840,28422
32.12652,26661
32.13465,26624
32.14277,29796
32.15090,29752
32.15902,26613
32.16713,27477
32.17527,24689
32.18338,25476
32.19152,25610
32.19963,27841
32.20775,24156
32.21588,27536
32.22400,25428
32.23213,26490
32.24025,26992
32.24837,27369
32.25650,25193
32.26462,25510
32.27273,29946
32.28087,29941
32.28898,32668
32.29712,27123
32.30523,27940
32.31335,25507
32.32148,24889
32.32960,23191
32.33773,29397
32.34585,28294
32.35397,25198
32.36210,26040
32.37022,23703
32.37833,25451
32.38647,27596
32.39458,27843
32.40272,26577
32.41083,26288
32.41895,28687
32.42708,23824
32.43520,27989
32.44333,30397
32.45145,26051
32.45957,24851
32.46770,28096
32.47582,26770
32.48395,27223
32.49207,27708
32.50018,27197
32.50832,27777
32.51643,24901
32.52455,24370
32.53268,26637
32.54080,28877
32.54893,27977
32.55705,29278
32.56517,29792
32.57330,34684
32.58142,38403
32.58955,42309
32.59767,37160
32.60578,35842
32.61392,34705
32.62203,29568
32.63017,28892
32.63828,25100
32.64640,25405
32.65453,28352
32.66265,25612
32.67077,26799
32.67890,30005
32.68702,28798
32.69515,27608
32.70327,26511
32.71138,27785
32.71952,27028
32.72763,28161
32.73577,26948
32.74388,27219
32.75200,26123
32.76013,24483
32.76825,27570
32.77638,29507
32.78450,27238
32.79262,26124
32.80075,25059
32.80887,23856
32.81698,25305
32.82512,26647
32.83323,26947
32.84137,25579
32.84948,31865
32.85760,27341
32.86573,29390
32.87385,26813
32.88198,21711
32.89010,25297
32.89822,24533
32.90635,25732
32.91447,27884
32.92258,26520
32.93072,22715
32.93883,26006
32.94697,28540
32.95508,27247
32.96320,25469
32.97133,25677
32.97945,27210
32.98758,26511
32.99570,25122
33.00382,24108
33.01195,25792
33.02007,27952
33.02820,29041
33.03632,25027
33.04443,25778
33.05257,27167
33.06068,23249
33.06880,27456
33.07693,29212
33.08505,30187
33.09318,33555
33.10130,38689
33.10942,42588
33.11755,42492
33.12567,40467
33.13380,34219
33.14192,34856
33.15003,33918
33.15817,31644
33.16628,27506
33.17440,28876
33.18253,28730
33.19065,25824
33.19878,29251
33.20690,30049
33.21502,27111
33.22315,27403
33.23127,29609
33.23940,25354
33.24752,29003
33.25563,25334
33.26377,26962
33.27188,29929
33.28002,28732
33.28813,28502
33.29625,29683
33.30438,27310
33.31250,27249
33.32062,25579
33.32875,27060
33.33687,27381
33.34500,26375
33.35312,29038
33.36123,26818
33.36937,27833
33.37748,28995
33.38562,28570
33.39373,30732
33.40185,25607
33.40998,28765
33.41810,26655
33.42623,28346
33.43435,23345
33.44247,31768
33.45060,25305
33.45872,26689
33.46683,27595
33.47497,31352
33.48308,28847
33.49122,28136
33.49933,28579
33.50745,26744
33.51558,26334
33.52370,30244
33.53183,28190
33.53995,25576
33.54807,26689
33.55620,27286
33.56432,25746
33.57243,27962
33.58057,30114
33.58868,27203
33.59682,29283
33.60493,27600
33.61305,28208
33.62118,27394
33.62930,29233
33.63743,29851
33.64555,28211
33.65367,25922
33.66180,31062
33.66992,29574
33.67805,31853
33.68617,26942
33.69428,29072
33.70242,30945
33.71053,30997
33.71865,31059
33.72678,28736
33.73490,27510
33.74303,27193
33.75115,28450
33.75927,29611
33.76740,35531
33.77552,29121
33.78365,32887
33.79177,29442
33.79988,29820
33.80802,27998
33.81613,31244
33.82427,31190
33.83238,31973
33.84050,32039
33.84863,32751
33.85675,32599
33.86487,32478
33.87300,29472
33.88112,31807
33.88925,30380
33.89737,31959
33.90548,30306
33.91362,31193
33.92173,29294
33.92987,29095
33.93798,29079
33.94610,29041
33.95423,28548
33.96235,25767
33.97047,28009
33.97860,26631
33.98672,28530
33.99485,28431
34.00297,29166
34.01108,29330
34.01922,30105
34.02733,30830
34.03547,29216
34.04358,28928
34.05170,29097
34.05983,27635
34.06795,27167
34.07608,29680
34.08420,32172
34.09232,29200
34.10045,29204
34.10857,30108
34.11668,27141
34.12482,29256
34.13293,29433
34.14107,28978
34.14918,26947
34.15730,28022
34.16543,27234
34.17355,26669
34.18168,29293
34.18980,28238
34.19792,25529
34.20605,27244
34.21417,29891
34.22228,30480
34.23042,27050
34.23853,26500
34.24667,30667
34.25478,29332
34.26290,30083
34.27103,30323
34.27915,31696
34.28728,28284
34.29540,30306
34.30352,30354
34.31165,27566
34.31977,28276
34.32790,28800
34.33602,30003
34.34413,30201
34.35227,28586
34.36038,33588
34.36850,28215
34.37663,30409
34.38475,32269
34.39288,30270
34.40100,28209
34.40912,31459
34.41725,32847
34.42537,32389
34.43350,37527
34.44162,39997
34.44973,41540
34.45787,50270
34.46598,51718
34.47412,55563
34.48223,54064
34.49035,54164
34.49848,53963
34.50660,51755
34.51472,47293
34.52285,49837
34.53097,47975
34.53910,42966
34.54722,38303
34.55533,40250
34.56347,41179
34.57158,40389
34.57972,38545
34.58783,35976
34.59595,37545
34.60408,38552
34.61220,35310
34.62032,33809
34.62845,34902
34.63657,34587
34.64470,37377
34.65282,36559
34.66093,32214
34.66907,34900
34.67718,29450
34.68532,33470
34.69343,30756
34.70155,31744
34.70968,29860
34.71780,33542
34.72593,32330
34.73405,36108
34.74217,32375
34.75030,30915
34.75842,30918
34.76653,31964
34.77467,31001
34.78278,31830
34.79092,32018
34.79903,32936
34.80715,35311
34.81528,29424
34.82340,30210
34.83153,30111
34.83965,31801
34.84777,34260
34.85590,33207
34.86402,33009
34.87215,34553
34.88027,29663
34.88838,31545
34.89652,29971
34.90463,32666
34.91275,30114
34.92088,35062
34.92900,34848
34.93713,33900
34.94525,32852
34.95337,32897
34.96150,32151
34.96962,31394
34.97775,33677
34.98587,34142
34.99398,33587
35.00212,32527
35.01023,30519
35.01835,30207
35.02648,33764
35.03460,32822
35.04273,35659
35.05085,33536
35.05897,32189
35.06710,32317
35.07522,31338
35.08335,32731
35.09147,31382
35.09958,35270
35.10772,33425
35.11583,33160
35.12397,34291
35.13208,33580
35.14020,31814
35.14833,38079
35.15645,32642
35.16457,33515
35.17270,36357
35.18082,33380
35.18895,33648
35.19707,31092
35.20518,33452
35.21332,30714
35.22143,30246
35.22957,31992
35.23768,30462
35.24580,34258
35.25393,35036
35.26205,33536
35.27018,33821
35.27830,32277
35.28642,33161
35.29455,31684
35.30267,33743
35.31078,35683
35.31892,29398
35.32703,32002
35.33517,30804
35.34328,33638
35.35140,32981
35.35953,30345
35.36765,35103
35.37578,34891
35.38390,30302
35.39202,34084
35.40015,33834
35.40827,33702
35.41638,34344
35.42452,31972
35.43263,33490
35.44077,33775
35.44888,35439
35.45700,31856
35.46513,34625
35.47325,34672
35.48138,35846
35.48950,34172
35.49762,36512
35.50575,32145
35.51387,33820
35.52200,34892
35.53012,32975
35.53823,35231
35.54637,39255
35.55448,36175
35.56260,33341
35.57073,36940
35.57885,32597
35.58698,36682
35.59510,36813
35.60322,36697
35.61135,37624
35.61947,32958
35.62760,35978
35.63572,34786
35.64383,33835
35.65197,33778
35.66008,35759
35.66820,35736
35.67633,36720
35.68445,33215
35.69258,33246
35.70070,32916
35.70882,35376
35.71695,37952
35.72507,34759
35.73320,33358
35.74132,35932
35.74943,36699
35.75757,36159
35.76568,35327
35.77382,35965
35.78193,37172
35.79005,37015
35.79818,34370
35.80630,33843
35.81442,33372
35.82255,34957
35.83067,35439
35.83880,36558
35.84692,32929
35.85503,33920
35.86317,34201
35.87128,40826
35.87942,37317
35.88753,34532
35.89565,33217
35.90378,35862
35.91190,34311
35.92003,35615
35.92815,33054
35.93627,33257
35.94440,34664
35.95252,29448
35.96063,36129
35.96877,32470
35.97688,37531
35.98502,34551
35.99313,35744
36.00125,35217
36.00938,39737
36.01750,39008
36.02563,41449
36.03375,42308
36.04187,35922
36.05000,40334
36.05812,37768
36.06623,35947
36.07437,37689
36.08248,36894
36.09062,35508
36.09873,36121
36.10685,36869
36.11498,39690
36.12310,34803
36.13123,34073
36.13935,38522
36.14747,39834
36.15560,42568
36.16372,36065
36.17185,36652
36.17997,37307
36.18808,36651
36.19622,36846
36.20433,42490
36.21245,48701
36.22058,51146
36.22870,53651
36.23683,52541
36.24495,49826
36.25307,45100
36.26120,42919
36.26932,39838
36.27745,37011
36.28557,41865
36.29368,39841
36.30182,35215
36.30993,40870
36.31807,39752
36.32618,39665
36.33430,36709
36.34243,40889
36.35055,38420
36.35867,36358
36.36680,36892
36.37492,37824
36.38305,40919
36.39117,39420
36.39928,36879
36.40742,36617
36.41553,37177
36.42367,35565
36.43178,38138
36.43990,37546
36.44803,37695
36.45615,39864
36.46427,38816
36.47240,38263
36.48052,36180
36.48865,34980
36.49677,38373
36.50488,37160
36.51302,40643
36.52113,37050
36.52927,40408
36.53738,42572
36.54550,41338
36.55363,37885
36.56175,39631
36.56988,41467
36.57800,43946
36.58612,38492
36.59425,39652
36.60237,42213
36.61048,40093
36.61862,41497
36.62673,41873
36.63487,38833
36.64298,37496
36.65110,39249
36.65923,42778
36.66735,41401
36.67548,36841
36.68360,39489
36.69172,43125
36.69985,41121
36.70797,40149
36.71608,40465
36.72422,44852
36.73233,40704
36.74047,37389
36.74858,38735
36.75670,40288
36.76483,39324
36.77295,39540
36.78108,39647
36.78920,41102
36.79732,41166
36.80545,40923
36.81357,39658
36.82170,39335
36.82982,41707
36.83793,44259
36.84607,42596
36.85418,39537
36.86230,39342
36.87043,40777
36.87855,42979
36.88668,39047
36.89480,37182
36.90292,43667
36.91105,41453
36.91917,42483
36.92730,38803
36.93542,40447
36.94353,43030
36.95167,44228
36.95978,43336
36.96792,42618
36.97603,41967
36.98415,40766
36.99228,44979
37.00040,50642
37.00852,49963
37.01665,49891
37.02477,54995
37.03290,55984
37.04102,52189
37.04913,51527
37.05727,50045
37.06538,50027
37.07352,43012
37.08163,43973
37.08975,46428
37.09788,43278
37.10600,42464
37.11413,42405
37.12225,44595
37.13037,44334
37.13850,45492
37.14662,45464
37.15473,43020
37.16287,40890
37.17098,44519
37.17912,41355
37.18723,43273
37.19535,43764
37.20348,43425
37.21160,46646
37.21973,45065
37.22785,46811
37.23597,54905
37.24410,50039
37.25222,60848
37.26033,64538
37.26847,65521
37.27658,67277
37.28472,68684
37.29283,63541
37.30095,60726
37.30908,57177
37.31720,59656
37.32533,50937
37.33345,56509
37.34157,52198
37.34970,49233
37.35782,49196
37.36595,50004
37.37407,49271
37.38218,51369
37.39032,48677
37.39843,51143
37.40655,47411
37.41468,47918
37.42280,45903
37.43093,49248
37.43905,47899
37.44717,48179
37.45530,47860
37.46342,52464
37.47155,49484
37.47967,48584
37.48778,45684
