C:\MassHunter\GCMS\1\data\JTB-E02\BACandBLUE\JTB-E18-008-10.D Wed May 15 14:33:34 2019
Start of data points
2.09518,61957
2.10330,65901
2.11143,60626
2.11955,63074
2.12767,60829
2.13580,60644
2.14392,61800
2.15205,61421
2.16017,58671
2.16828,55707
2.17642,56732
2.18453,57373
2.19265,59199
2.20078,53718
2.20890,53497
2.21703,54525
2.22515,50887
2.23327,47652
2.24140,52136
2.24952,55995
2.25765,263826
2.26577,1134348
2.27388,1223756
2.28202,553213
2.29013,337686
2.29825,262857
2.30638,225568
2.31450,212712
2.32263,188373
2.33075,180498
2.33887,167096
2.34700,151811
2.35512,148207
2.36325,141912
2.37137,137602
2.37948,140161
2.38762,125625
2.39573,128090
2.40387,120598
2.41198,131380
2.42010,127113
2.42823,123837
2.43635,118160
2.44447,118056
2.45260,109738
2.46072,108986
2.46885,110010
2.47697,127169
2.48508,156189
2.49322,129658
2.50133,114765
2.50947,114948
2.51758,112243
2.52570,112196
2.53383,109292
2.54195,142818
2.55007,238215
2.55820,217674
2.56632,152491
2.57445,140987
2.58257,130265
2.59068,126317
2.59882,200170
2.60693,260325
2.61507,223951
2.62318,179128
2.63130,145053
2.63943,137825
2.64755,127675
2.65568,122589
2.66380,113343
2.67192,113356
2.68005,113274
2.68817,110258
2.69628,105195
2.70442,108383
2.71253,105666
2.72067,104966
2.72878,105868
2.73690,103475
2.74503,102801
2.75315,103490
2.76128,143775
2.76940,657776
2.77752,1868605
2.78565,1765130
2.79377,971652
2.80190,657458
2.81002,556303
2.81813,478265
2.82627,425822
2.83438,367967
2.84250,294792
2.85063,266291
2.85875,242241
2.86688,212962
2.87500,196408
2.88312,188126
2.89125,184897
2.89937,166870
2.90750,161287
2.91562,152980
2.92373,146863
2.93187,146661
2.93998,143650
2.94810,130350
2.95623,126046
2.96435,129902
2.97248,126382
2.98060,132249
2.98872,139155
2.99685,136573
3.00497,134189
3.01310,133503
3.02122,126920
3.02933,119566
3.03747,118109
3.04558,123259
3.05372,123923
3.06183,132973
3.06995,206374
3.07808,686849
3.08620,1509968
3.09432,2254190
3.10245,2930714
3.11057,2373592
3.11870,1481321
3.12682,1035766
3.13493,822738
3.14307,677495
3.15118,561053
3.15932,557304
3.16743,569029
3.17555,830825
3.18368,1634998
3.19180,1957841
3.19993,1421015
3.20805,1018824
3.21617,835050
3.22430,697668
3.23242,600556
3.24053,518283
3.24867,463360
3.25678,409267
3.26492,392717
3.27303,409704
3.28115,749239
3.28928,2131802
3.29740,4266632
3.30553,5202857
3.31365,4139263
3.32177,2700069
3.32990,1848094
3.33802,1412244
3.34613,1196296
3.35427,1027677
3.36238,905346
3.37052,822753
3.37863,759333
3.38675,694644
3.39488,665407
3.40300,620868
3.41113,591366
3.41925,574451
3.42737,569796
3.43550,546555
3.44362,514326
3.45175,497846
3.45987,493661
3.46798,491816
3.47612,474058
3.48423,458759
3.49235,444403
3.50048,434420
3.50860,423453
3.51673,425951
3.52485,434286
3.53297,447007
3.54110,428163
3.54922,415494
3.55735,394107
3.56547,383723
3.57358,371406
3.58172,373930
3.58983,365568
3.59795,361503
3.60608,363220
3.61420,375267
3.62233,413791
3.63045,465379
3.63857,459240
3.64670,493682
3.65482,1673042
3.66295,7575252
3.67107,1.689759E+07
3.67918,1.872168E+07
3.68732,1.304877E+07
3.69543,7635451
3.70357,5506936
3.71168,4379337
3.71980,3759206
3.72793,3225680
3.73605,2866421
3.74417,2586496
3.75230,2331369
3.76042,2138933
3.76855,1990702
3.77667,1828615
3.78478,1707265
3.79292,1746153
3.80103,2083194
3.80917,2611113
3.81728,2528401
3.82540,2049752
3.83353,1695110
3.84165,1482484
3.84978,1410547
3.85790,1285774
3.86602,1218747
3.87415,1151857
3.88227,1096766
3.89038,1059298
3.89852,1021395
3.90663,1046330
3.91477,1189031
3.92288,1316870
3.93100,1292441
3.93913,1187904
3.94725,1395369
3.95538,1941937
3.96350,2214042
3.97162,1855026
3.97975,1379405
3.98787,1236948
3.99598,1727646
4.00412,2733378
4.01223,3164720
4.02037,2527000
4.02848,1708946
4.03660,1210741
4.04473,1006401
4.05285,884227
4.06098,809044
4.06910,754944
4.07722,727331
4.08535,706070
4.09347,675110
4.10160,655742
4.10972,618650
4.11783,604720
4.12597,590555
4.13408,595404
4.14220,601027
4.15033,601302
4.15845,585587
4.16658,575628
4.17470,578426
4.18282,549580
4.19095,549496
4.19907,786143
4.20720,2338031
4.21532,6910696
4.22343,1.295191E+07
4.23157,1.610091E+07
4.23968,1.419473E+07
4.24782,9250852
4.25593,5880585
4.26405,4164947
4.27218,3179943
4.28030,2537582
4.28842,2058245
4.29655,1755426
4.30467,1549748
4.31280,1386230
4.32092,1279860
4.32903,1169816
4.33717,1100674
4.34528,1067982
4.35342,1136793
4.36153,1180532
4.36965,1123697
4.37778,992850
4.38590,883079
4.39402,785739
4.40215,747149
4.41027,712490
4.41840,684112
4.42652,659656
4.43463,627153
4.44277,590987
4.45088,576880
4.45902,563511
4.46713,548371
4.47525,545485
4.48338,538868
4.49150,523375
4.49963,518350
4.50775,505934
4.51587,503740
4.52400,489551
4.53212,495248
4.54023,508979
4.54837,509853
4.55648,498158
4.56462,461889
4.57273,433973
4.58085,425782
4.58898,427246
4.59710,420410
4.60523,421301
4.61335,464809
4.62147,643313
4.62960,942128
4.63772,1183874
4.64583,1136111
4.65397,899856
4.66208,700090
4.67022,610894
4.67833,577137
4.68645,529211
4.69458,487059
4.70270,428975
4.71083,428183
4.71895,399483
4.72707,381924
4.73520,379310
4.74332,370233
4.75145,359128
4.75957,358172
4.76768,353632
4.77582,363740
4.78393,424108
4.79205,603252
4.80018,814727
4.80830,838527
4.81643,719360
4.82455,610726
4.83267,562481
4.84080,562578
4.84892,556430
4.85705,509733
4.86517,448248
4.87328,412023
4.88142,403353
4.88953,381688
4.89767,367636
4.90578,357594
4.91390,352722
4.92203,368551
4.93015,461734
4.93827,822492
4.94640,1529789
4.95452,2414930
4.96265,2773167
4.97077,2463205
4.97888,1795667
4.98702,1250420
4.99513,951715
5.00327,808457
5.01138,721146
5.01950,711619
5.02763,795723
5.03575,895535
5.04388,896810
5.05200,811220
5.06012,702510
5.06825,647588
5.07637,591543
5.08448,585367
5.09262,553848
5.10073,532703
5.10887,520610
5.11698,505125
5.12510,493087
5.13323,486625
5.14135,497815
5.14948,571400
5.15760,681338
5.16572,736904
5.17385,734194
5.18197,652174
5.19008,623309
5.19822,666377
5.20633,721971
5.21447,698964
5.22258,652620
5.23070,573285
5.23883,531905
5.24695,490821
5.25508,454864
5.26320,437542
5.27132,393062
5.27945,388186
5.28757,376859
5.29570,368851
5.30382,368349
5.31193,373794
5.32007,370149
5.32818,378152
5.33630,397700
5.34443,408299
5.35255,378802
5.36068,353747
5.36880,360356
5.37692,360507
5.38505,381866
5.39317,429428
5.40130,441736
5.40942,426269
5.41753,388562
5.42567,369576
5.43378,369893
5.44190,369291
5.45003,406488
5.45815,421150
5.46628,409969
5.47440,376287
5.48252,326253
5.49065,318295
5.49877,319056
5.50690,315477
5.51502,310624
5.52313,311837
5.53127,307503
5.53938,326435
5.54752,392595
5.55563,556152
5.56375,818292
5.57188,1021888
5.58000,1004618
5.58812,824129
5.59625,624301
5.60437,471071
5.61250,405250
5.62062,386598
5.62873,361867
5.63687,345510
5.64498,347158
5.65312,333314
5.66123,327881
5.66935,326295
5.67748,340261
5.68560,356311
5.69373,362557
5.70185,362240
5.70997,349647
5.71810,336858
5.72622,317993
5.73433,315211
5.74247,291876
5.75058,285784
5.75872,277645
5.76683,263977
5.77495,269954
5.78308,269168
5.79120,263087
5.79933,271425
5.80745,261362
5.81557,262009
5.82370,251729
5.83182,264060
5.83993,260594
5.84807,267482
5.85618,252405
5.86432,257439
5.87243,259487
5.88055,248626
5.88868,253349
5.89680,259449
5.90493,259215
5.91305,260643
5.92117,242424
5.92930,237940
5.93742,218976
5.94555,229776
5.95367,253601
5.96178,327011
5.96992,444211
5.97803,613461
5.98615,705645
5.99428,670429
6.00240,530867
6.01053,400091
6.01865,317363
6.02677,280060
6.03490,250578
6.04302,238094
6.05115,225009
6.05927,221048
6.06738,209276
6.07552,206817
6.08363,200618
6.09177,212734
6.09988,218356
6.10800,236937
6.11613,259070
6.12425,327008
6.13237,485910
6.14050,666231
6.14862,729800
6.15675,632644
6.16487,474886
6.17298,367901
6.18112,310368
6.18923,276923
6.19737,285863
6.20548,272022
6.21360,249912
6.22173,244037
6.22985,235768
6.23797,232977
6.24610,259015
6.25422,290853
6.26235,314610
6.27047,303916
6.27858,264779
6.28672,240114
6.29483,224476
6.30297,211485
6.31108,218503
6.31920,252820
6.32733,305205
6.33545,384634
6.34358,397054
6.35170,369068
6.35982,298358
6.36795,251742
6.37607,239141
6.38418,230394
6.39232,219292
6.40043,213789
6.40857,209712
6.41668,208626
6.42480,196233
6.43293,199202
6.44105,196428
6.44918,202451
6.45730,205361
6.46542,198311
6.47355,195930
6.48167,194869
6.48978,199216
6.49792,196821
6.50603,197513
6.51417,194645
6.52228,204965
6.53040,196253
6.53853,200961
6.54665,202225
6.55478,248247
6.56290,368647
6.57102,592051
6.57915,782480
6.58727,825600
6.59540,658506
6.60352,451708
6.61163,330244
6.61977,263003
6.62788,247157
6.63600,254357
6.64413,305023
6.65225,556618
6.66038,1013990
6.66850,1445256
6.67662,1516460
6.68475,1186527
6.69287,801393
6.70100,553311
6.70912,446172
6.71723,385271
6.72537,357002
6.73348,330480
6.74162,316159
6.74973,286153
6.75785,270219
6.76598,262871
6.77410,257105
6.78222,249004
6.79035,239941
6.79847,231832
6.80660,220871
6.81472,204718
6.82283,195562
6.83097,198620
6.83908,201139
6.84722,202336
6.85533,204287
6.86345,186054
6.87158,178961
6.87970,145698
6.88782,132904
6.89595,121414
6.90407,121127
6.91220,120495
6.92032,114616
6.92843,121599
6.93657,109147
6.94468,113806
6.95282,115232
6.96093,123933
6.96905,142425
6.97718,164263
6.98530,157253
6.99343,148245
7.00155,130318
7.00967,127074
7.01780,122280
7.02592,127466
7.03403,146696
7.04217,175099
7.05028,209812
7.05842,254390
7.06653,283808
7.07465,276439
7.08278,256786
7.09090,202869
7.09903,167532
7.10715,143414
7.11527,140372
7.12340,124535
7.13152,125389
7.13965,132762
7.14777,177312
7.15588,217158
7.16402,247365
7.17213,241478
7.18025,198745
7.18838,165689
7.19650,176886
7.20463,294827
7.21275,718085
7.22087,1556772
7.22900,2423223
7.23712,2706445
7.24525,2236074
7.25337,1443215
7.26148,876248
7.26962,566303
7.27773,408709
7.28585,267426
7.29398,180408
7.30210,152650
7.31023,142156
7.31835,142233
7.32647,143928
7.33460,141989
7.34272,136679
7.35085,136206
7.35897,134928
7.36708,133082
7.37522,130296
7.38333,131691
7.39147,131254
7.39958,126555
7.40770,123870
7.41583,110120
7.42395,105602
7.43207,108366
7.44020,111305
7.44832,116336
7.45645,114772
7.46457,111825
7.47268,120785
7.48082,104028
7.48893,106828
7.49707,106648
7.50518,131615
7.51330,213372
7.52143,469295
7.52955,986024
7.53767,1865170
7.54580,2992995
7.55392,3918949
7.56205,4392242
7.57017,4061381
7.57828,3224219
7.58642,2193856
7.59453,1420077
7.60267,861792
7.61078,585412
7.61890,411989
7.62703,310083
7.63515,264554
7.64328,221528
7.65140,193696
7.65952,169069
7.66765,152643
7.67577,135858
7.68388,128894
7.69202,130990
7.70013,128051
7.70827,129233
7.71638,125706
7.72450,127203
7.73263,117039
7.74075,116782
7.74888,124448
7.75700,134992
7.76512,148254
7.77325,155468
7.78137,169017
7.78950,174825
7.79762,183108
7.80573,202141
7.81387,200828
7.82198,194168
7.83010,176267
7.83823,152639
7.84635,147012
7.85448,159746
7.86260,159311
7.87072,172276
7.87885,209025
7.88697,207616
7.89510,203443
7.90322,186796
7.91133,162679
7.91947,144204
7.92758,150965
7.93570,169772
7.94383,194853
7.95195,205861
7.96008,192228
7.96820,166687
7.97632,148714
7.98445,122704
7.99257,107423
8.00070,101037
8.00882,99638
8.01693,97046
8.02507,97955
8.03318,98807
8.04132,95789
8.04943,100373
8.05755,92485
8.06568,93520
8.07380,87103
8.08192,91325
8.09005,91476
8.09817,85293
8.10630,87279
8.11442,85450
8.12253,90720
8.13067,111898
8.13878,132404
8.14692,148895
8.15503,162637
8.16315,147676
8.17128,130834
8.17940,107135
8.18753,104239
8.19565,98455
8.20377,90529
8.21190,92969
8.22002,93548
8.22813,92747
8.23627,98035
8.24438,93322
8.25252,83449
8.26063,81823
8.26875,82437
8.27688,85338
8.28500,82022
8.29313,80719
8.30125,84567
8.30937,101279
8.31750,105694
8.32562,111642
8.33373,105356
8.34187,96870
8.34998,89741
8.35812,78636
8.36623,76886
8.37435,82498
8.38248,80184
8.39060,82215
8.39873,82559
8.40685,84411
8.41497,80959
8.42310,75822
8.43122,71519
8.43935,65087
8.44747,70936
8.45558,70103
8.46372,68530
8.47183,65012
8.47995,66461
8.48808,69974
8.49620,69291
8.50433,78843
8.51245,82957
8.52057,127505
8.52870,253306
8.53682,443668
8.54495,644493
8.55307,745517
8.56118,658145
8.56932,450667
8.57743,273412
8.58557,173072
8.59368,128983
8.60180,117346
8.60993,113435
8.61805,112924
8.62617,111173
8.63430,99678
8.64242,92860
8.65055,86818
8.65867,88922
8.66678,89252
8.67492,84904
8.68303,83268
8.69117,87052
8.69928,87537
8.70740,91124
8.71553,90908
8.72365,90774
8.73177,82586
8.73990,76669
8.74802,85053
8.75615,127037
8.76427,241040
8.77238,473283
8.78052,773306
8.78863,988848
8.79677,1022665
8.80488,812833
8.81300,564347
8.82113,357597
8.82925,260155
8.83738,215362
8.84550,209253
8.85362,201047
8.86175,202065
8.86987,191797
8.87798,190274
8.88612,185272
8.89423,170929
8.90237,169674
8.91048,165449
8.91860,166539
8.92673,170525
8.93485,191535
8.94298,212337
8.95110,225965
8.95922,229338
8.96735,221917
8.97547,223963
8.98358,236412
8.99172,227602
8.99983,218394
9.00797,202785
9.01608,172277
9.02420,162883
9.03233,147093
9.04045,135725
9.04858,128536
9.05670,125637
9.06482,128133
9.07295,128116
9.08107,133810
9.08920,154119
9.09732,182503
9.10543,232891
9.11357,288245
9.12168,300787
9.12980,288443
9.13793,239464
9.14605,193904
9.15418,162039
9.16230,153874
9.17042,141591
9.17855,128979
9.18667,125449
9.19480,122277
9.20292,124607
9.21103,124880
9.21917,120491
9.22728,115682
9.23542,121495
9.24353,122701
9.25165,121127
9.25978,126704
9.26790,116258
9.27602,113941
9.28415,115701
9.29227,110149
9.30040,108458
9.30852,109430
9.31663,105660
9.32477,106897
9.33288,104313
9.34102,107660
9.34913,102279
9.35725,102382
9.36538,108978
9.37350,104078
9.38162,109229
9.38975,110088
9.39787,133209
9.40600,153553
9.41412,186902
9.42223,236560
9.43037,310906
9.43848,345073
9.44662,346331
9.45473,313053
9.46285,251728
9.47098,193393
9.47910,153354
9.48723,130237
9.49535,122190
9.50347,123138
9.51160,152253
9.51972,177560
9.52783,191595
9.53597,201875
9.54408,184043
9.55222,156190
9.56033,132135
9.56845,114009
9.57658,97249
9.58470,89292
9.59283,82936
9.60095,82646
9.60907,73951
9.61720,75556
9.62532,76157
9.63345,74508
9.64157,86316
9.64968,85089
9.65782,79692
9.66593,79582
9.67405,78780
9.68218,72058
9.69030,67466
9.69843,65439
9.70655,60572
9.71467,61898
9.72280,60265
9.73092,63417
9.73905,60965
9.74717,62454
9.75528,60430
9.76342,54329
9.77153,55146
9.77965,60255
9.78778,59515
9.79590,59466
9.80403,56238
9.81215,62173
9.82027,53582
9.82840,57138
9.83652,62214
9.84465,56127
9.85277,56497
9.86088,57891
9.86902,55122
9.87713,62350
9.88527,64655
9.89338,60064
9.90150,63332
9.90963,64904
9.91775,87799
9.92587,131972
9.93400,215714
9.94212,332062
9.95025,488246
9.95837,576398
9.96648,570827
9.97462,472283
9.98273,340168
9.99087,227282
9.99898,157736
10.00710,114344
10.01523,94070
10.02335,88181
10.03147,79854
10.03960,74002
10.04772,77414
10.05585,86114
10.06397,97300
10.07208,103931
10.08022,102921
10.08833,103661
10.09647,99629
10.10458,102047
10.11270,92392
10.12083,91810
10.12895,82563
10.13708,86831
10.14520,81164
10.15332,80612
10.16145,77868
10.16957,77732
10.17768,72503
10.18582,75759
10.19393,73870
10.20207,73353
10.21018,74354
10.21830,81067
10.22643,87140
10.23455,96500
10.24268,108128
10.25080,121127
10.25892,174492
10.26705,368372
10.27517,869017
10.28330,1839218
10.29142,3357372
10.29953,5150534
10.30767,7309376
10.31578,1.06287E+07
10.32390,1.567017E+07
10.33203,2.168218E+07
10.34015,2.745326E+07
10.34828,2.939689E+07
10.35640,2.534783E+07
10.36452,1.726374E+07
10.37265,1.024586E+07
10.38077,6467472
10.38890,4379944
10.39702,3035922
10.40513,1998082
10.41327,1362444
10.42138,1010208
10.42952,853217
10.43763,808785
10.44575,793801
10.45388,813596
10.46200,800512
10.47012,757195
10.47825,681023
10.48637,614337
10.49450,560733
10.50262,509121
10.51073,478209
10.51887,447887
10.52698,434264
10.53512,429610
10.54323,417556
10.55135,412468
10.55948,388910
10.56760,353056
10.57572,328179
10.58385,308292
10.59197,302732
10.60010,292243
10.60822,276916
10.61633,263159
10.62447,255578
10.63258,242390
10.64072,238003
10.64883,229021
10.65695,223814
10.66508,213945
10.67320,215134
10.68133,218338
10.68945,223691
10.69757,219499
10.70570,221069
10.71382,221979
10.72193,211872
10.73007,201209
10.73818,191984
10.74632,186997
10.75443,181751
10.76255,167457
10.77068,163004
10.77880,165464
10.78693,163688
10.79505,171374
10.80317,175481
10.81130,188873
10.81942,197212
10.82753,188451
10.83567,167756
10.84378,159064
10.85192,142232
10.86003,134135
10.86815,130668
10.87628,132632
10.88440,124149
10.89253,125315
10.90065,126725
10.90877,121761
10.91690,113238
10.92502,113894
10.93315,119890
10.94127,113465
10.94938,111154
10.95752,111162
10.96563,113952
10.97375,115518
10.98188,123626
10.99000,127301
10.99813,137395
11.00625,146061
11.01437,144178
11.02250,137956
11.03062,131149
11.03875,117717
11.04687,110834
11.05498,104131
11.06312,108205
11.07123,120167
11.07937,132529
11.08748,136250
11.09560,137280
11.10373,150324
11.11185,137808
11.11997,130575
11.12810,107021
11.13622,101548
11.14435,88021
11.15247,87362
11.16058,86295
11.16872,88156
11.17683,88021
11.18497,91355
11.19308,95718
11.20120,84962
11.20933,83447
11.21745,80129
11.22557,82126
11.23370,68978
11.24182,67104
11.24995,66101
11.25807,62165
11.26618,60398
11.27432,64398
11.28243,63347
11.29057,84269
11.29868,137284
11.30680,296135
11.31493,663970
11.32305,1358710
11.33118,2284288
11.33930,3197723
11.34742,3662728
11.35555,3484011
11.36367,2759503
11.37178,1912794
11.37992,1222157
11.38803,813401
11.39617,618309
11.40428,551023
11.41240,499452
11.42053,453908
11.42865,410394
11.43678,358794
11.44490,313926
11.45302,268238
11.46115,256743
11.46927,233984
11.47740,227918
11.48552,241353
11.49363,260460
11.50177,272425
11.50988,260850
11.51800,240013
11.52613,222148
11.53425,197872
11.54238,188929
11.55050,183225
11.55862,190090
11.56675,175904
11.57487,175885
11.58300,171034
11.59112,167797
11.59923,175508
11.60737,216211
11.61548,245847
11.62360,258473
11.63173,252493
11.63985,219899
11.64798,176870
11.65610,147329
11.66422,137964
11.67235,120806
11.68047,118146
11.68860,125623
11.69672,138826
11.70483,141768
11.71297,130901
11.72108,131376
11.72922,115113
11.73733,103593
11.74545,94492
11.75358,92357
11.76170,89951
11.76982,93013
11.77795,80968
11.78607,86676
11.79420,80239
11.80232,80195
11.81043,78417
11.81857,74707
11.82668,72208
11.83482,72105
11.84293,69916
11.85105,72373
11.85918,68044
11.86730,71892
11.87542,72448
11.88355,72434
11.89167,65354
11.89980,71856
11.90792,69836
11.91603,68976
11.92417,74115
11.93228,75408
11.94042,79217
11.94853,75925
11.95665,69278
11.96478,68233
11.97290,64077
11.98103,70868
11.98915,80748
11.99727,97899
12.00540,119795
12.01352,136125
12.02163,139182
12.02977,133796
12.03788,105916
12.04602,96241
12.05413,86241
12.06225,88611
12.07038,86230
12.07850,95987
12.08663,107042
12.09475,135367
12.10287,204704
12.11100,340993
12.11912,553167
12.12725,814284
12.13537,1046328
12.14348,1113258
12.15162,954755
12.15973,712571
12.16785,465822
12.17598,283584
12.18410,213641
12.19223,183172
12.20035,188563
12.20847,179371
12.21660,179223
12.22472,165902
12.23285,158828
12.24097,143904
12.24908,131978
12.25722,127703
12.26533,128053
12.27345,118895
12.28158,113669
12.28970,109440
12.29783,100762
12.30595,100038
12.31407,102000
12.32220,93576
12.33032,92618
12.33845,89356
12.34657,86916
12.35468,86523
12.36282,84168
12.37093,87186
12.37907,86132
12.38718,88245
12.39530,91898
12.40343,97470
12.41155,114630
12.41967,131672
12.42780,143954
12.43592,144100
12.44405,142864
12.45217,135013
12.46028,128447
12.46842,111353
12.47653,109757
12.48467,108478
12.49278,105091
12.50090,101105
12.50903,91502
12.51715,98070
12.52528,92551
12.53340,96824
12.54152,110377
12.54965,134698
12.55777,153565
12.56588,178611
12.57402,161406
12.58213,158994
12.59027,135175
12.59838,119621
12.60650,111971
12.61463,106168
12.62275,104610
12.63088,101634
12.63900,97682
12.64712,93079
12.65525,85723
12.66337,77691
12.67148,82869
12.67962,75141
12.68773,72654
12.69587,74927
12.70398,71673
12.71210,71363
12.72023,70211
12.72835,75293
12.73648,75019
12.74460,78085
12.75272,71436
12.76085,67561
12.76897,67879
12.77710,65698
12.78522,63510
12.79333,62316
12.80147,61108
12.80958,59080
12.81770,59871
12.82583,56977
12.83395,53553
12.84208,56240
12.85020,50867
12.85832,50271
12.86645,47048
12.87457,48176
12.88270,46555
12.89082,46001
12.89893,49139
12.90707,45597
12.91518,49037
12.92330,48305
12.93143,48864
12.93955,47737
12.94768,48653
12.95580,50334
12.96392,53651
12.97205,53657
12.98017,55125
12.98830,55345
12.99642,52674
13.00453,55656
13.01267,51352
13.02078,47526
13.02892,47144
13.03703,52732
13.04515,48183
13.05328,46199
13.06140,48685
13.06952,48945
13.07765,49945
13.08577,50993
13.09390,48598
13.10202,49523
13.11013,50761
13.11827,48815
13.12638,49862
13.13452,48647
13.14263,49692
13.15075,44853
13.15888,45275
13.16700,56180
13.17513,53549
13.18325,55394
13.19137,57974
13.19950,58418
13.20762,62702
13.21573,64386
13.22387,64025
13.23198,69355
13.24012,62549
13.24823,66728
13.25635,58367
13.26448,61477
13.27260,58224
13.28073,54454
13.28885,49442
13.29697,46774
13.30510,52375
13.31322,49334
13.32133,44091
13.32947,43772
13.33758,45728
13.34572,42201
13.35383,42222
13.36195,50031
13.37008,44000
13.37820,44025
13.38633,43996
13.39445,41730
13.40257,42429
13.41070,39840
13.41882,41867
13.42695,41896
13.43507,40521
13.44318,44195
13.45132,47512
13.45943,51819
13.46755,54328
13.47568,53041
13.48380,53268
13.49193,52548
13.50005,45689
13.50817,48469
13.51630,49690
13.52442,47861
13.53255,51482
13.54067,45970
13.54878,46714
13.55692,46378
13.56503,48717
13.57317,54325
13.58128,57393
13.58940,62030
13.59753,70549
13.60565,78503
13.61377,82326
13.62190,86248
13.63002,84096
13.63815,72714
13.64627,64937
13.65438,55838
13.66252,52495
13.67063,47132
13.67877,45443
13.68688,42686
13.69500,41106
13.70313,42734
13.71125,44480
13.71937,41942
13.72750,43530
13.73562,49680
13.74375,65193
13.75187,102368
13.75998,182716
13.76812,282922
13.77623,405583
13.78437,492928
13.79248,542072
13.80060,564314
13.80873,547003
13.81685,558153
13.82498,618558
13.83310,677240
13.84122,703943
13.84935,676132
13.85747,568583
13.86558,465604
13.87372,346966
13.88183,275263
13.88997,225969
13.89808,187593
13.90620,156963
13.91433,138669
13.92245,127628
13.93058,118617
13.93870,109722
13.94682,118207
13.95495,102029
13.96307,104481
13.97120,105450
13.97932,107894
13.98743,120882
13.99557,114407
14.00368,110805
14.01180,109282
14.01993,110301
14.02805,107506
14.03618,107040
14.04430,92249
14.05242,91477
14.06055,90896
14.06867,87024
14.07680,83816
14.08492,88499
14.09303,91148
14.10117,86991
14.10928,83310
14.11740,86453
14.12553,81195
14.13365,83672
14.14178,89860
14.14990,91772
14.15802,107435
14.16615,111305
14.17427,125616
14.18240,135528
14.19052,162959
14.19863,217603
14.20677,286383
14.21488,326824
14.22302,337514
14.23113,307660
14.23925,286313
14.24738,285281
14.25550,277382
14.26362,267777
14.27175,247601
14.27987,209748
14.28800,183356
14.29612,156643
14.30423,139690
14.31237,139679
14.32048,123181
14.32862,126457
14.33673,118881
14.34485,106880
14.35298,108899
14.36110,102975
14.36922,98386
14.37735,78917
14.38547,72941
14.39360,69229
14.40172,71599
14.40983,71894
14.41797,82108
14.42608,86233
14.43422,85230
14.44233,81733
14.45045,75733
14.45858,76081
14.46670,71722
14.47483,71563
14.48295,67693
14.49107,63836
14.49920,67363
14.50732,64270
14.51543,73339
14.52357,67276
14.53168,69398
14.53982,69503
14.54793,67594
14.55605,64881
14.56418,66221
14.57230,62561
14.58043,57990
14.58855,62631
14.59667,54360
14.60480,57990
14.61292,52069
14.62105,55876
14.62917,53278
14.63728,51486
14.64542,49643
14.65353,53547
14.66165,46344
14.66978,48704
14.67790,46421
14.68603,44911
14.69415,46923
14.70227,47761
14.71040,47759
14.71852,51167
14.72665,51109
14.73477,54732
14.74288,56478
14.75102,56158
14.75913,60840
14.76725,56556
14.77538,61975
14.78350,78131
14.79163,134431
14.79975,310346
14.80787,830995
14.81600,1936402
14.82412,3562801
14.83225,5164922
14.84037,6019690
14.84848,5631265
14.85662,4341229
14.86473,2828485
14.87287,1666545
14.88098,1036868
14.88910,702924
14.89723,530711
14.90535,446983
14.91347,390928
14.92160,351187
14.92972,323369
14.93785,290346
14.94597,265801
14.95408,246090
14.96222,225239
14.97033,212499
14.97847,206161
14.98658,196804
14.99470,188535
15.00283,175948
15.01095,175504
15.01908,165742
15.02720,165646
15.03532,163882
15.04345,158650
15.05157,152103
15.05968,147035
15.06782,142193
15.07593,134259
15.08407,120424
15.09218,119935
15.10030,115009
15.10843,108843
15.11655,106844
15.12468,116484
15.13280,126007
15.14092,138874
15.14905,137530
15.15717,132559
15.16528,118530
15.17342,100772
15.18153,87239
15.18967,80790
15.19778,74851
15.20590,73866
15.21403,65519
15.22215,68268
15.23028,61108
15.23840,65472
15.24652,64275
15.25465,60129
15.26277,61173
15.27090,55956
15.27902,51316
15.28713,54591
15.29527,50958
15.30338,55844
15.31150,54643
15.31963,52251
15.32775,53994
15.33588,53241
15.34400,50304
15.35212,49397
15.36025,48330
15.36837,48481
15.37650,52587
15.38462,49865
15.39273,51000
15.40087,51206
15.40898,49222
15.41710,52984
15.42523,51861
15.43335,46849
15.44148,51767
15.44960,54011
15.45772,63922
15.46585,86424
15.47397,135314
15.48210,216937
15.49022,336509
15.49833,449137
15.50647,543150
15.51458,570217
15.52272,521578
15.53083,449790
15.53895,383786
15.54708,348716
15.55520,306839
15.56332,258169
15.57145,226107
15.57957,172698
15.58770,134965
15.59582,111092
15.60393,100462
15.61207,90127
15.62018,86957
15.62832,79244
15.63643,80438
15.64455,75091
15.65268,74005
15.66080,73822
15.66893,65841
15.67705,62660
15.68517,63863
15.69330,58740
15.70142,61005
15.70953,61656
15.71767,55215
15.72578,56698
15.73392,56221
15.74203,59693
15.75015,69754
15.75828,84692
15.76640,120431
15.77453,186886
15.78265,290125
15.79077,370378
15.79890,395467
15.80702,372248
15.81515,287023
15.82327,205877
15.83138,149861
15.83952,122724
15.84763,104650
15.85575,94152
15.86388,86315
15.87200,87131
15.88013,84098
15.88825,87208
15.89637,83619
15.90450,83295
15.91262,84204
15.92075,78890
15.92887,70318
15.93698,75352
15.94512,67347
15.95323,69793
15.96135,67529
15.96948,74268
15.97760,77273
15.98573,77432
15.99385,76694
16.00197,74880
16.01010,77129
16.01822,79748
16.02635,83317
16.03447,81690
16.04258,81390
16.05072,80561
16.05883,70726
16.06697,65473
16.07508,69277
16.08320,63408
16.09133,60462
16.09945,60456
16.10757,59598
16.11570,63108
16.12382,67370
16.13195,74310
16.14007,73665
16.14818,76262
16.15632,78197
16.16443,83762
16.17257,76503
16.18068,72201
16.18880,64386
16.19693,64969
16.20505,59265
16.21317,58647
16.22130,59203
16.22942,58669
16.23755,60586
16.24567,57316
16.25378,61387
16.26192,56698
16.27003,58869
16.27817,60943
16.28628,68991
16.29440,80617
16.30253,80439
16.31065,87660
16.31878,81160
16.32690,75909
16.33502,74051
16.34315,66574
16.35127,67224
16.35938,75006
16.36752,85497
16.37563,94519
16.38377,100023
16.39188,99074
16.40000,85651
16.40813,79134
16.41625,71480
16.42438,68309
16.43250,67503
16.44062,71565
16.44875,101466
16.45687,178238
16.46500,351580
16.47312,634445
16.48123,955756
16.48937,1123009
16.49748,1091302
16.50560,867816
16.51373,575236
16.52185,369806
16.52998,243836
16.53810,177604
16.54622,140639
16.55435,122126
16.56247,117221
16.57060,107869
16.57872,104491
16.58683,102279
16.59497,100361
16.60308,101021
16.61120,100536
16.61933,99458
16.62745,98157
16.63558,94225
16.64370,89044
16.65182,76363
16.65995,75779
16.66807,71695
16.67620,70073
16.68432,70537
16.69243,68066
16.70057,66982
16.70868,62724
16.71682,61372
16.72493,58447
16.73305,61615
16.74118,61713
16.74930,61977
16.75742,63840
16.76555,70916
16.77367,71515
16.78180,67539
16.78992,66527
16.79803,59350
16.80617,53472
16.81428,55290
16.82242,53958
16.83053,53360
16.83865,56985
16.84678,54650
16.85490,54580
16.86303,52104
16.87115,45882
16.87927,51722
16.88740,47057
16.89552,48006
16.90363,46511
16.91177,46979
16.91988,44770
16.92802,46099
16.93613,50710
16.94425,47381
16.95238,50411
16.96050,45375
16.96863,49128
16.97675,45302
16.98487,46044
16.99300,49180
17.00112,48427
17.00923,46692
17.01737,53636
17.02548,45899
17.03362,52045
17.04173,52383
17.04985,55973
17.05798,60196
17.06610,56224
17.07423,59835
17.08235,57647
17.09047,60188
17.09860,67724
17.10672,78338
17.11485,87718
17.12297,98435
17.13108,96336
17.13922,96177
17.14733,89399
17.15545,82200
17.16358,79206
17.17170,72596
17.17983,65842
17.18795,62644
17.19607,58432
17.20420,53867
17.21232,57459
17.22045,57720
17.22857,54598
17.23668,52992
17.24482,53768
17.25293,53555
17.26105,53143
17.26918,54888
17.27730,50586
17.28543,45165
17.29355,50968
17.30167,46355
17.30980,50477
17.31792,55916
17.32605,65773
17.33417,77287
17.34228,95152
17.35042,96865
17.35853,96138
17.36667,102897
17.37478,98141
17.38290,91818
17.39103,88888
17.39915,90781
17.40727,86572
17.41540,87222
17.42352,84674
17.43165,85855
17.43977,86318
17.44788,90333
17.45602,84951
17.46413,73782
17.47227,69082
17.48038,62918
17.48850,59035
17.49663,55492
17.50475,56413
17.51288,56966
17.52100,56507
17.52912,59926
17.53725,56419
17.54537,56126
17.55348,62008
17.56162,74531
17.56973,95218
17.57787,145563
17.58598,230536
17.59410,338834
17.60223,494329
17.61035,617404
17.61848,632453
17.62660,572996
17.63472,453482
17.64285,338199
17.65097,250011
17.65908,191188
17.66722,160783
17.67533,148220
17.68347,129596
17.69158,126801
17.69970,118742
17.70783,118489
17.71595,106740
17.72408,105914
17.73220,108172
17.74032,101192
17.74845,99497
17.75657,91732
17.76470,91250
17.77282,90501
17.78093,81936
17.78907,75036
17.79718,72653
17.80530,68719
17.81343,65151
17.82155,73486
17.82968,73979
17.83780,79855
17.84592,89071
17.85405,100998
17.86217,110083
17.87030,123522
17.87842,129332
17.88653,114086
17.89467,93992
17.90278,89241
17.91092,70411
17.91903,65671
17.92715,66753
17.93528,59118
17.94340,57451
17.95152,54550
17.95965,54021
17.96777,53156
17.97590,54782
17.98402,54670
17.99213,49742
18.00027,52755
18.00838,58454
18.01652,64130
18.02463,84768
18.03275,104468
18.04088,129015
18.04900,127607
18.05712,130300
18.06525,111361
18.07337,99747
18.08150,98653
18.08962,108003
18.09773,110555
18.10587,121603
18.11398,126708
18.12212,131796
18.13023,133090
18.13835,128680
18.14648,125094
18.15460,117960
18.16273,118191
18.17085,107817
18.17897,100362
18.18710,99839
18.19522,86770
18.20333,85089
18.21147,82084
18.21958,76714
18.22772,79021
18.23583,79435
18.24395,74353
18.25208,72044
18.26020,75736
18.26833,72949
18.27645,62638
18.28457,64522
18.29270,62627
18.30082,57396
18.30895,50415
18.31707,52324
18.32518,52887
18.33332,49713
18.34143,48438
18.34955,47411
18.35768,47296
18.36580,48129
18.37393,49285
18.38205,47692
18.39017,46782
18.39830,47609
18.40642,55859
18.41455,65504
18.42267,81987
18.43078,110720
18.43892,129032
18.44703,153904
18.45515,171478
18.46328,185537
18.47140,206607
18.47953,228436
18.48765,237399
18.49577,233851
18.50390,206777
18.51202,172168
18.52015,131685
18.52827,111325
18.53638,92471
18.54452,84127
18.55263,79201
18.56077,73130
18.56888,68960
18.57700,74198
18.58513,67999
18.59325,70167
18.60137,79747
18.60950,90691
18.61762,95332
18.62575,98009
18.63387,104466
18.64198,96398
18.65012,93146
18.65823,89856
18.66637,74701
18.67448,71812
18.68260,67659
18.69073,62362
18.69885,65322
18.70697,61696
18.71510,62524
18.72322,59848
18.73135,58871
18.73947,58070
18.74758,55481
18.75572,54601
18.76383,53731
18.77197,50214
18.78008,50759
18.78820,52340
18.79633,53497
18.80445,51648
18.81258,53597
18.82070,51947
18.82882,48877
18.83695,52864
18.84507,53963
18.85318,55854
18.86132,55637
18.86943,67707
18.87757,70020
18.88568,73808
18.89380,77243
18.90193,75113
18.91005,66541
18.91818,64899
18.92630,66356
18.93442,68792
18.94255,66466
18.95067,68393
18.95880,74624
18.96692,73412
18.97503,73162
18.98317,69425
18.99128,65689
18.99940,62159
19.00753,65130
19.01565,62850
19.02378,61030
19.03190,58649
19.04002,59076
19.04815,57739
19.05627,70804
19.06440,96715
19.07252,167625
19.08063,348860
19.08877,675443
19.09688,1212617
19.10500,1755570
19.11313,2131714
19.12125,2036703
19.12938,1640561
19.13750,1173940
19.14562,754661
19.15375,492424
19.16187,332638
19.17000,246049
19.17812,202062
19.18623,164242
19.19437,149941
19.20248,150193
19.21062,148410
19.21873,145500
19.22685,147780
19.23498,138542
19.24310,135108
19.25122,125422
19.25935,126432
19.26747,126254
19.27560,129064
19.28372,137055
19.29183,137551
19.29997,147774
19.30808,145550
19.31622,150733
19.32433,151910
19.33245,142153
19.34058,139303
19.34870,139999
19.35683,159332
19.36495,167787
19.37307,188193
19.38120,203571
19.38932,203440
19.39743,186824
19.40557,169842
19.41368,156571
19.42182,137241
19.42993,136861
19.43805,129974
19.44618,125354
19.45430,130594
19.46243,124933
19.47055,120867
19.47867,125062
19.48680,136193
19.49492,161868
19.50303,203401
19.51117,249266
19.51928,295563
19.52742,314607
19.53553,300426
19.54365,257397
19.55178,219620
19.55990,176989
19.56803,158924
19.57615,143954
19.58427,133270
19.59240,120767
19.60052,115392
19.60865,108519
19.61677,111919
19.62488,109303
19.63302,120424
19.64113,132144
19.64925,164830
19.65738,224712
19.66550,286545
19.67363,361147
19.68175,411799
19.68987,412500
19.69800,406773
19.70612,364221
19.71425,314584
19.72237,278424
19.73048,246103
19.73862,219323
19.74673,205000
19.75485,184088
19.76298,172487
19.77110,175963
19.77923,177114
19.78735,196933
19.79547,226513
19.80360,252869
19.81172,259453
19.81985,238580
19.82797,210478
19.83608,184957
19.84422,160669
19.85233,134703
19.86047,139659
19.86858,129767
19.87670,143230
19.88483,152810
19.89295,190152
19.90107,219278
19.90920,277568
19.91732,303308
19.92545,329326
19.93357,331550
19.94168,338716
19.94982,327344
19.95793,307369
19.96607,314235
19.97418,285492
19.98230,289958
19.99043,267857
19.99855,271289
20.00668,266004
20.01480,257824
20.02292,251883
20.03105,243116
20.03917,233838
20.04728,231720
20.05542,238888
20.06353,246550
20.07167,280072
20.07978,328604
20.08790,366805
20.09603,368014
20.10415,351627
20.11228,307571
20.12040,264703
20.12852,225538
20.13665,209052
20.14477,232614
20.15290,315829
20.16102,484674
20.16913,777814
20.17727,1184780
20.18538,1656966
20.19350,2022744
20.20163,2182554
20.20975,2151166
20.21788,1909487
20.22600,1594916
20.23412,1303601
20.24225,1089123
20.25037,1061093
20.25850,1163555
20.26662,1351342
20.27473,1565767
20.28287,1660002
20.29098,1605917
20.29910,1436188
20.30723,1191158
20.31535,930714
20.32348,687760
20.33160,496542
20.33972,387885
20.34785,289187
20.35597,241529
20.36410,196048
20.37222,174470
20.38033,148442
20.38847,151259
20.39658,132081
20.40472,123030
20.41283,117019
20.42095,120128
20.42908,114957
20.43720,121078
20.44532,133341
20.45345,129510
20.46157,135125
20.46970,136104
20.47782,135251
20.48593,119002
20.49407,112578
20.50218,101465
20.51032,97834
20.51843,86104
20.52655,91252
20.53468,88261
20.54280,84728
20.55092,82824
20.55905,80101
20.56717,82142
20.57530,87928
20.58342,80288
20.59153,70920
20.59967,76344
20.60778,74319
20.61592,73421
20.62403,77401
20.63215,77807
20.64028,84752
20.64840,82292
20.65653,83822
20.66465,89100
20.67277,88056
20.68090,84523
20.68902,76608
20.69713,74072
20.70527,71925
20.71338,74937
20.72152,70620
20.72963,73265
20.73775,68553
20.74588,71372
20.75400,70341
20.76213,77156
20.77025,86106
20.77837,91565
20.78650,123384
20.79462,182967
20.80275,278959
20.81087,414933
20.81898,564658
20.82712,623147
20.83523,590986
20.84335,459042
20.85148,329881
20.85960,220683
20.86773,153944
20.87585,125527
20.88397,112631
20.89210,106214
20.90022,109454
20.90835,115408
20.91647,111107
20.92458,127986
20.93272,136042
20.94083,145834
20.94895,141451
20.95708,125247
20.96520,130110
20.97333,113787
20.98145,104474
20.98957,92515
20.99770,81753
21.00582,85838
21.01395,80407
21.02207,80393
21.03018,77098
21.03832,85225
21.04643,83006
21.05457,85419
21.06268,80362
21.07080,79891
21.07893,71046
21.08705,74339
21.09517,77829
21.10330,76162
21.11142,68408
21.11955,72956
21.12767,77194
21.13578,95987
21.14392,126078
21.15203,166405
21.16017,215119
21.16828,251263
21.17640,249191
21.18453,232874
21.19265,188717
21.20078,148094
21.20890,121840
21.21702,108657
21.22515,95028
21.23327,88414
21.24138,85523
21.24952,84369
21.25763,79266
21.26577,81764
21.27388,75460
21.28200,73372
21.29013,74297
21.29825,73117
21.30638,69351
21.31450,69281
21.32262,68749
21.33075,71484
21.33887,62727
21.34698,66304
21.35512,67599
21.36323,65326
21.37137,68630
21.37948,69099
21.38760,76468
21.39573,82778
21.40385,83411
21.41198,93952
21.42010,100276
21.42822,99970
21.43635,100069
21.44447,90419
21.45260,88649
21.46072,78884
21.46883,75286
21.47697,75410
21.48508,77914
21.49320,72098
21.50133,73515
21.50945,68183
21.51758,68101
21.52570,67416
21.53382,61649
21.54195,68126
21.55007,65980
21.55820,74755
21.56632,70140
21.57443,73539
21.58257,72920
21.59068,82514
21.59880,86115
21.60693,89772
21.61505,90398
21.62318,88551
21.63130,97654
21.63942,108477
21.64755,114070
21.65567,123717
21.66380,122543
21.67192,123402
21.68003,121741
21.68817,116270
21.69628,109342
21.70442,104465
21.71253,91728
21.72065,85839
21.72878,72816
21.73690,74482
21.74502,68836
21.75315,68467
21.76127,64255
21.76940,66717
21.77752,65048
21.78563,71561
21.79377,70977
21.80188,73354
21.81002,75672
21.81813,78992
21.82625,84583
21.83438,90075
21.84250,101519
21.85063,104822
21.85875,100885
21.86687,100366
21.87500,88781
21.88312,85105
21.89123,72824
21.89937,78515
21.90748,76194
21.91562,71751
21.92373,73514
21.93185,60992
21.93998,66981
21.94810,66759
21.95623,58471
21.96435,55124
21.97247,58061
21.98060,55148
21.98872,53829
21.99683,52930
22.00497,52768
22.01308,53225
22.02122,53894
22.02933,57653
22.03745,62437
22.04558,63408
22.05370,65591
22.06183,64137
22.06995,59602
22.07807,57925
22.08620,58104
22.09432,56446
22.10245,57851
22.11057,56602
22.11868,56411
22.12682,56081
22.13493,54778
22.14305,54959
22.15118,54111
22.15930,50777
22.16743,63231
22.17555,53180
22.18367,50523
22.19180,51719
22.19992,58969
22.20805,51161
22.21617,55782
22.22428,58143
22.23242,56785
22.24053,59570
22.24867,58417
22.25678,58671
22.26490,61211
22.27303,65467
22.28115,68838
22.28927,76047
22.29740,78232
22.30552,81902
22.31365,85061
22.32177,79482
22.32988,78458
22.33802,73346
22.34613,66524
22.35427,66592
22.36238,65337
22.37050,63325
22.37863,68699
22.38675,76053
22.39487,95243
22.40300,115722
22.41112,146634
22.41925,180765
22.42737,205593
22.43548,198400
22.44362,186095
22.45173,164401
22.45987,136524
22.46798,108511
22.47610,106636
22.48423,109924
22.49235,123250
22.50048,127008
22.50860,143122
22.51672,156085
22.52485,166775
22.53297,158042
22.54108,143653
22.54922,134120
22.55733,115333
22.56547,104283
22.57358,97558
22.58170,91223
22.58983,84354
22.59795,80836
22.60608,76894
22.61420,69341
22.62232,66162
22.63045,62493
22.63857,63845
22.64670,62490
22.65482,68349
22.66293,67326
22.67107,69510
22.67918,70355
22.68730,62495
22.69543,66441
22.70355,69114
22.71168,72031
22.71980,79400
22.72792,81348
22.73605,72902
22.74417,72028
22.75230,69912
22.76042,61860
22.76853,64790
22.77667,65551
22.78478,62595
22.79290,67084
22.80103,75177
22.80915,76903
22.81728,90433
22.82540,84787
22.83352,81712
22.84165,84133
22.84977,78837
22.85790,78536
22.86602,96047
22.87413,118260
22.88227,150205
22.89038,189557
22.89852,211466
22.90663,219801
22.91475,228594
22.92288,228889
22.93100,226847
22.93912,209825
22.94725,201718
22.95537,172985
22.96350,157982
22.97162,146622
22.97973,137841
22.98787,131781
22.99598,127803
23.00412,119091
23.01223,119883
23.02035,118632
23.02848,113255
23.03660,117668
23.04472,118097
23.05285,117833
23.06097,120626
23.06910,122656
23.07722,123159
23.08533,121143
23.09347,116788
23.10158,117739
23.10972,121099
23.11783,107551
23.12595,102088
23.13408,105346
23.14220,104118
23.15033,100514
23.15845,107923
23.16657,101983
23.17470,101484
23.18282,104785
23.19093,100184
23.19907,100597
23.20718,101923
23.21532,102029
23.22343,94713
23.23155,90232
23.23968,93343
23.24780,103051
23.25593,109526
23.26405,106015
23.27217,115987
23.28030,115337
23.28842,108811
23.29655,104432
23.30467,99033
23.31278,95225
23.32092,100315
23.32903,102518
23.33715,122904
23.34528,135484
23.35340,163085
23.36153,185306
23.36965,200071
23.37777,213067
23.38590,196731
23.39402,169945
23.40215,156025
23.41027,138904
23.41838,122431
23.42652,115683
23.43463,110808
23.44275,111668
23.45088,104851
23.45900,100517
23.46713,100409
23.47525,92540
23.48337,94808
23.49150,89370
23.49962,89891
23.50775,85984
23.51587,95474
23.52398,91057
23.53212,88661
23.54023,87299
23.54837,91995
23.55648,101458
23.56460,118663
23.57273,141018
23.58085,190807
23.58897,253404
23.59710,331662
23.60522,379100
23.61335,405605
23.62147,380492
23.62958,322275
23.63772,251275
23.64583,206698
23.65397,183273
23.66208,171705
23.67020,170547
23.67833,161544
23.68645,157275
23.69458,140120
23.70270,125558
23.71082,113795
23.71895,107521
23.72707,97518
23.73518,95431
23.74332,98376
23.75143,123783
23.75957,209261
23.76768,418479
23.77580,842343
23.78393,1466446
23.79205,2177813
23.80018,2573666
23.80830,2652657
23.81642,2398865
23.82455,1892411
23.83267,1472590
23.84078,1109326
23.84892,850551
23.85703,693443
23.86517,536294
23.87328,463105
23.88140,404874
23.88953,376646
23.89765,332313
23.90578,316615
23.91390,305139
23.92202,287157
23.93015,268491
23.93827,255787
23.94640,234918
23.95452,219385
23.96263,203148
23.97077,189868
23.97888,176946
23.98700,171045
23.99513,164506
24.00325,173572
24.01138,191786
24.01950,234046
24.02762,292078
24.03575,343782
24.04387,378869
24.05200,360203
24.06012,306192
24.06823,230375
24.07637,185561
24.08448,152392
24.09260,133733
24.10073,129919
24.10885,123931
24.11698,123332
24.12510,130181
24.13322,133249
24.14135,148811
24.14947,166240
24.15760,177970
24.16572,180592
24.17383,176752
24.18197,174929
24.19008,166334
24.19822,161939
24.20633,169767
24.21445,157528
24.22258,155391
24.23070,140242
24.23882,133095
24.24695,117685
24.25507,113656
24.26320,103590
24.27132,94441
24.27943,96958
24.28757,94528
24.29568,92644
24.30382,95770
24.31193,90481
24.32005,96142
24.32818,101659
24.33630,93254
24.34443,96235
24.35255,89877
24.36067,90650
24.36880,82492
24.37692,88800
24.38503,98209
24.39317,118410
24.40128,140393
24.40942,153615
24.41753,160130
24.42565,149581
24.43378,122868
24.44190,107613
24.45003,89008
24.45815,85696
24.46627,82455
24.47440,78825
24.48252,84501
24.49063,91389
24.49877,90016
24.50688,102209
24.51502,105085
24.52313,112450
24.53125,113633
24.53938,131004
24.54750,136832
24.55563,142144
24.56375,149390
24.57187,151470
24.58000,141337
24.58812,124630
24.59625,107610
24.60437,99404
24.61248,93691
24.62062,86372
24.62873,83173
24.63685,87413
24.64498,92191
24.65310,98202
24.66123,106775
24.66935,113247
24.67747,115003
24.68560,121806
24.69372,125872
24.70185,129341
24.70997,132735
24.71808,134609
24.72622,133491
24.73433,132788
24.74247,129660
24.75058,129311
24.75870,130807
24.76683,135605
24.77495,135962
24.78307,145578
24.79120,147826
24.79932,148504
24.80745,153729
24.81557,155657
24.82368,164922
24.83182,171718
24.83993,185484
24.84807,202621
24.85618,243890
24.86430,306432
24.87243,386019
24.88055,496908
24.88867,612884
24.89680,696058
24.90492,693832
24.91305,630844
24.92117,489224
24.92928,361447
24.93742,269850
24.94553,208197
24.95367,171093
24.96178,151006
24.96990,139253
24.97803,128820
24.98615,132809
24.99428,132134
25.00240,128999
25.01052,124286
25.01865,129838
25.02677,127893
25.03488,119292
25.04302,118493
25.05113,128823
25.05927,122203
25.06738,122077
25.07550,122767
25.08363,123334
25.09175,139947
25.09988,174146
25.10800,287136
25.11612,532839
25.12425,1052074
25.13237,1816689
25.14048,2723290
25.14862,3382279
25.15673,3631429
25.16487,3224992
25.17298,2535210
25.18110,1699325
25.18923,1063766
25.19735,650699
25.20548,424461
25.21360,290107
25.22172,230253
25.22985,196367
25.23797,203677
25.24610,218351
25.25422,246456
25.26233,302583
25.27047,333785
25.27858,355638
25.28670,333242
25.29483,302288
25.30295,257678
25.31108,220066
25.31920,191576
25.32732,164432
25.33545,154508
25.34357,150862
25.35170,137657
25.35982,125815
25.36793,124377
25.37607,117613
25.38418,108887
25.39232,110133
25.40043,103439
25.40855,104765
25.41668,102040
25.42480,98221
25.43292,102624
25.44105,97361
25.44917,101148
25.45730,101087
25.46542,100057
25.47353,100967
25.48167,96686
25.48978,102972
25.49792,93756
25.50603,88237
25.51415,82598
25.52228,83405
25.53040,81141
25.53853,76416
25.54665,75282
25.55477,73413
25.56290,71759
25.57102,76042
25.57913,74604
25.58727,73274
25.59538,70798
25.60352,67024
25.61163,74501
25.61975,74791
25.62788,73341
25.63600,75696
25.64413,79691
25.65225,75040
25.66037,78397
25.66850,75705
25.67662,78582
25.68473,68075
25.69287,60149
25.70098,63285
25.70912,68799
25.71723,69853
25.72535,63967
25.73348,62405
25.74160,65208
25.74973,63957
25.75785,64567
25.76597,63897
25.77410,66554
25.78222,67004
25.79035,68587
25.79847,74267
25.80658,68656
25.81472,68501
25.82283,69688
25.83095,70371
25.83908,76205
25.84720,69492
25.85533,70367
25.86345,78062
25.87157,85920
25.87970,89331
25.88782,101596
25.89595,110281
25.90407,117221
25.91218,121180
25.92032,120039
25.92843,121064
25.93655,125661
25.94468,126824
25.95280,126209
25.96093,133897
25.96905,128571
25.97717,135927
25.98530,135288
25.99342,128365
26.00155,126951
26.00967,124208
26.01778,126664
26.02592,126705
26.03403,128525
26.04217,128093
26.05028,128966
26.05840,128177
26.06653,127236
26.07465,131985
26.08277,134952
26.09090,136109
26.09902,133139
26.10715,140818
26.11527,136315
26.12338,135176
26.13152,135886
26.13963,142809
26.14777,150129
26.15588,150919
26.16400,147378
26.17213,151656
26.18025,146472
26.18838,140480
26.19650,127961
26.20462,131159
26.21275,126814
26.22087,121731
26.22898,125681
26.23712,112808
26.24523,120750
26.25337,110650
26.26148,110004
26.26960,108758
26.27773,108555
26.28585,113549
26.29398,113060
26.30210,104780
26.31022,105368
26.31835,100150
26.32647,100917
26.33458,100926
26.34272,109713
26.35083,126097
26.35897,150455
26.36708,206494
26.37520,305374
26.38333,443016
26.39145,570680
26.39958,715530
26.40770,764846
26.41582,724464
26.42395,612154
26.43207,474403
26.44020,356677
26.44832,255368
26.45643,183902
26.46457,157048
26.47268,131321
26.48080,121772
26.48893,113941
26.49705,104929
26.50518,102797
26.51330,102953
26.52142,94311
26.52955,89973
26.53767,93728
26.54580,87813
26.55392,90981
26.56203,81238
26.57017,80149
26.57828,83378
26.58642,77955
26.59453,78817
26.60265,77343
26.61078,80214
26.61890,79632
26.62702,74589
26.63515,74113
26.64327,74615
26.65140,74214
26.65952,77885
26.66763,78062
26.67577,80321
26.68388,74137
26.69202,80701
26.70013,75316
26.70825,70885
26.71638,73129
26.72450,73159
26.73262,68220
26.74075,68936
26.74887,72744
26.75700,73173
26.76512,73588
26.77323,75584
26.78137,75460
26.78948,69388
26.79762,77230
26.80573,70274
26.81385,76552
26.82198,73408
26.83010,69860
26.83823,73275
26.84635,67422
26.85447,71825
26.86260,70928
26.87072,69789
26.87883,67591
26.88697,64987
26.89508,64597
26.90322,66995
26.91133,65578
26.91945,61734
26.92758,62389
26.93570,64557
26.94383,67113
26.95195,63778
26.96007,65347
26.96820,71750
26.97632,85829
26.98443,105640
26.99257,151299
27.00068,237684
27.00882,331616
27.01693,442923
27.02505,554113
27.03318,621885
27.04130,627955
27.04943,585548
27.05755,493154
27.06567,410219
27.07380,332593
27.08192,275120
27.09005,240485
27.09817,217813
27.10628,198202
27.11442,167209
27.12253,161377
27.13065,155953
27.13878,146555
27.14690,135884
27.15503,146903
27.16315,142277
27.17127,159476
27.17940,168534
27.18752,171583
27.19565,172539
27.20377,175630
27.21188,162831
27.22002,156105
27.22813,139907
27.23627,130175
27.24438,118671
27.25250,113605
27.26063,108574
27.26875,97963
27.27687,102780
27.28500,93637
27.29312,91001
27.30125,94528
27.30937,85687
27.31748,85568
27.32562,86657
27.33373,85543
27.34187,87301
27.34998,89508
27.35810,91488
27.36623,86737
27.37435,86257
27.38247,85369
27.39060,85482
27.39872,87459
27.40685,81197
27.41497,77629
27.42308,75948
27.43122,77663
27.43933,74712
27.44747,79328
27.45558,71984
27.46370,73077
27.47183,72011
27.47995,71052
27.48808,70082
27.49620,66240
27.50432,70359
27.51245,65864
27.52057,69384
27.52868,74085
27.53682,76719
27.54493,69610
27.55307,74472
27.56118,72654
27.56930,73439
27.57743,79590
27.58555,84254
27.59368,96554
27.60180,102164
27.60992,105104
27.61805,98319
27.62617,93037
27.63430,86436
27.64242,80378
27.65053,74320
27.65867,71839
27.66678,72273
27.67490,74889
27.68303,81428
27.69115,79546
27.69928,81256
27.70740,76031
27.71552,74394
27.72365,73217
27.73177,69766
27.73990,60041
27.74802,63116
27.75613,63438
27.76427,63170
27.77238,67017
27.78050,67653
27.78863,67625
27.79675,67071
27.80488,73951
27.81300,66686
27.82112,67482
27.82925,62819
27.83737,63458
27.84550,60568
27.85362,59710
27.86173,59140
27.86987,59446
27.87798,62964
27.88612,61848
27.89423,57179
27.90235,56614
27.91048,58736
27.91860,58090
27.92672,57287
27.93485,59064
27.94297,54596
27.95110,55562
27.95922,51323
27.96733,57622
27.97547,57715
27.98358,59571
27.99172,59241
27.99983,60316
28.00795,64426
28.01608,69710
28.02420,78173
28.03233,90754
28.04045,103859
28.04857,120638
28.05670,128854
28.06482,122244
28.07293,113149
28.08107,97216
28.08918,81097
28.09732,75302
28.10543,69349
28.11355,64812
28.12168,58220
28.12980,58321
28.13793,58511
28.14605,56787
28.15417,57012
28.16230,53357
28.17042,54425
28.17853,63119
28.18667,59998
28.19478,66149
28.20292,77771
28.21103,85489
28.21915,93891
28.22728,102437
28.23540,100636
28.24353,94736
28.25165,84755
28.25977,79950
28.26790,68426
28.27602,64148
28.28415,59350
28.29227,63763
28.30038,65372
28.30852,75028
28.31663,82700
28.32475,91730
28.33288,99966
28.34100,112123
28.34913,125122
28.35725,135781
28.36537,157250
28.37350,163721
28.38162,166669
28.38975,183677
28.39787,185263
28.40598,180413
28.41412,185793
28.42223,175410
28.43035,158684
28.43848,149349
28.44660,137172
28.45473,125861
28.46285,125140
28.47097,114705
28.47910,111830
28.48722,110762
28.49535,118186
28.50347,117510
28.51158,122410
28.51972,110858
28.52783,115049
28.53597,104422
28.54408,94809
28.55220,82896
28.56033,80549
28.56845,80911
28.57657,78465
28.58470,72230
28.59282,72816
28.60095,70606
28.60907,75304
28.61718,79428
28.62532,82980
28.63343,81969
28.64157,92014
28.64968,90174
28.65780,93761
28.66593,96103
28.67405,96244
28.68218,92010
28.69030,90706
28.69842,78677
28.70655,71391
28.71467,72493
28.72278,65782
28.73092,65774
28.73903,66781
28.74717,68747
28.75528,70877
28.76340,77627
28.77153,90409
28.77965,97907
28.78778,102857
28.79590,96676
28.80402,97401
28.81215,92098
28.82027,80782
28.82838,77287
28.83652,70213
28.84463,72753
28.85277,65776
28.86088,61728
28.86900,72245
28.87713,67578
28.88525,74747
28.89338,78874
28.90150,74921
28.90962,76999
28.91775,78065
28.92587,74125
28.93400,72292
28.94212,70413
28.95023,72921
28.95837,71810
28.96648,76914
28.97460,71405
28.98273,63984
28.99085,68911
28.99898,67145
29.00710,62190
29.01522,58764
29.02335,58645
29.03147,58542
29.03960,57459
29.04772,59534
29.05583,60283
29.06397,60129
29.07208,59671
29.08022,60106
29.08833,60717
29.09645,64367
29.10458,60523
29.11270,60581
29.12082,55965
29.12895,57510
29.13707,54423
29.14520,53329
29.15332,57028
29.16143,55958
29.16957,56295
29.17768,61424
29.18582,65187
29.19393,66873
29.20205,76474
29.21018,92583
29.21830,93863
29.22642,98528
29.23455,106735
29.24267,105590
29.25080,123271
29.25892,147894
29.26703,161761
29.27517,168490
29.28328,166975
29.29142,145945
29.29953,125919
29.30765,97391
29.31578,78342
29.32390,67401
29.33203,67801
29.34015,57150
29.34827,58037
29.35640,56108
29.36452,56101
29.37263,51407
29.38077,55873
29.38888,59001
29.39702,56255
29.40513,59694
29.41325,58989
29.42138,63613
29.42950,60747
29.43763,60712
29.44575,63100
29.45387,58970
29.46200,57909
29.47012,57418
29.47823,56203
29.48637,62494
29.49448,62514
29.50262,66202
29.51073,66208
29.51885,65776
29.52698,63288
29.53510,66012
29.54323,61501
29.55135,57341
29.55947,58323
29.56760,57484
29.57572,53599
29.58385,48468
29.59197,47921
29.60008,49660
29.60822,49843
29.61633,48807
29.62445,56102
29.63258,51461
29.64070,50457
29.64883,49004
29.65695,50984
29.66507,53694
29.67320,50878
29.68132,50289
29.68945,53151
29.69757,57982
29.70568,53504
29.71382,57247
29.72193,59129
29.73007,52986
29.73818,49055
29.74630,47119
29.75443,54178
29.76255,52440
29.77067,45479
29.77880,45275
29.78692,45951
29.79505,47158
29.80317,45720
29.81128,46050
29.81942,46135
29.82753,48607
29.83567,50184
29.84378,49397
29.85190,45816
29.86003,51682
29.86815,60217
29.87628,65694
29.88440,89156
29.89252,116317
29.90065,143328
29.90877,152236
29.91688,144153
29.92502,125350
29.93313,103856
29.94127,81461
29.94938,66914
29.95750,67619
29.96563,68320
29.97375,72426
29.98188,74051
29.99000,75075
29.99812,87122
30.00625,90952
30.01437,96280
30.02248,103979
30.03062,102660
30.03873,104617
30.04687,106275
30.05498,109775
30.06310,109708
30.07123,114972
30.07935,111755
30.08748,104751
30.09560,107006
30.10372,103766
30.11185,102892
30.11997,95223
30.12810,96249
30.13622,92217
30.14433,88377
30.15247,83406
30.16058,87315
30.16870,80408
30.17683,83305
30.18495,85075
30.19308,91666
30.20120,89287
30.20932,92683
30.21745,88833
30.22557,83980
30.23370,79323
30.24182,71753
30.24993,69757
30.25807,61608
30.26618,60830
30.27430,57816
30.28243,60872
30.29055,58350
30.29868,58130
30.30680,56914
30.31492,60421
30.32305,61272
30.33117,55778
30.33930,59321
30.34742,59307
30.35553,55473
30.36367,57335
30.37178,58557
30.37992,56501
30.38803,54037
30.39615,57941
30.40428,57612
30.41240,54497
30.42052,56387
30.42865,49979
30.43677,54242
30.44490,53221
30.45302,51692
30.46113,47679
30.46927,50910
30.47738,51223
30.48552,50870
30.49363,52390
30.50175,55484
30.50988,52065
30.51800,50288
30.52613,49732
30.53425,46261
30.54237,50093
30.55050,50351
30.55862,50639
30.56673,50683
30.57487,53547
30.58298,52259
30.59112,53750
30.59923,49164
30.60735,51810
30.61548,51922
30.62360,49980
30.63173,49002
30.63985,47161
30.64797,47537
30.65610,51843
30.66422,47213
30.67233,46345
30.68047,50763
30.68858,49706
30.69672,47129
30.70483,45482
30.71295,49615
30.72108,45561
30.72920,46303
30.73733,45057
30.74545,49087
30.75357,52075
30.76170,53530
30.76982,55217
30.77795,58238
30.78607,71544
30.79418,86512
30.80232,111996
30.81043,134666
30.81855,144392
30.82668,134775
30.83480,119232
30.84293,100658
30.85105,79296
30.85917,65223
30.86730,68126
30.87542,65952
30.88355,63899
30.89167,64816
30.89978,61699
30.90792,57474
30.91603,57237
30.92417,53602
30.93228,53580
30.94040,52120
30.94853,50713
30.95665,48448
30.96477,50387
30.97290,48757
30.98102,49168
30.98915,48847
30.99727,48379
31.00538,47245
31.01352,52165
31.02163,49812
31.02977,49460
31.03788,46826
31.04600,50315
31.05413,55117
31.06225,52653
31.07037,46994
31.07850,57698
31.08662,57930
31.09475,63648
31.10287,74940
31.11098,76327
31.11912,78394
31.12723,74419
31.13537,66450
31.14348,68444
31.15160,63968
31.15973,69568
31.16785,73476
31.17598,67626
31.18410,80260
31.19222,89233
31.20035,107700
31.20847,135287
31.21658,154078
31.22472,175430
31.23283,182166
31.24097,172220
31.24908,151519
31.25720,125855
31.26533,107477
31.27345,89872
31.28158,75905
31.28970,69039
31.29782,64998
31.30595,69538
31.31407,63736
31.32218,65278
31.33032,68538
31.33843,70348
31.34657,63819
31.35468,64460
31.36280,65194
31.37093,60630
31.37905,63704
31.38718,63279
31.39530,62722
31.40342,64545
31.41155,62248
31.41967,65931
31.42780,68048
31.43592,62234
31.44403,61269
31.45217,59347
31.46028,60082
31.46840,64463
31.47653,56113
31.48465,66473
31.49278,64112
31.50090,66906
31.50902,69196
31.51715,71391
31.52527,68813
31.53340,67817
31.54152,70124
31.54963,68597
31.55777,66525
31.56588,66322
31.57402,62241
31.58213,64673
31.59025,66087
31.59838,60718
31.60650,64399
31.61462,61382
31.62275,56683
31.63087,54159
31.63900,59010
31.64712,58617
31.65523,58731
31.66337,63595
31.67148,58570
31.67962,60972
31.68773,64052
31.69585,60360
31.70398,61775
31.71210,54415
31.72022,53816
31.72835,52355
31.73647,51135
31.74460,53744
31.75272,58023
31.76083,51600
31.76897,56971
31.77708,51668
31.78522,54090
31.79333,54594
31.80145,55634
31.80958,57208
31.81770,54096
31.82583,56900
31.83395,57280
31.84207,58042
31.85020,55924
31.85832,57479
31.86643,56989
31.87457,56452
31.88268,56067
31.89082,58210
31.89893,57678
31.90705,66474
31.91518,64351
31.92330,70030
31.93143,74076
31.93955,73665
31.94767,80527
31.95580,86825
31.96392,91566
31.97205,96023
31.98017,103064
31.98828,103574
31.99642,108722
32.00453,107645
32.01265,106743
32.02078,103455
32.02890,104942
32.03703,98535
32.04515,95117
32.05327,88529
32.06140,90252
32.06952,89103
32.07765,83726
32.08577,80642
32.09388,80604
32.10202,80595
32.11013,73480
32.11825,73944
32.12638,66752
32.13450,65625
32.14263,63144
32.15075,67775
32.15887,66913
32.16700,69001
32.17512,62744
32.18325,64204
32.19137,64738
32.19948,62574
32.20762,66036
32.21573,62793
32.22387,60646
32.23198,58960
32.24010,57585
32.24823,60892
32.25635,62663
32.26447,60983
32.27260,67092
32.28072,62413
32.28885,62526
32.29697,60341
32.30508,58377
32.31322,61861
32.32133,60448
32.32947,56457
32.33758,64840
32.34570,68983
32.35383,69204
32.36195,66071
32.37007,69431
32.37820,66389
32.38632,67893
32.39445,61502
32.40257,56871
32.41068,56083
32.41882,55282
32.42693,55406
32.43507,58486
32.44318,49733
32.45130,56622
32.45943,54628
32.46755,57358
32.47568,55039
32.48380,53407
32.49192,51636
32.50005,56317
32.50817,52204
32.51628,55152
32.52442,54591
32.53253,54468
32.54067,50568
32.54878,52208
32.55690,57912
32.56503,58695
32.57315,51987
32.58128,54447
32.58940,54945
32.59752,51930
32.60565,51609
32.61377,49854
32.62190,51080
32.63002,53494
32.63813,51125
32.64627,53455
32.65438,61645
32.66250,65336
32.67063,69477
32.67875,75836
32.68688,75062
32.69500,71587
32.70312,68860
32.71125,59270
32.71937,60153
32.72750,61168
32.73562,55365
32.74373,58512
32.75187,54013
32.75998,60714
32.76810,49952
32.77623,51453
32.78435,52799
32.79248,53280
32.80060,51396
32.80872,50341
32.81685,55240
32.82497,56343
32.83310,52194
32.84122,54931
32.84933,50668
32.85747,50375
32.86558,51845
32.87372,51651
32.88183,56033
32.88995,60266
32.89808,62365
32.90620,62331
32.91432,65827
32.92245,67531
32.93057,64441
32.93870,60412
32.94682,55336
32.95493,57871
32.96307,58734
32.97118,59125
32.97932,65000
32.98743,69216
32.99555,77869
33.00368,76179
33.01180,89104
33.01993,82252
33.02805,80042
33.03617,70768
33.04430,65227
33.05242,58701
33.06053,66662
33.06867,64016
33.07678,69023
33.08492,76344
33.09303,79022
33.10115,86118
33.10928,95149
33.11740,94762
33.12553,94422
33.13365,94656
33.14177,87144
33.14990,79648
33.15802,66670
33.16613,67795
33.17427,62824
33.18238,60290
33.19052,56660
33.19863,57459
33.20675,61710
33.21488,56859
33.22300,57833
33.23113,58750
33.23925,57615
33.24737,58466
33.25550,57704
33.26362,58648
33.27175,57490
33.27987,54743
33.28798,54345
33.29612,59144
33.30423,57173
33.31235,58123
33.32048,55987
33.32860,59015
33.33673,57106
33.34485,57059
33.35297,65425
33.36110,67677
33.36922,67286
33.37735,64232
33.38547,59408
33.39358,58632
33.40172,55044
33.40983,52738
33.41797,52175
33.42608,47939
33.43420,54003
33.44233,52807
33.45045,49113
33.45857,52317
33.46670,49807
33.47482,48367
33.48295,53191
33.49107,53342
33.49918,53113
33.50732,53734
33.51543,52376
33.52357,54633
33.53168,57668
33.53980,55604
33.54793,56313
33.55605,57559
33.56417,58749
33.57230,60144
33.58042,58401
33.58855,55535
33.59667,54219
33.60478,55811
33.61292,53071
33.62103,50204
33.62917,56347
33.63728,58719
33.64540,56839
33.65353,54488
33.66165,57577
33.66978,57418
33.67790,58798
33.68602,53232
33.69415,53886
33.70227,54355
33.71038,53106
33.71852,54345
33.72663,50705
33.73477,56887
33.74288,54011
33.75100,48975
33.75913,48377
33.76725,52605
33.77538,51362
33.78350,52317
33.79162,47702
33.79975,51663
33.80787,51884
33.81598,50880
33.82412,51287
33.83223,50726
33.84037,50668
33.84848,49450
33.85660,52374
33.86473,57283
33.87285,55676
33.88098,60446
33.88910,54312
33.89722,55407
33.90535,57628
33.91347,54942
33.92160,56385
33.92972,55914
33.93783,57961
33.94597,54845
33.95408,52974
33.96220,52719
33.97033,59018
33.97845,57985
33.98658,52627
33.99470,51989
34.00282,53897
34.01095,52011
34.01907,47779
34.02720,55742
34.03532,50289
34.04343,53519
34.05157,52501
34.05968,55705
34.06782,54498
34.07593,50132
34.08405,56639
34.09218,46843
34.10030,54075
34.10842,50147
34.11655,52733
34.12467,53913
34.13280,49152
34.14092,56806
34.14903,55714
34.15717,54487
34.16528,52074
34.17342,51308
34.18153,52370
34.18965,52462
34.19778,53039
34.20590,51146
34.21402,56183
34.22215,52529
34.23027,53019
34.23840,54609
34.24652,54442
34.25463,52722
34.26277,55045
34.27088,50662
34.27902,54560
34.28713,56578
34.29525,52169
34.30338,54942
34.31150,55341
34.31963,52697
34.32775,54391
34.33587,58538
34.34400,54812
34.35212,55038
34.36023,57618
34.36837,57852
34.37648,53218
34.38462,60177
34.39273,53691
34.40085,55347
34.40898,51066
34.41710,51344
34.42523,54325
34.43335,50810
34.44147,54481
34.44960,50812
34.45772,52037
34.46585,49650
34.47397,52881
34.48208,53544
34.49022,53326
34.49833,56282
34.50645,52522
34.51458,56774
34.52270,60696
34.53083,70360
34.53895,78995
34.54707,95155
34.55520,97283
34.56332,97577
34.57145,100041
34.57957,101062
34.58768,99049
34.59582,93615
34.60393,86844
34.61205,81365
34.62018,83529
34.62830,79416
34.63643,78800
34.64455,71378
34.65267,73790
34.66080,70147
34.66892,65290
34.67705,64003
34.68517,67623
34.69328,64960
34.70142,65061
34.70953,62414
34.71767,61276
34.72578,59893
34.73390,65250
34.74203,60867
34.75015,58150
34.75827,60424
34.76640,62336
34.77452,53735
34.78265,56684
34.79077,58489
34.79888,60734
34.80702,65856
34.81513,61789
34.82327,57933
34.83138,54160
34.83950,53520
34.84763,60787
34.85575,61580
34.86387,60535
34.87200,55991
34.88012,56346
34.88825,55619
34.89637,63653
34.90448,62797
34.91262,58362
34.92073,61276
34.92887,62148
34.93698,62846
34.94510,66855
34.95323,62016
34.96135,64861
34.96948,69332
34.97760,70347
34.98572,67550
34.99385,64695
35.00197,65908
35.01008,64956
35.01822,60199
35.02633,65021
35.03447,63048
35.04258,62219
35.05070,60964
35.05883,61917
35.06695,65573
35.07508,60507
35.08320,60650
35.09132,62928
35.09945,57992
35.10757,60045
35.11570,58603
35.12382,60658
35.13193,60815
35.14007,61163
35.14818,56875
35.15630,58350
35.16443,69241
35.17255,65188
35.18068,63334
35.18880,60813
35.19692,60539
35.20505,56955
35.21317,56828
35.22130,53762
35.22942,58204
35.23753,53752
35.24567,51438
35.25378,55958
35.26190,57844
35.27003,62438
35.27815,62419
35.28628,59299
35.29440,62647
35.30252,57233
35.31065,53556
35.31877,59243
35.32690,55724
35.33502,58877
35.34313,58075
35.35127,52727
35.35938,57580
35.36752,55714
35.37563,56881
35.38375,60821
35.39188,61896
35.40000,60486
35.40812,69658
35.41625,66837
35.42437,66677
35.43250,70918
35.44062,69849
35.44873,66518
35.45687,66665
35.46498,73881
35.47312,69270
35.48123,71339
35.48935,62449
35.49748,63860
35.50560,61371
35.51373,65614
35.52185,62374
35.52997,59872
35.53810,64379
35.54622,56625
35.55433,58297
35.56247,57435
35.57058,56197
35.57872,58989
35.58683,57210
35.59495,58174
35.60308,59745
35.61120,55652
35.61933,58102
35.62745,54826
35.63557,59131
35.64370,58224
35.65182,57116
35.65993,61343
35.66807,61572
35.67618,61802
35.68432,64644
35.69243,68214
35.70055,65180
35.70868,63654
35.71680,61853
35.72493,58965
35.73305,63912
35.74117,65127
35.74930,69026
35.75742,75844
35.76555,75867
35.77367,86079
35.78178,76620
35.78992,69686
35.79803,69335
35.80615,69532
35.81428,66520
35.82240,65269
35.83053,62648
35.83865,63503
35.84677,62781
35.85490,57828
35.86302,66431
35.87115,61254
35.87927,57670
35.88738,58267
35.89552,59176
35.90363,62697
35.91177,60659
35.91988,58765
35.92800,57748
35.93613,61647
35.94425,60661
35.95237,64213
35.96050,61003
35.96862,60892
35.97675,56671
35.98487,65542
35.99298,59421
36.00112,67431
36.00923,60582
36.01737,64066
36.02548,70799
36.03360,68528
36.04173,62415
36.04985,70187
36.05797,67806
36.06610,65841
36.07422,61206
36.08235,60441
36.09047,64456
36.09858,63137
36.10672,61610
36.11483,63937
36.12297,64194
36.13108,69658
36.13920,68989
36.14733,66274
36.15545,68446
36.16358,68208
36.17170,69832
36.17982,65680
36.18795,59395
36.19607,61862
36.20418,65401
36.21232,58868
36.22043,63497
36.22857,64158
36.23668,67344
36.24480,60141
36.25293,57739
36.26105,61919
36.26918,57366
36.27730,60183
36.28542,61898
36.29355,64901
36.30167,72500
36.30980,75590
36.31792,79440
36.32603,88622
36.33417,82212
36.34228,77143
36.35040,75378
36.35853,69421
36.36665,67510
36.37478,67771
36.38290,63059
36.39102,63765
36.39915,62776
36.40727,65511
36.41540,64292
36.42352,67021
36.43163,61710
36.43977,64201
36.44788,64453
36.45600,61326
36.46413,67264
36.47225,64303
36.48038,62007
36.48850,65100
36.49662,63704
36.50475,59842
36.51287,63283
36.52100,66190
36.52912,62907
36.53723,57722
36.54537,63189
36.55348,62263
36.56162,63703
36.56973,61211
36.57785,60444
36.58598,62178
36.59410,56451
36.60222,60580
36.61035,60091
36.61847,56908
36.62660,67761
36.63472,62193
36.64283,65434
36.65097,65003
36.65908,66246
36.66722,65508
36.67533,62165
36.68345,65328
36.69158,67194
36.69970,67636
36.70782,72290
36.71595,67299
36.72407,64838
36.73220,69175
36.74032,65401
36.74843,65153
36.75657,68907
36.76468,68961
36.77282,64726
36.78093,70344
36.78905,65953
36.79718,66077
36.80530,67912
36.81343,69188
36.82155,64029
36.82967,61546
36.83780,63131
36.84592,62395
36.85403,67080
36.86217,67537
36.87028,69097
36.87842,62404
36.88653,64249
36.89465,66728
36.90278,69588
36.91090,67301
36.91903,65294
36.92715,65947
36.93527,69987
36.94340,71296
36.95152,79550
36.95965,83861
36.96777,85268
36.97588,83621
36.98402,87725
36.99213,85089
37.00025,80053
37.00838,75180
37.01650,71081
37.02463,68149
37.03275,71445
37.04087,77016
37.04900,70352
37.05712,70304
37.06525,68480
37.07337,76944
37.08148,70983
37.08962,73674
37.09773,75856
37.10585,73805
37.11398,77627
37.12210,69698
37.13023,76121
37.13835,72028
37.14647,73829
37.15460,73803
37.16272,73328
37.17085,69899
37.17897,70359
37.18708,71673
37.19522,75303
37.20333,71978
37.21147,75957
37.21958,75231
37.22770,73820
37.23583,69087
37.24395,71968
37.25207,66053
37.26020,71613
37.26832,70459
37.27645,68886
37.28457,68705
37.29268,70815
37.30082,67733
37.30893,66463
37.31707,72587
37.32518,77930
37.33330,84411
37.34143,87401
37.34955,94872
37.35768,98586
37.36580,95521
37.37392,98477
37.38205,97532
37.39017,99109
37.39828,98324
37.40642,99161
37.41453,91358
37.42267,92262
37.43078,92148
37.43890,87944
37.44703,86820
37.45515,88216
37.46328,83712
37.47140,87019
37.47952,81517
37.48765,79891
