C:\MassHunter\GCMS\1\data\JTB-E02\BACandBLUE\JTB-E18-011-04.D Tue Jun 18 07:17:21 2019
Start of data points
2.09515,73137
2.10327,76946
2.11140,87390
2.11952,97893
2.12765,111639
2.13577,132311
2.14388,147927
2.15202,167008
2.16013,172491
2.16827,187569
2.17638,194858
2.18450,191465
2.19263,188531
2.20075,185666
2.20887,188218
2.21700,186294
2.22512,174217
2.23325,171483
2.24137,164026
2.24948,160183
2.25762,160743
2.26573,273899
2.27387,2268559
2.28198,6716489
2.29010,5649180
2.29823,2685654
2.30635,1599643
2.31448,1199197
2.32260,1016960
2.33072,914754
2.33885,1109967
2.34697,1138205
2.35508,895910
2.36322,756031
2.37133,669873
2.37947,640089
2.38758,629318
2.39570,610586
2.40383,625928
2.41195,877850
2.42008,1181876
2.42820,2414182
2.43632,2172535
2.44445,1521916
2.45257,1277147
2.46068,1096858
2.46882,956568
2.47693,838936
2.48507,791950
2.49318,983491
2.50130,1313772
2.50943,1156368
2.51755,982166
2.52568,905734
2.53380,830339
2.54192,769887
2.55005,757896
2.55817,779186
2.56630,871036
2.57442,857439
2.58253,711261
2.59067,617418
2.59878,568958
2.60690,549677
2.61503,590296
2.62315,578060
2.63128,525305
2.63940,482578
2.64752,459498
2.65565,445984
2.66377,425037
2.67190,412413
2.68002,401152
2.68813,377459
2.69627,376724
2.70438,354366
2.71252,345648
2.72063,335245
2.72875,316773
2.73688,312908
2.74500,312189
2.75312,299088
2.76125,291713
2.76937,288648
2.77750,284314
2.78562,270325
2.79373,267822
2.80187,276109
2.80998,289718
2.81812,294029
2.82623,279160
2.83435,275753
2.84248,252645
2.85060,262083
2.85872,254791
2.86685,263164
2.87497,260141
2.88310,251265
2.89122,243153
2.89933,250749
2.90747,242798
2.91558,234263
2.92372,221442
2.93183,224050
2.93995,211257
2.94808,214219
2.95620,208733
2.96433,220603
2.97245,215334
2.98057,213999
2.98870,208345
2.99682,200427
3.00493,202961
3.01307,207726
3.02118,205026
3.02932,205465
3.03743,192201
3.04555,194901
3.05368,194230
3.06180,190996
3.06993,189238
3.07805,191897
3.08617,189717
3.09430,187460
3.10242,208749
3.11053,274491
3.11867,345932
3.12678,343361
3.13492,308122
3.14303,284277
3.15115,266009
3.15928,244840
3.16740,240954
3.17553,230117
3.18365,215125
3.19177,208017
3.19990,212815
3.20802,211268
3.21615,200021
3.22427,188785
3.23238,194841
3.24052,181449
3.24863,189987
3.25675,179698
3.26488,179077
3.27300,209502
3.28113,982154
3.28925,1.130948E+07
3.29737,5.119416E+07
3.30550,9.37025E+07
3.31362,1.29633E+08
3.32175,1.277395E+08
3.32987,1.126712E+08
3.33798,7.602219E+07
3.34612,5.929243E+07
3.35423,4.684479E+07
3.36237,3.737163E+07
3.37048,3.072506E+07
3.37860,2.590852E+07
3.38673,2.226499E+07
3.39485,1.938752E+07
3.40297,1.699645E+07
3.41110,1.507114E+07
3.41922,1.351313E+07
3.42735,1.217688E+07
3.43547,1.108579E+07
3.44358,1.020199E+07
3.45172,9438157
3.45983,8701501
3.46797,8167039
3.47608,7697480
3.48420,7293207
3.49233,6861356
3.50045,6543143
3.50857,6160621
3.51670,5920210
3.52482,5641953
3.53295,5383964
3.54107,5145219
3.54918,4938819
3.55732,4740260
3.56543,4583588
3.57357,4410495
3.58168,4217665
3.58980,4104348
3.59793,3959118
3.60605,3867229
3.61418,3756163
3.62230,3712327
3.63042,3594030
3.63855,3545750
3.64667,3417404
3.65478,3324068
3.66292,3283314
3.67103,3177298
3.67917,3106331
3.68728,3043141
3.69540,2985352
3.70353,2895370
3.71165,2814248
3.71978,2783662
3.72790,2710164
3.73602,2655590
3.74415,2600004
3.75227,2574445
3.76040,2521742
3.76852,2488158
3.77663,2419475
3.78477,2399903
3.79288,2362139
3.80100,2327890
3.80913,2289194
3.81725,2306897
3.82538,2255892
3.83350,2260191
3.84162,2186961
3.84975,2154571
3.85787,2107179
3.86600,2061320
3.87412,2044641
3.88223,2019291
3.89037,1975066
3.89848,1982249
3.90660,1931817
3.91473,1909152
3.92285,1892416
3.93098,1872516
3.93910,1845910
3.94722,1826462
3.95535,1825894
3.96347,1787699
3.97160,1756788
3.97972,1747904
3.98783,1708578
3.99597,1697104
4.00408,1675252
4.01222,1660582
4.02033,1678538
4.02845,1649965
4.03658,1638625
4.04470,1610268
4.05282,1581260
4.06095,1592191
4.06907,1578033
4.07720,1556229
4.08532,1513789
4.09343,1492827
4.10157,1471109
4.10968,1466937
4.11782,1428224
4.12593,1439453
4.13405,1470763
4.14218,1618646
4.15030,1931586
4.15843,2143291
4.16655,2124055
4.17467,1963108
4.18280,1792322
4.19092,1682162
4.19903,1593022
4.20717,1537839
4.21528,1473490
4.22342,1462041
4.23153,1437052
4.23965,1415282
4.24778,1386522
4.25590,1363412
4.26403,1307474
4.27215,1321528
4.28027,1294050
4.28840,1250129
4.29652,1220142
4.30463,1226607
4.31277,1217013
4.32088,1211285
4.32902,1239044
4.33713,1225839
4.34525,1252358
4.35338,1259906
4.36150,1312897
4.36963,1391708
4.37775,1444844
4.38587,1439936
4.39400,1380664
4.40212,1291868
4.41025,1243356
4.41837,1221354
4.42648,1174970
4.43462,1148762
4.44273,1138395
4.45085,1116721
4.45898,1115481
4.46710,1086401
4.47523,1065831
4.48335,1065089
4.49147,1048403
4.49960,1046814
4.50772,1060803
4.51585,1061280
4.52397,1047808
4.53208,1025192
4.54022,1015861
4.54833,997031
4.55647,985521
4.56458,971051
4.57270,967526
4.58083,953809
4.58895,944634
4.59707,951055
4.60520,953971
4.61332,956622
4.62145,942591
4.62957,934186
4.63768,918335
4.64582,918335
4.65393,909806
4.66207,877851
4.67018,891551
4.67830,876029
4.68643,878552
4.69455,853901
4.70267,849676
4.71080,843587
4.71892,820343
4.72705,821298
4.73517,819728
4.74328,804898
4.75142,801550
4.75953,801134
4.76767,798609
4.77578,789931
4.78390,799274
4.79203,788054
4.80015,787715
4.80828,784697
4.81640,773358
4.82452,778749
4.83265,769643
4.84077,765438
4.84888,763267
4.85702,758775
4.86513,760905
4.87327,753431
4.88138,762239
4.88950,754305
4.89763,759102
4.90575,746651
4.91388,764491
4.92200,907116
4.93012,2260687
4.93825,9926257
4.94637,3.302273E+07
4.95448,6.452471E+07
4.96262,8.743765E+07
4.97073,9.545934E+07
4.97887,9.123688E+07
4.98698,7.881754E+07
4.99510,6.246076E+07
5.00323,4.665554E+07
5.01135,3.47962E+07
5.01948,2.646406E+07
5.02760,2.073935E+07
5.03572,1.674631E+07
5.04385,1.383505E+07
5.05197,1.17284E+07
5.06010,1.016141E+07
5.06822,8919005
5.07633,7964720
5.08447,7202958
5.09258,6574388
5.10070,5935401
5.10883,5582285
5.11695,5175031
5.12508,4775850
5.13320,4506796
5.14132,4223384
5.14945,4031675
5.15757,3877044
5.16570,3705362
5.17382,3560365
5.18193,3428716
5.19007,3368314
5.19818,3256291
5.20632,3141628
5.21443,3020477
5.22255,2938576
5.23068,2856110
5.23880,2857776
5.24692,2873809
5.25505,2813245
5.26317,2670190
5.27130,2512165
5.27942,2419365
5.28753,2364572
5.29567,2309789
5.30378,2230396
5.31192,2195893
5.32003,2150158
5.32815,2119892
5.33628,2043015
5.34440,2027824
5.35252,2015530
5.36065,1971502
5.36877,1973406
5.37690,1939285
5.38502,1890937
5.39313,1852250
5.40127,1794612
5.40938,1760969
5.41752,1752279
5.42563,1682094
5.43375,1694888
5.44188,1687450
5.45000,1650918
5.45813,1616595
5.46625,1600405
5.47437,1590231
5.48250,1562766
5.49062,1540406
5.49873,1501435
5.50687,1485697
5.51498,1477816
5.52312,1482572
5.53123,1467771
5.53935,1418661
5.54748,1395405
5.55560,1374750
5.56373,1371354
5.57185,1362537
5.57997,1332021
5.58810,1342269
5.59622,1338303
5.60435,1330292
5.61247,1348911
5.62058,1373460
5.62872,1416393
5.63683,1499563
5.64495,1540317
5.65308,1523060
5.66120,1438729
5.66933,1348598
5.67745,1330595
5.68557,1359027
5.69370,1354124
5.70182,1349931
5.70995,1296019
5.71807,1244607
5.72618,1198125
5.73432,1182741
5.74243,1150168
5.75055,1135795
5.75868,1102578
5.76680,1106033
5.77493,1088468
5.78305,1074286
5.79117,1084647
5.79930,1082383
5.80742,1027578
5.81555,1030894
5.82367,1017645
5.83178,1023882
5.83992,1007060
5.84803,1001966
5.85617,996665
5.86428,984669
5.87240,960833
5.88053,951898
5.88865,947672
5.89677,950853
5.90490,925454
5.91302,830369
5.92115,721304
5.92927,665196
5.93738,673408
5.94552,660677
5.95363,668633
5.96177,675406
5.96988,687329
5.97800,738920
5.98613,770056
5.99425,786242
6.00237,811415
6.01050,782304
6.01862,742971
6.02675,703268
6.03487,682649
6.04298,681162
6.05112,671228
6.05923,649966
6.06737,641590
6.07548,648364
6.08360,640232
6.09173,629941
6.09985,625174
6.10798,603485
6.11610,602049
6.12422,607475
6.13235,609324
6.14047,597265
6.14858,617095
6.15672,591136
6.16483,574229
6.17297,590534
6.18108,598084
6.18920,592096
6.19733,586088
6.20545,575616
6.21358,573409
6.22170,562519
6.22982,560428
6.23795,548647
6.24607,554151
6.25420,567404
6.26232,554496
6.27043,560140
6.27857,564345
6.28668,555716
6.29480,542413
6.30293,522408
6.31105,518666
6.31918,522936
6.32730,528587
6.33542,534080
6.34355,529872
6.35167,532141
6.35980,532300
6.36792,534875
6.37603,515700
6.38417,511330
6.39228,504183
6.40040,517095
6.40853,511761
6.41665,523167
6.42478,516427
6.43290,537341
6.44102,589474
6.44915,631238
6.45727,650526
6.46540,630841
6.47352,583178
6.48163,538217
6.48977,535745
6.49788,544526
6.50602,511687
6.51413,505315
6.52225,488006
6.53038,487651
6.53850,501617
6.54662,497338
6.55475,490987
6.56287,480090
6.57100,463869
6.57912,458766
6.58723,441686
6.59537,440715
6.60348,437952
6.61162,442872
6.61973,448619
6.62785,439492
6.63598,441338
6.64410,436519
6.65223,430522
6.66035,432161
6.66847,440225
6.67660,431937
6.68472,427882
6.69283,420996
6.70097,417353
6.70908,411278
6.71722,402847
6.72533,405808
6.73345,413686
6.74158,418500
6.74970,426678
6.75783,412309
6.76595,420484
6.77407,413192
6.78220,405118
6.79032,396157
6.79843,402988
6.80657,392643
6.81468,397890
6.82282,395228
6.83093,397953
6.83905,404420
6.84718,384109
6.85530,363732
6.86343,309640
6.87155,280789
6.87967,260314
6.88780,253624
6.89592,258717
6.90405,235799
6.91217,230512
6.92028,215371
6.92842,207884
6.93653,203034
6.94465,205176
6.95278,191629
6.96090,196904
6.96903,200524
6.97715,201396
6.98527,196092
6.99340,188600
7.00152,188001
7.00965,191164
7.01777,189980
7.02588,192797
7.03402,190613
7.04213,188986
7.05027,182199
7.05838,189352
7.06650,193308
7.07463,181460
7.08275,183615
7.09087,184506
7.09900,177850
7.10712,174371
7.11525,174999
7.12337,177606
7.13148,173710
7.13962,169970
7.14773,164232
7.15587,166495
7.16398,180690
7.17210,173363
7.18023,176142
7.18835,175359
7.19647,183386
7.20460,183035
7.21272,196909
7.22085,200491
7.22897,203450
7.23708,196430
7.24522,190453
7.25333,181015
7.26147,164476
7.26958,175854
7.27770,163114
7.28583,163967
7.29395,165311
7.30208,166211
7.31020,171318
7.31832,169084
7.32645,167943
7.33457,166648
7.34268,164260
7.35082,162634
7.35893,160689
7.36707,153533
7.37518,156328
7.38330,151867
7.39143,160067
7.39955,160648
7.40768,170644
7.41580,178229
7.42392,181903
7.43205,207707
7.44017,243164
7.44828,293557
7.45642,314693
7.46453,313200
7.47267,294384
7.48078,249568
7.48890,216422
7.49703,189119
7.50515,171421
7.51328,167494
7.52140,163137
7.52952,160697
7.53765,158762
7.54577,156923
7.55390,151752
7.56202,159970
7.57013,160016
7.57827,157030
7.58638,155609
7.59450,154074
7.60263,152230
7.61075,154639
7.61888,156663
7.62700,148748
7.63512,153074
7.64325,148203
7.65137,148094
7.65950,152921
7.66762,151722
7.67573,147688
7.68387,150130
7.69198,148707
7.70012,149042
7.70823,145625
7.71635,142650
7.72448,150229
7.73260,143059
7.74072,143757
7.74885,143047
7.75697,143281
7.76510,140774
7.77322,147538
7.78133,145743
7.78947,149834
7.79758,156501
7.80572,164173
7.81383,167705
7.82195,157559
7.83008,160344
7.83820,144465
7.84632,149208
7.85445,143116
7.86257,133565
7.87070,131180
7.87882,132121
7.88693,136265
7.89507,132167
7.90318,134572
7.91132,134054
7.91943,133477
7.92755,135496
7.93568,131375
7.94380,142474
7.95193,141669
7.96005,147222
7.96817,145804
7.97630,152906
7.98442,168812
7.99253,166070
8.00067,163534
8.00878,156679
8.01692,143217
8.02503,138760
8.03315,137593
8.04128,127269
8.04940,132386
8.05753,130700
8.06565,135756
8.07377,139078
8.08190,138953
8.09002,142206
8.09815,144711
8.10627,143066
8.11438,146563
8.12252,144141
8.13063,143753
8.13875,143218
8.14688,148575
8.15500,145617
8.16313,153652
8.17125,158939
8.17937,173520
8.18750,178010
8.19562,182605
8.20375,172319
8.21187,163791
8.21998,150822
8.22812,147504
8.23623,147150
8.24435,137560
8.25248,139563
8.26060,146501
8.26873,144137
8.27685,141138
8.28497,141149
8.29310,136445
8.30122,139251
8.30935,136375
8.31747,134685
8.32558,140075
8.33372,153771
8.34183,179587
8.34997,198993
8.35808,217502
8.36620,217006
8.37433,196262
8.38245,176963
8.39057,167953
8.39870,156292
8.40682,147669
8.41495,148006
8.42307,151466
8.43118,155788
8.43932,150723
8.44743,150519
8.45557,154036
8.46368,142357
8.47180,141697
8.47993,145955
8.48805,144754
8.49617,152969
8.50430,165577
8.51242,190678
8.52055,217165
8.52867,216943
8.53678,204841
8.54492,190639
8.55303,172738
8.56117,163261
8.56928,159373
8.57740,156549
8.58553,148522
8.59365,154875
8.60178,145719
8.60990,145050
8.61802,153479
8.62615,142948
8.63427,147907
8.64238,145771
8.65052,144790
8.65863,140902
8.66677,141507
8.67488,140534
8.68300,145925
8.69113,138900
8.69925,136616
8.70738,143119
8.71550,131341
8.72362,142547
8.73175,133965
8.73987,153551
8.74800,264690
8.75612,828166
8.76423,3236397
8.77237,1.035108E+07
8.78048,2.416892E+07
8.78860,3.848156E+07
8.79673,4.514178E+07
8.80485,4.28866E+07
8.81298,3.432046E+07
8.82110,2.538265E+07
8.82922,1.791881E+07
8.83735,1.268988E+07
8.84547,9388812
8.85360,6910132
8.86172,5138005
8.86983,3962662
8.87797,3276682
8.88608,2732196
8.89422,2379969
8.90233,2050208
8.91045,1837582
8.91858,1673285
8.92670,1555610
8.93482,1433872
8.94295,1354177
8.95107,1247089
8.95920,1174619
8.96732,1145205
8.97543,1056578
8.98357,1005710
8.99168,976444
8.99982,921357
9.00793,897392
9.01605,849965
9.02418,820358
9.03230,787627
9.04042,762978
9.04855,754389
9.05667,731968
9.06480,704661
9.07292,686768
9.08103,653698
9.08917,649456
9.09728,631648
9.10542,606235
9.11353,598943
9.12165,588897
9.12978,582280
9.13790,572371
9.14603,573348
9.15415,563456
9.16227,574605
9.17040,590767
9.17852,631176
9.18663,637407
9.19477,636675
9.20288,615567
9.21102,569057
9.21913,540619
9.22725,515234
9.23538,498877
9.24350,477326
9.25163,473411
9.25975,459506
9.26787,447362
9.27600,441497
9.28412,433025
9.29223,426013
9.30037,413420
9.30848,409568
9.31662,395308
9.32473,390172
9.33285,394530
9.34098,380211
9.34910,384415
9.35723,380917
9.36535,370431
9.37347,362704
9.38160,366493
9.38972,358658
9.39785,365978
9.40597,349124
9.41408,350055
9.42222,345267
9.43033,342636
9.43845,338747
9.44658,335559
9.45470,337765
9.46283,346192
9.47095,331753
9.47907,329836
9.48720,324268
9.49532,336035
9.50345,322805
9.51157,336336
9.51968,348095
9.52782,370060
9.53593,387630
9.54407,414754
9.55218,410177
9.56030,375886
9.56843,336336
9.57655,292057
9.58467,270253
9.59280,254169
9.60092,260596
9.60905,248411
9.61717,246162
9.62528,229090
9.63342,215391
9.64153,210305
9.64967,208520
9.65778,202028
9.66590,207740
9.67403,308934
9.68215,835250
9.69027,1160708
9.69840,820359
9.70652,433175
9.71465,347896
9.72277,342453
9.73088,330022
9.73902,289328
9.74713,286259
9.75527,384960
9.76338,573908
9.77150,524515
9.77963,420263
9.78775,388788
9.79588,418950
9.80400,395070
9.81212,355622
9.82025,353701
9.82837,340733
9.83648,336675
9.84462,313922
9.85273,305214
9.86087,285448
9.86898,267575
9.87710,251596
9.88523,254465
9.89335,246297
9.90148,240198
9.90960,239732
9.91772,231343
9.92585,225701
9.93397,206538
9.94210,213405
9.95022,216672
9.95833,211912
9.96647,224276
9.97458,245447
9.98270,269526
9.99083,320193
9.99895,426915
10.00708,564528
10.01520,1018182
10.02332,1.029115E+07
10.03145,4.229349E+07
10.03957,5.738274E+07
10.04770,3.664561E+07
10.05582,1.851957E+07
10.06393,1.056376E+07
10.07207,6637730
10.08018,4489211
10.08830,3176524
10.09643,2359138
10.10455,1851279
10.11268,1493921
10.12080,1240929
10.12892,1086524
10.13705,936605
10.14517,846812
10.15330,764722
10.16142,698252
10.16953,652536
10.17767,601943
10.18578,563149
10.19392,514866
10.20203,520960
10.21015,523102
10.21828,552369
10.22640,643058
10.23452,737774
10.24265,790115
10.25077,769541
10.25890,677794
10.26702,590475
10.27513,502624
10.28327,453350
10.29138,421526
10.29952,420778
10.30763,413802
10.31575,414864
10.32388,419043
10.33200,405270
10.34012,388926
10.34825,392690
10.35637,431831
10.36450,443310
10.37262,417334
10.38073,386331
10.38887,362068
10.39698,329060
10.40512,327237
10.41323,440899
10.42135,2825034
10.42948,1.730249E+07
10.43760,3.514589E+07
10.44573,3.106874E+07
10.45385,1.755999E+07
10.46197,9728829
10.47010,6228642
10.47822,4285630
10.48633,3106271
10.49447,2386846
10.50258,1880711
10.51072,1519929
10.51883,1279247
10.52695,1108675
10.53508,959868
10.54320,845246
10.55133,759901
10.55945,705775
10.56757,641182
10.57570,613163
10.58382,567169
10.59195,537294
10.60007,501193
10.60818,475553
10.61632,444177
10.62443,432546
10.63255,417777
10.64068,402045
10.64880,388296
10.65693,373243
10.66505,362759
10.67317,355779
10.68130,348770
10.68942,339369
10.69755,343792
10.70567,343528
10.71378,334557
10.72192,332000
10.73003,330420
10.73815,323075
10.74628,327774
10.75440,319064
10.76253,325834
10.77065,331078
10.77877,334161
10.78690,327036
10.79502,320062
10.80315,302968
10.81127,301169
10.81938,295799
10.82752,295046
10.83563,301779
10.84377,306213
10.85188,320531
10.86000,318173
10.86813,289673
10.87625,286091
10.88437,288845
10.89250,286963
10.90062,277348
10.90875,260110
10.91687,259104
10.92498,265849
10.93312,280971
10.94123,285976
10.94937,325257
10.95748,347018
10.96560,353389
10.97373,331897
10.98185,304986
10.98998,289600
10.99810,272043
11.00622,268355
11.01435,271929
11.02247,255404
11.03058,258872
11.03872,270186
11.04683,308370
11.05497,370210
11.06308,366492
11.07120,305959
11.07933,308021
11.08745,306497
11.09558,301446
11.10370,289595
11.11182,275108
11.11995,271421
11.12807,259473
11.13618,255701
11.14432,262067
11.15243,261069
11.16057,290413
11.16868,380124
11.17680,538744
11.18493,757164
11.19305,998417
11.20118,1127113
11.20930,1142830
11.21742,1026844
11.22555,862144
11.23367,687122
11.24180,525349
11.24992,402364
11.25803,343721
11.26617,308654
11.27428,278069
11.28240,262472
11.29053,248537
11.29865,246808
11.30678,241982
11.31490,246397
11.32302,249982
11.33115,250719
11.33927,240949
11.34740,248782
11.35552,233398
11.36363,233291
11.37177,235605
11.37988,234179
11.38800,231044
11.39613,227168
11.40425,224368
11.41238,217503
11.42050,220663
11.42862,218735
11.43675,213693
11.44487,214389
11.45300,208716
11.46112,210292
11.46923,216310
11.47737,211024
11.48548,212516
11.49362,201906
11.50173,207365
11.50985,199668
11.51798,202718
11.52610,202552
11.53422,209488
11.54235,212545
11.55047,214097
11.55860,212380
11.56672,205119
11.57483,206401
11.58297,202995
11.59108,206197
11.59922,204704
11.60733,201318
11.61545,198373
11.62358,206726
11.63170,206898
11.63983,207547
11.64795,200775
11.65607,200860
11.66420,191704
11.67232,196111
11.68043,188576
11.68857,197495
11.69668,204747
11.70482,222658
11.71293,262260
11.72105,499504
11.72918,1625289
11.73730,4394374
11.74543,7383297
11.75355,7518714
11.76167,5558857
11.76980,3495451
11.77792,2338648
11.78603,1670603
11.79417,1266903
11.80228,994273
11.81042,781479
11.81853,655585
11.82665,553453
11.83478,501206
11.84290,447509
11.85103,415936
11.85915,374342
11.86727,362889
11.87540,340487
11.88352,317385
11.89165,300679
11.89977,296217
11.90788,279695
11.91602,276545
11.92413,284687
11.93225,296971
11.94038,309476
11.94850,312419
11.95663,274727
11.96475,259913
11.97287,246848
11.98100,235201
11.98912,235392
11.99725,233245
12.00537,233786
12.01348,228106
12.02162,224466
12.02973,222626
12.03787,226726
12.04598,228973
12.05410,229808
12.06223,232333
12.07035,228075
12.07847,228748
12.08660,219154
12.09472,220920
12.10285,214570
12.11097,206810
12.11908,216403
12.12722,218383
12.13533,227275
12.14347,234466
12.15158,233756
12.15970,234369
12.16783,234514
12.17595,233780
12.18407,235594
12.19220,231211
12.20032,218620
12.20845,217841
12.21657,214267
12.22468,211673
12.23282,218314
12.24093,219010
12.24907,217225
12.25718,208926
12.26530,204905
12.27343,207984
12.28155,204083
12.28968,205236
12.29780,211674
12.30592,214585
12.31405,217976
12.32217,234253
12.33028,227403
12.33842,222770
12.34653,219670
12.35467,229323
12.36278,233808
12.37090,236232
12.37903,227149
12.38715,228410
12.39528,228030
12.40340,232042
12.41152,234303
12.41965,236153
12.42777,229301
12.43590,239963
12.44402,239709
12.45213,240880
12.46027,245128
12.46838,254698
12.47650,253462
12.48463,259295
12.49275,234251
12.50088,229350
12.50900,229299
12.51712,224341
12.52525,224672
12.53337,229618
12.54150,226920
12.54962,229078
12.55773,248365
12.56587,288995
12.57398,307916
12.58210,310241
12.59023,289686
12.59835,258222
12.60648,239060
12.61460,223303
12.62272,216773
12.63085,214159
12.63897,211986
12.64710,208980
12.65522,201937
12.66333,207647
12.67147,212654
12.67958,218573
12.68772,216037
12.69583,230283
12.70395,228826
12.71208,232456
12.72020,235385
12.72832,240567
12.73645,256497
12.74457,265549
12.75270,278545
12.76082,270722
12.76893,258049
12.77707,244494
12.78518,237587
12.79332,227928
12.80143,226976
12.80955,219630
12.81768,219134
12.82580,216778
12.83392,233168
12.84205,258048
12.85017,273551
12.85830,285668
12.86642,274024
12.87453,254346
12.88267,240443
12.89078,224250
12.89892,230290
12.90703,220056
12.91515,216375
12.92328,210953
12.93140,212391
12.93953,208987
12.94765,207319
12.95577,224325
12.96390,233555
12.97202,228085
12.98013,230164
12.98827,219274
12.99638,218334
13.00452,216568
13.01263,216722
13.02075,217708
13.02888,212761
13.03700,215224
13.04513,215362
13.05325,213492
13.06137,208545
13.06950,207861
13.07762,210470
13.08575,220944
13.09387,218891
13.10198,220108
13.11012,222004
13.11823,232209
13.12635,224314
13.13448,218078
13.14260,228622
13.15073,232710
13.15885,227388
13.16697,245064
13.17510,283752
13.18322,386151
13.19135,530470
13.19947,661874
13.20758,753673
13.21572,760833
13.22383,653078
13.23195,507187
13.24008,388070
13.24820,304936
13.25633,281746
13.26445,289472
13.27257,309662
13.28070,350090
13.28882,358515
13.29695,371665
13.30507,316920
13.31318,282373
13.32132,268802
13.32943,256569
13.33757,242510
13.34568,245182
13.35380,235674
13.36193,238796
13.37005,240489
13.37817,239819
13.38630,239084
13.39442,257694
13.40255,259006
13.41067,260181
13.41878,260788
13.42692,247646
13.43503,238809
13.44317,234061
13.45128,237787
13.45940,244349
13.46753,230978
13.47565,230038
13.48378,231457
13.49190,236925
13.50002,239988
13.50815,242621
13.51627,244327
13.52438,241530
13.53252,245287
13.54063,248176
13.54877,249286
13.55688,251963
13.56500,250324
13.57313,260619
13.58125,257785
13.58938,253423
13.59750,257109
13.60562,250054
13.61375,250818
13.62187,247353
13.62998,254201
13.63812,251834
13.64623,242793
13.65437,242657
13.66248,239800
13.67060,241112
13.67873,237146
13.68685,233209
13.69498,244060
13.70310,238753
13.71122,243555
13.71935,249261
13.72747,243285
13.73560,230534
13.74372,236262
13.75183,247604
13.75997,242025
13.76808,240363
13.77620,248786
13.78433,261380
13.79245,251082
13.80058,257467
13.80870,254826
13.81682,264741
13.82495,269771
13.83307,256357
13.84120,256737
13.84932,268963
13.85743,265712
13.86557,269100
13.87368,276108
13.88180,269288
13.88993,277144
13.89805,286866
13.90618,320053
13.91430,364451
13.92242,429697
13.93055,482615
13.93867,501281
13.94680,475910
13.95492,415865
13.96303,364962
13.97117,309024
13.97928,287564
13.98742,281320
13.99553,268700
14.00365,264807
14.01178,277962
14.01990,266689
14.02802,271511
14.03615,283664
14.04427,318484
14.05240,371340
14.06052,443723
14.06863,485857
14.07677,502729
14.08488,473456
14.09302,424365
14.10113,364245
14.10925,305406
14.11738,286533
14.12550,280450
14.13363,270071
14.14175,272730
14.14987,280099
14.15800,330994
14.16612,561678
14.17423,1377435
14.18237,3736215
14.19048,8020805
14.19862,1.28069E+07
14.20673,1.509025E+07
14.21485,1.416598E+07
14.22298,1.113075E+07
14.23110,7855746
14.23923,4941342
14.24735,3151832
14.25547,2080723
14.26360,1546708
14.27172,1230519
14.27985,1062026
14.28797,933663
14.29608,822889
14.30422,748594
14.31233,703449
14.32045,677768
14.32858,628320
14.33670,583345
14.34483,546342
14.35295,495392
14.36107,460120
14.36920,434717
14.37732,406888
14.38545,383329
14.39357,361061
14.40168,341198
14.40982,313558
14.41793,307132
14.42605,304574
14.43418,308198
14.44230,290167
14.45043,296895
14.45855,285637
14.46667,285299
14.47480,287912
14.48292,276663
14.49105,284793
14.49917,285128
14.50728,283732
14.51542,292957
14.52353,312906
14.53167,320596
14.53978,326407
14.54790,323484
14.55603,306236
14.56415,305262
14.57227,295091
14.58040,275447
14.58852,272978
14.59665,278506
14.60477,272577
14.61288,266753
14.62102,265193
14.62913,266591
14.63727,256851
14.64538,258483
14.65350,253733
14.66163,245353
14.66975,247806
14.67787,250648
14.68600,249922
14.69412,250140
14.70225,254176
14.71037,254818
14.71848,262097
14.72662,262152
14.73473,267512
14.74287,257998
14.75098,265674
14.75910,249299
14.76723,249447
14.77535,268412
14.78348,251602
14.79160,258992
14.79972,264282
14.80785,265402
14.81597,273456
14.82408,280044
14.83222,287831
14.84033,297635
14.84847,296366
14.85658,308704
14.86470,316963
14.87283,315165
14.88095,307550
14.88908,313295
14.89720,305899
14.90532,297958
14.91345,304860
14.92157,293047
14.92970,298717
14.93782,296740
14.94593,298325
14.95407,304872
14.96218,294149
14.97030,294275
14.97843,289934
14.98655,291917
14.99468,298782
15.00280,282166
15.01092,281481
15.01905,282247
15.02717,339009
15.03530,526415
15.04342,912908
15.05153,1487198
15.05967,1872072
15.06778,1841006
15.07590,1454882
15.08403,1027024
15.09215,692503
15.10028,548973
15.10840,452957
15.11652,384371
15.12465,352731
15.13277,328471
15.14090,303761
15.14902,301031
15.15713,281815
15.16527,277673
15.17338,273007
15.18152,274503
15.18963,270022
15.19775,271660
15.20588,268469
15.21400,258510
15.22212,256998
15.23025,258315
15.23837,259763
15.24650,244744
15.25462,246331
15.26273,250980
15.27087,241525
15.27898,242231
15.28712,241353
15.29523,241179
15.30335,231750
15.31148,233875
15.31960,236425
15.32773,245258
15.33585,249888
15.34397,249843
15.35210,255764
15.36022,253953
15.36833,249063
15.37647,237302
15.38458,239300
15.39272,237606
15.40083,238423
15.40895,236322
15.41708,240935
15.42520,250491
15.43333,242131
15.44145,239778
15.44957,232768
15.45770,233402
15.46582,241639
15.47393,249087
15.48207,272914
15.49018,300723
15.49832,334018
15.50643,361224
15.51455,369427
15.52268,342596
15.53080,316011
15.53893,286158
15.54705,264612
15.55517,250707
15.56330,242160
15.57142,235731
15.57955,236881
15.58767,245353
15.59578,229900
15.60392,232755
15.61203,226962
15.62015,232943
15.62828,244269
15.63640,229297
15.64453,230287
15.65265,241640
15.66077,227067
15.66890,229800
15.67702,232990
15.68515,236049
15.69327,229529
15.70138,243513
15.70952,232582
15.71763,235162
15.72575,238077
15.73388,239529
15.74200,237278
15.75013,240594
15.75825,229765
15.76637,235705
15.77450,231578
15.78262,235298
15.79075,240742
15.79887,234740
15.80698,238464
15.81512,235840
15.82323,251218
15.83137,241519
15.83948,238759
15.84760,238394
15.85573,242818
15.86385,244769
15.87197,246711
15.88010,234550
15.88822,241010
15.89635,238275
15.90447,240526
15.91258,236531
15.92072,258636
15.92883,259231
15.93697,259834
15.94508,243154
15.95320,249623
15.96133,238968
15.96945,237252
15.97758,244784
15.98570,238803
15.99382,254230
16.00195,273744
16.01007,303768
16.01818,345752
16.02632,394329
16.03443,449777
16.04257,471126
16.05068,444964
16.05880,420578
16.06693,379177
16.07505,349547
16.08318,320211
16.09130,292699
16.09942,291411
16.10755,288486
16.11567,270526
16.12378,264450
16.13192,263811
16.14003,264180
16.14817,270274
16.15628,267120
16.16440,270292
16.17253,268479
16.18065,258842
16.18878,258987
16.19690,250761
16.20502,250101
16.21315,264320
16.22127,270971
16.22940,267939
16.23752,274262
16.24563,271044
16.25377,263674
16.26188,272099
16.27000,258062
16.27813,271346
16.28625,257462
16.29438,268432
16.30250,261556
16.31062,264813
16.31875,258658
16.32687,261607
16.33500,268450
16.34312,261899
16.35123,262490
16.35937,255824
16.36748,260224
16.37562,253632
16.38373,255835
16.39185,239653
16.39998,248872
16.40810,250049
16.41622,243483
16.42435,247809
16.43247,241008
16.44060,250919
16.44872,236374
16.45683,243219
16.46497,241831
16.47308,245197
16.48122,244399
16.48933,251192
16.49745,241431
16.50558,252750
16.51370,242847
16.52182,242666
16.52995,231967
16.53807,243210
16.54620,244286
16.55432,240881
16.56243,241750
16.57057,229442
16.57868,229249
16.58682,227572
16.59493,227920
16.60305,227901
16.61118,223719
16.61930,221261
16.62743,220181
16.63555,225942
16.64367,218479
16.65180,228285
16.65992,227084
16.66803,218279
16.67617,207649
16.68428,211575
16.69242,214055
16.70053,223411
16.70865,213209
16.71678,214847
16.72490,212042
16.73303,207480
16.74115,212446
16.74927,200979
16.75740,197762
16.76552,203197
16.77365,205717
16.78177,195978
16.78988,202859
16.79802,212343
16.80613,208721
16.81425,208642
16.82238,194427
16.83050,200321
16.83863,200875
16.84675,199745
16.85487,204673
16.86300,194716
16.87112,202107
16.87925,198483
16.88737,194635
16.89548,187922
16.90362,197739
16.91173,198214
16.91985,205718
16.92798,201490
16.93610,204901
16.94423,207037
16.95235,202078
16.96047,201996
16.96860,201516
16.97672,204613
16.98485,196726
16.99297,198672
17.00108,211903
17.00922,217866
17.01733,211182
17.02547,216172
17.03358,220374
17.04170,196890
17.04983,195279
17.05795,198885
17.06607,194765
17.07420,204641
17.08232,201706
17.09045,198489
17.09857,212120
17.10668,213760
17.11482,208053
17.12293,211163
17.13107,209802
17.13918,210765
17.14730,206770
17.15543,199338
17.16355,204897
17.17167,194496
17.17980,203568
17.18792,211839
17.19605,224544
17.20417,231284
17.21228,236449
17.22042,227090
17.22853,220723
17.23667,208416
17.24478,205320
17.25290,206479
17.26103,200430
17.26915,200146
17.27728,212786
17.28540,204571
17.29352,204123
17.30165,192787
17.30977,187434
17.31788,195721
17.32602,199308
17.33413,205607
17.34227,228756
17.35038,277170
17.35850,361212
17.36663,444949
17.37475,502384
17.38288,492553
17.39100,449225
17.39912,377628
17.40725,318720
17.41537,278238
17.42350,254854
17.43162,238420
17.43973,236032
17.44787,223914
17.45598,213786
17.46410,290642
17.47223,769492
17.48035,1168851
17.48848,805985
17.49660,493837
17.50472,428816
17.51285,446309
17.52097,640965
17.52910,626764
17.53722,578650
17.54533,560806
17.55347,503168
17.56158,498814
17.56970,430841
17.57783,393454
17.58595,354909
17.59408,344529
17.60220,564759
17.61032,1.417009E+07
17.61845,5.106589E+07
17.62657,4.471915E+07
17.63470,2.370414E+07
17.64282,1.46083E+07
17.65093,9813916
17.65907,6956029
17.66718,5200066
17.67532,3998609
17.68343,3262382
17.69155,2710178
17.69968,2409635
17.70780,6080129
17.71592,2.735121E+07
17.72405,3.030706E+07
17.73217,1.74378E+07
17.74030,1.122584E+07
17.74842,8109336
17.75653,6115892
17.76467,4849242
17.77278,3921612
17.78092,3272769
17.78903,2763332
17.79715,2387776
17.80528,2086126
17.81340,1858314
17.82153,1695894
17.82965,1517372
17.83777,1410912
17.84590,1302543
17.85402,1230093
17.86213,1155566
17.87027,1064735
17.87838,993114
17.88652,949837
17.89463,893700
17.90275,843231
17.91088,848436
17.91900,818889
17.92713,779014
17.93525,701860
17.94337,682670
17.95150,672980
17.95962,712855
17.96773,710729
17.97587,638133
17.98398,597368
17.99212,629184
18.00023,718295
18.00835,1266817
18.01648,3340862
18.02460,6264254
18.03273,5792278
18.04085,3962529
18.04897,2808880
18.05710,2237381
18.06522,1910083
18.07335,1666089
18.08147,1456461
18.08958,1336671
18.09772,1204613
18.10583,1113460
18.11395,1033399
18.12208,973275
18.13020,896534
18.13833,854548
18.14645,827453
18.15457,808276
18.16270,776620
18.17082,720674
18.17895,668376
18.18707,623678
18.19518,618347
18.20332,577668
18.21143,563969
18.21955,556883
18.22768,561919
18.23580,547058
18.24393,526602
18.25205,542504
18.26017,544131
18.26830,541316
18.27642,542334
18.28455,504502
18.29267,495205
18.30078,478749
18.30892,460497
18.31703,449091
18.32517,446882
18.33328,437181
18.34140,452419
18.34953,494900
18.35765,537730
18.36577,512855
18.37390,473184
18.38202,449772
18.39015,462558
18.39827,438895
18.40638,415149
18.41452,425605
18.42263,467435
18.43077,502446
18.43888,534331
18.44700,567216
18.45513,602892
18.46325,606183
18.47138,612872
18.47950,613389
18.48762,605519
18.49575,615548
18.50387,619820
18.51198,646546
18.52012,693155
18.52823,660299
18.53637,628302
18.54448,602338
18.55260,604502
18.56073,589987
18.56885,606353
18.57698,586226
18.58510,577799
18.59322,608923
18.60135,627590
18.60947,697032
18.61760,760821
18.62572,740614
18.63383,675051
18.64197,651707
18.65008,634612
18.65820,642418
18.66633,621432
18.67445,600686
18.68258,592057
18.69070,558412
18.69882,540207
18.70695,528217
18.71507,527284
18.72320,519696
18.73132,525416
18.73943,526989
18.74757,526244
18.75568,531100
18.76380,518762
18.77193,511563
18.78005,508353
18.78818,508120
18.79630,476083
18.80442,487527
18.81255,489600
18.82067,511481
18.82880,539484
18.83692,511524
18.84503,519126
18.85317,497917
18.86128,475501
18.86942,487227
18.87753,469337
18.88565,472173
18.89378,479324
18.90190,479316
18.91002,475667
18.91815,476853
18.92627,470321
18.93440,447653
18.94252,461998
18.95063,448320
18.95877,456750
18.96688,465089
18.97502,482387
18.98313,522391
18.99125,806647
18.99938,1361346
19.00750,1653583
19.01562,1428712
19.02375,1133676
19.03187,922909
19.04000,808051
19.04812,717947
19.05623,657553
19.06437,631572
19.07248,630042
19.08062,632501
19.08873,648487
19.09685,648261
19.10498,664440
19.11310,693970
19.12123,672376
19.12935,647394
19.13747,613292
19.14560,565571
19.15372,540198
19.16183,510734
19.16997,481013
19.17808,459198
19.18622,457138
19.19433,452138
19.20245,437456
19.21058,424952
19.21870,432451
19.22683,415095
19.23495,401348
19.24307,398032
19.25120,395948
19.25932,412613
19.26745,426324
19.27557,478856
19.28368,533158
19.29182,617978
19.29993,663846
19.30805,683743
19.31618,682999
19.32430,649009
19.33243,619907
19.34055,600625
19.34867,586582
19.35680,571869
19.36492,568295
19.37305,547821
19.38117,501812
19.38928,448271
19.39742,432805
19.40553,402225
19.41365,394839
19.42178,386178
19.42990,373833
19.43803,367066
19.44615,361614
19.45427,382349
19.46240,430890
19.47052,635152
19.47865,1269207
19.48677,2775513
19.49488,4952097
19.50302,6724403
19.51113,7044025
19.51927,6007063
19.52738,4234858
19.53550,2620920
19.54363,1514192
19.55175,908086
19.55987,595108
19.56800,453931
19.57612,422900
19.58425,414049
19.59237,421627
19.60048,415673
19.60862,420366
19.61673,466353
19.62487,637373
19.63298,1148106
19.64110,2321201
19.64923,4615718
19.65735,8104302
19.66548,1.180788E+07
19.67360,1.369051E+07
19.68172,1.309481E+07
19.68985,1.095784E+07
19.69797,7949125
19.70608,5493333
19.71422,3584105
19.72233,2437736
19.73047,1774517
19.73858,1355971
19.74670,1112921
19.75483,940055
19.76295,819117
19.77108,757509
19.77920,689085
19.78732,638992
19.79545,598071
19.80357,556621
19.81168,534432
19.81982,522498
19.82793,516777
19.83607,499206
19.84418,491083
19.85230,474817
19.86043,466732
19.86855,488323
19.87668,499114
19.88480,568762
19.89292,635812
19.90105,739183
19.90917,790218
19.91730,815031
19.92542,802199
19.93353,766841
19.94167,722469
19.94978,667602
19.95790,631852
19.96603,582634
19.97415,570925
19.98228,543790
19.99040,547359
19.99852,543693
20.00665,536650
20.01477,558738
20.02290,619206
20.03102,768265
20.03913,1017846
20.04727,1291690
20.05538,1488241
20.06350,1525757
20.07163,1374197
20.07975,1087533
20.08788,831455
20.09600,650994
20.10412,566770
20.11225,498224
20.12037,457024
20.12850,440312
20.13662,415601
20.14473,406100
20.15287,395596
20.16098,393629
20.16912,376826
20.17723,391269
20.18535,377997
20.19348,377643
20.20160,369081
20.20972,365578
20.21785,384222
20.22597,439986
20.23410,661127
20.24222,1272712
20.25033,2731656
20.25847,5630970
20.26658,9761929
20.27472,1.315073E+07
20.28283,1.432895E+07
20.29095,1.27153E+07
20.29908,1.019808E+07
20.30720,7193998
20.31533,4747099
20.32345,3077000
20.33157,2049419
20.33970,1444705
20.34782,1064653
20.35593,887499
20.36407,757988
20.37218,705372
20.38032,664019
20.38843,620689
20.39655,666011
20.40468,791869
20.41280,1096334
20.42093,1648446
20.42905,2448604
20.43717,3176372
20.44530,3603651
20.45342,3551261
20.46153,3025410
20.46967,2378986
20.47778,1766083
20.48592,1337756
20.49403,1056499
20.50215,929747
20.51028,941540
20.51840,1081533
20.52653,1338774
20.53465,1600487
20.54277,1750384
20.55090,1662346
20.55902,1434077
20.56715,1124353
20.57527,871185
20.58338,692810
20.59152,610417
20.59963,532666
20.60775,487870
20.61588,463307
20.62400,438686
20.63213,419570
20.64025,424157
20.64837,422143
20.65650,424314
20.66462,436087
20.67275,476237
20.68087,522159
20.68898,573283
20.69712,599670
20.70523,589821
20.71337,565742
20.72148,521413
20.72960,490037
20.73773,461149
20.74585,453723
20.75397,405690
20.76210,392677
20.77022,388953
20.77835,378216
20.78647,367632
20.79458,369763
20.80272,357339
20.81083,353750
20.81897,355294
20.82708,356601
20.83520,340626
20.84333,320808
20.85145,313451
20.85957,312338
20.86770,304849
20.87582,310350
20.88395,311340
20.89207,296443
20.90018,303581
20.90832,298080
20.91643,303470
20.92457,292189
20.93268,286827
20.94080,282363
20.94893,296824
20.95705,285471
20.96518,278768
20.97330,273811
20.98142,275904
20.98955,284002
20.99767,273630
21.00578,268731
21.01392,265047
21.02203,267830
21.03017,263276
21.03828,266361
21.04640,270881
21.05453,272847
21.06265,265801
21.07078,270942
21.07890,262021
21.08702,258102
21.09515,265644
21.10327,254526
21.11138,255769
21.11952,258752
21.12763,254699
21.13577,260509
21.14388,263946
21.15200,271551
21.16013,278080
21.16825,268657
21.17638,282121
21.18450,273181
21.19262,272498
21.20075,267124
21.20887,271745
21.21700,272283
21.22512,264879
21.23323,266877
21.24137,279361
21.24948,291378
21.25760,305801
21.26573,324385
21.27385,375548
21.28198,466025
21.29010,552387
21.29822,610945
21.30635,575484
21.31447,502226
21.32260,430783
21.33072,383643
21.33883,355604
21.34697,334080
21.35508,323976
21.36322,309671
21.37133,301586
21.37945,299291
21.38758,308916
21.39570,323208
21.40382,333382
21.41195,323891
21.42007,315996
21.42820,306510
21.43632,295176
21.44443,290657
21.45257,295834
21.46068,278185
21.46882,288822
21.47693,279188
21.48505,281504
21.49318,284353
21.50130,265968
21.50942,266785
21.51755,275582
21.52567,289076
21.53380,308152
21.54192,344086
21.55003,363547
21.55817,361096
21.56628,336991
21.57442,321029
21.58253,303037
21.59065,339605
21.59878,459598
21.60690,764162
21.61503,1400975
21.62315,2452446
21.63127,3779366
21.63940,4800590
21.64752,4910200
21.65563,4138735
21.66377,3094120
21.67188,2142622
21.68002,1492386
21.68813,1070398
21.69625,818848
21.70438,660493
21.71250,563827
21.72063,516759
21.72875,492905
21.73687,480112
21.74500,505357
21.75312,559767
21.76125,639515
21.76937,734071
21.77748,819610
21.78562,857635
21.79373,928733
21.80185,1098010
21.80998,1510173
21.81810,2160777
21.82623,2989738
21.83435,3513662
21.84247,3405710
21.85060,2876962
21.85872,2184395
21.86685,1550100
21.87497,1090732
21.88308,793222
21.89122,647218
21.89933,534466
21.90745,500326
21.91558,474293
21.92370,483241
21.93183,515254
21.93995,544484
21.94807,578433
21.95620,621162
21.96432,626219
21.97245,630093
21.98057,614211
21.98868,558047
21.99682,521301
22.00493,477442
22.01307,430812
22.02118,404066
22.02930,409914
22.03743,452687
22.04555,631075
22.05367,942167
22.06180,1318432
22.06992,1518026
22.07805,1401713
22.08617,1153082
22.09428,879224
22.10242,712976
22.11053,606229
22.11867,543977
22.12678,526685
22.13490,525749
22.14303,549390
22.15115,561034
22.15928,577856
22.16740,576009
22.17552,572734
22.18365,578002
22.19177,610044
22.19988,765382
22.20802,1051338
22.21613,1492408
22.22427,2000422
22.23238,2253008
22.24050,2215167
22.24863,1865337
22.25675,1391050
22.26488,1073077
22.27300,859540
22.28112,750089
22.28925,659766
22.29737,606557
22.30548,557730
22.31362,547905
22.32173,549570
22.32987,587783
22.33798,671452
22.34610,713140
22.35423,762309
22.36235,732157
22.37048,668405
22.37860,612770
22.38672,551336
22.39485,508062
22.40297,469896
22.41110,444726
22.41922,417952
22.42733,424964
22.43547,404111
22.44358,410432
22.45170,410016
22.45983,413792
22.46795,413123
22.47608,400641
22.48420,383841
22.49232,385700
22.50045,357575
22.50857,347341
22.51670,346666
22.52482,329272
22.53293,326481
22.54107,313907
22.54918,313490
22.55730,324937
22.56543,332964
22.57355,338229
22.58168,326225
22.58980,333626
22.59792,322143
22.60605,310490
22.61417,300128
22.62230,304656
22.63042,311429
22.63853,304892
22.64667,322430
22.65478,319025
22.66292,302646
22.67103,301210
22.67915,283407
22.68728,287532
22.69540,289176
22.70352,298840
22.71165,289409
22.71977,284890
22.72790,278660
22.73602,282577
22.74413,275149
22.75227,270018
22.76038,273797
22.76852,265296
22.77663,269230
22.78475,263636
22.79288,267944
22.80100,275837
22.80913,262030
22.81725,273269
22.82537,289287
22.83350,321638
22.84162,347310
22.84973,373911
22.85787,368058
22.86598,376596
22.87412,363286
22.88223,347660
22.89035,343939
22.89848,361143
22.90660,386022
22.91473,435187
22.92285,490366
22.93097,529200
22.93910,586008
22.94722,613783
22.95533,660023
22.96347,719471
22.97158,729865
22.97972,712646
22.98783,692234
22.99595,625717
23.00408,565140
23.01220,500489
23.02033,452812
23.02845,406356
23.03657,382624
23.04470,364955
23.05282,349811
23.06095,358023
23.06907,376918
23.07718,387656
23.08532,391720
23.09343,386062
23.10155,376634
23.10968,342081
23.11780,364331
23.12593,379586
23.13405,413335
23.14217,430935
23.15030,443421
23.15842,422451
23.16655,430146
23.17467,440193
23.18278,430061
23.19092,427856
23.19903,404519
23.20717,386648
23.21528,360883
23.22340,352247
23.23153,333188
23.23965,319008
23.24777,309389
23.25590,318327
23.26402,309620
23.27215,304164
23.28027,322790
23.28838,307432
23.29652,309912
23.30463,317359
23.31277,318257
23.32088,332805
23.32900,339047
23.33713,346690
23.34525,352926
23.35337,366759
23.36150,377517
23.36962,368533
23.37775,364104
23.38587,361756
23.39398,352569
23.40212,352466
23.41023,344352
23.41837,349990
23.42648,344153
23.43460,342164
23.44273,334291
23.45085,336649
23.45898,340463
23.46710,352342
23.47522,346524
23.48335,350630
23.49147,360702
23.49958,351058
23.50772,352003
23.51583,348301
23.52397,333364
23.53208,348026
23.54020,354446
23.54833,342070
23.55645,358565
23.56458,370008
23.57270,365325
23.58082,354799
23.58895,357659
23.59707,344075
23.60518,347899
23.61332,330527
23.62143,342045
23.62957,335105
23.63768,348675
23.64580,357897
23.65393,370443
23.66205,390583
23.67018,402656
23.67830,391457
23.68642,391349
23.69455,367899
23.70267,359969
23.71080,344150
23.71892,341597
23.72703,351609
23.73517,430403
23.74328,683359
23.75140,1366202
23.75953,2736870
23.76765,4897264
23.77578,7181487
23.78390,8755833
23.79202,8882794
23.80015,8163240
23.80827,6805389
23.81640,5235731
23.82452,3883558
23.83263,2841607
23.84077,2213247
23.84888,1727490
23.85702,1378495
23.86513,1192968
23.87325,1047346
23.88138,972449
23.88950,900454
23.89762,830624
23.90575,861140
23.91387,992458
23.92200,1231643
23.93012,1631035
23.93823,1991962
23.94637,2156932
23.95448,2052076
23.96262,1885870
23.97073,1608922
23.97885,1360860
23.98698,1131050
23.99510,973724
24.00323,837429
24.01135,771438
24.01947,715446
24.02760,677270
24.03572,639287
24.04383,606071
24.05197,584148
24.06008,561983
24.06822,537635
24.07633,532913
24.08445,532517
24.09258,546000
24.10070,597108
24.10883,713283
24.11695,892305
24.12507,1100734
24.13320,1328925
24.14132,1373396
24.14943,1313793
24.15757,1193493
24.16568,1018951
24.17382,930646
24.18193,949228
24.19005,1053528
24.19818,1245623
24.20630,1509944
24.21443,1693935
24.22255,1693460
24.23067,1535069
24.23880,1281803
24.24692,1023532
24.25505,852325
24.26317,748452
24.27128,688159
24.27942,638440
24.28753,614750
24.29565,578410
24.30378,547388
24.31190,526995
24.32003,514348
24.32815,509071
24.33627,493212
24.34440,503334
24.35252,537749
24.36065,670923
24.36877,1119013
24.37688,2079256
24.38502,3574642
24.39313,4903246
24.40125,5187582
24.40938,4496443
24.41750,3448362
24.42563,2429224
24.43375,1647341
24.44187,1150535
24.45000,828916
24.45812,680679
24.46625,604739
24.47437,686710
24.48248,952154
24.49062,1379932
24.49873,1971187
24.50687,2452396
24.51498,2571269
24.52310,2317218
24.53123,1932102
24.53935,1561611
24.54747,1304198
24.55560,1105757
24.56372,932238
24.57185,796379
24.57997,690929
24.58808,620815
24.59622,564079
24.60433,541380
24.61247,519524
24.62058,498676
24.62870,483434
24.63683,467957
24.64495,475608
24.65308,478045
24.66120,472373
24.66932,480207
24.67745,460068
24.68557,473947
24.69368,446879
24.70182,434550
24.70993,422018
24.71807,412816
24.72618,397581
24.73430,395485
24.74243,390410
24.75055,391023
24.75868,386350
24.76680,398675
24.77492,399514
24.78305,411836
24.79117,430646
24.79928,421450
24.80742,420764
24.81553,408516
24.82367,407844
24.83178,401515
24.83990,384992
24.84803,382457
24.85615,373248
24.86428,375694
24.87240,376152
24.88052,418904
24.88865,453813
24.89677,523365
24.90490,562567
24.91302,582047
24.92113,562499
24.92927,568159
24.93738,640027
24.94550,879607
24.95363,1347741
24.96175,1924282
24.96988,2277761
24.97800,2271789
24.98612,2036206
24.99425,1692467
25.00237,1356850
25.01050,1087494
25.01862,919723
25.02673,800538
25.03487,702065
25.04298,631733
25.05112,587928
25.05923,530570
25.06735,526929
25.07548,497848
25.08360,497209
25.09172,490531
25.09985,502835
25.10797,518313
25.11610,531125
25.12422,531046
25.13233,537191
25.14047,567823
25.14858,564304
25.15672,579210
25.16483,554379
25.17295,538019
25.18108,535364
25.18920,500483
25.19732,472925
25.20545,442357
25.21357,424863
25.22170,409275
25.22982,410306
25.23793,408070
25.24607,398283
25.25418,395613
25.26232,389216
25.27043,384632
25.27855,402406
25.28668,412038
25.29480,460773
25.30293,511219
25.31105,556957
25.31917,558020
25.32730,536220
25.33542,510051
25.34353,455608
25.35167,421374
25.35978,392509
25.36792,373476
25.37603,362120
25.38415,352316
25.39228,340677
25.40040,334459
25.40853,317594
25.41665,322201
25.42477,328520
25.43290,328065
25.44102,338402
25.44913,374827
25.45727,405543
25.46538,465517
25.47352,511257
25.48163,558625
25.48975,559488
25.49788,530923
25.50600,511013
25.51413,458755
25.52225,444613
25.53037,412224
25.53850,404971
25.54662,389521
25.55475,377940
25.56287,356714
25.57098,339162
25.57912,321746
25.58723,327064
25.59535,318275
25.60348,315122
25.61160,298248
25.61973,300548
25.62785,291079
25.63597,300150
25.64410,293678
25.65222,301122
25.66035,294075
25.66847,297744
25.67658,290363
25.68472,306383
25.69283,291124
25.70097,298258
25.70908,305827
25.71720,304501
25.72533,301112
25.73345,306050
25.74157,301778
25.74970,294402
25.75782,290020
25.76595,298178
25.77407,300492
25.78218,301844
25.79032,312579
25.79843,322311
25.80657,315146
25.81468,304259
25.82280,306218
25.83093,300272
25.83905,312584
25.84717,315694
25.85530,309957
25.86342,299041
25.87155,285273
25.87967,271464
25.88778,270403
25.89592,262305
25.90403,262743
25.91217,251792
25.92028,261572
25.92840,257735
25.93653,256617
25.94465,251815
25.95278,254603
25.96090,247485
25.96902,266359
25.97715,253491
25.98527,253371
25.99338,259155
26.00152,251138
26.00963,254919
26.01777,255870
26.02588,255323
26.03400,260272
26.04213,259356
26.05025,261000
26.05838,272667
26.06650,270060
26.07462,277082
26.08275,274358
26.09087,272765
26.09900,280587
26.10712,307824
26.11523,330059
26.12337,355180
26.13148,412253
26.13960,423612
26.14773,424927
26.15585,399766
26.16398,373909
26.17210,346324
26.18022,312802
26.18835,290390
26.19647,270685
26.20460,257913
26.21272,258366
26.22083,247509
26.22897,242870
26.23708,267389
26.24520,283259
26.25333,304913
26.26145,316271
26.26958,326236
26.27770,321741
26.28582,299712
26.29395,295024
26.30207,300864
26.31020,302186
26.31832,288169
26.32643,279887
26.33457,286420
26.34268,282815
26.35082,272524
26.35893,259987
26.36705,255021
26.37518,250955
26.38330,261014
26.39142,259562
26.39955,265230
26.40767,265932
26.41580,274713
26.42392,281837
26.43203,255943
26.44017,249477
26.44828,245155
26.45642,244759
26.46453,236476
26.47265,232465
26.48078,235047
26.48890,233990
26.49702,229932
26.50515,235390
26.51327,236508
26.52140,236329
26.52952,235187
26.53763,231661
26.54577,231766
26.55388,233652
26.56202,240818
26.57013,249166
26.57825,258200
26.58638,246099
26.59450,242623
26.60263,241217
26.61075,247517
26.61887,241946
26.62700,249472
26.63512,238745
26.64323,239071
26.65137,248527
26.65948,251904
26.66762,244293
26.67573,249524
26.68385,249239
26.69198,240641
26.70010,257528
26.70823,266590
26.71635,292968
26.72447,323530
26.73260,321563
26.74072,315705
26.74885,307184
26.75697,270380
26.76508,255944
26.77322,246361
26.78133,237824
26.78945,237033
26.79758,245612
26.80570,249560
26.81383,259216
26.82195,282956
26.83007,296663
26.83820,330465
26.84632,367371
26.85445,416513
26.86257,431453
26.87068,432369
26.87882,399603
26.88693,379260
26.89505,358005
26.90318,385090
26.91130,478087
26.91943,742158
26.92755,1550502
26.93567,4112506
26.94380,1.149162E+07
26.95192,2.732025E+07
26.96005,4.808672E+07
26.96817,6.791161E+07
26.97628,8.148545E+07
26.98442,8.771222E+07
26.99253,8.789562E+07
27.00067,8.202673E+07
27.00878,7.152585E+07
27.01690,6.08564E+07
27.02503,5.281062E+07
27.03315,4.637674E+07
27.04127,4.205837E+07
27.04940,3.707798E+07
27.05752,3.143008E+07
27.06565,2.528386E+07
27.07377,1.953296E+07
27.08188,1.465258E+07
27.09002,1.131571E+07
27.09813,8599156
27.10627,7155872
27.11438,6086883
27.12250,5384051
27.13063,4791033
27.13875,4290854
27.14688,3874242
27.15500,3615659
27.16312,3497082
27.17125,3259468
27.17937,3008849
27.18748,2835965
27.19562,2708899
27.20373,2582680
27.21187,2494314
27.21998,2375628
27.22810,2281124
27.23623,2141662
27.24435,2022631
27.25248,2011361
27.26060,1951368
27.26872,1855765
27.27685,1807329
27.28497,1761708
27.29308,1754472
27.30122,1664728
27.30933,1617256
27.31747,1605823
27.32558,1517459
27.33370,1497864
27.34183,1470991
27.34995,1444311
27.35808,1414516
27.36620,1378446
27.37432,1352149
27.38245,1349042
27.39057,1315508
27.39870,1279713
27.40682,1262275
27.41493,1209830
27.42307,1189839
27.43118,1207372
27.43930,1128908
27.44743,1127393
27.45555,1173215
27.46368,1286297
27.47180,1835323
27.47992,3074576
27.48805,5470910
27.49617,8969086
27.50430,1.341814E+07
27.51242,1.652253E+07
27.52053,1.795711E+07
27.52867,1.795267E+07
27.53678,1.649288E+07
27.54492,1.451368E+07
27.55303,1.222804E+07
27.56115,1.003387E+07
27.56928,8063034
27.57740,6648205
27.58552,5495727
27.59365,4708703
27.60177,4012503
27.60990,3522751
27.61802,3133538
27.62613,2819679
27.63427,2467465
27.64238,2190707
27.65052,1968480
27.65863,1817294
27.66675,1680879
27.67488,1613923
27.68300,1507535
27.69112,1449505
27.69925,1419516
27.70737,1380857
27.71550,1336905
27.72362,1283100
27.73173,1275558
27.73987,1256713
27.74798,1246322
27.75612,1248765
27.76423,1215048
27.77235,1198707
27.78048,1179880
27.78860,1153088
27.79673,1134360
27.80485,1095451
27.81297,1054880
27.82110,1074431
27.82922,1049762
27.83733,1036055
27.84547,996837
27.85358,965326
27.86172,952820
27.86983,925033
27.87795,915464
27.88608,892535
27.89420,888972
27.90233,832825
27.91045,831516
27.91857,842544
27.92670,825278
27.93482,812258
27.94293,807297
27.95107,795045
27.95918,790000
27.96732,791955
27.97543,815714
27.98355,815579
27.99168,815716
27.99980,818744
28.00793,780188
28.01605,770833
28.02417,763593
28.03230,729145
28.04042,721521
28.04855,720963
28.05667,729809
28.06478,724022
28.07292,703170
28.08103,701988
28.08915,680627
28.09728,667392
28.10540,664344
28.11353,676216
28.12165,639825
28.12977,648417
28.13790,630506
28.14602,633578
28.15415,638656
28.16227,656173
28.17038,714937
28.17852,869733
28.18663,1137345
28.19477,1460343
28.20288,1737152
28.21100,1792243
28.21913,1688764
28.22725,1546908
28.23537,1645358
28.24350,2478743
28.25162,5062978
28.25975,1.101724E+07
28.26787,2.180072E+07
28.27598,3.383161E+07
28.28412,4.462279E+07
28.29223,5.301785E+07
28.30037,5.759465E+07
28.30848,5.788794E+07
28.31660,5.685809E+07
28.32473,5.364208E+07
28.33285,4.974832E+07
28.34097,4.517305E+07
28.34910,4.088899E+07
28.35722,3.700986E+07
28.36535,3.435389E+07
28.37347,3.100997E+07
28.38158,2.754264E+07
28.38972,2.43481E+07
28.39783,2.154471E+07
28.40597,1.811469E+07
28.41408,1.578654E+07
28.42220,1.3898E+07
28.43033,1.173377E+07
28.43845,1.000888E+07
28.44658,8260975
28.45470,7143409
28.46282,6224846
28.47095,5459390
28.47907,4818419
28.48718,4327339
28.49532,3900873
28.50343,3609234
28.51157,3330829
28.51968,3090887
28.52780,2920667
28.53593,2780034
28.54405,2655839
28.55218,2474181
28.56030,2383664
28.56842,2298271
28.57655,2222766
28.58467,2155141
28.59280,2093022
28.60092,2033043
28.60903,2016601
28.61717,2091752
28.62528,2299207
28.63340,2666217
28.64153,3217502
28.64965,3909168
28.65778,4668345
28.66590,5398891
28.67402,6061470
28.68215,6660194
28.69027,7145247
28.69840,7556787
28.70652,7269407
28.71463,7089109
28.72277,6924025
28.73088,6871511
28.73900,6937138
28.74713,7292728
28.75525,8006987
28.76338,8359384
28.77150,7912402
28.77962,7168224
28.78775,5990452
28.79587,4952141
28.80400,4140252
28.81212,3545581
28.82023,3160607
28.82837,2864929
28.83648,2612907
28.84462,2459604
28.85273,2261468
28.86085,2167885
28.86898,2012870
28.87710,1973627
28.88522,1903613
28.89335,1863789
28.90147,1825298
28.90960,1766064
28.91772,1676646
28.92583,1578490
28.93397,1528025
28.94208,1463762
28.95022,1414549
28.95833,1388052
28.96645,1354979
28.97458,1314812
28.98270,1270814
28.99082,1224060
28.99895,1211470
29.00707,1189478
29.01520,1174745
29.02332,1152345
29.03143,1141314
29.03957,1111527
29.04768,1095069
29.05582,1078055
29.06393,1074655
29.07205,1054188
29.08018,1060720
29.08830,1044407
29.09643,1038701
29.10455,1024305
29.11267,1019133
29.12080,1012582
29.12892,1032081
29.13703,992935
29.14517,1005398
29.15328,967121
29.16142,956030
29.16953,967374
29.17765,961423
29.18578,954699
29.19390,945107
29.20203,931954
29.21015,932693
29.21827,945751
29.22640,925993
29.23452,931968
29.24265,955772
29.25077,974838
29.25888,966945
29.26702,960795
29.27513,946923
29.28325,956804
29.29138,945067
29.29950,925834
29.30763,947243
29.31575,905354
29.32387,894193
29.33200,897618
29.34012,892961
29.34825,900400
29.35637,890863
29.36448,883513
29.37262,868147
29.38073,852635
29.38885,851847
29.39698,838549
29.40510,845336
29.41323,820564
29.42135,809999
29.42947,794167
29.43760,802867
29.44572,789691
29.45385,779296
29.46197,818437
29.47008,851945
29.47822,882501
29.48633,950229
29.49447,982350
29.50258,1000301
29.51070,964316
29.51883,928351
29.52695,876434
29.53507,804689
29.54320,772492
29.55132,709050
29.55945,699876
29.56757,701523
29.57568,683466
29.58382,668642
29.59193,669455
29.60007,692058
29.60818,689954
29.61630,688583
29.62443,675678
29.63255,679243
29.64068,668530
29.64880,655929
29.65692,628670
29.66505,620064
29.67317,616733
29.68128,589786
29.68942,604062
29.69753,617507
29.70567,614632
29.71378,611279
29.72190,609912
29.73003,623705
29.73815,617532
29.74628,621622
29.75440,605999
29.76252,598413
29.77065,585802
29.77877,567264
29.78688,567844
29.79502,552515
29.80313,553912
29.81127,543808
29.81938,555815
29.82750,546984
29.83563,549550
29.84375,553936
29.85188,555734
29.86000,555468
29.86812,566403
29.87625,588409
29.88437,634799
29.89250,704208
29.90062,850824
29.90873,1218747
29.91687,1805804
29.92498,2793617
29.93310,4362325
29.94123,6818296
29.94935,1.026445E+07
29.95748,1.422098E+07
29.96560,1.775207E+07
29.97372,2.142981E+07
29.98185,2.327007E+07
29.98997,2.446642E+07
29.99810,2.515165E+07
30.00622,2.443901E+07
30.01433,2.366776E+07
30.02247,2.267498E+07
30.03058,2.10516E+07
30.03870,1.970011E+07
30.04683,1.766304E+07
30.05495,1.599693E+07
30.06308,1.426818E+07
30.07120,1.239235E+07
30.07932,1.099878E+07
30.08745,9622975
30.09557,8177759
30.10370,7256851
30.11182,6496046
30.11993,5775041
30.12807,5161156
30.13618,4694052
30.14432,4503944
30.15243,4364827
30.16055,4077225
30.16868,3818842
30.17680,3721367
30.18492,3586693
30.19305,3555834
30.20117,3503263
30.20930,3487968
30.21742,3417400
30.22553,3287007
30.23367,3233056
30.24178,3063179
30.24992,3012355
30.25803,2827376
30.26615,2666315
30.27428,2534070
30.28240,2471450
30.29053,2346383
30.29865,2222065
30.30677,2165057
30.31490,2031697
30.32302,1940126
30.33113,1881679
30.33927,1816165
30.34738,1727928
30.35552,1617989
30.36363,1530721
30.37175,1475327
30.37988,1415629
30.38800,1367447
30.39613,1328588
30.40425,1260076
30.41237,1222267
30.42050,1164867
30.42862,1124383
30.43675,1092489
30.44487,1069199
30.45298,1041849
30.46112,1039979
30.46923,1001092
30.47735,992316
30.48548,973027
30.49360,964764
30.50173,960435
30.50985,908833
30.51797,925415
30.52610,890252
30.53422,868053
30.54235,827187
30.55047,805649
30.55858,787247
30.56672,779729
30.57483,776218
30.58295,758828
30.59108,742444
30.59920,742491
30.60733,742534
30.61545,734467
30.62357,724860
30.63170,703918
30.63982,704560
30.64795,687021
30.65607,687062
30.66418,681759
30.67232,680974
30.68043,656682
30.68857,646442
30.69668,661917
30.70480,637491
30.71293,635834
30.72105,632611
30.72917,611676
30.73730,612220
30.74542,605910
30.75355,607555
30.76167,593680
30.76978,610318
30.77792,622118
30.78603,641674
30.79417,668100
30.80228,673808
30.81040,693654
30.81853,672579
30.82665,666190
30.83477,642179
30.84290,589905
30.85102,592715
30.85915,575412
30.86727,579589
30.87538,557732
30.88352,556722
30.89163,556031
30.89977,548404
30.90788,543615
30.91600,534154
30.92413,549758
30.93225,542673
30.94038,536814
30.94850,543831
30.95662,545232
30.96475,552060
30.97287,540129
30.98098,543073
30.98912,542688
30.99723,548194
31.00537,548820
31.01348,540035
31.02160,542080
31.02973,554676
31.03785,528659
31.04598,533653
31.05410,522549
31.06222,521953
31.07035,559890
31.07847,613605
31.08660,657461
31.09472,712160
31.10283,740986
31.11097,738459
31.11908,705111
31.12720,676518
31.13533,644985
31.14345,640324
31.15158,636720
31.15970,651594
31.16782,666888
31.17595,701704
31.18407,744585
31.19220,787053
31.20032,819560
31.20843,895480
31.21657,932922
31.22468,968622
31.23280,967279
31.24093,960055
31.24905,916145
31.25718,858947
31.26530,796927
31.27342,731168
31.28155,676413
31.28967,608463
31.29780,585042
31.30592,547719
31.31403,525820
31.32217,520608
31.33028,499393
31.33842,499595
31.34653,495658
31.35465,492489
31.36278,476366
31.37090,462725
31.37902,487268
31.38715,510442
31.39527,555055
31.40340,618320
31.41152,693013
31.41963,710562
31.42777,714624
31.43588,673026
31.44402,618052
31.45213,584552
31.46025,557250
31.46838,533340
31.47650,527696
31.48463,522767
31.49275,513566
31.50087,506736
31.50900,505130
31.51712,489288
31.52523,509980
31.53337,516436
31.54148,508738
31.54962,503261
31.55773,493090
31.56585,475915
31.57398,474116
31.58210,461637
31.59023,462254
31.59835,451699
31.60647,454572
31.61460,459654
31.62272,457690
31.63083,459950
31.63897,446066
31.64708,446558
31.65522,434749
31.66333,455804
31.67145,432058
31.67958,433519
31.68770,424067
31.69583,416017
31.70395,425793
31.71207,423006
31.72020,408237
31.72832,393257
31.73645,398646
31.74457,420476
31.75268,395460
31.76082,394876
31.76893,402701
31.77705,419678
31.78518,429434
31.79330,437619
31.80143,451767
31.80955,463020
31.81767,443404
31.82580,432679
31.83392,433422
31.84205,427575
31.85017,446196
31.85828,498629
31.86642,603195
31.87453,783746
31.88265,1164688
31.89078,1840970
31.89890,2854169
31.90703,4307609
31.91515,6126287
31.92327,8234161
31.93140,1.040199E+07
31.93952,1.241055E+07
31.94765,1.366702E+07
31.95577,1.382721E+07
31.96388,1.384979E+07
31.97202,1.438032E+07
31.98013,1.4125E+07
31.98827,1.324735E+07
31.99638,1.245262E+07
32.00450,1.146354E+07
32.01263,1.038047E+07
32.02075,9513723
32.02887,8655137
32.03700,7815713
32.04512,7253549
32.05325,6713419
32.06137,6449385
32.06948,6319468
32.07762,5840982
32.08573,5337689
32.09387,4894767
32.10198,4313293
32.11010,3854970
32.11823,3449058
32.12635,3094795
32.13448,2778684
32.14260,2571151
32.15072,2296750
32.15885,2146988
32.16697,1979532
32.17508,1859861
32.18322,1742351
32.19133,1623783
32.19947,1489445
32.20758,1398126
32.21570,1352553
32.22383,1288229
32.23195,1198962
32.24008,1149194
32.24820,1088651
32.25632,1047480
32.26445,992166
32.27257,959408
32.28068,943934
32.28882,899926
32.29693,863755
32.30507,854457
32.31318,836351
32.32130,793921
32.32943,809685
32.33755,810307
32.34568,809915
32.35380,779428
32.36192,762513
32.37005,761944
32.37817,756698
32.38630,718105
32.39442,698947
32.40253,684326
32.41067,657809
32.41878,661936
32.42690,649483
32.43503,647842
32.44315,631283
32.45128,619867
32.45940,602328
32.46752,599831
32.47565,586221
32.48377,581397
32.49190,574966
32.50002,557302
32.50813,577219
32.51627,556048
32.52438,548973
32.53252,550011
32.54063,538914
32.54875,532931
32.55688,537344
32.56500,535353
32.57312,528574
32.58125,520676
32.58937,525778
32.59750,515550
32.60562,507125
32.61373,545229
32.62187,617700
32.62998,827325
32.63812,1230254
32.64623,1842762
32.65435,2401476
32.66248,2573553
32.67060,2357959
32.67872,1989168
32.68685,1531792
32.69497,1222384
32.70310,1007020
32.71122,881153
32.71933,779826
32.72747,697465
32.73558,649881
32.74372,622556
32.75183,589629
32.75995,557161
32.76808,526105
32.77620,523334
32.78433,512248
32.79245,490170
32.80057,485206
32.80870,483764
32.81682,470263
32.82493,480384
32.83307,469495
32.84118,463513
32.84932,457788
32.85743,454001
32.86555,447099
32.87368,442334
32.88180,455615
32.88993,445973
32.89805,448562
32.90617,444731
32.91430,458964
32.92242,457692
32.93053,461647
32.93867,452397
32.94678,446512
32.95492,447438
32.96303,441641
32.97115,432500
32.97928,431270
32.98740,429714
32.99553,432589
33.00365,439904
33.01177,427807
33.01990,424779
33.02802,428106
33.03615,423499
33.04427,430156
33.05238,425544
33.06052,424881
33.06863,433031
33.07675,425094
33.08488,433257
33.09300,450895
33.10113,488927
33.10925,510407
33.11737,560178
33.12550,567132
33.13362,588678
33.14175,556998
33.14987,529338
33.15798,506789
33.16612,478403
33.17423,485502
33.18237,483165
33.19048,523703
33.19860,539730
33.20673,571783
33.21485,566328
33.22297,565787
33.23110,525958
33.23922,503645
33.24735,472569
33.25547,458906
33.26358,445509
33.27172,434331
33.27983,435349
33.28797,429943
33.29608,431060
33.30420,423040
33.31233,423450
33.32045,412038
33.32857,419944
33.33670,411026
33.34482,410061
33.35295,406137
33.36107,406216
33.36918,411612
33.37732,407989
33.38543,409567
33.39357,399778
33.40168,391348
33.40980,397644
33.41793,401663
33.42605,401308
33.43418,396181
33.44230,386824
33.45042,405511
33.45855,400530
33.46667,403888
33.47478,400270
33.48292,414881
33.49103,411240
33.49917,393923
33.50728,401382
33.51540,407452
33.52353,402749
33.53165,404702
33.53978,400665
33.54790,413461
33.55602,407053
33.56415,399192
33.57227,397185
33.58040,406985
33.58852,392821
33.59663,392897
33.60477,391144
33.61288,401065
33.62100,392090
33.62913,388275
33.63725,397917
33.64538,383082
33.65350,399577
33.66162,386152
33.66975,375432
33.67787,384660
33.68600,380615
33.69412,378721
33.70223,378881
33.71037,378607
33.71848,363264
33.72660,376958
33.73473,358764
33.74285,365029
33.75098,367526
33.75910,367051
33.76722,371247
33.77535,370762
33.78347,380836
33.79160,383951
33.79972,399571
33.80783,409357
33.81597,426270
33.82408,444496
33.83222,465976
33.84033,478341
33.84845,478352
33.85658,476655
33.86470,458711
33.87282,427471
33.88095,421745
33.88907,412892
33.89720,424439
33.90532,419375
33.91343,443351
33.92157,448863
33.92968,461297
33.93782,459625
33.94593,457336
33.95405,433398
33.96218,411672
33.97030,401928
33.97843,395490
33.98655,384308
33.99467,392300
34.00280,390637
34.01092,380782
34.01903,384940
34.02717,382727
34.03528,375883
34.04342,379471
34.05153,383385
34.05965,380562
34.06778,397739
34.07590,378116
34.08403,374656
34.09215,369132
34.10027,364531
34.10840,369619
34.11652,373472
34.12463,373436
34.13277,367366
34.14088,357632
34.14902,358011
34.15713,365086
34.16525,347594
34.17338,352451
34.18150,352226
34.18963,357196
34.19775,349775
34.20587,352496
34.21400,357515
34.22212,354407
34.23025,349819
34.23837,357145
34.24648,352436
34.25462,352330
34.26273,354704
34.27085,355287
34.27898,348980
34.28710,356433
34.29523,352456
34.30335,363228
34.31147,348902
34.31960,353118
34.32772,347317
34.33585,354969
34.34397,365880
34.35208,366813
34.36022,356171
34.36833,365973
34.37645,368105
34.38458,361551
34.39270,353234
34.40083,356698
34.40895,344865
34.41707,356852
34.42520,347675
34.43332,344694
34.44145,334660
34.44957,332670
34.45768,344998
34.46582,353449
34.47393,391180
34.48207,501344
34.49018,746865
34.49830,1264237
34.50643,2236305
34.51455,3757805
34.52267,5904566
34.53080,8279526
34.53892,1.044013E+07
34.54705,1.226328E+07
34.55517,1.286994E+07
34.56328,1.268054E+07
34.57142,1.225236E+07
34.57953,1.11232E+07
34.58767,9654233
34.59578,8539666
34.60390,7616113
34.61203,6400927
34.62015,5362365
34.62828,4399263
34.63640,3719634
34.64452,3171305
34.65265,2715906
34.66077,2403001
34.66888,2089746
34.67702,1914357
34.68513,1755539
34.69327,1626855
34.70138,1516432
34.70950,1462974
34.71763,1369013
34.72575,1344754
34.73388,1291959
34.74200,1221047
34.75012,1148457
34.75825,1098108
34.76637,1057411
34.77448,1028018
34.78262,974246
34.79073,950233
34.79887,932880
34.80698,894433
34.81510,869072
34.82323,847088
34.83135,828792
34.83948,809154
34.84760,796877
34.85572,771342
34.86385,759461
34.87197,747687
34.88010,728329
34.88822,719128
34.89633,692261
34.90447,701318
34.91258,684936
34.92070,683945
34.92883,665015
34.93695,690305
34.94508,718200
34.95320,705280
34.96132,708375
34.96945,702619
34.97757,689785
34.98570,689339
34.99382,663762
35.00193,642848
35.01007,626163
35.01818,629720
35.02632,614900
35.03443,593029
35.04255,603334
35.05068,600317
35.05880,584451
35.06692,580214
35.07505,583373
35.08317,580697
35.09130,568501
35.09942,556614
35.10753,558105
35.11567,568964
35.12378,597700
35.13192,619546
35.14003,662153
35.14815,718209
35.15628,769782
35.16440,791535
35.17252,769390
35.18065,732980
35.18877,687535
35.19690,643835
35.20502,611813
35.21313,580339
35.22127,574287
35.22938,558941
35.23752,553273
35.24563,541925
35.25375,548599
35.26188,533467
35.27000,531961
35.27813,527081
35.28625,539310
35.29437,524402
35.30250,530626
35.31062,510851
35.31873,513145
35.32687,513624
35.33498,517708
35.34312,521641
35.35123,498553
35.35935,502710
35.36748,499743
35.37560,490106
35.38373,488662
35.39185,482975
35.39997,483991
35.40810,462837
35.41622,470586
35.42433,468087
35.43247,481653
35.44058,497606
35.44872,498800
35.45683,509111
35.46495,525268
35.47308,517951
35.48120,523728
35.48933,512912
35.49745,511541
35.50557,506770
35.51370,500730
35.52182,507379
35.52995,503773
35.53807,509901
35.54618,508804
35.55432,534492
35.56243,522401
35.57055,525909
35.57868,527387
35.58680,533636
35.59493,511527
35.60305,499754
35.61117,505748
35.61930,504545
35.62742,498050
35.63555,511731
35.64367,536360
35.65178,638793
35.65992,745629
35.66803,866359
35.67617,927125
35.68428,898873
35.69240,868804
35.70053,774186
35.70865,705701
35.71677,634025
35.72490,585814
35.73302,553373
35.74115,538712
35.74927,527499
35.75738,502378
35.76552,500600
35.77363,510117
35.78177,494147
35.78988,494386
35.79800,488985
35.80613,513466
35.81425,519966
35.82238,537601
35.83050,543587
35.83862,551753
35.84675,542704
35.85487,534067
35.86298,526762
35.87112,501813
35.87923,498287
35.88737,490161
35.89548,480545
35.90360,473096
35.91173,462864
35.91985,461082
35.92798,446558
35.93610,441758
35.94422,423393
35.95235,437475
35.96047,443066
35.96858,429376
35.97672,440250
35.98483,434403
35.99297,454676
36.00108,469783
36.00920,480629
36.01733,514543
36.02545,507768
36.03358,501538
36.04170,483774
36.04982,478782
36.05795,466434
36.06607,466189
36.07420,449351
36.08232,460145
36.09043,453244
36.09857,456320
36.10668,448197
36.11480,456269
36.12293,461833
36.13105,466174
36.13918,477724
36.14730,467098
36.15542,466696
36.16355,466269
36.17167,458218
36.17980,454160
36.18792,448609
36.19603,447198
36.20417,458270
36.21228,447556
36.22040,440290
36.22853,446304
36.23665,444082
36.24478,441541
36.25290,439596
36.26102,470819
36.26915,520152
36.27727,631054
36.28540,855920
36.29352,1248448
36.30163,1663343
36.30977,2044274
36.31788,2173045
36.32602,2066944
36.33413,1779244
36.34225,1461838
36.35038,1207443
36.35850,1003609
36.36662,853803
36.37475,765350
36.38287,698540
36.39100,655844
36.39912,614608
36.40723,595966
36.41537,552109
36.42348,537234
36.43162,504949
36.43973,478973
36.44785,468278
36.45598,453607
36.46410,447709
36.47223,432656
36.48035,430755
36.48847,420258
36.49660,423926
36.50472,414419
36.51283,423063
36.52097,425197
36.52908,420519
36.53722,406222
36.54533,417874
36.55345,412409
36.56158,414513
36.56970,417169
36.57783,413251
36.58595,402593
36.59407,409570
36.60220,409203
36.61032,405884
36.61843,412246
36.62657,421952
36.63468,454771
36.64282,492547
36.65093,525390
36.65905,536002
36.66718,533959
36.67530,496404
36.68343,472719
36.69155,468191
36.69967,439272
36.70780,440418
36.71592,427422
36.72405,426961
36.73217,409278
36.74028,413949
36.74842,424949
36.75653,416766
36.76465,425704
36.77278,409172
36.78090,396701
36.78903,399649
36.79715,395189
36.80527,393126
36.81340,401388
36.82152,393811
36.82965,398091
36.83777,397976
36.84588,393234
36.85402,401204
36.86213,394866
36.87027,393336
36.87838,388076
36.88650,396868
36.89463,391651
36.90275,392059
36.91087,378928
36.91900,388514
36.92712,384523
36.93525,374673
36.94337,385043
36.95148,384806
36.95962,382350
36.96773,378215
36.97587,370431
36.98398,383319
36.99210,393283
37.00023,383707
37.00835,375197
37.01647,370291
37.02460,371409
37.03272,381113
37.04085,381394
37.04897,390558
37.05708,374097
37.06522,384878
37.07333,383510
37.08147,386043
37.08958,385307
37.09770,388400
37.10583,382892
37.11395,394363
37.12208,383842
37.13020,383235
37.13832,395424
37.14645,398934
37.15457,419301
37.16268,427625
37.17082,437543
37.17893,437879
37.18707,439650
37.19518,442364
37.20330,421338
37.21143,419771
37.21955,395110
37.22768,406396
37.23580,397648
37.24392,392704
37.25205,391608
37.26017,391896
37.26828,392653
37.27642,408037
37.28453,475151
37.29267,692162
37.30078,1164593
37.30890,2068157
37.31703,3570532
37.32515,5303522
37.33328,6859671
37.34140,7754000
37.34952,7994587
37.35765,7509067
37.36577,6820359
37.37390,6316198
37.38202,5466880
37.39013,4616606
37.39827,3991667
37.40638,3458841
37.41450,2940775
37.42263,2513369
37.43075,2263827
37.43888,2028731
37.44700,1901882
37.45512,1773497
37.46325,1694918
37.47137,1606026
37.47950,1525666
37.48762,1434703
