Z:\data\JTB-E02\BACandBLUE\JTB-E02-206-11.D Wed Mar 13 11:59:52 2019
Start of data points
2.09528	49043
2.10342	46724
2.11153	50582
2.11967	49875
2.12778	51003
2.13590	52688
2.14403	51603
2.15215	51489
2.16027	49816
2.16840	47385
2.17652	46900
2.18465	44631
2.19277	43129
2.20088	46141
2.20902	45406
2.21713	43169
2.22527	40277
2.23338	41786
2.24150	42064
2.24963	38989
2.25775	39573
2.26588	61916
2.27400	460572
2.28212	1501166
2.29025	1048465
2.29837	454836
2.30648	324239
2.31462	276165
2.32273	234237
2.33087	208830
2.33898	197286
2.34710	173530
2.35523	155186
2.36335	141172
2.37148	126926
2.37960	127394
2.38772	128806
2.39585	120200
2.40397	114955
2.41208	110058
2.42022	128109
2.42833	148893
2.43647	121078
2.44458	110651
2.45270	112726
2.46083	109423
2.46895	97916
2.47708	93135
2.48520	89428
2.49332	95058
2.50145	95855
2.50957	89151
2.51770	95361
2.52582	94714
2.53393	86627
2.54207	87226
2.55018	90925
2.55830	154466
2.56643	360016
2.57455	374337
2.58268	274125
2.59080	244291
2.59892	209547
2.60705	257789
2.61517	538719
2.62330	558599
2.63142	377854
2.63953	264593
2.64767	215337
2.65578	188637
2.66392	174296
2.67203	156449
2.68015	152824
2.68828	135740
2.69640	142675
2.70452	129129
2.71265	128858
2.72077	126885
2.72890	120178
2.73702	121108
2.74513	112996
2.75327	112977
2.76138	113404
2.76952	104103
2.77763	104172
2.78575	101759
2.79388	114147
2.80200	110444
2.81012	111331
2.81825	107184
2.82637	110061
2.83450	103821
2.84262	105614
2.85073	104662
2.85887	100173
2.86698	104305
2.87512	100444
2.88323	93022
2.89135	89449
2.89948	94045
2.90760	89544
2.91573	87319
2.92385	92520
2.93197	85336
2.94010	92098
2.94822	85029
2.95633	89938
2.96447	97581
2.97258	101646
2.98072	101900
2.98883	97067
2.99695	104464
3.00508	109038
3.01320	105509
3.02133	101347
3.02945	90073
3.03757	87949
3.04570	87910
3.05382	89685
3.06193	90341
3.07007	89117
3.07818	104699
3.08632	384431
3.09443	1350490
3.10255	2613987
3.11068	4270154
3.11880	4865753
3.12693	3369689
3.13505	2193077
3.14317	1672366
3.15130	1308252
3.15942	1091248
3.16755	887257
3.17567	750473
3.18378	639335
3.19192	555565
3.20003	480785
3.20815	433837
3.21628	384437
3.22440	357767
3.23253	325965
3.24065	306193
3.24877	274968
3.25690	253600
3.26502	228078
3.27315	232599
3.28127	230810
3.28938	354175
3.29752	1116888
3.30563	3282004
3.31377	5756523
3.32188	5938170
3.33000	4235983
3.33813	2643068
3.34625	1768844
3.35437	1305765
3.36250	1068566
3.37062	883073
3.37875	754333
3.38687	678630
3.39498	591331
3.40312	537932
3.41123	493772
3.41937	458688
3.42748	432712
3.43560	389251
3.44373	379479
3.45185	354195
3.45997	348034
3.46810	336003
3.47622	365504
3.48435	363200
3.49247	336184
3.50058	307304
3.50872	285788
3.51683	264955
3.52497	271495
3.53308	260167
3.54120	245167
3.54933	233985
3.55745	235901
3.56558	242323
3.57370	336296
3.58182	436461
3.58995	415363
3.59807	322235
3.60618	267106
3.61432	266675
3.62243	246119
3.63057	251208
3.63868	234193
3.64680	227635
3.65493	218227
3.66305	210053
3.67118	199809
3.67930	199514
3.68742	195992
3.69555	183635
3.70367	181403
3.71180	177788
3.71992	167692
3.72803	167546
3.73617	164747
3.74428	163399
3.75240	175216
3.76053	167753
3.76865	170445
3.77678	169039
3.78490	163818
3.79302	168684
3.80115	309647
3.80927	1101909
3.81740	2698400
3.82552	3516775
3.83363	2691628
3.84177	1699804
3.84988	1212581
3.85800	971476
3.86613	826564
3.87425	717275
3.88238	634725
3.89050	577555
3.89862	515701
3.90675	484536
3.91487	441320
3.92300	423228
3.93112	392135
3.93923	381198
3.94737	500861
3.95548	1165975
3.96362	2841100
3.97173	4341305
3.97985	4027024
3.98798	2650133
3.99610	2160076
4.00422	4586856
4.01235	1.105126E+07
4.02047	1.643379E+07
4.02860	1.518367E+07
4.03672	9143454
4.04483	5011147
4.05297	3158427
4.06108	2302873
4.06922	1790260
4.07733	1453248
4.08545	1225255
4.09358	1054823
4.10170	892268
4.10982	820407
4.11795	727565
4.12607	666284
4.13420	611716
4.14232	579469
4.15043	554948
4.15857	548372
4.16668	521321
4.17482	511983
4.18293	531055
4.19105	494561
4.19918	445284
4.20730	389068
4.21543	385249
4.22355	398349
4.23167	445020
4.23980	473762
4.24792	431740
4.25603	373833
4.26417	341498
4.27228	315800
4.28042	295584
4.28853	282113
4.29665	267746
4.30478	263165
4.31290	255022
4.32103	257470
4.32915	254072
4.33727	259065
4.34540	245920
4.35352	235247
4.36165	234018
4.36977	231222
4.37788	221349
4.38602	215379
4.39413	214007
4.40225	205582
4.41038	199402
4.41850	199895
4.42663	200443
4.43475	189631
4.44287	190654
4.45100	199277
4.45912	191019
4.46725	180475
4.47537	178267
4.48348	175956
4.49162	169619
4.49973	166718
4.50787	171998
4.51598	171273
4.52410	163920
4.53223	172140
4.54035	168021
4.54847	161920
4.55660	161460
4.56472	161247
4.57285	159179
4.58097	152417
4.58908	150227
4.59722	154761
4.60533	150102
4.61347	146895
4.62158	139900
4.62970	145878
4.63783	140231
4.64595	140781
4.65407	134962
4.66220	141737
4.67032	140804
4.67845	143408
4.68657	150160
4.69468	150443
4.70282	139698
4.71093	139605
4.71907	137101
4.72718	140200
4.73530	139338
4.74343	131868
4.75155	130976
4.75968	120826
4.76780	129349
4.77592	125791
4.78405	127613
4.79217	129158
4.80028	140298
4.80842	162297
4.81653	164105
4.82467	162114
4.83278	158034
4.84090	169299
4.84903	180794
4.85715	176890
4.86528	165140
4.87340	151630
4.88152	145612
4.88965	143440
4.89777	136481
4.90588	125319
4.91402	127947
4.92213	116263
4.93027	124401
4.93838	148894
4.94650	227650
4.95463	421049
4.96275	735597
4.97088	951477
4.97900	1021299
4.98712	881392
4.99525	683853
5.00337	558159
5.01150	460917
5.01962	404249
5.02773	346755
5.03587	327153
5.04398	296110
5.05210	285863
5.06023	271202
5.06835	256532
5.07648	255782
5.08460	238508
5.09272	228171
5.10085	224615
5.10897	213260
5.11710	206678
5.12522	207901
5.13333	192040
5.14147	188544
5.14958	185574
5.15772	189774
5.16583	193901
5.17395	190033
5.18208	188806
5.19020	187145
5.19832	185030
5.20645	181854
5.21457	172591
5.22270	172096
5.23082	181155
5.23893	200028
5.24707	197360
5.25518	193582
5.26332	176306
5.27143	168674
5.27955	160122
5.28768	149820
5.29580	142969
5.30392	150879
5.31205	140560
5.32017	153651
5.32830	172078
5.33642	207887
5.34453	249136
5.35267	255179
5.36078	231921
5.36892	194679
5.37703	177463
5.38515	189381
5.39328	211424
5.40140	199772
5.40953	183689
5.41765	165469
5.42577	151893
5.43390	147949
5.44202	147686
5.45013	142490
5.45827	140614
5.46638	144997
5.47452	134839
5.48263	132658
5.49075	126843
5.49888	130246
5.50700	141405
5.51513	148144
5.52325	156770
5.53137	153688
5.53950	142953
5.54762	141301
5.55575	135318
5.56387	123605
5.57198	139766
5.58012	165815
5.58823	223498
5.59635	253785
5.60448	264569
5.61260	222304
5.62073	187682
5.62885	167664
5.63697	165186
5.64510	154883
5.65322	141385
5.66135	144940
5.66947	140164
5.67758	141896
5.68572	169290
5.69383	195832
5.70195	211007
5.71008	195069
5.71820	170978
5.72633	146749
5.73445	131973
5.74257	129499
5.75070	124927
5.75882	125648
5.76695	112302
5.77507	114481
5.78318	117197
5.79132	110261
5.79943	119132
5.80757	109529
5.81568	114174
5.82380	113449
5.83193	110993
5.84005	112154
5.84817	117327
5.85630	111268
5.86442	115084
5.87255	108586
5.88067	110423
5.88878	107695
5.89692	105106
5.90503	100001
5.91317	100148
5.92128	94848
5.92940	78470
5.93753	76899
5.94565	82659
5.95377	93823
5.96190	118386
5.97002	192482
5.97815	372236
5.98627	560941
5.99438	629468
6.00252	536517
6.01063	379182
6.01877	259040
6.02688	202864
6.03500	168543
6.04313	144903
6.05125	141790
6.05938	126589
6.06750	125597
6.07562	119901
6.08375	126962
6.09187	115273
6.09998	113437
6.10812	107122
6.11623	113055
6.12437	110266
6.13248	105193
6.14060	113352
6.14873	111959
6.15685	111524
6.16498	123044
6.17310	119636
6.18122	128600
6.18935	112799
6.19747	122648
6.20560	117248
6.21372	117973
6.22183	126954
6.22997	136917
6.23808	126934
6.24620	134616
6.25433	130446
6.26245	128593
6.27058	125156
6.27870	131488
6.28682	132772
6.29495	129938
6.30307	137052
6.31120	134661
6.31932	138238
6.32743	140717
6.33557	145624
6.34368	145740
6.35180	151156
6.35993	144256
6.36805	148788
6.37618	150357
6.38430	150963
6.39242	151392
6.40055	147634
6.40867	156603
6.41680	156424
6.42492	157197
6.43303	157018
6.44117	161871
6.44928	164924
6.45742	162480
6.46553	164405
6.47365	159414
6.48178	168322
6.48990	163555
6.49802	168795
6.50615	162919
6.51427	166891
6.52240	167348
6.53052	169787
6.53863	173801
6.54677	168749
6.55488	175175
6.56302	170231
6.57113	174456
6.57925	184871
6.58738	172692
6.59550	182174
6.60363	184437
6.61175	184767
6.61987	188528
6.62800	188098
6.63612	208821
6.64423	404938
6.65237	1347631
6.66048	4372943
6.66862	9729500
6.67673	1.404852E+07
6.68485	1.405938E+07
6.69298	1.041923E+07
6.70110	6347885
6.70923	3806786
6.71735	2600267
6.72547	2017140
6.73360	1650804
6.74172	1417146
6.74983	1257158
6.75797	1142153
6.76608	1010167
6.77422	888236
6.78233	806761
6.79045	753689
6.79858	682444
6.80670	627908
6.81483	571488
6.82295	540645
6.83107	512797
6.83920	494425
6.84732	481630
6.85545	484642
6.86357	485648
6.87168	451346
6.87982	410717
6.88793	368017
6.89605	332573
6.90418	303020
6.91230	287912
6.92043	285944
6.92855	251590
6.93667	232035
6.94480	228366
6.95292	219092
6.96105	220610
6.96917	242518
6.97728	264909
6.98542	279893
6.99353	271194
7.00165	223215
7.00978	168165
7.01790	157319
7.02603	166131
7.03415	217025
7.04227	259105
7.05040	273112
7.05852	262611
7.06665	262194
7.07477	258193
7.08288	247994
7.09102	252515
7.09913	238072
7.10727	232920
7.11538	223974
7.12350	215915
7.13163	216501
7.13975	211044
7.14787	230528
7.15600	276010
7.16412	334261
7.17225	348448
7.18037	327994
7.18848	278092
7.19662	233098
7.20473	215923
7.21287	191918
7.22098	200796
7.22910	196138
7.23723	191128
7.24535	191499
7.25348	183832
7.26160	176669
7.26972	172359
7.27785	153903
7.28597	153003
7.29408	148548
7.30222	146278
7.31033	140284
7.31847	142429
7.32658	133229
7.33470	136587
7.34283	134190
7.35095	127114
7.35908	126819
7.36720	126894
7.37532	132692
7.38345	128634
7.39157	123335
7.39968	121197
7.40782	113515
7.41593	118776
7.42407	115570
7.43218	113040
7.44030	112900
7.44843	119005
7.45655	108019
7.46468	104330
7.47280	107433
7.48092	108066
7.48905	102790
7.49717	93040
7.50530	102388
7.51342	101681
7.52153	102769
7.52967	102529
7.53778	97370
7.54590	99596
7.55403	92053
7.56215	91051
7.57028	95792
7.57840	94747
7.58652	92648
7.59465	88577
7.60277	94171
7.61090	92067
7.61902	88824
7.62713	85959
7.63527	90336
7.64338	86712
7.65152	92688
7.65963	80705
7.66775	84166
7.67588	84269
7.68400	76818
7.69212	80260
7.70025	85638
7.70837	81303
7.71650	84469
7.72462	76544
7.73273	78496
7.74087	74172
7.74898	79552
7.75712	79866
7.76523	76558
7.77335	83184
7.78148	89046
7.78960	88582
7.79772	86789
7.80585	85137
7.81397	86279
7.82210	82020
7.83022	75034
7.83833	74705
7.84647	75041
7.85458	71948
7.86272	68780
7.87083	65980
7.87895	68465
7.88708	68211
7.89520	66472
7.90333	70861
7.91145	73723
7.91957	86726
7.92770	132323
7.93582	232517
7.94393	364653
7.95207	466375
7.96018	451711
7.96832	364138
7.97643	261340
7.98455	172508
7.99268	126945
8.00080	108887
8.00893	95890
8.01705	81067
8.02517	83161
8.03330	76518
8.04142	77794
8.04955	71861
8.05767	72982
8.06578	74856
8.07392	72195
8.08203	66941
8.09015	69765
8.09828	69444
8.10640	64773
8.11453	62735
8.12265	63499
8.13077	67079
8.13890	75545
8.14702	77725
8.15515	68402
8.16327	72195
8.17138	74942
8.17952	69486
8.18763	66135
8.19575	67487
8.20388	63922
8.21200	62223
8.22013	62086
8.22825	62365
8.23637	58911
8.24450	64840
8.25262	59476
8.26075	64174
8.26887	57598
8.27698	56926
8.28512	56878
8.29323	56529
8.30137	56068
8.30948	59534
8.31760	63669
8.32573	66465
8.33385	65555
8.34197	65316
8.35010	60507
8.35822	62055
8.36635	60954
8.37447	66870
8.38258	71566
8.39072	72415
8.39883	74864
8.40697	67018
8.41508	59165
8.42320	50398
8.43133	51498
8.43945	54060
8.44757	56390
8.45570	57772
8.46382	62373
8.47195	71795
8.48007	73504
8.48818	71026
8.49632	60194
8.50443	55258
8.51257	49534
8.52068	54533
8.52880	81311
8.53693	142305
8.54505	260755
8.55318	388536
8.56130	434424
8.56942	404094
8.57755	288160
8.58567	189918
8.59378	128713
8.60192	104463
8.61003	87744
8.61817	89915
8.62628	81862
8.63440	81454
8.64253	73178
8.65065	66766
8.65878	68366
8.66690	65822
8.67502	60847
8.68315	68861
8.69127	58786
8.69940	61862
8.70752	61586
8.71563	59452
8.72377	61482
8.73188	55552
8.74000	56317
8.74813	64436
8.75625	111977
8.76438	266142
8.77250	682702
8.78062	1450143
8.78875	2393766
8.79687	3032781
8.80500	2889700
8.81312	2104792
8.82123	1301699
8.82937	744804
8.83748	448590
8.84560	320679
8.85373	279980
8.86185	262595
8.86998	235715
8.87810	224156
8.88622	189193
8.89435	172423
8.90247	152126
8.91060	140000
8.91872	130686
8.92683	117259
8.93497	109984
8.94308	104843
8.95122	94777
8.95933	102897
8.96745	100731
8.97558	98464
8.98370	94012
8.99182	89273
8.99995	93773
9.00807	83161
9.01620	93731
9.02432	88286
9.03243	83458
9.04057	85062
9.04868	74039
9.05682	75908
9.06493	71631
9.07305	75166
9.08118	73551
9.08930	69169
9.09743	72099
9.10555	72792
9.11367	72857
9.12180	73810
9.12992	72766
9.13803	64545
9.14617	66743
9.15428	64858
9.16242	67095
9.17053	68543
9.17865	63416
9.18678	69016
9.19490	61607
9.20303	60655
9.21115	64345
9.21927	62583
9.22740	64629
9.23552	67033
9.24363	65871
9.25177	70341
9.25988	79373
9.26802	75227
9.27613	68030
9.28425	72852
9.29238	59091
9.30050	64702
9.30863	59176
9.31675	60756
9.32487	61969
9.33300	59185
9.34112	60463
9.34925	67926
9.35737	66511
9.36548	58182
9.37362	58192
9.38173	55655
9.38985	62354
9.39798	54641
9.40610	52847
9.41423	58018
9.42235	59207
9.43047	61450
9.43860	66163
9.44672	61195
9.45485	65044
9.46297	63669
9.47108	58974
9.47922	57135
9.48733	55687
9.49545	55412
9.50358	57852
9.51170	69923
9.51983	85633
9.52795	90461
9.53607	96538
9.54420	96259
9.55232	102570
9.56045	98941
9.56857	102770
9.57668	97021
9.58482	89499
9.59293	84274
9.60107	76637
9.60918	68701
9.61730	59333
9.62543	55127
9.63355	49652
9.64167	45918
9.64980	44798
9.65792	45856
9.66605	42499
9.67417	41720
9.68228	40043
9.69042	43310
9.69853	40695
9.70667	42510
9.71478	36536
9.72290	38750
9.73103	37067
9.73915	39183
9.74728	40468
9.75540	35467
9.76352	38027
9.77165	38607
9.77977	39578
9.78788	38280
9.79602	38591
9.80413	45144
9.81227	41228
9.82038	36893
9.82850	33774
9.83663	39068
9.84475	40158
9.85288	40510
9.86100	36296
9.86912	42181
9.87725	45422
9.88537	45698
9.89348	42468
9.90162	38630
9.90973	33948
9.91787	34183
9.92598	40612
9.93410	41922
9.94223	46891
9.95035	48037
9.95848	58198
9.96660	62612
9.97472	54032
9.98285	50121
9.99097	51096
9.99910	51374
10.00722	48856
10.01533	47687
10.02347	52303
10.03158	48195
10.03970	48681
10.04783	47888
10.05595	38410
10.06408	43101
10.07220	39567
10.08032	47629
10.08845	47984
10.09657	54927
10.10470	56352
10.11282	58099
10.12093	54156
10.12907	48925
10.13718	46724
10.14532	41513
10.15343	38252
10.16155	40354
10.16968	38282
10.17780	35985
10.18592	34410
10.19405	39026
10.20217	38743
10.21030	40114
10.21842	38844
10.22653	37513
10.23467	42170
10.24278	47255
10.25092	48061
10.25903	51664
10.26715	48928
10.27528	51648
10.28340	45288
10.29152	43306
10.29965	38857
10.30777	45844
10.31590	47181
10.32402	43156
10.33213	48629
10.34027	56501
10.34838	59953
10.35652	54918
10.36463	60843
10.37275	58677
10.38088	54543
10.38900	54711
10.39713	58915
10.40525	52968
10.41337	49705
10.42150	52547
10.42962	48809
10.43773	46475
10.44587	46446
10.45398	38494
10.46212	36743
10.47023	42018
10.47835	39665
10.48648	35972
10.49460	38077
10.50273	39027
10.51085	44462
10.51897	37587
10.52710	32473
10.53522	36127
10.54335	38206
10.55147	39715
10.55958	38131
10.56772	41434
10.57583	39753
10.58395	40633
10.59208	44502
10.60020	44572
10.60833	45724
10.61645	43155
10.62457	41658
10.63270	41386
10.64082	40358
10.64895	35696
10.65707	35089
10.66518	36783
10.67332	35751
10.68143	35803
10.68955	36734
10.69768	37549
10.70580	35431
10.71393	34967
10.72205	34237
10.73017	40313
10.73830	33861
10.74642	35948
10.75455	39707
10.76267	39823
10.77078	40297
10.77892	41501
10.78703	39486
10.79517	36175
10.80328	42522
10.81140	38159
10.81953	34257
10.82765	37282
10.83577	31766
10.84390	39548
10.85202	34536
10.86015	36468
10.86827	34565
10.87638	32289
10.88452	36854
10.89263	28108
10.90077	35504
10.90888	38381
10.91700	36607
10.92513	32451
10.93325	34790
10.94138	33242
10.94950	32244
10.95762	34635
10.96575	33948
10.97387	35835
10.98198	39628
10.99012	37150
10.99823	30467
11.00637	30141
11.01448	31339
11.02260	36102
11.03073	33377
11.03885	29711
11.04698	28826
11.05510	28785
11.06322	29833
11.07135	29386
11.07947	29384
11.08758	30236
11.09572	30235
11.10383	33063
11.11197	30544
11.12008	34472
11.12820	35647
11.13633	31246
11.14445	32256
11.15258	28449
11.16070	31332
11.16882	32930
11.17695	32279
11.18507	36833
11.19320	36436
11.20132	35612
11.20943	37959
11.21757	38665
11.22568	35388
11.23380	29352
11.24193	34140
11.25005	32193
11.25818	32587
11.26630	28009
11.27442	30383
11.28255	31682
11.29067	33875
11.29880	32672
11.30692	31138
11.31503	35615
11.32317	39865
11.33128	38311
11.33940	37586
11.34753	33526
11.35565	31474
11.36378	35263
11.37190	31129
11.38002	32725
11.38815	29175
11.39627	28896
11.40440	30758
11.41252	26317
11.42063	28972
11.42877	28714
11.43688	30458
11.44502	29619
11.45313	29762
11.46125	30982
11.46938	33827
11.47750	43051
11.48562	58260
11.49375	86045
11.50187	107768
11.51000	112216
11.51812	102884
11.52623	82172
11.53437	66748
11.54248	57931
11.55062	48878
11.55873	45308
11.56685	44625
11.57498	41116
11.58310	41813
11.59123	38171
11.59935	39362
11.60747	38139
11.61560	35699
11.62372	34871
11.63183	34364
11.63997	35751
11.64808	35085
11.65622	33783
11.66433	35613
11.67245	37615
11.68058	41555
11.68870	47816
11.69683	59974
11.70495	66829
11.71307	69930
11.72120	62372
11.72932	55467
11.73743	46567
11.74557	42574
11.75368	37892
11.76182	37793
11.76993	37814
11.77805	36256
11.78618	37809
11.79430	36525
11.80243	37376
11.81055	34448
11.81867	37962
11.82680	37908
11.83492	38515
11.84305	41305
11.85117	49570
11.85928	56462
11.86742	55834
11.87553	60144
11.88365	57196
11.89178	49057
11.89990	44236
11.90803	40183
11.91615	40827
11.92427	41897
11.93240	39761
11.94052	41251
11.94865	43196
11.95677	34474
11.96488	37183
11.97302	34077
11.98113	36122
11.98927	39638
11.99738	49119
12.00550	59753
12.01363	69046
12.02175	74137
12.02987	72933
12.03800	67239
12.04612	56372
12.05425	41423
12.06237	42037
12.07048	41608
12.07862	41457
12.08673	35642
12.09487	34208
12.10298	33926
12.11110	37948
12.11923	36424
12.12735	37813
12.13547	35609
12.14360	35197
12.15172	33997
12.15985	37571
12.16797	30006
12.17608	35745
12.18422	36493
12.19233	34416
12.20047	34434
12.20858	33259
12.21670	33613
12.22483	31254
12.23295	34498
12.24108	36527
12.24920	35970
12.25732	34613
12.26545	40460
12.27357	37110
12.28168	38796
12.28982	38199
12.29793	38007
12.30607	29238
12.31418	35198
12.32230	29533
12.33043	34700
12.33855	32410
12.34668	32166
12.35480	34400
12.36292	33319
12.37105	30247
12.37917	32062
12.38728	31768
12.39542	31581
12.40353	36157
12.41167	33583
12.41978	35154
12.42790	37566
12.43603	33853
12.44415	31466
12.45228	32477
12.46040	32964
12.46852	32897
12.47665	31694
12.48477	30944
12.49290	32100
12.50102	29323
12.50913	31160
12.51727	33118
12.52538	35343
12.53350	33423
12.54163	33345
12.54975	34189
12.55788	35217
12.56600	36418
12.57412	38385
12.58225	36178
12.59037	36661
12.59850	35835
12.60662	39501
12.61473	39812
12.62287	36938
12.63098	42363
12.63912	43268
12.64723	41232
12.65535	35838
12.66348	32743
12.67160	31381
12.67972	33258
12.68785	31952
12.69597	28923
12.70410	34777
12.71222	34480
12.72033	37511
12.72847	39354
12.73658	40901
12.74472	38895
12.75283	42228
12.76095	39160
12.76908	34068
12.77720	30271
12.78532	33275
12.79345	31795
12.80157	31927
12.80970	38546
12.81782	27375
12.82593	33307
12.83407	30208
12.84218	31552
12.85032	30136
12.85843	31549
12.86655	28483
12.87468	29286
12.88280	29166
12.89093	31348
12.89905	35224
12.90717	33212
12.91530	32266
12.92342	29638
12.93153	34704
12.93967	30312
12.94778	29534
12.95592	29744
12.96403	32834
12.97215	31292
12.98028	33010
12.98840	36274
12.99653	36992
13.00465	35616
13.01277	34035
13.02090	35875
13.02902	37518
13.03715	35544
13.04527	35973
13.05338	36242
13.06152	35964
13.06963	36984
13.07775	32135
13.08588	33364
13.09400	30715
13.10213	30954
13.11025	34604
13.11837	30264
13.12650	28976
13.13462	30386
13.14275	28329
13.15087	29960
13.15898	31631
13.16712	27424
13.17523	30369
13.18335	32219
13.19148	32665
13.19960	31919
13.20773	32101
13.21585	35859
13.22397	33592
13.23210	32438
13.24022	33130
13.24835	32179
13.25647	33285
13.26458	30025
13.27272	28034
13.28083	30334
13.28897	28125
13.29708	29824
13.30520	32227
13.31333	30485
13.32145	33961
13.32957	36860
13.33770	34515
13.34582	34537
13.35395	28251
13.36207	29455
13.37018	27478
13.37832	27608
13.38643	28744
13.39457	27591
13.40268	29213
13.41080	26160
13.41893	29164
13.42705	25656
13.43518	28083
13.44330	32123
13.45142	24934
13.45955	25370
13.46767	25019
13.47578	27541
13.48392	26831
13.49203	28300
13.50017	27968
13.50828	25905
13.51640	31331
13.52453	28768
13.53265	25924
13.54078	27731
13.54890	32099
13.55702	32100
13.56515	33281
13.57327	45745
13.58138	34975
13.58952	35850
13.59763	33425
13.60577	30627
13.61388	27852
13.62200	31475
13.63013	29440
13.63825	29142
13.64638	27201
13.65450	28175
13.66262	27738
13.67075	29933
13.67887	28338
13.68700	30493
13.69512	27702
13.70323	28205
13.71137	31742
13.71948	33043
13.72760	34605
13.73573	40088
13.74385	39859
13.75198	49190
13.76010	56018
13.76822	77732
13.77635	107554
13.78447	129520
13.79260	139637
13.80072	119503
13.80883	97347
13.81697	74897
13.82508	63820
13.83320	50220
13.84133	44320
13.84945	40520
13.85758	36688
13.86570	38393
13.87382	38199
13.88195	39126
13.89007	41915
13.89820	36225
13.90632	37119
13.91443	36916
13.92257	35395
13.93068	33607
13.93882	36422
13.94693	36277
13.95505	47725
13.96318	59726
13.97130	91459
13.97942	125113
13.98755	150484
13.99567	169095
14.00380	166914
14.01192	124265
14.02003	95321
14.02817	80532
14.03628	63168
14.04442	60337
14.05253	53693
14.06065	62490
14.06878	58990
14.07690	53203
14.08503	48003
14.09315	46251
14.10127	46549
14.10940	46796
14.11752	42177
14.12563	44926
14.13377	38660
14.14188	39700
14.15002	44115
14.15813	41084
14.16625	45224
14.17438	44144
14.18250	44429
14.19063	48884
14.19875	67022
14.20687	77861
14.21500	103949
14.22312	116132
14.23123	127532
14.23937	123810
14.24748	109504
14.25562	99461
14.26373	88965
14.27185	79501
14.27998	74815
14.28810	72456
14.29623	65925
14.30435	60462
14.31247	61229
14.32060	58080
14.32872	52061
14.33685	58981
14.34497	52646
14.35308	53396
14.36122	50166
14.36933	49312
14.37745	46215
14.38558	49357
14.39370	44576
14.40183	46424
14.40995	46499
14.41807	42407
14.42620	47441
14.43432	40164
14.44245	39718
14.45057	43430
14.45868	36147
14.46682	34976
14.47493	36165
14.48307	38442
14.49118	33978
14.49930	35117
14.50743	36290
14.51555	36761
14.52367	38160
14.53180	35750
14.53992	36241
14.54805	39407
14.55617	33117
14.56428	33606
14.57242	33173
14.58053	27758
14.58867	31440
14.59678	30779
14.60490	30393
14.61303	28595
14.62115	29171
14.62927	29940
14.63740	26921
14.64552	30331
14.65365	28904
14.66177	30920
14.66988	28888
14.67802	26486
14.68613	35346
14.69427	36908
14.70238	29798
14.71050	27125
14.71863	30747
14.72675	30075
14.73488	33399
14.74300	30437
14.75112	33186
14.75925	35876
14.76737	31875
14.77548	31329
14.78362	32415
14.79173	33113
14.79987	37361
14.80798	30778
14.81610	31484
14.82423	31722
14.83235	36781
14.84048	39477
14.84860	39252
14.85672	39615
14.86485	36250
14.87297	40564
14.88108	39052
14.88922	35118
14.89733	37205
14.90547	40076
14.91358	37123
14.92170	39454
14.92983	36951
14.93795	35203
14.94608	41918
14.95420	44540
14.96232	46763
14.97045	47398
14.97857	47484
14.98670	40995
14.99482	38492
15.00293	41406
15.01107	37838
15.01918	37032
15.02730	36449
15.03543	34955
15.04355	33286
15.05168	39311
15.05980	35653
15.06792	36086
15.07605	34752
15.08417	34878
15.09230	33197
15.10042	38413
15.10853	32258
15.11667	31822
15.12478	32239
15.13292	30630
15.14103	32231
15.14915	32474
15.15728	31194
15.16540	31553
15.17352	31868
15.18165	31042
15.18977	31080
15.19790	29488
15.20602	31162
15.21413	29630
15.22227	29221
15.23038	31984
15.23852	26563
15.24663	30841
15.25475	29507
15.26288	26328
15.27100	27240
15.27912	28442
15.28725	27719
15.29537	27241
15.30350	28830
15.31162	26983
15.31973	22251
15.32787	25961
15.33598	27605
15.34412	28033
15.35223	27753
15.36035	26854
15.36848	25271
15.37660	28461
15.38473	25301
15.39285	27605
15.40097	28001
15.40910	26983
15.41722	26790
15.42533	30296
15.43347	26714
15.44158	27155
15.44972	27648
15.45783	27041
15.46595	27375
15.47408	31668
15.48220	30322
15.49033	29350
15.49845	31221
15.50657	36812
15.51470	55109
15.52282	88670
15.53095	150621
15.53907	253671
15.54718	344804
15.55532	410831
15.56343	391733
15.57155	323330
15.57968	234788
15.58780	150023
15.59593	91864
15.60405	67596
15.61217	55616
15.62030	45006
15.62842	48296
15.63655	42593
15.64467	39434
15.65278	41728
15.66092	40242
15.66903	35369
15.67715	39216
15.68528	36767
15.69340	33054
15.70153	31822
15.70965	35644
15.71777	33543
15.72590	28935
15.73402	34050
15.74215	31091
15.75027	34429
15.75838	30301
15.76652	37688
15.77463	36699
15.78277	44352
15.79088	50587
15.79900	47540
15.80713	52864
15.81525	50167
15.82337	46906
15.83150	39372
15.83962	40112
15.84775	37985
15.85587	36451
15.86398	33403
15.87212	39159
15.88023	40223
15.88837	40750
15.89648	44050
15.90460	44905
15.91273	43977
15.92085	47503
15.92897	43119
15.93710	40531
15.94522	37868
15.95335	39193
15.96147	40220
15.96958	48348
15.97772	54699
15.98583	66177
15.99397	70820
16.00208	72544
16.01020	66414
16.01833	64153
16.02645	65026
16.03458	67470
16.04270	64694
16.05082	60534
16.05895	53418
16.06707	45143
16.07518	43541
16.08332	36576
16.09143	39373
16.09957	36681
16.10768	37109
16.11580	35488
16.12393	36246
16.13205	38050
16.14018	36622
16.14830	33794
16.15642	33583
16.16455	31492
16.17267	30738
16.18080	33175
16.18892	29656
16.19703	32559
16.20517	31180
16.21328	32200
16.22140	33471
16.22953	36381
16.23765	36941
16.24578	37335
16.25390	31728
16.26202	33563
16.27015	32403
16.27827	32118
16.28640	34644
16.29452	33586
16.30263	32959
16.31077	35084
16.31888	35178
16.32702	33136
16.33513	33469
16.34325	38807
16.35138	43825
16.35950	46575
16.36762	61044
16.37575	73602
16.38387	87850
16.39200	88278
16.40012	84721
16.40823	69542
16.41637	62456
16.42448	46726
16.43262	43556
16.44073	37420
16.44885	38298
16.45698	35898
16.46510	37786
16.47322	36613
16.48135	37723
16.48947	40888
16.49760	35116
16.50572	32921
16.51383	35775
16.52197	36552
16.53008	33666
16.53822	35506
16.54633	33654
16.55445	33134
16.56258	40348
16.57070	33995
16.57883	38692
16.58695	37308
16.59507	42338
16.60320	47540
16.61132	47397
16.61943	56283
16.62757	58018
16.63568	55437
16.64382	47503
16.65193	45583
16.66005	38571
16.66818	37557
16.67630	33625
16.68443	39350
16.69255	38238
16.70067	33489
16.70880	35603
16.71692	33920
16.72503	32105
16.73317	29962
16.74128	31175
16.74942	34627
16.75753	31561
16.76565	28046
16.77378	31494
16.78190	31725
16.79003	31850
16.79815	31626
16.80627	33944
16.81440	28556
16.82252	30637
16.83065	28534
16.83877	28079
16.84688	31500
16.85502	29229
16.86313	33978
16.87125	28292
16.87938	28507
16.88750	26742
16.89563	24885
16.90375	30567
16.91187	27094
16.92000	27093
16.92812	29738
16.93625	23607
16.94437	27507
16.95248	30257
16.96062	30870
16.96873	30688
16.97687	29979
16.98498	28962
16.99310	28272
17.00123	27764
17.00935	27613
17.01747	30479
17.02560	27047
17.03372	26844
17.04185	28703
17.04997	28281
17.05808	29075
17.06622	27925
17.07433	28617
17.08247	29009
17.09058	32574
17.09870	28500
17.10683	28739
17.11495	29328
17.12307	30945
17.13120	29163
17.13932	30501
17.14745	33053
17.15557	31727
17.16368	31211
17.17182	26119
17.17993	30378
17.18807	26518
17.19618	25128
17.20430	29102
17.21243	30181
17.22055	25517
17.22868	26263
17.23680	27960
17.24492	25740
17.25305	30971
17.26117	27425
17.26928	26237
17.27742	30922
17.28553	26065
17.29367	29884
17.30178	30206
17.30990	28773
17.31803	28933
17.32615	31186
17.33428	32049
17.34240	37039
17.35052	31877
17.35865	35888
17.36677	39264
17.37490	36495
17.38302	35264
17.39113	35169
17.39927	35643
17.40738	32627
17.41550	33302
17.42363	34288
17.43175	33319
17.43988	33865
17.44800	35801
17.45612	34973
17.46425	33974
17.47237	31702
17.48050	31263
17.48862	34654
17.49673	33218
17.50487	32770
17.51298	33774
17.52110	34085
17.52923	32437
17.53735	27254
17.54548	29700
17.55360	30541
17.56172	29752
17.56985	30502
17.57797	31769
17.58610	31264
17.59422	30919
17.60233	34359
17.61047	29538
17.61858	30066
17.62672	37813
17.63483	46750
17.64295	58929
17.65108	91473
17.65920	137565
17.66732	182788
17.67545	220293
17.68357	229513
17.69170	204102
17.69982	171109
17.70793	127202
17.71607	95654
17.72418	79143
17.73232	61225
17.74043	60091
17.74855	57570
17.75668	56653
17.76480	48915
17.77292	48775
17.78105	45346
17.78917	47753
17.79730	45353
17.80542	46759
17.81353	45500
17.82167	48368
17.82978	51852
17.83792	50700
17.84603	50892
17.85415	50547
17.86228	53965
17.87040	39999
17.87853	44551
17.88665	41893
17.89477	39498
17.90290	35163
17.91102	36812
17.91913	32825
17.92727	35227
17.93538	31983
17.94352	33369
17.95163	35700
17.95975	32699
17.96788	35999
17.97600	36898
17.98413	31664
17.99225	31438
18.00037	30703
18.00850	32702
18.01662	32603
18.02475	31755
18.03287	32516
18.04098	30660
18.04912	31779
18.05723	30790
18.06535	32435
18.07348	37843
18.08160	47467
18.08973	50212
18.09785	56914
18.10597	64743
18.11410	63875
18.12222	58940
18.13035	53171
18.13847	50917
18.14658	48408
18.15472	49549
18.16283	45233
18.17095	48405
18.17908	50942
18.18720	51911
18.19533	49476
18.20345	50375
18.21157	46330
18.21970	41401
18.22782	40550
18.23595	40189
18.24407	37390
18.25218	40711
18.26032	38644
18.26843	37825
18.27657	35782
18.28468	34626
18.29280	37355
18.30093	34203
18.30905	33514
18.31717	32502
18.32530	37102
18.33342	30337
18.34155	34206
18.34967	32727
18.35778	31483
18.36592	31001
18.37403	37510
18.38217	35695
18.39028	32797
18.39840	33350
18.40653	33166
18.41465	33012
18.42278	35466
18.43090	29204
18.43902	29961
18.44715	36830
18.45527	31974
18.46338	32373
18.47152	30552
18.47963	34557
18.48777	32323
18.49588	31297
18.50400	33107
18.51213	31323
18.52025	32072
18.52838	31442
18.53650	27680
18.54462	27118
18.55275	27954
18.56087	29453
18.56898	31661
18.57712	32215
18.58523	31984
18.59337	32220
18.60148	33869
18.60960	31264
18.61773	35919
18.62585	34165
18.63398	33710
18.64210	36378
18.65022	32523
18.65835	33257
18.66647	35597
18.67460	33521
18.68272	37756
18.69083	33581
18.69897	30563
18.70708	29888
18.71520	32527
18.72333	29980
18.73145	31424
18.73958	28234
18.74770	29042
18.75582	28530
18.76395	31559
18.77207	36888
18.78020	30233
18.78832	30429
18.79643	26943
18.80457	28431
18.81268	31449
18.82082	27311
18.82893	26706
18.83705	29607
18.84518	29219
18.85330	31430
18.86142	31301
18.86955	26039
18.87767	28845
18.88580	30221
18.89392	28234
18.90203	30187
18.91017	28129
18.91828	29308
18.92642	30677
18.93453	31238
18.94265	35059
18.95078	31111
18.95890	29250
18.96702	35346
18.97515	30187
18.98327	29436
18.99140	34621
18.99952	33698
19.00763	33315
19.01577	32535
19.02388	33799
19.03202	31922
19.04013	29500
19.04825	29382
19.05638	31438
19.06450	31299
19.07263	31547
19.08075	33420
19.08887	37694
19.09700	44431
19.10512	52318
19.11323	64214
19.12137	64282
19.12948	66036
19.13762	65709
19.14573	65229
19.15385	66885
19.16198	66847
19.17010	70079
19.17823	75557
19.18635	78914
19.19447	79533
19.20260	74100
19.21072	70687
19.21883	67528
19.22697	57385
19.23508	53765
19.24322	46116
19.25133	44418
19.25945	39615
19.26758	35687
19.27570	39840
19.28383	38722
19.29195	48111
19.30007	47112
19.30820	46241
19.31632	56504
19.32445	52723
19.33257	50832
19.34068	60306
19.34882	63415
19.35693	60626
19.36505	54208
19.37318	50127
19.38130	52404
19.38943	49864
19.39755	43592
19.40567	41757
19.41380	43166
19.42192	38267
19.43005	38497
19.43817	38630
19.44628	36331
19.45442	34161
19.46253	38110
19.47067	40202
19.47878	36630
19.48690	36758
19.49503	37850
19.50315	46097
19.51127	62045
19.51940	77514
19.52752	93118
19.53565	93364
19.54377	85289
19.55188	68021
19.56002	57668
19.56813	50428
19.57627	45492
19.58438	38465
19.59250	33794
19.60063	38185
19.60875	38331
19.61687	35346
19.62500	31947
19.63312	34848
19.64125	39683
19.64937	48512
19.65748	63982
19.66562	93248
19.67373	110905
19.68187	136437
19.68998	130437
19.69810	118243
19.70623	101605
19.71435	90241
19.72248	72403
19.73060	65673
19.73872	56574
19.74685	53945
19.75497	52092
19.76308	48644
19.77122	49090
19.77933	45295
19.78747	39888
19.79558	44099
19.80370	46625
19.81183	46812
19.81995	45047
19.82808	47204
19.83620	52572
19.84432	80566
19.85245	202249
19.86057	647562
19.86870	2063789
19.87682	5458453
19.88493	1.201807E+07
19.89307	2.123724E+07
19.90118	3.026237E+07
19.90930	3.619942E+07
19.91743	3.737438E+07
19.92555	3.413376E+07
19.93368	2.675737E+07
19.94180	1.840304E+07
19.94992	1.193279E+07
19.95805	8088479
19.96617	5911998
19.97430	4840333
19.98242	4268357
19.99053	3804457
19.99867	3445738
20.00678	3067485
20.01490	2806148
20.02303	2567800
20.03115	2399835
20.03928	2181969
20.04740	1887450
20.05552	1591169
20.06365	1262242
20.07177	942939
20.07990	721558
20.08802	534625
20.09613	447632
20.10427	383248
20.11238	356056
20.12052	341217
20.12863	318950
20.13675	306182
20.14488	297178
20.15300	287590
20.16112	280360
20.16925	281720
20.17737	277446
20.18550	274676
20.19362	250876
20.20173	231694
20.20987	226202
20.21798	216574
20.22612	210355
20.23423	203153
20.24235	190719
20.25048	198458
20.25860	190963
20.26672	190022
20.27485	199343
20.28297	213560
20.29110	225489
20.29922	222697
20.30733	223155
20.31547	209189
20.32358	190347
20.33172	174907
20.33983	148848
20.34795	138334
20.35608	118948
20.36420	94860
20.37233	80768
20.38045	73895
20.38857	63008
20.39670	63774
20.40482	59455
20.41293	55942
20.42107	57127
20.42918	60910
20.43732	67014
20.44543	67568
20.45355	73892
20.46168	77101
20.46980	82159
20.47793	84540
20.48605	84456
20.49417	72460
20.50230	69585
20.51042	64111
20.51855	56828
20.52667	54963
20.53478	50886
20.54292	45315
20.55103	50701
20.55915	52246
20.56728	42138
20.57540	51239
20.58353	44566
20.59165	54420
20.59977	45451
20.60790	44874
20.61602	47067
20.62415	45200
20.63227	43365
20.64038	44209
20.64852	51193
20.65663	48650
20.66477	44179
20.67288	41952
20.68100	46657
20.68913	45282
20.69725	47122
20.70537	46257
20.71350	44819
20.72162	48238
20.72975	48190
20.73787	48754
20.74598	42692
20.75412	45253
20.76223	42366
20.77037	41403
20.77848	46837
20.78660	43402
20.79473	42736
20.80285	46338
20.81097	44203
20.81910	41126
20.82722	42828
20.83535	40853
20.84347	43414
20.85158	44270
20.85972	44251
20.86783	45361
20.87597	42475
20.88408	44097
20.89220	40830
20.90033	44353
20.90845	40005
20.91658	40025
20.92470	47026
20.93282	43633
20.94095	46093
20.94907	43783
20.95718	42880
20.96532	38875
20.97343	44403
20.98157	39437
20.98968	39032
20.99780	38726
21.00593	38600
21.01405	39618
21.02218	36496
21.03030	43260
21.03842	44735
21.04655	47799
21.05467	45593
21.06278	47445
21.07092	49484
21.07903	44361
21.08717	42074
21.09528	41983
21.10340	39158
21.11153	39984
21.11965	38743
21.12778	40589
21.13590	40194
21.14402	41573
21.15215	46374
21.16027	43327
21.16840	45025
21.17652	39603
21.18463	40281
21.19277	42652
21.20088	45630
21.20900	39054
21.21713	39892
21.22525	44965
21.23338	41904
21.24150	37453
21.24962	45371
21.25775	42170
21.26587	43536
21.27400	45660
21.28212	44126
21.29023	46448
21.29837	41794
21.30648	44531
21.31460	39105
21.32273	41127
21.33085	39303
21.33898	39188
21.34710	40226
21.35522	38366
21.36335	44827
21.37147	38796
21.37960	42185
21.38772	38467
21.39583	44297
21.40397	38706
21.41208	40194
21.42022	38892
21.42833	42040
21.43645	40326
21.44458	36757
21.45270	39547
21.46082	37996
21.46895	36374
21.47707	37051
21.48520	36390
21.49332	35889
21.50143	34820
21.50957	36062
21.51768	38694
21.52582	35920
21.53393	37175
21.54205	39506
21.55018	37436
21.55830	38676
21.56643	40014
21.57455	38111
21.58267	36656
21.59080	37267
21.59892	31873
21.60703	36000
21.61517	37921
21.62328	37365
21.63142	42181
21.63953	43552
21.64765	53860
21.65578	55520
21.66390	54470
21.67203	49435
21.68015	47495
21.68827	45546
21.69640	42888
21.70452	39504
21.71265	41084
21.72077	37172
21.72888	38386
21.73702	39807
21.74513	36023
21.75325	37908
21.76138	38431
21.76950	38828
21.77763	42344
21.78575	39438
21.79387	35259
21.80200	39090
21.81012	39431
21.81825	35074
21.82637	42987
21.83448	39925
21.84262	50940
21.85073	58100
21.85885	60884
21.86698	61321
21.87510	57708
21.88323	53136
21.89135	52643
21.89947	43790
21.90760	41324
21.91572	41639
21.92385	39484
21.93197	40147
21.94008	36442
21.94822	37700
21.95633	39033
21.96447	35480
21.97258	37971
21.98070	37035
21.98883	35776
21.99695	33631
22.00507	34190
22.01320	32935
22.02132	35158
22.02945	33068
22.03757	35022
22.04568	35607
22.05382	36104
22.06193	37165
22.07007	35670
22.07818	37155
22.08630	35777
22.09443	33035
22.10255	35335
22.11067	34026
22.11880	36604
22.12692	33687
22.13505	32290
22.14317	35491
22.15128	37057
22.15942	32733
22.16753	33028
22.17567	37245
22.18378	37597
22.19190	34390
22.20003	32846
22.20815	33966
22.21628	36004
22.22440	36834
22.23252	40408
22.24065	35513
22.24877	36490
22.25688	35126
22.26502	36128
22.27313	36141
22.28127	33284
22.28938	35061
22.29750	38278
22.30563	47338
22.31375	64441
22.32188	96472
22.33000	132472
22.33812	162192
22.34625	176608
22.35437	174444
22.36250	147338
22.37062	123481
22.37873	99984
22.38687	72459
22.39498	73632
22.40310	57939
22.41123	56270
22.41935	55656
22.42748	52725
22.43560	50974
22.44372	46556
22.45185	44902
22.45997	36130
22.46810	36953
22.47622	37615
22.48433	38398
22.49247	39461
22.50058	41142
22.50870	35589
22.51683	36790
22.52495	35952
22.53308	35278
22.54120	32477
22.54932	36331
22.55745	36603
22.56557	34667
22.57370	34353
22.58182	34852
22.58993	36817
22.59807	35929
22.60618	32611
22.61432	31362
22.62243	33739
22.63055	30244
22.63868	32575
22.64680	29889
22.65492	35395
22.66305	38685
22.67117	43279
22.67930	44386
22.68742	52039
22.69553	56043
22.70367	56969
22.71178	54939
22.71992	56142
22.72803	52238
22.73615	45100
22.74428	41083
22.75240	39797
22.76053	37886
22.76865	40405
22.77677	32927
22.78490	31248
22.79302	33557
22.80113	32684
22.80927	31653
22.81738	31802
22.82552	34141
22.83363	29381
22.84175	32256
22.84988	37306
22.85800	34499
22.86613	30673
22.87425	35841
22.88237	37434
22.89050	36217
22.89862	36472
22.90673	40259
22.91487	42699
22.92298	47802
22.93112	60721
22.93923	55973
22.94735	61217
22.95548	62681
22.96360	56182
22.97173	60096
22.97985	60568
22.98797	61779
22.99610	52606
23.00422	49866
23.01235	47656
23.02047	45965
23.02858	41786
23.03672	39024
23.04483	40497
23.05295	39403
23.06108	41580
23.06920	37999
23.07733	38324
23.08545	33463
23.09357	39139
23.10170	34934
23.10982	41057
23.11795	35254
23.12607	34165
23.13418	33307
23.14232	32976
23.15043	35341
23.15855	36045
23.16668	32581
23.17480	34018
23.18293	35540
23.19105	33605
23.19917	33419
23.20730	33032
23.21542	35399
23.22355	32905
23.23167	41184
23.23978	41087
23.24792	41611
23.25603	46873
23.26417	54607
23.27228	54392
23.28040	54746
23.28853	48904
23.29665	43697
23.30477	45239
23.31290	37393
23.32102	39272
23.32915	36124
23.33727	37925
23.34538	40179
23.35352	37851
23.36163	40065
23.36977	39357
23.37788	46242
23.38600	44845
23.39413	46396
23.40225	48343
23.41038	44719
23.41850	46015
23.42662	44251
23.43475	42826
23.44287	47989
23.45098	43623
23.45912	43643
23.46723	41108
23.47537	43441
23.48348	43076
23.49160	40327
23.49973	41566
23.50785	42248
23.51598	43082
23.52410	42009
23.53222	41890
23.54035	44236
23.54847	47651
23.55658	48646
23.56472	51232
23.57283	57166
23.58097	61567
23.58908	68332
23.59720	77438
23.60533	83866
23.61345	93479
23.62158	91953
23.62970	110495
23.63782	136171
23.64595	211946
23.65407	351919
23.66220	499637
23.67032	653625
23.67843	739840
23.68657	722195
23.69468	606943
23.70280	441224
23.71093	298319
23.71905	211367
23.72718	166961
23.73530	124848
23.74342	108404
23.75155	100690
23.75967	135355
23.76780	259155
23.77592	524355
23.78403	1019093
23.79217	1790070
23.80028	2453462
23.80842	2687468
23.81653	2480931
23.82465	2091024
23.83278	1552563
23.84090	1100092
23.84902	807777
23.85715	610422
23.86527	502123
23.87340	390153
23.88152	338861
23.88963	276927
23.89777	262800
23.90588	247554
23.91402	210408
23.92213	199518
23.93025	180621
23.93838	168127
23.94650	168354
23.95462	149014
23.96275	145499
23.97087	138648
23.97900	128893
23.98712	124018
23.99523	121969
24.00337	113482
24.01148	112984
24.01962	120035
24.02773	119085
24.03585	126725
24.04398	140219
24.05210	151261
24.06023	147806
24.06835	148595
24.07647	136310
24.08460	127566
24.09272	116308
24.10083	107035
24.10897	90995
24.11708	87247
24.12522	87506
24.13333	87198
24.14145	83115
24.14958	84823
24.15770	79880
24.16583	79992
24.17395	78084
24.18207	81988
24.19020	74834
24.19832	73359
24.20645	73834
24.21457	75459
24.22268	73689
24.23082	76009
24.23893	70454
24.24705	76152
24.25518	66441
24.26330	70783
24.27143	67465
24.27955	63693
24.28767	60111
24.29580	57065
24.30392	57695
24.31205	56096
24.32017	57276
24.32828	57781
24.33642	52373
24.34453	56861
24.35265	58255
24.36078	55206
24.36890	58356
24.37703	56439
24.38515	61801
24.39327	56750
24.40140	70457
24.40952	75168
24.41765	79803
24.42577	87046
24.43388	78752
24.44202	79172
24.45013	64436
24.45827	62936
24.46638	57371
24.47450	66147
24.48263	74068
24.49075	73800
24.49887	78409
24.50700	74865
24.51512	77837
24.52325	82661
24.53137	86014
24.53948	91302
24.54762	99123
24.55573	110968
24.56387	117216
24.57198	118484
24.58010	111394
24.58823	103740
24.59635	98676
24.60447	87534
24.61260	82039
24.62072	74087
24.62885	68833
24.63697	70681
24.64508	63940
24.65322	59274
24.66133	59567
24.66947	59699
24.67758	61835
24.68570	59033
24.69383	53500
24.70195	56224
24.71008	54311
24.71820	47001
24.72632	48640
24.73445	49415
24.74257	48579
24.75068	50318
24.75882	49528
24.76693	45413
24.77507	46965
24.78318	44067
24.79130	43429
24.79943	42826
24.80755	47392
24.81568	43733
24.82380	42165
24.83192	41125
24.84005	43465
24.84817	44625
24.85630	44824
24.86442	51679
24.87253	53362
24.88067	59375
24.88878	58818
24.89690	58610
24.90503	56161
24.91315	51449
24.92128	52369
24.92940	52866
24.93752	45946
24.94565	45033
24.95377	44798
24.96190	38002
24.97002	39839
24.97813	41133
24.98627	42429
24.99438	44043
25.00250	40549
25.01063	40600
25.01875	40978
25.02688	38532
25.03500	38851
25.04312	38031
25.05125	38235
25.05937	38151
25.06750	43394
25.07562	40338
25.08373	40686
25.09187	42589
25.09998	46148
25.10812	42447
25.11623	40443
25.12435	43722
25.13248	46786
25.14060	48461
25.14872	53070
25.15685	62066
25.16497	64002
25.17310	66083
25.18122	66202
25.18933	61602
25.19747	57812
25.20558	49119
25.21372	52279
25.22183	49277
25.22995	46587
25.23808	45668
25.24620	46098
25.25433	42412
25.26245	45321
25.27057	45352
25.27870	44034
25.28682	41892
25.29493	45139
25.30307	47477
25.31118	44941
25.31932	50835
25.32743	52360
25.33555	51062
25.34368	50182
25.35180	45355
25.35993	45221
25.36805	44255
25.37617	41999
25.38430	42204
25.39242	35226
25.40053	38658
25.40867	38848
25.41678	38632
25.42492	36343
25.43303	35113
25.44115	40053
25.44928	39714
25.45740	39585
25.46553	36242
25.47365	36394
25.48177	43725
25.48990	40537
25.49802	41132
25.50615	43168
25.51427	41269
25.52238	39041
25.53052	42598
25.53863	38831
25.54675	37059
25.55488	35092
25.56300	34446
25.57113	34538
25.57925	33171
25.58737	33004
25.59550	32755
25.60362	34849
25.61175	36654
25.61987	39677
25.62798	42810
25.63612	41251
25.64423	45366
25.65235	47006
25.66048	47090
25.66860	45447
25.67673	48488
25.68485	44310
25.69297	40194
25.70110	38471
25.70922	38649
25.71735	38372
25.72547	36827
25.73358	43303
25.74172	44947
25.74983	48427
25.75797	48235
25.76608	45942
25.77420	45596
25.78233	47557
25.79045	46621
25.79857	40719
25.80670	38745
25.81482	39334
25.82295	45408
25.83107	42703
25.83918	49045
25.84732	48584
25.85543	48470
25.86357	47108
25.87168	44843
25.87980	49705
25.88793	40255
25.89605	39362
25.90418	39493
25.91230	35835
25.92042	35543
25.92855	40239
25.93667	36467
25.94478	37973
25.95292	37106
25.96103	36877
25.96917	39158
25.97728	33363
25.98540	32577
25.99353	35329
26.00165	37699
26.00978	30557
26.01790	33513
26.02602	37168
26.03415	33434
26.04227	33741
26.05038	33381
26.05852	33761
26.06663	32633
26.07477	31617
26.08288	35516
26.09100	34098
26.09913	36270
26.10725	38486
26.11538	32507
26.12350	35983
26.13162	37986
26.13975	39189
26.14787	48036
26.15600	39513
26.16412	47631
26.17223	43129
26.18037	46280
26.18848	45925
26.19660	39359
26.20473	40877
26.21285	41813
26.22098	36844
26.22910	37082
26.23722	36326
26.24535	39194
26.25347	33852
26.26160	37082
26.26972	34715
26.27783	31037
26.28597	34594
26.29408	35055
26.30222	31167
26.31033	34696
26.31845	33397
26.32658	34258
26.33470	34383
26.34282	34300
26.35095	37639
26.35907	32759
26.36720	35168
26.37532	33677
26.38343	38697
26.39157	33606
26.39968	35657
26.40782	41587
26.41593	36388
26.42405	36876
26.43218	37441
26.44030	35184
26.44842	33506
26.45655	33572
26.46467	32260
26.47280	34296
26.48092	34982
26.48903	36079
26.49717	32772
26.50528	33992
26.51342	32292
26.52153	31535
26.52965	34527
26.53778	37271
26.54590	29786
26.55403	36601
26.56215	28733
26.57027	33177
26.57840	32091
26.58652	31678
26.59463	32417
26.60277	32210
26.61088	31568
26.61902	30052
26.62713	29368
26.63525	31000
26.64338	36093
26.65150	31599
26.65963	38769
26.66775	39195
26.67587	40046
26.68400	43689
26.69212	45564
26.70023	45014
26.70837	41738
26.71648	38403
26.72462	34094
26.73273	37852
26.74085	36988
26.74898	37208
26.75710	37501
26.76523	36489
26.77335	34115
26.78147	33267
26.78960	34029
26.79772	35849
26.80585	34768
26.81397	35662
26.82208	37059
26.83022	40265
26.83833	42990
26.84645	37919
26.85458	38374
26.86270	35651
26.87083	36268
26.87895	36364
26.88707	41989
26.89520	35921
26.90332	33386
26.91145	33160
26.91957	35808
26.92768	35638
26.93582	35286
26.94393	33189
26.95207	35237
26.96018	36011
26.96830	39245
26.97643	44229
26.98455	47568
26.99267	68227
27.00080	106886
27.00892	158647
27.01705	228180
27.02517	289567
27.03328	341564
27.04142	352095
27.04953	343530
27.05767	316732
27.06578	252867
27.07390	220862
27.08203	164819
27.09015	131451
27.09828	117171
27.10640	112962
27.11452	96436
27.12265	92284
27.13077	88375
27.13888	82789
27.14702	75628
27.15513	74117
27.16327	69980
27.17138	70749
27.17950	72185
27.18763	66412
27.19575	63548
27.20388	66292
27.21200	61266
27.22012	59201
27.22825	58510
27.23637	56691
27.24448	56123
27.25262	57236
27.26073	52809
27.26887	49703
27.27698	48360
27.28510	48671
27.29323	48259
27.30135	50402
27.30948	50513
27.31760	45003
27.32572	48328
27.33385	54065
27.34197	43412
27.35010	43202
27.35822	49762
27.36633	45161
27.37447	45064
27.38258	45736
27.39070	42578
27.39883	45040
27.40695	49197
27.41508	39319
27.42320	47049
27.43132	40974
27.43945	45079
27.44757	40376
27.45570	38355
27.46382	40860
27.47193	41113
27.48007	39598
27.48818	41055
27.49630	38773
27.50443	41913
27.51255	45337
27.52068	42637
27.52880	41990
27.53692	40294
27.54505	38706
27.55317	37183
27.56130	38435
27.56942	38926
27.57753	44694
27.58567	36795
27.59378	43641
27.60192	40712
27.61003	42913
27.61815	49135
27.62628	44618
27.63440	48019
27.64252	46515
27.65065	44600
27.65877	41323
27.66690	37149
27.67502	37132
27.68313	36701
27.69127	35180
27.69938	38215
27.70752	36486
27.71563	39425
27.72375	36831
27.73188	38747
27.74000	43591
27.74813	31161
27.75625	33870
27.76437	38952
27.77250	34896
27.78062	34264
27.78873	31868
27.79687	36164
27.80498	36012
27.81312	34544
27.82123	39239
27.82935	41920
27.83748	41698
27.84560	40753
27.85373	42290
27.86185	42502
27.86997	42505
27.87810	39063
27.88622	36135
27.89433	35009
27.90247	33916
27.91058	37567
27.91872	35913
27.92683	35054
27.93495	35360
27.94308	37443
27.95120	38072
27.95933	35482
27.96745	35056
27.97557	33063
27.98370	40604
27.99182	35692
27.99995	33837
28.00807	34837
28.01618	34110
28.02432	35755
28.03243	40136
28.04055	36248
28.04868	32401
28.05680	39931
28.06493	36349
28.07305	38237
28.08117	37638
28.08930	40101
28.09742	43068
28.10555	39946
28.11367	39366
28.12178	39184
28.12992	42261
28.13803	40960
28.14617	40412
28.15428	43414
28.16240	38493
28.17053	33434
28.17865	36971
28.18677	35386
28.19490	33238
28.20302	35470
28.21115	37082
28.21927	42479
28.22738	36110
28.23552	35844
28.24363	36702
28.25177	42697
28.25988	35140
28.26800	40633
28.27613	36452
28.28425	36509
28.29237	35352
28.30050	33784
28.30862	34130
28.31675	34216
28.32487	38702
28.33298	38450
28.34112	43682
28.34923	48642
28.35737	51971
28.36548	58420
28.37360	68379
28.38173	71642
28.38985	77376
28.39798	87058
28.40610	83119
28.41422	78672
28.42235	79450
28.43047	77212
28.43858	67380
28.44672	63448
28.45483	59759
28.46297	57554
28.47108	57216
28.47920	54601
28.48733	56356
28.49545	51752
28.50358	50658
28.51170	47420
28.51982	46678
28.52795	47939
28.53607	46715
28.54418	45466
28.55232	43325
28.56043	42920
28.56857	42721
28.57668	43132
28.58480	39910
28.59293	40236
28.60105	37507
28.60918	39290
28.61730	35959
28.62542	40903
28.63355	42811
28.64167	46962
28.64980	44638
28.65792	45932
28.66603	50698
28.67417	49545
28.68228	49596
28.69040	46967
28.69853	47439
28.70665	44916
28.71478	39231
28.72290	40401
28.73102	41442
28.73915	39156
28.74727	38025
28.75540	39143
28.76352	38619
28.77163	39051
28.77977	46640
28.78788	49691
28.79602	49452
28.80413	49626
28.81225	46284
28.82038	41589
28.82850	38205
28.83662	33656
28.84475	34551
28.85287	39978
28.86100	36118
28.86912	36543
28.87723	35151
28.88537	36042
28.89348	37278
28.90162	38016
28.90973	34149
28.91785	37304
28.92598	34488
28.93410	33202
28.94222	37234
28.95035	42556
28.95847	42073
28.96660	41365
28.97472	47475
28.98283	47811
28.99097	43571
28.99908	39366
29.00722	39638
29.01533	34495
29.02345	36136
29.03158	38542
29.03970	34606
29.04783	32855
29.05595	34791
29.06407	40198
29.07220	36273
29.08032	37344
29.08843	39296
29.09657	37764
29.10468	36489
29.11282	31562
29.12093	34149
29.12905	36283
29.13718	35387
29.14530	33328
29.15343	34425
29.16155	32719
29.16967	33200
29.17780	37037
29.18592	39781
29.19405	39448
29.20217	36599
29.21028	37455
29.21842	45306
29.22653	38806
29.23465	40076
29.24278	43382
29.25090	46497
29.25903	47198
29.26715	49942
29.27527	50284
29.28340	49001
29.29152	44239
29.29965	38920
29.30777	38365
29.31588	35296
29.32402	39107
29.33213	34061
29.34025	37919
29.34838	38467
29.35650	34579
29.36463	31545
29.37275	34651
29.38087	38870
29.38900	32143
29.39712	34264
29.40525	35560
29.41337	38008
29.42148	31357
29.42962	36957
29.43773	37677
29.44587	37281
29.45398	34843
29.46210	32256
29.47023	34780
29.47835	35579
29.48647	36800
29.49460	32799
29.50272	38939
29.51085	42080
29.51897	39802
29.52708	37693
29.53522	38343
29.54333	40530
29.55147	39034
29.55958	36472
29.56770	33965
29.57583	31077
29.58395	33013
29.59208	36349
29.60020	34523
29.60832	33483
29.61645	31340
29.62457	32125
29.63268	33230
29.64082	36861
29.64893	35902
29.65707	36649
29.66518	34313
29.67330	37194
29.68143	32432
29.68955	32137
29.69768	35889
29.70580	35954
29.71392	34495
29.72205	38089
29.73017	35439
29.73828	33526
29.74642	34635
29.75453	31880
29.76267	34866
29.77078	32755
29.77890	32997
29.78703	34522
29.79515	29925
29.80328	34554
29.81140	33860
29.81952	27589
29.82765	27124
29.83577	36430
29.84390	32123
29.85202	32902
29.86013	34323
29.86827	37005
29.87638	39465
29.88450	56056
29.89263	73936
29.90075	98038
29.90888	108835
29.91700	117945
29.92512	111864
29.93325	90516
29.94137	73078
29.94950	61669
29.95762	46884
29.96573	47442
29.97387	46019
29.98198	48321
29.99010	45155
29.99823	53720
30.00635	52274
30.01448	60180
30.02260	61595
30.03072	60502
30.03885	63600
30.04697	64208
30.05510	64260
30.06322	61911
30.07133	61379
30.07947	61496
30.08758	62973
30.09572	59440
30.10383	53080
30.11195	55279
30.12008	52583
30.12820	57856
30.13632	48986
30.14445	47334
30.15257	48794
30.16070	48133
30.16882	45999
30.17693	48977
30.18507	47634
30.19318	49768
30.20132	43998
30.20943	44507
30.21755	45654
30.22568	43395
30.23380	40366
30.24193	40560
30.25005	40649
30.25817	38327
30.26630	38215
30.27442	35940
30.28253	38461
30.29067	42611
30.29878	37345
30.30692	36835
30.31503	37123
30.32315	39777
30.33128	39151
30.33940	36401
30.34753	35012
30.35565	37553
30.36377	39199
30.37190	39297
30.38002	37201
30.38813	41646
30.39627	37788
30.40438	33471
30.41252	38175
30.42063	36712
30.42875	34524
30.43688	30375
30.44500	33366
30.45313	37797
30.46125	34729
30.46937	33647
30.47750	34870
30.48562	37099
30.49375	32693
30.50187	37271
30.50998	34181
30.51812	32837
30.52623	34160
30.53435	34162
30.54248	35514
30.55060	34178
30.55873	35144
30.56685	35853
30.57497	31082
30.58310	31142
30.59122	31197
30.59935	32318
30.60747	30038
30.61558	33574
30.62372	34513
30.63183	33616
30.63997	32760
30.64808	29276
30.65620	33710
30.66433	33108
30.67245	30842
30.68057	31835
30.68870	30797
30.69682	29761
30.70495	31284
30.71307	33104
30.72118	35114
30.72932	30660
30.73743	31250
30.74557	35211
30.75368	30813
30.76180	32545
30.76993	33436
30.77805	34601
30.78617	35043
30.79430	37354
30.80242	39619
30.81055	45094
30.81867	43211
30.82678	42080
30.83492	43931
30.84303	41053
30.85117	42270
30.85928	39285
30.86740	34169
30.87553	34176
30.88365	33754
30.89178	35232
30.89990	36461
30.90802	30845
30.91615	33321
30.92427	34295
30.93238	34911
30.94052	35564
30.94863	38308
30.95677	33638
30.96488	34716
30.97300	32953
30.98113	33116
30.98925	35864
30.99738	37173
31.00550	41406
31.01362	42280
31.02175	48957
31.02987	55477
31.03798	62140
31.04612	74644
31.05423	67370
31.06237	62738
31.07048	58173
31.07860	57048
31.08673	65227
31.09485	89668
31.10298	123072
31.11110	160014
31.11922	184068
31.12735	186249
31.13547	150585
31.14360	116044
31.15172	89058
31.15983	59021
31.16797	46368
31.17608	48548
31.18420	44524
31.19233	46464
31.20045	59076
31.20858	80820
31.21670	96448
31.22482	109005
31.23295	119468
31.24107	111373
31.24920	98633
31.25732	86394
31.26543	70231
31.27357	57127
31.28168	46547
31.28982	41514
31.29793	41180
31.30605	39290
31.31418	37130
31.32230	37551
31.33042	38210
31.33855	36771
31.34667	37307
31.35480	39469
31.36292	37645
31.37103	42922
31.37917	43114
31.38728	50840
31.39542	53641
31.40353	56570
31.41165	55104
31.41978	49416
31.42790	42191
31.43602	41300
31.44415	39409
31.45227	36841
31.46040	38809
31.46852	41438
31.47663	37679
31.48477	34253
31.49288	32405
31.50102	33803
31.50913	34037
31.51725	36105
31.52538	38990
31.53350	38189
31.54163	35771
31.54975	35786
31.55787	37932
31.56600	35664
31.57412	34221
31.58223	33834
31.59037	34053
31.59848	32550
31.60662	37442
31.61473	34585
31.62285	33591
31.63098	34082
31.63910	40883
31.64723	33667
31.65535	34869
31.66347	31532
31.67160	32033
31.67972	35490
31.68785	36783
31.69597	40082
31.70408	33729
31.71222	36175
31.72033	31556
31.72845	34862
31.73658	34955
31.74470	40473
31.75283	33898
31.76095	33369
31.76907	36661
31.77720	35621
31.78532	33840
31.79345	40450
31.80157	36903
31.80968	39617
31.81782	41023
31.82593	41072
31.83405	39200
31.84218	42317
31.85030	41617
31.85843	43621
31.86655	42837
31.87467	44266
31.88280	39954
31.89092	47848
31.89905	44777
31.90717	48856
31.91528	47963
31.92342	50997
31.93153	51939
31.93967	51686
31.94778	54245
31.95590	51000
31.96403	50801
31.97215	54795
31.98027	53869
31.98840	56131
31.99652	59982
32.00465	54362
32.01277	57546
32.02088	60347
32.02902	52203
32.03713	48862
32.04527	47422
32.05338	50569
32.06150	49604
32.06963	47470
32.07775	46081
32.08587	46652
32.09400	48307
32.10212	44179
32.11025	46884
32.11837	43960
32.12648	43458
32.13462	41260
32.14273	35685
32.15087	39005
32.15898	35465
32.16710	35792
32.17523	41454
32.18335	39999
32.19148	37576
32.19960	43862
32.20772	40938
32.21585	37366
32.22397	40667
32.23208	38529
32.24022	36942
32.24833	40307
32.25647	38272
32.26458	42338
32.27270	37789
32.28083	39162
32.28895	39976
32.29708	41050
32.30520	40098
32.31332	39887
32.32145	40188
32.32957	38069
32.33770	42779
32.34582	40622
32.35393	42961
32.36207	47497
32.37018	48289
32.37830	40431
32.38643	42513
32.39455	41233
32.40268	38170
32.41080	37394
32.41892	38765
32.42705	36682
32.43517	32370
32.44330	41182
32.45142	36645
32.45953	34551
32.46767	35704
32.47578	40425
32.48392	32376
32.49203	36311
32.50015	35221
32.50828	34498
32.51640	34761
32.52452	33802
32.53265	33842
32.54077	34326
32.54890	34030
32.55702	36569
32.56513	36142
32.57327	37272
32.58138	39736
32.58952	36592
32.59763	38630
32.60575	37480
32.61388	33941
32.62200	36957
32.63012	31807
32.63825	33740
32.64637	35084
32.65450	36751
32.66262	35800
32.67073	40793
32.67887	42163
32.68698	53089
32.69512	45692
32.70323	41136
32.71135	42624
32.71948	39898
32.72760	42171
32.73573	41825
32.74385	38102
32.75197	37173
32.76010	36123
32.76822	36834
32.77633	33121
32.78447	34419
32.79258	36015
32.80072	33734
32.80883	36377
32.81695	35407
32.82508	32760
32.83320	28983
32.84133	31609
32.84945	34745
32.85757	39985
32.86570	33958
32.87382	35050
32.88193	36325
32.89007	33703
32.89818	35887
32.90632	33154
32.91443	30812
32.92255	37613
32.93068	37042
32.93880	40992
32.94693	34537
32.95505	34256
32.96317	39305
32.97130	43273
32.97942	37335
32.98755	37686
32.99567	37851
33.00378	34729
33.01192	34899
33.02003	37270
33.02815	35942
33.03628	34009
33.04440	34453
33.05253	35341
33.06065	34625
33.06877	32728
33.07690	35338
33.08502	38813
33.09315	37754
33.10127	43413
33.10938	50285
33.11752	58918
33.12563	61345
33.13377	65226
33.14188	64131
33.15000	56979
33.15813	49922
33.16625	43403
33.17437	39823
33.18250	38810
33.19062	36058
33.19875	38729
33.20687	37316
33.21498	35338
33.22312	41561
33.23123	39970
33.23937	40790
33.24748	38244
33.25560	40099
33.26373	31890
33.27185	36608
33.27997	40828
33.28810	41501
33.29622	37569
33.30435	37152
33.31247	35403
33.32058	33160
33.32872	33210
33.33683	33559
33.34497	31354
33.35308	36552
33.36120	33131
33.36933	35871
33.37745	35257
33.38558	38911
33.39370	36471
33.40182	38102
33.40995	36624
33.41807	34773
33.42618	33902
33.43432	36194
33.44243	35235
33.45057	34358
33.45868	35452
33.46680	36337
33.47493	33542
33.48305	34029
33.49118	35336
33.49930	34824
33.50742	35546
33.51555	33339
33.52367	36469
33.53180	36729
33.53992	36006
33.54803	38160
33.55617	32160
33.56428	35842
33.57240	35567
33.58053	35269
33.58865	34717
33.59678	33309
33.60490	39401
33.61302	33393
33.62115	36415
33.62927	37043
33.63740	34100
33.64552	35745
33.65363	42110
33.66177	36969
33.66988	39885
33.67800	38749
33.68613	34018
33.69425	42533
33.70238	36328
33.71050	35276
33.71862	36433
33.72675	37217
33.73487	38796
33.74300	38176
33.75112	36192
33.75923	34954
33.76737	33062
33.77548	41630
33.78362	38665
33.79173	35741
33.79985	33493
33.80798	36506
33.81610	39292
33.82422	35486
33.83235	34695
33.84047	38018
33.84860	38100
33.85672	37804
33.86483	37555
33.87297	38905
33.88108	38633
33.88922	38997
33.89733	34976
33.90545	44456
33.91358	41498
33.92170	38725
33.92982	40968
33.93795	40626
33.94607	38649
33.95420	37318
33.96232	38131
33.97043	39950
33.97857	35664
33.98668	38588
33.99482	41531
34.00293	39604
34.01105	35619
34.01918	37098
34.02730	38185
34.03543	43536
34.04355	37268
34.05167	37600
34.05980	36301
34.06792	41438
34.07603	39686
34.08417	41264
34.09228	37702
34.10042	41818
34.10853	39849
34.11665	38090
34.12478	39558
34.13290	36873
34.14103	37511
34.14915	44527
34.15727	42951
34.16540	42509
34.17352	34735
34.18165	40176
34.18977	35720
34.19788	35490
34.20602	37684
34.21413	33437
34.22225	40752
34.23038	38519
34.23850	37860
34.24663	39344
34.25475	35875
34.26287	40050
34.27100	39410
34.27912	41870
34.28725	37659
34.29537	39983
34.30348	34757
34.31162	37543
34.31973	42595
34.32785	39650
34.33598	40812
34.34410	38178
34.35223	38883
34.36035	40926
34.36847	39143
34.37660	37351
34.38472	40331
34.39285	40052
34.40097	42328
34.40908	38899
34.41722	40816
34.42533	40824
34.43347	41256
34.44158	39904
34.44970	41339
34.45783	37300
34.46595	37337
34.47407	33527
34.48220	39222
34.49032	38895
34.49845	40408
34.50657	38410
34.51468	39448
34.52282	45310
34.53093	43573
34.53907	50638
34.54718	51782
34.55530	53212
34.56343	60909
34.57155	60256
34.57968	61078
34.58780	57116
34.59592	54678
34.60405	53933
34.61217	47331
34.62028	49310
34.62842	47894
34.63653	45061
34.64467	40415
34.65278	46036
34.66090	43066
34.66903	39479
34.67715	44342
34.68528	40773
34.69340	43919
34.70152	43182
34.70965	40513
34.71777	40604
34.72588	39237
34.73402	39548
34.74213	40832
34.75027	43733
34.75838	43393
34.76650	40446
34.77463	38584
34.78275	33421
34.79088	41000
34.79900	39129
34.80712	37587
34.81525	45457
34.82337	46605
34.83150	43477
34.83962	44116
34.84773	43621
34.85587	41378
34.86398	43058
34.87210	37697
34.88023	38258
34.88835	42718
34.89648	42807
34.90460	39597
34.91272	39625
34.92085	39349
34.92897	40101
34.93710	46600
34.94522	54596
34.95333	74239
34.96147	107945
34.96958	172145
34.97772	239849
34.98583	318324
34.99395	328165
35.00208	301377
35.01020	228354
35.01832	149781
35.02645	96106
35.03457	69702
35.04270	62879
35.05082	58655
35.05893	54168
35.06707	55642
35.07518	53319
35.08332	53445
35.09143	56594
35.09955	49420
35.10768	51880
35.11580	48073
35.12392	49168
35.13205	46373
35.14017	45352
35.14830	46068
35.15642	49526
35.16453	47417
35.17267	45614
35.18078	49507
35.18892	50554
35.19703	48692
35.20515	43050
35.21328	47741
35.22140	45443
35.22953	47997
35.23765	41186
35.24577	44990
35.25390	44284
35.26202	46499
35.27013	46505
35.27827	48087
35.28638	40946
35.29452	44340
35.30263	44338
35.31075	45909
35.31888	45567
35.32700	44338
35.33513	47507
35.34325	43251
35.35137	42082
35.35950	42470
35.36762	47831
35.37573	43725
35.38387	44429
35.39198	43643
35.40012	45725
35.40823	46796
35.41635	45895
35.42448	45444
35.43260	42069
35.44073	45137
35.44885	46548
35.45697	41099
35.46510	45837
35.47322	44181
35.48135	51291
35.48947	46899
35.49758	48808
35.50572	47897
35.51383	47110
35.52195	47249
35.53008	46253
35.53820	46413
35.54633	47629
35.55445	44338
35.56257	43810
35.57070	47188
35.57882	45737
35.58695	49226
35.59507	52670
35.60318	51534
35.61132	46664
35.61943	50822
35.62757	51506
35.63568	46575
35.64380	48172
35.65193	44285
35.66005	44254
35.66817	44047
35.67630	43536
35.68442	46638
35.69255	43439
35.70067	43414
35.70878	44170
35.71692	51093
35.72503	48853
35.73317	47524
35.74128	44326
35.74940	42496
35.75753	47782
35.76565	50015
35.77377	46195
35.78190	41943
35.79002	48788
35.79815	45268
35.80627	45532
35.81438	45305
35.82252	43050
35.83063	45412
35.83877	46388
35.84688	45794
35.85500	42572
35.86313	47820
35.87125	42390
35.87938	43968
35.88750	42265
35.89562	43858
35.90375	46812
35.91187	49007
35.91998	45526
35.92812	48749
35.93623	44991
35.94437	50662
35.95248	45765
35.96060	44473
35.96873	43636
35.97685	41633
35.98498	47536
35.99310	49440
36.00122	40812
36.00935	44849
36.01747	50631
36.02560	48841
36.03372	50725
36.04183	48303
36.04997	47008
36.05808	43848
36.06620	46266
36.07433	46709
36.08245	46645
36.09058	51483
36.09870	43016
36.10682	45337
36.11495	50866
36.12307	46527
36.13120	46966
36.13932	47741
36.14743	45543
36.15557	48666
36.16368	53202
36.17180	52145
36.17993	51034
36.18805	46989
36.19618	48921
36.20430	48056
36.21242	47494
36.22055	44970
36.22867	46441
36.23680	42623
36.24492	44883
36.25303	39971
36.26117	44584
36.26928	44988
36.27742	44186
36.28553	45309
36.29365	45215
36.30178	45637
36.30990	41582
36.31802	46437
36.32615	57924
36.33427	52769
36.34240	51183
36.35052	48580
36.35863	53122
36.36677	51730
36.37488	50273
36.38302	43639
36.39113	43287
36.39925	48773
36.40738	47326
36.41550	41446
36.42362	44270
36.43175	43329
36.43987	52510
36.44800	46261
36.45612	49742
36.46423	40425
36.47237	44797
36.48048	44583
36.48862	44678
36.49673	44159
36.50485	43021
36.51298	45324
36.52110	45896
36.52923	44060
36.53735	43986
36.54547	43045
36.55360	47829
36.56172	43844
36.56983	47416
36.57797	45229
36.58608	46023
36.59422	46414
36.60233	50640
36.61045	44859
36.61858	44079
36.62670	44549
36.63483	45494
36.64295	44395
36.65107	44229
36.65920	45745
36.66732	46002
36.67545	44384
36.68357	43518
36.69168	50334
36.69982	47346
36.70793	49530
36.71605	44974
36.72418	46105
36.73230	43649
36.74043	47768
36.74855	49317
36.75667	48494
36.76480	48420
36.77292	45063
36.78105	46132
36.78917	47521
36.79728	47775
36.80542	49181
36.81353	48168
36.82165	44927
36.82978	49208
36.83790	45750
36.84603	43442
36.85415	50450
36.86227	44363
36.87040	41106
36.87852	50459
36.88665	46692
36.89477	48446
36.90288	42596
36.91102	50918
36.91913	49807
36.92727	48456
36.93538	48725
36.94350	43999
36.95163	44120
36.95975	45617
36.96787	47160
36.97600	50780
36.98412	48408
36.99225	53211
37.00037	48271
37.00848	48041
37.01662	49678
37.02473	47844
37.03287	47362
37.04098	47012
37.04910	44166
37.05723	49009
37.06535	47136
37.07348	48062
37.08160	46568
37.08972	48671
37.09785	48339
37.10597	49624
37.11408	53233
37.12222	49070
37.13033	46422
37.13847	49317
37.14658	46371
37.15470	47620
37.16283	50361
37.17095	51594
37.17908	49533
37.18720	46472
37.19532	51403
37.20345	51947
37.21157	52733
37.21968	53910
37.22782	55170
37.23593	54298
37.24407	54590
37.25218	50456
37.26030	51149
37.26843	53688
37.27655	48795
37.28468	49771
37.29280	47430
37.30092	50026
37.30905	52339
37.31717	52728
37.32530	51809
37.33342	57505
37.34153	51514
37.34967	53300
37.35778	54211
37.36590	56444
37.37403	59345
37.38215	61587
37.39028	59911
37.39840	56844
37.40652	60923
37.41465	59285
37.42277	53749
37.43090	57326
37.43902	58139
37.44713	54020
37.45527	51650
37.46338	54971
37.47150	52539
37.47963	58014
37.48775	54493
