Z:\data\JTB-E02\BACandBLUE\JTB-E18-007-13.D Fri Apr 12 15:55:46 2019
Start of data points
2.09537,64836
2.10348,64729
2.11162,64538
2.11973,60967
2.12785,61810
2.13598,61264
2.14410,60793
2.15223,61525
2.16035,61027
2.16847,62765
2.17660,58721
2.18472,59677
2.19285,58671
2.20097,56803
2.20908,59958
2.21722,56876
2.22533,56968
2.23345,55722
2.24158,53223
2.24970,52757
2.25783,57393
2.26595,106203
2.27407,1029324
2.28220,2589989
2.29032,1615202
2.29845,835461
2.30657,600035
2.31468,488083
2.32282,405443
2.33093,337745
2.33905,295846
2.34718,269312
2.35530,241389
2.36343,211443
2.37155,204612
2.37967,197131
2.38780,189262
2.39592,177077
2.40405,164599
2.41217,167174
2.42028,185569
2.42842,206131
2.43653,171531
2.44467,154740
2.45278,148759
2.46090,139266
2.46903,137438
2.47715,136275
2.48527,142171
2.49340,164351
2.50152,162729
2.50965,139925
2.51777,132864
2.52588,138086
2.53402,127605
2.54213,129848
2.55027,137513
2.55838,216249
2.56650,312329
2.57463,251738
2.58275,194930
2.59087,181899
2.59900,164356
2.60712,179837
2.61525,218192
2.62337,214664
2.63148,187363
2.63962,168261
2.64773,156315
2.65587,147600
2.66398,143371
2.67210,137996
2.68023,131585
2.68835,131865
2.69648,127589
2.70460,127037
2.71272,124811
2.72085,123388
2.72897,121962
2.73708,116648
2.74522,116649
2.75333,115847
2.76147,112937
2.76958,113194
2.77770,114008
2.78583,130309
2.79395,142812
2.80208,128161
2.81020,117097
2.81832,120048
2.82645,118182
2.83457,114449
2.84270,113796
2.85082,112379
2.85893,115311
2.86707,106427
2.87518,107743
2.88330,104677
2.89143,115612
2.89955,108997
2.90768,100400
2.91580,105661
2.92392,99476
2.93205,99600
2.94017,106041
2.94830,105456
2.95642,104000
2.96453,101869
2.97267,104808
2.98078,106335
2.98890,98239
2.99703,102303
3.00515,106035
3.01328,99494
3.02140,103393
3.02952,97321
3.03765,102204
3.04577,97068
3.05390,95954
3.06202,102613
3.07013,106256
3.07827,111974
3.08638,150038
3.09452,278043
3.10263,423228
3.11075,630962
3.11888,625480
3.12700,432279
3.13512,323304
3.14325,269466
3.15137,231242
3.15950,205740
3.16762,199081
3.17573,201871
3.18387,245230
3.19198,429913
3.20012,590474
3.20823,496446
3.21635,362827
3.22448,299220
3.23260,256647
3.24073,236634
3.24885,211465
3.25697,199251
3.26510,183229
3.27322,174254
3.28133,180972
3.28947,269816
3.29758,818359
3.30572,2295788
3.31383,4093881
3.32195,4753704
3.33008,4264904
3.33820,3496446
3.34633,2880513
3.35445,2428148
3.36257,2107544
3.37070,1875431
3.37882,1630586
3.38693,1446636
3.39507,1331884
3.40318,1198219
3.41132,1091423
3.41943,1028807
3.42755,944568
3.43568,892303
3.44380,838877
3.45193,781416
3.46005,746957
3.46817,703111
3.47630,656503
3.48442,639127
3.49255,625365
3.50067,599602
3.50878,573724
3.51692,536107
3.52503,540417
3.53315,531545
3.54128,514962
3.54940,496781
3.55753,473276
3.56565,442347
3.57377,434136
3.58190,438821
3.59002,428572
3.59815,409545
3.60627,396323
3.61438,403177
3.62252,390999
3.63063,374495
3.63875,364166
3.64688,361753
3.65500,353294
3.66313,490395
3.67125,1408134
3.67937,3512015
3.68750,4623709
3.69562,3620691
3.70375,2339855
3.71187,1721822
3.71998,1428841
3.72812,1224267
3.73623,1097036
3.74437,963286
3.75248,878702
3.76060,815207
3.76873,772741
3.77685,735384
3.78497,697708
3.79310,655901
3.80122,643414
3.80935,598736
3.81747,596267
3.82558,582731
3.83372,555234
3.84183,520546
3.84997,507211
3.85808,481963
3.86620,455483
3.87433,448417
3.88245,432173
3.89058,410817
3.89870,406514
3.90682,384315
3.91495,386749
3.92307,396932
3.93118,432050
3.93932,434226
3.94743,423741
3.95557,534331
3.96368,782124
3.97180,1003726
3.97993,930000
3.98805,703209
3.99618,605802
4.00430,745746
4.01242,1193976
4.02055,1532860
4.02867,1383807
4.03678,989004
4.04492,692066
4.05303,544339
4.06117,473838
4.06928,428445
4.07740,391932
4.08553,362484
4.09365,346659
4.10178,338280
4.10990,323441
4.11802,317969
4.12615,374691
4.13427,792312
4.14240,2152955
4.15052,4130468
4.15863,5058062
4.16677,4083595
4.17488,2649838
4.18300,1676808
4.19113,1141995
4.19925,899784
4.20738,1150061
4.21550,3625785
4.22362,1.064177E+07
4.23175,1.964293E+07
4.23987,2.659835E+07
4.24800,3.104972E+07
4.25612,3.295379E+07
4.26423,2.908424E+07
4.27237,1.738732E+07
4.28048,1.012416E+07
4.28862,6983790
4.29673,5203120
4.30485,3975101
4.31298,3183390
4.32110,2592706
4.32922,2118411
4.33735,1813774
4.34547,1601914
4.35360,1409314
4.36172,1285538
4.36983,1189316
4.37797,1075281
4.38608,1020019
4.39422,930986
4.40233,873440
4.41045,803311
4.41858,769416
4.42670,711699
4.43482,679977
4.44295,654948
4.45107,620842
4.45920,606918
4.46732,616199
4.47543,870351
4.48357,1506453
4.49168,2210911
4.49982,2301681
4.50793,1841635
4.51605,1397710
4.52418,1124588
4.53230,976188
4.54043,891993
4.54855,846992
4.55667,781809
4.56480,760462
4.57292,713165
4.58103,678598
4.58917,651531
4.59728,627845
4.60542,610225
4.61353,602759
4.62165,579216
4.62978,580839
4.63790,597123
4.64603,617666
4.65415,596428
4.66227,578086
4.67040,549776
4.67852,525167
4.68665,518599
4.69477,488908
4.70288,492352
4.71102,475528
4.71913,465592
4.72725,456183
4.73538,448127
4.74350,434842
4.75163,439136
4.75975,426323
4.76787,417546
4.77600,413112
4.78412,409328
4.79225,407357
4.80037,399219
4.80848,403631
4.81662,400906
4.82473,395510
4.83285,400503
4.84098,399487
4.84910,409307
4.85723,401174
4.86535,397333
4.87347,385855
4.88160,375852
4.88972,376406
4.89785,374383
4.90597,373592
4.91408,364376
4.92222,363792
4.93033,376708
4.93847,485105
4.94658,823048
4.95470,1623943
4.96283,2729067
4.97095,3615872
4.97907,3677532
4.98720,3159748
4.99532,2494121
5.00345,1946010
5.01157,1589065
5.01968,1366145
5.02782,1207089
5.03593,1109219
5.04407,1061018
5.05218,1010955
5.06030,942021
5.06843,871238
5.07655,841223
5.08467,778584
5.09280,748880
5.10092,727395
5.10905,681110
5.11717,646000
5.12528,651556
5.13342,633284
5.14153,612137
5.14967,576831
5.15778,566501
5.16590,574842
5.17403,561626
5.18215,557169
5.19028,543386
5.19840,528737
5.20652,521200
5.21465,521436
5.22277,504274
5.23088,488965
5.23902,491317
5.24713,494711
5.25527,474915
5.26338,459504
5.27150,436740
5.27963,428345
5.28775,416197
5.29588,408227
5.30400,403972
5.31212,395228
5.32025,392038
5.32837,394503
5.33650,382261
5.34462,387510
5.35273,378237
5.36087,382970
5.36898,376926
5.37710,367496
5.38523,369213
5.39335,362788
5.40148,360368
5.40960,366736
5.41772,360016
5.42585,352767
5.43397,360250
5.44210,382896
5.45022,463356
5.45833,580677
5.46647,661904
5.47458,635044
5.48270,551767
5.49083,463275
5.49895,401876
5.50708,365426
5.51520,360629
5.52332,341831
5.53145,335174
5.53957,334277
5.54770,325691
5.55582,321531
5.56393,321888
5.57207,319440
5.58018,324833
5.58832,312613
5.59643,326555
5.60455,318006
5.61268,317501
5.62080,304073
5.62892,309689
5.63705,308878
5.64517,314472
5.65330,306526
5.66142,311049
5.66953,348655
5.67767,470766
5.68578,750839
5.69392,1081984
5.70203,1248554
5.71015,1133328
5.71828,865646
5.72640,637806
5.73453,524992
5.74265,450221
5.75077,408741
5.75890,387777
5.76702,360846
5.77513,344389
5.78327,333927
5.79138,332077
5.79952,348582
5.80763,393067
5.81575,453540
5.82388,466801
5.83200,432745
5.84013,404559
5.84825,382839
5.85637,360912
5.86450,339180
5.87262,339879
5.88073,324023
5.88887,309083
5.89698,301050
5.90512,294200
5.91323,259597
5.92135,245195
5.92948,245956
5.93760,243546
5.94573,252408
5.95385,264712
5.96197,278169
5.97010,286603
5.97822,308207
5.98635,332120
5.99447,343149
6.00258,339924
6.01072,306407
6.01883,280693
6.02695,255029
6.03508,238933
6.04320,230790
6.05133,224652
6.05945,216585
6.06757,216453
6.07570,213529
6.08382,207858
6.09195,202453
6.10007,201758
6.10818,197728
6.11632,200210
6.12443,203856
6.13255,224852
6.14068,254251
6.14880,284643
6.15693,314258
6.16505,315284
6.17317,308563
6.18130,285518
6.18942,260538
6.19755,255239
6.20567,248372
6.21378,232842
6.22192,231682
6.23003,230251
6.23817,223717
6.24628,217116
6.25440,222979
6.26253,219353
6.27065,211815
6.27877,220168
6.28690,206790
6.29502,220339
6.30315,224334
6.31127,251679
6.31938,256935
6.32752,267378
6.33563,257129
6.34377,240019
6.35188,226303
6.36000,220869
6.36813,214988
6.37625,217436
6.38438,223148
6.39250,223061
6.40062,214676
6.40875,218225
6.41687,213120
6.42498,210367
6.43312,206704
6.44123,205830
6.44937,212699
6.45748,201079
6.46560,214710
6.47373,216226
6.48185,207054
6.48998,210823
6.49810,213951
6.50622,208396
6.51435,210979
6.52247,213200
6.53060,207607
6.53872,210589
6.54683,208150
6.55497,204803
6.56308,198652
6.57120,206163
6.57933,213196
6.58745,204573
6.59558,209204
6.60370,205387
6.61182,207573
6.61995,205896
6.62807,205190
6.63620,206885
6.64432,236178
6.65243,308316
6.66057,453933
6.66868,627419
6.67680,685064
6.68493,594377
6.69305,453120
6.70118,351376
6.70930,305565
6.71742,285016
6.72555,271587
6.73367,260352
6.74180,267029
6.74992,258365
6.75803,232208
6.76617,229431
6.77428,224937
6.78242,214242
6.79053,212176
6.79865,211729
6.80678,230233
6.81490,229982
6.82302,242205
6.83115,241215
6.83927,238951
6.84740,227374
6.85552,211840
6.86363,196891
6.87177,174012
6.87988,159805
6.88802,144844
6.89613,146442
6.90425,129975
6.91238,130939
6.92050,126248
6.92862,122738
6.93675,120002
6.94487,121989
6.95300,122305
6.96112,119972
6.96923,122923
6.97737,135616
6.98548,131602
6.99362,135329
7.00173,129640
7.00985,128018
7.01798,113696
7.02610,122509
7.03423,118478
7.04235,120615
7.05047,119014
7.05860,126281
7.06672,121868
7.07483,121022
7.08297,117641
7.09108,117644
7.09922,116617
7.10733,107125
7.11545,110154
7.12358,110570
7.13170,103113
7.13983,105717
7.14795,110844
7.15607,126269
7.16420,131997
7.17232,135529
7.18045,144435
7.18857,133234
7.19668,129607
7.20482,186636
7.21293,373368
7.22105,990392
7.22918,2145757
7.23730,3424769
7.24543,3930521
7.25355,3216482
7.26167,2085692
7.26980,1125066
7.27792,665176
7.28605,437141
7.29417,282148
7.30228,191104
7.31042,157997
7.31853,145925
7.32665,146938
7.33478,144072
7.34290,136982
7.35103,131956
7.35915,127999
7.36727,125824
7.37540,127952
7.38352,120515
7.39165,121422
7.39977,119253
7.40788,123707
7.41602,119603
7.42413,113699
7.43227,113456
7.44038,107827
7.44850,114585
7.45663,118546
7.46475,115480
7.47287,110774
7.48100,108543
7.48912,101796
7.49725,103316
7.50537,105498
7.51348,104036
7.52162,107890
7.52973,115097
7.53787,146693
7.54598,187969
7.55410,228013
7.56223,265782
7.57035,271079
7.57848,252245
7.58660,230996
7.59472,201649
7.60285,184291
7.61097,172158
7.61908,157459
7.62722,145003
7.63533,133924
7.64347,119100
7.65158,111283
7.65970,108606
7.66783,103716
7.67595,95264
7.68408,95900
7.69220,97956
7.70032,99596
7.70845,105991
7.71657,102170
7.72468,108120
7.73282,101402
7.74093,98655
7.74907,98011
7.75718,95364
7.76530,91661
7.77343,91105
7.78155,93664
7.78968,92751
7.79780,95146
7.80592,94271
7.81405,103060
7.82217,121736
7.83030,163570
7.83842,288058
7.84653,554751
7.85467,933356
7.86278,1514514
7.87090,2365266
7.87903,3572260
7.88715,4849071
7.89528,5634198
7.90340,5335200
7.91152,4255800
7.91965,3135984
7.92777,2273285
7.93590,1752548
7.94402,1359075
7.95213,1040985
7.96027,794344
7.96838,589659
7.97650,447708
7.98463,358493
7.99275,294828
8.00088,259543
8.00900,248462
8.01712,279937
8.02525,318629
8.03337,381674
8.04150,407083
8.04962,432418
8.05773,412183
8.06587,404412
8.07398,374887
8.08212,350670
8.09023,341297
8.09835,322759
8.10648,315826
8.11460,299524
8.12272,280095
8.13085,278429
8.13897,266631
8.14710,254375
8.15522,249894
8.16333,245963
8.17147,239181
8.17958,237229
8.18772,226897
8.19583,223767
8.20395,210967
8.21208,209459
8.22020,208700
8.22833,197836
8.23645,195872
8.24457,194844
8.25270,189500
8.26082,183424
8.26893,178429
8.27707,173468
8.28518,173055
8.29332,164289
8.30143,160551
8.30955,158050
8.31768,167860
8.32580,155291
8.33393,155761
8.34205,156126
8.35017,150051
8.35830,149804
8.36642,146389
8.37453,147917
8.38267,140114
8.39078,139269
8.39892,133979
8.40703,138593
8.41515,136245
8.42328,130189
8.43140,132802
8.43953,130847
8.44765,125953
8.45577,129157
8.46390,121302
8.47202,124807
8.48015,122875
8.48827,117490
8.49638,118326
8.50452,126490
8.51263,154601
8.52075,299931
8.52888,803672
8.53700,1998134
8.54513,4059061
8.55325,6119331
8.56137,7300644
8.56950,6294632
8.57762,4389096
8.58575,2360671
8.59387,1211325
8.60198,684244
8.61012,511868
8.61823,421445
8.62637,395579
8.63448,362839
8.64260,330989
8.65073,309245
8.65885,290611
8.66697,261334
8.67510,261949
8.68322,248506
8.69135,236331
8.69947,227554
8.70758,212079
8.71572,197092
8.72383,192864
8.73197,184936
8.74008,178795
8.74820,193699
8.75633,211881
8.76445,276969
8.77257,460931
8.78070,719338
8.78882,1044546
8.79695,1230986
8.80507,1205934
8.81318,983426
8.82132,718461
8.82943,538579
8.83757,435433
8.84568,407667
8.85380,387400
8.86193,388899
8.87005,388001
8.87818,351184
8.88630,347616
8.89442,328087
8.90255,310369
8.91067,302959
8.91878,289751
8.92692,285786
8.93503,287071
8.94317,297630
8.95128,308011
8.95940,308660
8.96753,289074
8.97565,267974
8.98378,254205
8.99190,238010
9.00002,230338
9.00815,226603
9.01627,213017
9.02440,219189
9.03252,207731
9.04063,201947
9.04877,205106
9.05688,199354
9.06500,192155
9.07313,195843
9.08125,180706
9.08938,179725
9.09750,184422
9.10562,179956
9.11375,183568
9.12187,180298
9.13000,177874
9.13812,186681
9.14623,188616
9.15437,205457
9.16248,212871
9.17060,214680
9.17873,206967
9.18685,202544
9.19498,185429
9.20310,178335
9.21122,176931
9.21935,174797
9.22747,162489
9.23560,160724
9.24372,161000
9.25183,148672
9.25997,147542
9.26808,141438
9.27622,143402
9.28433,150960
9.29245,146450
9.30058,148490
9.30870,140157
9.31682,134718
9.32495,132609
9.33307,128028
9.34120,134306
9.34932,133315
9.35743,131774
9.36557,129010
9.37368,125282
9.38182,125529
9.38993,121750
9.39805,118712
9.40618,129768
9.41430,128708
9.42242,136770
9.43055,138772
9.43867,153854
9.44680,168490
9.45492,196313
9.46303,209078
9.47117,209001
9.47928,183985
9.48742,162476
9.49553,146030
9.50365,139056
9.51178,126133
9.51990,128692
9.52803,131684
9.53615,126046
9.54427,120771
9.55240,121763
9.56052,118068
9.56863,99978
9.57677,99333
9.58488,99223
9.59302,101097
9.60113,101404
9.60925,102919
9.61738,101137
9.62550,98306
9.63363,85136
9.64175,88754
9.64987,84587
9.65800,78849
9.66612,75579
9.67425,78050
9.68237,76957
9.69048,69567
9.69862,74478
9.70673,71767
9.71485,76636
9.72298,75623
9.73110,77444
9.73923,76818
9.74735,77445
9.75547,76761
9.76360,73285
9.77172,76074
9.77985,71703
9.78797,71515
9.79608,70805
9.80422,78933
9.81233,68837
9.82045,67517
9.82858,67972
9.83670,64318
9.84483,64680
9.85295,70676
9.86107,77462
9.86920,82821
9.87732,90103
9.88545,87479
9.89357,80388
9.90168,83801
9.90982,83337
9.91793,79599
9.92607,78697
9.93418,80036
9.94230,88060
9.95043,97976
9.95855,108329
9.96667,100080
9.97480,103052
9.98292,102547
9.99105,105257
9.99917,105102
10.00728,106172
10.01542,115861
10.02353,115274
10.03167,112337
10.03978,107914
10.04790,109447
10.05603,95433
10.06415,106898
10.07228,98302
10.08040,99743
10.08852,96598
10.09665,91003
10.10477,91200
10.11288,87441
10.12102,88750
10.12913,92026
10.13727,89649
10.14538,84229
10.15350,78315
10.16163,82473
10.16975,77634
10.17788,81580
10.18600,79462
10.19412,81785
10.20225,76397
10.21037,75528
10.21848,73111
10.22662,74118
10.23473,81991
10.24287,89407
10.25098,100117
10.25910,159177
10.26723,376398
10.27535,1035595
10.28348,2520052
10.29160,4927702
10.29972,7921994
10.30785,1.097963E+07
10.31597,1.396089E+07
10.32410,1.75929E+07
10.33222,2.242759E+07
10.34033,2.899043E+07
10.34847,3.460518E+07
10.35658,3.727881E+07
10.36470,3.331745E+07
10.37283,2.278075E+07
10.38095,1.196347E+07
10.38908,5969360
10.39720,3725986
10.40532,2936004
10.41345,2472454
10.42157,2103599
10.42970,1705175
10.43782,1384539
10.44593,1203302
10.45407,1052182
10.46218,968046
10.47030,900071
10.47843,825969
10.48655,750620
10.49468,704498
10.50280,646247
10.51092,603825
10.51905,585741
10.52717,532682
10.53530,517250
10.54342,497670
10.55153,463368
10.55967,448470
10.56778,429051
10.57592,416247
10.58403,406112
10.59215,386267
10.60028,384882
10.60840,370497
10.61652,348664
10.62465,338821
10.63277,328346
10.64090,321754
10.64902,293168
10.65713,284714
10.66527,289424
10.67338,279612
10.68152,265369
10.68963,252165
10.69775,254203
10.70588,244262
10.71400,236801
10.72213,241743
10.73025,238914
10.73837,236068
10.74650,227091
10.75462,222812
10.76273,213847
10.77087,212266
10.77898,215835
10.78712,204585
10.79523,191737
10.80335,182681
10.81148,186531
10.81960,186562
10.82773,183204
10.83585,173868
10.84397,171506
10.85210,173539
10.86022,167903
10.86835,165492
10.87647,162503
10.88458,160162
10.89272,154868
10.90083,155174
10.90895,147844
10.91708,143240
10.92520,145473
10.93333,147435
10.94145,142543
10.94957,139231
10.95770,141738
10.96582,142603
10.97395,144968
10.98207,136942
10.99018,135736
10.99832,131321
11.00643,127998
11.01455,124287
11.02268,119592
11.03080,125649
11.03893,121109
11.04705,123305
11.05517,119098
11.06330,119771
11.07142,119203
11.07955,123210
11.08767,121884
11.09578,118864
11.10392,113785
11.11203,113127
11.12017,109104
11.12828,106627
11.13640,101025
11.14453,102362
11.15265,98448
11.16077,98044
11.16890,106925
11.17702,100841
11.18515,103873
11.19327,103929
11.20138,119174
11.20952,104806
11.21763,96004
11.22577,98526
11.23388,93849
11.24200,91288
11.25013,89124
11.25825,88420
11.26637,78890
11.27450,72811
11.28262,76728
11.29075,77963
11.29887,74537
11.30698,77752
11.31512,97006
11.32323,113677
11.33137,141534
11.33948,170448
11.34760,189075
11.35573,190284
11.36385,178123
11.37198,158376
11.38010,133029
11.38822,117508
11.39635,119342
11.40447,115828
11.41258,112230
11.42072,116128
11.42883,108378
11.43697,103804
11.44508,97998
11.45320,94133
11.46133,89448
11.46945,92016
11.47758,92629
11.48570,97929
11.49382,110999
11.50195,118366
11.51007,127691
11.51820,138904
11.52632,152022
11.53443,174485
11.54257,218939
11.55068,252481
11.55880,232717
11.56693,222066
11.57505,182556
11.58318,156861
11.59130,141242
11.59942,141694
11.60755,159466
11.61567,188778
11.62380,218277
11.63192,218353
11.64003,205791
11.64817,183869
11.65628,170177
11.66440,146738
11.67253,137749
11.68065,125698
11.68878,116689
11.69690,109043
11.70502,101205
11.71315,105073
11.72127,101054
11.72940,96829
11.73752,88525
11.74563,90601
11.75377,87963
11.76188,86402
11.77002,80399
11.77813,80903
11.78625,78589
11.79438,82619
11.80250,79933
11.81062,76146
11.81875,82398
11.82687,78813
11.83500,74106
11.84312,81800
11.85123,80870
11.85937,85518
11.86748,90270
11.87562,87473
11.88373,89439
11.89185,77304
11.89998,85050
11.90810,82857
11.91623,97140
11.92435,115110
11.93247,140273
11.94060,143999
11.94872,151254
11.95683,132182
11.96497,124177
11.97308,130468
11.98122,195114
11.98933,385011
11.99745,744515
12.00558,1279586
12.01370,1870475
12.02183,2277245
12.02995,2598503
12.03807,2988647
12.04620,3474169
12.05432,3410619
12.06243,3033247
12.07057,2526865
12.07868,1810070
12.08682,1407906
12.09493,1187712
12.10305,1055957
12.11118,993753
12.11930,979588
12.12743,896120
12.13555,853807
12.14367,804472
12.15180,790439
12.15992,744146
12.16805,722367
12.17617,682026
12.18428,653694
12.19242,647086
12.20053,622119
12.20865,602400
12.21678,625003
12.22490,608086
12.23303,590496
12.24115,541754
12.24927,550434
12.25740,567769
12.26552,563244
12.27365,587800
12.28177,546579
12.28988,531595
12.29802,499894
12.30613,481376
12.31425,468786
12.32238,454606
12.33050,438352
12.33863,420155
12.34675,422702
12.35487,414074
12.36300,401581
12.37112,383795
12.37925,373273
12.38737,367387
12.39548,364176
12.40362,357231
12.41173,360496
12.41987,363247
12.42798,365873
12.43610,368655
12.44423,359934
12.45235,371551
12.46047,341924
12.46860,338566
12.47672,326237
12.48485,310613
12.49297,304541
12.50108,311434
12.50922,298982
12.51733,306364
12.52547,312490
12.53358,308212
12.54170,308539
12.54983,288547
12.55795,290857
12.56608,274840
12.57420,264730
12.58232,263107
12.59045,264509
12.59857,248818
12.60668,258965
12.61482,256339
12.62293,241405
12.63107,251061
12.63918,237499
12.64730,222531
12.65543,219761
12.66355,219924
12.67168,209226
12.67980,188161
12.68792,170119
12.69605,140997
12.70417,125647
12.71228,117662
12.72042,110891
12.72853,110734
12.73667,109706
12.74478,112874
12.75290,112181
12.76103,114479
12.76915,102527
12.77728,102455
12.78540,98333
12.79352,96366
12.80165,99469
12.80977,92544
12.81790,88302
12.82602,93980
12.83413,95865
12.84227,83233
12.85038,87257
12.85850,90081
12.86663,84816
12.87475,84363
12.88288,85428
12.89100,82169
12.89912,78279
12.90725,79874
12.91537,85328
12.92350,79730
12.93162,81162
12.93973,78330
12.94787,81024
12.95598,81033
12.96412,82961
12.97223,83629
12.98035,87394
12.98848,93040
12.99660,93982
13.00472,95991
13.01285,96870
13.02097,94867
13.02910,85300
13.03722,87292
13.04533,79836
13.05347,78069
13.06158,80522
13.06972,74545
13.07783,80126
13.08595,83573
13.09408,79036
13.10220,85066
13.11032,88113
13.11845,78983
13.12657,77255
13.13470,70174
13.14282,74928
13.15093,74006
13.15907,70126
13.16718,80183
13.17532,79565
13.18343,77786
13.19155,85903
13.19968,88929
13.20780,87369
13.21593,90301
13.22405,89396
13.23217,88565
13.24030,85487
13.24842,84355
13.25653,80447
13.26467,79627
13.27278,75681
13.28092,79219
13.28903,71087
13.29715,72584
13.30528,70852
13.31340,71255
13.32153,74276
13.32965,72362
13.33777,69072
13.34590,66743
13.35402,69607
13.36213,66671
13.37027,66915
13.37838,62980
13.38652,69604
13.39463,68687
13.40275,67771
13.41088,66736
13.41900,69118
13.42713,70190
13.43525,68293
13.44337,64446
13.45150,67102
13.45962,66329
13.46775,60293
13.47587,66286
13.48398,68297
13.49212,63445
13.50023,67407
13.50835,65685
13.51648,65161
13.52460,64488
13.53273,63988
13.54085,70035
13.54897,69529
13.55710,73174
13.56522,71138
13.57335,69143
13.58147,72111
13.58958,75144
13.59772,79934
13.60583,103887
13.61397,120486
13.62208,142716
13.63020,153951
13.63833,161703
13.64645,159533
13.65457,135507
13.66270,117019
13.67082,107973
13.67895,103371
13.68707,90266
13.69518,84676
13.70332,80254
13.71143,81181
13.71957,77576
13.72768,76300
13.73580,83554
13.74393,96681
13.75205,143205
13.76017,240091
13.76830,422082
13.77642,632358
13.78455,922379
13.79267,1253870
13.80078,1675701
13.80892,2081269
13.81703,2396214
13.82517,2519218
13.83328,2191699
13.84140,1851649
13.84953,1431594
13.85765,1098798
13.86578,942073
13.87390,811983
13.88202,740933
13.89015,663104
13.89827,607890
13.90638,568047
13.91452,533561
13.92263,511088
13.93077,482897
13.93888,465785
13.94700,441887
13.95513,450844
13.96325,495981
13.97138,545157
13.97950,664282
13.98762,756398
13.99575,897056
14.00387,1102803
14.01200,1324028
14.02012,1394790
14.02823,1478525
14.03637,1317779
14.04448,1082922
14.05260,888010
14.06073,742213
14.06885,627848
14.07698,584839
14.08510,549636
14.09322,517942
14.10135,520500
14.10947,504859
14.11760,464137
14.12572,469302
14.13383,463412
14.14197,494732
14.15008,562213
14.15820,578675
14.16633,626749
14.17445,694806
14.18258,754715
14.19070,812707
14.19882,892925
14.20695,852761
14.21507,780736
14.22320,685178
14.23132,642526
14.23943,578567
14.24757,567874
14.25568,525471
14.26382,490766
14.27193,456443
14.28005,412110
14.28818,390975
14.29630,364307
14.30442,362623
14.31255,327776
14.32067,315370
14.32880,293456
14.33692,308576
14.34503,282708
14.35317,265568
14.36128,254119
14.36942,235330
14.37753,238370
14.38565,215152
14.39378,211744
14.40190,215382
14.41003,208502
14.41815,216502
14.42627,209738
14.43440,224445
14.44252,223523
14.45063,212878
14.45877,191650
14.46688,176096
14.47502,163525
14.48313,154372
14.49125,144636
14.49938,152603
14.50750,143207
14.51563,142075
14.52375,142825
14.53187,144539
14.54000,158347
14.54812,173832
14.55623,190400
14.56437,208957
14.57248,208929
14.58062,206566
14.58873,181761
14.59685,170705
14.60498,143787
14.61310,138254
14.62123,133084
14.62935,121510
14.63747,112128
14.64560,113470
14.65372,111528
14.66185,108375
14.66997,109947
14.67808,109106
14.68622,110437
14.69433,110615
14.70245,106135
14.71058,107981
14.71870,104776
14.72683,99522
14.73495,100308
14.74307,102239
14.75120,102020
14.75932,111576
14.76745,111785
14.77557,111128
14.78368,116668
14.79182,111936
14.79993,107039
14.80805,116496
14.81618,143934
14.82430,259559
14.83243,583988
14.84055,1257081
14.84867,2224100
14.85680,3221384
14.86492,3727504
14.87305,3498121
14.88117,2773480
14.88928,1927884
14.89742,1275969
14.90553,897150
14.91367,687801
14.92178,582064
14.92990,509239
14.93803,461946
14.94615,413388
14.95427,382509
14.96240,354614
14.97052,316099
14.97865,297889
14.98677,287978
14.99488,266404
15.00302,261392
15.01113,251868
15.01927,242992
15.02738,235588
15.03550,212873
15.04363,209470
15.05175,200065
15.05988,187261
15.06800,201608
15.07612,187362
15.08425,179173
15.09237,182673
15.10048,178817
15.10862,181226
15.11673,179435
15.12487,168061
15.13298,163824
15.14110,158960
15.14923,159858
15.15735,181035
15.16548,191462
15.17360,201835
15.18172,188142
15.18985,177055
15.19797,155248
15.20608,141156
15.21422,127037
15.22233,108992
15.23047,109810
15.23858,103168
15.24670,97158
15.25483,95212
15.26295,91978
15.27108,85816
15.27920,93566
15.28732,92090
15.29545,83508
15.30357,86289
15.31170,79258
15.31982,91048
15.32793,88241
15.33607,88187
15.34418,88008
15.35230,85803
15.36043,88274
15.36855,84319
15.37668,84226
15.38480,83579
15.39292,83110
15.40105,85296
15.40917,84124
15.41730,87115
15.42542,82110
15.43353,85416
15.44167,76754
15.44978,79409
15.45792,80706
15.46603,76399
15.47415,76107
15.48228,81540
15.49040,88358
15.49852,96477
15.50665,95247
15.51477,100671
15.52290,98273
15.53102,97670
15.53913,102487
15.54727,99327
15.55538,94661
15.56352,93781
15.57163,86792
15.57975,84161
15.58788,79926
15.59600,79175
15.60412,79949
15.61225,77198
15.62037,70519
15.62850,76008
15.63662,70211
15.64473,73797
15.65287,68979
15.66098,69591
15.66912,71701
15.67723,71149
15.68535,71494
15.69348,68665
15.70160,71149
15.70973,69380
15.71785,71369
15.72597,68653
15.73410,68515
15.74222,68092
15.75033,68788
15.75847,69610
15.76658,75702
15.77472,89763
15.78283,127070
15.79095,219839
15.79908,398647
15.80720,676982
15.81533,927098
15.82345,1042653
15.83157,1025606
15.83970,848730
15.84782,660569
15.85593,476139
15.86407,357392
15.87218,297768
15.88032,253988
15.88843,229611
15.89655,212351
15.90468,197532
15.91280,184717
15.92093,174245
15.92905,165300
15.93717,159729
15.94530,153773
15.95342,147212
15.96155,147533
15.96967,138781
15.97778,144630
15.98592,141703
15.99403,153155
16.00215,179114
16.01028,212243
16.01840,257319
16.02653,276025
16.03465,287431
16.04277,280377
16.05090,244740
16.05902,222784
16.06715,197158
16.07527,180325
16.08338,166375
16.09152,151366
16.09963,150000
16.10777,144322
16.11588,144425
16.12400,139661
16.13213,170041
16.14025,188725
16.14837,227245
16.15650,232723
16.16462,239243
16.17275,210921
16.18087,181280
16.18898,162181
16.19712,140559
16.20523,124920
16.21337,117810
16.22148,119425
16.22960,113982
16.23773,112844
16.24585,112930
16.25397,112075
16.26210,108372
16.27022,108125
16.27835,101858
16.28647,97965
16.29458,96094
16.30272,98219
16.31083,96868
16.31897,98151
16.32708,98019
16.33520,94774
16.34333,96242
16.35145,86353
16.35958,85390
16.36770,82191
16.37582,82831
16.38395,87777
16.39207,91545
16.40018,100280
16.40832,136286
16.41643,159730
16.42457,231176
16.43268,286618
16.44080,333147
16.44893,354121
16.45705,335256
16.46518,290731
16.47330,234105
16.48142,226862
16.48955,269523
16.49767,373856
16.50580,555067
16.51392,756584
16.52203,839682
16.53017,796959
16.53828,654661
16.54640,508442
16.55453,364228
16.56265,280542
16.57078,241844
16.57890,218045
16.58702,193159
16.59515,174852
16.60327,168759
16.61140,165307
16.61952,154997
16.62763,146042
16.63577,141916
16.64388,138436
16.65200,135451
16.66013,132036
16.66825,128481
16.67638,125286
16.68450,131139
16.69262,122627
16.70075,115294
16.70887,114767
16.71700,114344
16.72512,102892
16.73323,99776
16.74137,97882
16.74948,91970
16.75762,89642
16.76573,86333
16.77385,87304
16.78198,89024
16.79010,89159
16.79822,92945
16.80635,90335
16.81447,92796
16.82260,87475
16.83072,89832
16.83883,84940
16.84697,86218
16.85508,79533
16.86322,79572
16.87133,85040
16.87945,81751
16.88758,83120
16.89570,82557
16.90382,85554
16.91195,85961
16.92007,83806
16.92820,75939
16.93632,76929
16.94443,73770
16.95257,73236
16.96068,75363
16.96882,74030
16.97693,79412
16.98505,76713
16.99318,74045
17.00130,72683
17.00943,68166
17.01755,70510
17.02567,76007
17.03380,70198
17.04192,77805
17.05003,70990
17.05817,81005
17.06628,77080
17.07442,86016
17.08253,85220
17.09065,87261
17.09878,85850
17.10690,84093
17.11503,86779
17.12315,89733
17.13127,89461
17.13940,83879
17.14752,95551
17.15565,95096
17.16377,89630
17.17188,88941
17.18002,87563
17.18813,86764
17.19625,82622
17.20438,76851
17.21250,78905
17.22063,74273
17.22875,70635
17.23687,69045
17.24500,67949
17.25312,71521
17.26125,72390
17.26937,69700
17.27748,71020
17.28562,73264
17.29373,70102
17.30187,71387
17.30998,70715
17.31810,71166
17.32623,73145
17.33435,73554
17.34247,73907
17.35060,81338
17.35872,89730
17.36685,100980
17.37497,110331
17.38308,135481
17.39122,136733
17.39933,366918
17.40747,4.760542E+07
17.41558,5.270868E+07
17.42370,5.195517E+07
17.43183,5.122998E+07
17.43995,5.051585E+07
17.44807,5.02987E+07
17.45620,4.953021E+07
17.46432,4.919632E+07
17.47245,4.876301E+07
17.48057,4.846861E+07
17.48868,4.766509E+07
17.49682,4.686173E+07
17.50493,4.64933E+07
17.51307,4.587258E+07
17.52118,4.563889E+07
17.52930,4.494435E+07
17.53743,4.436308E+07
17.54555,4.328265E+07
17.55368,4.250239E+07
17.56180,4.164787E+07
17.56992,4.104645E+07
17.57805,4.056154E+07
17.58617,3.984294E+07
17.59428,3.865732E+07
17.60242,3.75272E+07
17.61053,3.679786E+07
17.61867,3.652575E+07
17.62678,3.591753E+07
17.63490,3.571212E+07
17.64303,3.444607E+07
17.65115,3.336212E+07
17.65928,3.239708E+07
17.66740,3.073946E+07
17.67552,2.913435E+07
17.68365,2.68638E+07
17.69177,2.57337E+07
17.69988,2.413427E+07
17.70802,2.286649E+07
17.71613,2.194726E+07
17.72427,2.034669E+07
17.73238,1.905744E+07
17.74050,1.808439E+07
17.74863,1.708525E+07
17.75675,1.592576E+07
17.76488,1.476258E+07
17.77300,1.385754E+07
17.78112,1.300455E+07
17.78925,1.193885E+07
17.79737,1.140056E+07
17.80550,1.073344E+07
17.81362,1.019684E+07
17.82173,9483671
17.82987,8770019
17.83798,8353712
17.84610,8111853
17.85423,7591185
17.86235,7254050
17.87048,6889118
17.87860,6433976
17.88672,6151361
17.89485,5955932
17.90297,5657923
17.91110,5399372
17.91922,5258342
17.92733,4977535
17.93547,4672957
17.94358,4572695
17.95172,4419219
17.95983,4245418
17.96795,4075597
17.97608,3947637
17.98420,3867042
17.99232,3615390
18.00045,3534742
18.00857,3465838
18.01670,3357952
18.02482,3303753
18.03293,3237291
18.04107,3110024
18.04918,3011795
18.05732,2961266
18.06543,2882642
18.07355,2795436
18.08168,2684512
18.08980,2672002
18.09792,2568215
18.10605,2507722
18.11417,2475581
18.12230,2409483
18.13042,2345502
18.13853,2322538
18.14667,2223855
18.15478,2197102
18.16292,2111720
18.17103,2055654
18.17915,2004016
18.18728,1927000
18.19540,1871219
18.20353,1850694
18.21165,1780928
18.21977,1723426
18.22790,1669722
18.23602,1621283
18.24413,1569234
18.25227,1565566
18.26038,1506331
18.26852,1464744
18.27663,1454977
18.28475,1394864
18.29288,1365935
18.30100,1330859
18.30913,1283334
18.31725,1225066
18.32537,1212495
18.33350,1174984
18.34162,1144558
18.34975,1124505
18.35787,1123160
18.36598,1069477
18.37412,1058656
18.38223,1043774
18.39035,988056
18.39848,985252
18.40660,981339
18.41473,964059
18.42285,916577
18.43097,930790
18.43910,909771
18.44722,932716
18.45535,956880
18.46347,1069053
18.47158,1239194
18.47972,1495880
18.48783,1778939
18.49595,1951449
18.50408,1916489
18.51220,1681700
18.52033,1432995
18.52845,1192264
18.53657,1045977
18.54470,941321
18.55282,849898
18.56095,801804
18.56907,790492
18.57718,748067
18.58532,738297
18.59343,713407
18.60157,708897
18.60968,692379
18.61780,669744
18.62593,665344
18.63405,665422
18.64217,650950
18.65030,640830
18.65842,644839
18.66655,618108
18.67467,600711
18.68278,597702
18.69092,595534
18.69903,586701
18.70717,560098
18.71528,553496
18.72340,546981
18.73153,550981
18.73965,534901
18.74777,531538
18.75590,518881
18.76402,520395
18.77215,509567
18.78027,515988
18.78838,512240
18.79652,500393
18.80463,502710
18.81277,488332
18.82088,489157
18.82900,483013
18.83713,458449
18.84525,466218
18.85338,454447
18.86150,456120
18.86962,448382
18.87775,442071
18.88587,434406
18.89398,443889
18.90212,432816
18.91023,430702
18.91837,438375
18.92648,422947
18.93460,428596
18.94273,433940
18.95085,456908
18.95898,470286
18.96710,496838
18.97522,504283
18.98335,489111
18.99147,487385
18.99960,464620
19.00772,446684
19.01583,450326
19.02397,424274
19.03208,414471
19.04020,411151
19.04833,401020
19.05645,404549
19.06458,402072
19.07270,404009
19.08082,409056
19.08895,426372
19.09707,458337
19.10520,490083
19.11332,511791
19.12143,532602
19.12957,516922
19.13768,491655
19.14580,447473
19.15393,439811
19.16205,413722
19.17018,401192
19.17830,401657
19.18642,378112
19.19455,377872
19.20267,376077
19.21080,377849
19.21892,367537
19.22703,355967
19.23517,349217
19.24328,337938
19.25142,333048
19.25953,340154
19.26765,342821
19.27578,325962
19.28390,325270
19.29202,332090
19.30015,334233
19.30827,339592
19.31640,347704
19.32452,334506
19.33263,336532
19.34077,326741
19.34888,320710
19.35702,305549
19.36513,317659
19.37325,316846
19.38138,307713
19.38950,313703
19.39763,304797
19.40575,304070
19.41387,302316
19.42200,296973
19.43012,301556
19.43823,298899
19.44637,295733
19.45448,298463
19.46262,301397
19.47073,300907
19.47885,299172
19.48698,300159
19.49510,325281
19.50323,360616
19.51135,427739
19.51947,464675
19.52760,479893
19.53572,462258
19.54383,425729
19.55197,369718
19.56008,326595
19.56822,301917
19.57633,280802
19.58445,280876
19.59258,271416
19.60070,259636
19.60883,262840
19.61695,261406
19.62507,262530
19.63320,262291
19.64132,295559
19.64945,342928
19.65757,437052
19.66568,551797
19.67382,672482
19.68193,746142
19.69005,772115
19.69818,749416
19.70630,663742
19.71443,620115
19.72255,524534
19.73067,470413
19.73880,434310
19.74692,398051
19.75505,373457
19.76317,346382
19.77128,317981
19.77942,296410
19.78753,289335
19.79567,294779
19.80378,289370
19.81190,297864
19.82003,292085
19.82815,285609
19.83627,273951
19.84440,269603
19.85252,268526
19.86065,269095
19.86877,267054
19.87688,280964
19.88502,318182
19.89313,370397
19.90127,438007
19.90938,487225
19.91750,530127
19.92563,548366
19.93375,548784
19.94187,525934
19.95000,502681
19.95812,488235
19.96625,464351
19.97437,462707
19.98248,452875
19.99062,440925
19.99873,420164
20.00687,427949
20.01498,425974
20.02310,415995
20.03123,418031
20.03935,406861
20.04748,380288
20.05560,356878
20.06372,337159
20.07185,322857
20.07997,303458
20.08808,303163
20.09622,286742
20.10433,291840
20.11247,281649
20.12058,276821
20.12870,270288
20.13683,267988
20.14495,258613
20.15308,263114
20.16120,260874
20.16932,268796
20.17745,276113
20.18557,301185
20.19368,312539
20.20182,326455
20.20993,345401
20.21807,334513
20.22618,313147
20.23430,307750
20.24243,285179
20.25055,294951
20.25868,328321
20.26680,384711
20.27492,470533
20.28305,564552
20.29117,627165
20.29930,617796
20.30742,586392
20.31553,522575
20.32367,457729
20.33178,411058
20.33990,350639
20.34803,319705
20.35615,281831
20.36428,267631
20.37240,259375
20.38052,258999
20.38865,263947
20.39677,265358
20.40490,281375
20.41302,303735
20.42113,314200
20.42927,322501
20.43738,322226
20.44552,332886
20.45363,329480
20.46175,322180
20.46988,311480
20.47800,304898
20.48612,294556
20.49425,270900
20.50237,254648
20.51050,239881
20.51862,236754
20.52673,224454
20.53487,213922
20.54298,211047
20.55112,209467
20.55923,206082
20.56735,209386
20.57548,207548
20.58360,207927
20.59172,206377
20.59985,206789
20.60797,204511
20.61610,211784
20.62422,201625
20.63233,199307
20.64047,204561
20.64858,197716
20.65672,202992
20.66483,201798
20.67295,203255
20.68108,202807
20.68920,197197
20.69733,198345
20.70545,192987
20.71357,192884
20.72170,198336
20.72982,198008
20.73793,195068
20.74607,191943
20.75418,196811
20.76232,194593
20.77043,195894
20.77855,198920
20.78668,205376
20.79480,213146
20.80293,243994
20.81105,266055
20.81917,316456
20.82730,324920
20.83542,334303
20.84355,318537
20.85167,283086
20.85978,255217
20.86792,221306
20.87603,214166
20.88415,201870
20.89228,191599
20.90040,199277
20.90853,194715
20.91665,198010
20.92477,192388
20.93290,191714
20.94102,192693
20.94915,202239
20.95727,189726
20.96538,195115
20.97352,193785
20.98163,193303
20.98975,187861
20.99788,189236
21.00600,184477
21.01413,185829
21.02225,185718
21.03037,178691
21.03850,179497
21.04662,177791
21.05475,179993
21.06287,176449
21.07098,181582
21.07912,173403
21.08723,179628
21.09537,182792
21.10348,188458
21.11160,181581
21.11973,182288
21.12785,182976
21.13597,185385
21.14410,210751
21.15222,220729
21.16035,243350
21.16847,265490
21.17658,271814
21.18472,264822
21.19283,262607
21.20097,238974
21.20908,226924
21.21720,220128
21.22533,213280
21.23345,197998
21.24157,203184
21.24970,189695
21.25782,190106
21.26595,184961
21.27407,187056
21.28218,185660
21.29032,179799
21.29843,181554
21.30657,173591
21.31468,169640
21.32280,167027
21.33093,156518
21.33905,156552
21.34718,160060
21.35530,157423
21.36342,154081
21.37155,153858
21.37967,154371
21.38778,154122
21.39592,149844
21.40403,151398
21.41217,154880
21.42028,165222
21.42840,151980
21.43653,161390
21.44465,164857
21.45278,169966
21.46090,168738
21.46902,159917
21.47715,159461
21.48527,155074
21.49340,150855
21.50152,153270
21.50963,148298
21.51777,146894
21.52588,149615
21.53400,142824
21.54213,151025
21.55025,144688
21.55838,145451
21.56650,142354
21.57462,140755
21.58275,143295
21.59087,144956
21.59900,142309
21.60712,148201
21.61523,152916
21.62337,168728
21.63148,169954
21.63960,191083
21.64773,209175
21.65585,215836
21.66398,226725
21.67210,207395
21.68022,202603
21.68835,189165
21.69647,182258
21.70460,171201
21.71272,163846
21.72083,155249
21.72897,154438
21.73708,146383
21.74522,143151
21.75333,151626
21.76145,145592
21.76958,149949
21.77770,142546
21.78582,147839
21.79395,145882
21.80207,151563
21.81020,156610
21.81832,161031
21.82643,165110
21.83457,175401
21.84268,190900
21.85082,196139
21.85893,195049
21.86705,186534
21.87518,173004
21.88330,168517
21.89143,150793
21.89955,144178
21.90767,135739
21.91580,128997
21.92392,127217
21.93203,122780
21.94017,123660
21.94828,120785
21.95642,117674
21.96453,117123
21.97265,115707
21.98078,108890
21.98890,109074
21.99703,110205
22.00515,110867
22.01327,110745
22.02140,108639
22.02952,114199
22.03763,117797
22.04577,116158
22.05388,120871
22.06202,131367
22.07013,143975
22.07825,162648
22.08638,176493
22.09450,195890
22.10263,212188
22.11075,222916
22.11887,235812
22.12700,225141
22.13512,228160
22.14325,224239
22.15137,214349
22.15948,216581
22.16762,216625
22.17573,231418
22.18385,233469
22.19198,228215
22.20010,233572
22.20823,223064
22.21635,212171
22.22447,204074
22.23260,207244
22.24072,202941
22.24885,200948
22.25697,186232
22.26508,179360
22.27322,187221
22.28133,175708
22.28945,182199
22.29758,176757
22.30570,162990
22.31383,177456
22.32195,181584
22.33007,171160
22.33820,172760
22.34632,172173
22.35445,178185
22.36257,172710
22.37068,172034
22.37882,168866
22.38693,165988
22.39507,157065
22.40318,157963
22.41130,163475
22.41943,178029
22.42755,188211
22.43567,189017
22.44380,188438
22.45192,179157
22.46005,161086
22.46817,154412
22.47628,138413
22.48442,133387
22.49253,137677
22.50067,122270
22.50878,130216
22.51690,121158
22.52503,120599
22.53315,118846
22.54128,118748
22.54940,116893
22.55752,120792
22.56565,110909
22.57377,115442
22.58188,108678
22.59002,102025
22.59813,101317
22.60627,96901
22.61438,95891
22.62250,97392
22.63063,94310
22.63875,103328
22.64688,102135
22.65500,97457
22.66312,105426
22.67125,107251
22.67937,114111
22.68750,122979
22.69562,136547
22.70373,150418
22.71187,164229
22.71998,170637
22.72810,185181
22.73623,183770
22.74435,195963
22.75248,194151
22.76060,187166
22.76872,190592
22.77685,186678
22.78497,194669
22.79310,190757
22.80122,188213
22.80933,195037
22.81747,196754
22.82558,199908
22.83370,201593
22.84183,196458
22.84995,200842
22.85808,202277
22.86620,200057
22.87432,194324
22.88245,196353
22.89057,200742
22.89870,210660
22.90682,225248
22.91493,241382
22.92307,273122
22.93118,287632
22.93932,315858
22.94743,316117
22.95555,297245
22.96368,273215
22.97180,260396
22.97992,241620
22.98805,228635
22.99617,221303
23.00430,219775
23.01242,212568
23.02053,209310
23.02867,205417
23.03678,200826
23.04492,194905
23.05303,188931
23.06115,180839
23.06928,179346
23.07740,176545
23.08552,172524
23.09365,180538
23.10177,176780
23.10990,171148
23.11802,176525
23.12613,170774
23.13427,168769
23.14238,176726
23.15052,174146
23.15863,173037
23.16675,172678
23.17488,173398
23.18300,173263
23.19113,161443
23.19925,168074
23.20737,164531
23.21550,159801
23.22362,158949
23.23173,158038
23.23987,148442
23.24798,154323
23.25612,154232
23.26423,160026
23.27235,161739
23.28048,157231
23.28860,162169
23.29673,157558
23.30485,163360
23.31297,148968
23.32110,145686
23.32922,143228
23.33735,147491
23.34547,154854
23.35358,159678
23.36172,180510
23.36983,184276
23.37795,185018
23.38608,198842
23.39420,188902
23.40233,187148
23.41045,179560
23.41857,164317
23.42670,169149
23.43482,162685
23.44295,161303
23.45107,159668
23.45918,163181
23.46732,156461
23.47543,158629
23.48355,160797
23.49168,154626
23.49980,153800
23.50793,154155
23.51605,156578
23.52417,151573
23.53230,150697
23.54042,154051
23.54855,148490
23.55667,152567
23.56478,148674
23.57292,153393
23.58103,155899
23.58917,163486
23.59728,164596
23.60540,177615
23.61353,176194
23.62165,173531
23.62977,169711
23.63790,166674
23.64602,156309
23.65415,151717
23.66227,151382
23.67038,149508
23.67852,149714
23.68663,145179
23.69477,142103
23.70288,132670
23.71100,130523
23.71913,130817
23.72725,116566
23.73538,116844
23.74350,124703
23.75162,171196
23.75975,304205
23.76787,608140
23.77598,1220938
23.78412,2118873
23.79223,3083092
23.80037,3596976
23.80848,3602250
23.81660,3169270
23.82473,2489788
23.83285,1933736
23.84098,1452978
23.84910,1102362
23.85722,867029
23.86535,725424
23.87347,595566
23.88158,517614
23.88972,460950
23.89783,416401
23.90597,392177
23.91408,356723
23.92220,349299
23.93033,329007
23.93845,309818
23.94658,302277
23.95470,288311
23.96282,275555
23.97095,262310
23.97907,244698
23.98720,247461
23.99532,246838
24.00343,314224
24.01157,515513
24.01968,950142
24.02780,1626157
24.03593,2317765
24.04405,2688172
24.05218,2625436
24.06030,2123970
24.06842,1456839
24.07655,891608
24.08467,556208
24.09280,368071
24.10092,278975
24.10903,229434
24.11717,203269
24.12528,194722
24.13340,199275
24.14153,206899
24.14965,211016
24.15778,211535
24.16590,213782
24.17402,204867
24.18215,192238
24.19027,183866
24.19840,182816
24.20652,177762
24.21463,168616
24.22277,167032
24.23088,165608
24.23902,165879
24.24713,150390
24.25525,148662
24.26338,140732
24.27150,141974
24.27962,152428
24.28775,180163
24.29587,217056
24.30400,236323
24.31212,267051
24.32023,280787
24.32837,289640
24.33648,302369
24.34462,310496
24.35273,301573
24.36085,300668
24.36898,321112
24.37710,330857
24.38523,337221
24.39335,374809
24.40147,400039
24.40960,429732
24.41772,438954
24.42583,433561
24.43397,423604
24.44208,386867
24.45022,362509
24.45833,351177
24.46645,346510
24.47458,347313
24.48270,342718
24.49083,346894
24.49895,347651
24.50707,359882
24.51520,367248
24.52332,378980
24.53143,375350
24.53957,367896
24.54768,356961
24.55582,359742
24.56393,344294
24.57205,344035
24.58018,335460
24.58830,327284
24.59643,335144
24.60455,324529
24.61267,317616
24.62080,316544
24.62892,314581
24.63705,311749
24.64517,313698
24.65328,304530
24.66142,303842
24.66953,307701
24.67765,296735
24.68578,299503
24.69390,304176
24.70203,302631
24.71015,292691
24.71827,290332
24.72640,275738
24.73452,287926
24.74265,292497
24.75077,280662
24.75888,282013
24.76702,296268
24.77513,296963
24.78327,304110
24.79138,301402
24.79950,299804
24.80763,311527
24.81575,307729
24.82387,305217
24.83200,295971
24.84012,299547
24.84825,325705
24.85637,339165
24.86448,397725
24.87262,452474
24.88073,525008
24.88887,611450
24.89698,682835
24.90510,714916
24.91323,657357
24.92135,586935
24.92947,496810
24.93760,390705
24.94572,350386
24.95385,301066
24.96197,284795
24.97008,278349
24.97822,257892
24.98633,251660
24.99447,257573
25.00258,252281
25.01070,238145
25.01883,244568
25.02695,246113
25.03508,243751
25.04320,238246
25.05132,233191
25.05945,229547
25.06757,232312
25.07568,233683
25.08382,237116
25.09193,239847
25.10007,246603
25.10818,292095
25.11630,396580
25.12443,627942
25.13255,1018509
25.14068,1496193
25.14880,1936267
25.15692,2254711
25.16505,2218335
25.17317,1908913
25.18128,1454630
25.18942,1039373
25.19753,722273
25.20567,520304
25.21378,377630
25.22190,302538
25.23003,265098
25.23815,259994
25.24628,312807
25.25440,434603
25.26252,627368
25.27065,842435
25.27877,1011439
25.28690,1083702
25.29502,988313
25.30313,783728
25.31127,551936
25.31938,376383
25.32750,274079
25.33563,207894
25.34375,172807
25.35188,153555
25.36000,153543
25.36812,142066
25.37625,134981
25.38437,132348
25.39250,123805
25.40062,123150
25.40873,123998
25.41687,123037
25.42498,120433
25.43312,116457
25.44123,119766
25.44935,114950
25.45748,113303
25.46560,122577
25.47372,116812
25.48185,116284
25.48997,121216
25.49810,117753
25.50622,119194
25.51433,116366
25.52247,114713
25.53058,105614
25.53872,107175
25.54683,106046
25.55495,102278
25.56308,107372
25.57120,100479
25.57932,105257
25.58745,104376
25.59557,107585
25.60370,106336
25.61182,118848
25.61993,138232
25.62807,185900
25.63618,234899
25.64432,292394
25.65243,344200
25.66055,360545
25.66868,358380
25.67680,324601
25.68493,315462
25.69305,298157
25.70117,292108
25.70930,286112
25.71742,288819
25.72553,285290
25.73367,272951
25.74178,277943
25.74992,274504
25.75803,289216
25.76615,305853
25.77428,332342
25.78240,376833
25.79053,411052
25.79865,421121
25.80677,399171
25.81490,379487
25.82302,333077
25.83115,309381
25.83927,293870
25.84738,288524
25.85552,285737
25.86363,288319
25.87175,284766
25.87988,271285
25.88800,279771
25.89613,264665
25.90425,258090
25.91237,261474
25.92050,260081
25.92862,258456
25.93675,266192
25.94487,267190
25.95298,264391
25.96112,272301
25.96923,266228
25.97735,259944
25.98548,247645
25.99360,242028
26.00173,241789
26.00985,230702
26.01797,232403
26.02610,231640
26.03422,230365
26.04235,230366
26.05047,236066
26.05858,227088
26.06672,222187
26.07483,226798
26.08297,218124
26.09108,219024
26.09920,225410
26.10733,211607
26.11545,206281
26.12357,213194
26.13170,217448
26.13982,214418
26.14795,210506
26.15607,216293
26.16418,217750
26.17232,213228
26.18043,199922
26.18857,206783
26.19668,203283
26.20480,199714
26.21293,198239
26.22105,189571
26.22918,191274
26.23730,184458
26.24542,181504
26.25355,182826
26.26167,190506
26.26978,196718
26.27792,207369
26.28603,229343
26.29417,240118
26.30228,240074
26.31040,241821
26.31853,232160
26.32665,210882
26.33478,194224
26.34290,182336
26.35102,168366
26.35915,171274
26.36727,170081
26.37538,175633
26.38352,174957
26.39163,183451
26.39977,186404
26.40788,181178
26.41600,185297
26.42413,185518
26.43225,184129
26.44038,180881
26.44850,179509
26.45662,173210
26.46475,173292
26.47287,173684
26.48100,163197
26.48912,167970
26.49723,160767
26.50537,154647
26.51348,151337
26.52160,146574
26.52973,150959
26.53785,139944
26.54598,140973
26.55410,143433
26.56222,138558
26.57035,140828
26.57847,134001
26.58660,134998
26.59472,138030
26.60283,137804
26.61097,127497
26.61908,132302
26.62720,130754
26.63533,126792
26.64345,125686
26.65158,132948
26.65970,127323
26.66782,131607
26.67595,124320
26.68407,123420
26.69220,123041
26.70032,119171
26.70843,125818
26.71657,120445
26.72468,122052
26.73282,115848
26.74093,117873
26.74905,118182
26.75718,114749
26.76530,117826
26.77342,115655
26.78155,118245
26.78967,120379
26.79780,123550
26.80592,119809
26.81403,128217
26.82217,117682
26.83028,124644
26.83842,119805
26.84653,120770
26.85465,118182
26.86278,114464
26.87090,122712
26.87903,117948
26.88715,116060
26.89527,119611
26.90340,114018
26.91152,111383
26.91963,108251
26.92777,112978
26.93588,114385
26.94402,112327
26.95213,120186
26.96025,128740
26.96838,147542
26.97650,193269
26.98463,269204
26.99275,425779
27.00087,640281
27.00900,973981
27.01712,1383624
27.02523,1792439
27.03337,2020214
27.04148,1984672
27.04962,1781862
27.05773,1477795
27.06585,1125289
27.07398,904621
27.08210,741103
27.09023,595727
27.09835,490065
27.10647,442945
27.11460,378526
27.12272,344734
27.13085,310349
27.13897,302053
27.14708,284505
27.15522,283271
27.16333,272028
27.17145,259746
27.17958,278460
27.18770,285027
27.19583,284912
27.20395,280517
27.21207,268053
27.22020,252576
27.22832,234934
27.23645,214196
27.24457,206869
27.25268,191954
27.26082,185274
27.26893,183407
27.27707,179870
27.28518,171474
27.29330,165036
27.30143,151954
27.30955,155904
27.31767,150046
27.32580,147592
27.33392,150508
27.34205,141498
27.35017,139811
27.35828,148678
27.36642,153567
27.37453,153769
27.38267,147857
27.39078,150750
27.39890,146180
27.40703,142584
27.41515,131531
27.42327,133365
27.43140,125001
27.43952,124065
27.44765,118325
27.45577,126159
27.46388,125388
27.47202,121566
27.48013,117907
27.48827,121415
27.49638,122013
27.50450,117050
27.51263,115208
27.52075,111575
27.52888,122184
27.53700,119878
27.54512,113670
27.55325,118347
27.56137,116092
27.56948,118654
27.57762,114861
27.58573,127518
27.59387,133662
27.60198,130510
27.61010,134514
27.61823,135085
27.62635,128851
27.63448,129416
27.64260,119612
27.65072,113684
27.65885,112766
27.66697,104578
27.67508,104921
27.68322,104150
27.69133,104652
27.69947,102267
27.70758,108745
27.71570,102398
27.72383,98518
27.73195,101373
27.74008,102114
27.74820,99084
27.75632,110458
27.76445,115371
27.77257,133655
27.78070,150314
27.78882,167797
27.79693,176821
27.80507,178752
27.81318,161390
27.82130,142390
27.82943,122311
27.83755,113572
27.84568,99821
27.85380,100174
27.86192,98498
27.87005,97647
27.87817,95252
27.88630,92179
27.89442,98400
27.90253,98537
27.91067,100791
27.91878,93815
27.92692,90225
27.93503,94189
27.94315,88702
27.95128,89073
27.95940,89670
27.96752,85464
27.97565,93247
27.98377,93044
27.99190,90067
28.00002,94936
28.00813,90832
28.01627,96201
28.02438,100462
28.03252,92055
28.04063,92439
28.04875,96354
28.05688,91542
28.06500,91601
28.07313,95202
28.08125,95701
28.08937,86382
28.09750,88172
28.10562,85554
28.11373,88977
28.12187,86992
28.12998,80018
28.13812,84605
28.14623,88117
28.15435,81351
28.16248,85217
28.17060,87498
28.17873,86679
28.18685,89780
28.19497,95399
28.20310,104124
28.21122,118381
28.21933,131075
28.22747,129830
28.23558,135618
28.24372,131697
28.25183,128851
28.25995,123336
28.26808,113386
28.27620,115447
28.28433,105968
28.29245,102809
28.30057,107992
28.30870,110913
28.31682,115356
28.32495,123485
28.33307,139609
28.34118,158166
28.34932,171995
28.35743,202614
28.36555,224812
28.37368,257449
28.38180,274458
28.38993,282626
28.39805,282448
28.40617,286736
28.41430,279286
28.42242,271090
28.43055,249082
28.43867,238912
28.44678,223830
28.45492,204064
28.46303,191571
28.47115,185755
28.47928,182905
28.48740,177745
28.49553,179925
28.50365,185725
28.51177,181044
28.51990,188063
28.52802,176061
28.53615,171184
28.54427,162134
28.55238,143392
28.56052,140570
28.56863,139864
28.57677,124189
28.58488,126760
28.59300,128894
28.60113,123000
28.60925,124508
28.61737,126069
28.62550,120254
28.63362,121822
28.64175,123744
28.64987,123423
28.65798,125840
28.66612,123262
28.67423,125458
28.68237,122995
28.69048,118651
28.69860,118892
28.70673,117872
28.71485,116237
28.72298,110704
28.73110,104428
28.73922,109678
28.74735,112513
28.75547,110871
28.76358,116176
28.77172,126219
28.77983,137542
28.78797,138850
28.79608,138052
28.80420,138386
28.81233,136191
28.82045,129094
28.82858,116216
28.83670,115062
28.84482,110567
28.85295,103777
28.86107,107943
28.86918,109180
28.87732,106800
28.88543,104792
28.89357,110584
28.90168,110556
28.90980,110206
28.91793,111537
28.92605,107019
28.93418,109026
28.94230,108627
28.95042,116556
28.95855,112451
28.96667,107551
28.97480,114122
28.98292,108409
28.99103,102054
28.99917,105158
29.00728,97206
29.01540,99804
29.02353,97436
29.03165,94713
29.03978,91175
29.04790,102149
29.05602,101263
29.06415,104174
29.07227,114580
29.08040,123324
29.08852,121514
29.09663,117317
29.10477,115728
29.11288,106563
29.12102,98634
29.12913,99411
29.13725,96900
29.14538,94464
29.15350,89554
29.16162,90485
29.16975,91595
29.17787,93836
29.18600,96140
29.19412,99290
29.20223,103388
29.21037,108317
29.21848,121214
29.22662,111839
29.23473,118425
29.24285,117165
29.25098,126091
29.25910,129440
29.26722,127639
29.27535,131959
29.28347,129255
29.29160,113889
29.29972,108306
29.30783,103511
29.31597,96534
29.32408,96915
29.33222,92771
29.34033,91588
29.34845,90438
29.35658,86354
29.36470,87558
29.37283,86237
29.38095,81918
29.38907,86782
29.39720,86321
29.40532,85109
29.41343,86982
29.42157,87810
29.42968,85218
29.43782,90079
29.44593,90098
29.45405,95084
29.46218,89624
29.47030,91020
29.47843,96171
29.48655,89548
29.49467,95880
29.50280,95023
29.51092,94222
29.51903,100450
29.52717,94656
29.53528,95008
29.54342,101211
29.55153,97944
29.55965,97637
29.56778,95380
29.57590,94804
29.58403,93390
29.59215,86161
29.60027,86824
29.60840,81523
29.61652,81803
29.62465,87413
29.63277,81197
29.64088,83630
29.64902,78702
29.65713,76125
29.66525,78901
29.67338,79412
29.68150,78777
29.68963,83390
29.69775,78225
29.70587,74850
29.71400,78061
29.72212,77886
29.73025,77136
29.73837,74330
29.74648,72023
29.75462,73362
29.76273,74822
29.77087,69217
29.77898,71658
29.78710,76164
29.79523,73783
29.80335,76576
29.81147,71041
29.81960,73891
29.82772,73363
29.83585,75989
29.84397,86526
29.85208,75432
29.86022,86402
29.86833,103605
29.87647,128169
29.88458,193841
29.89270,280695
29.90083,359286
29.90895,396460
29.91707,369962
29.92520,326553
29.93332,244652
29.94145,186321
29.94957,138668
29.95768,118263
29.96582,107117
29.97393,111067
29.98207,105505
29.99018,125001
29.99830,117869
30.00643,127246
30.01455,138232
30.02268,140150
30.03080,150515
30.03892,147184
30.04705,151221
30.05517,154107
30.06328,149212
30.07142,153725
30.07953,155020
30.08767,141539
30.09578,140663
30.10390,142537
30.11203,137689
30.12015,135636
30.12828,131369
30.13640,132733
30.14452,122773
30.15265,121935
30.16077,118071
30.16890,112430
30.17702,107275
30.18513,114858
30.19327,113488
30.20138,113441
30.20950,107371
30.21763,98980
30.22575,99110
30.23388,101844
30.24200,96275
30.25012,99094
30.25825,89781
30.26637,86696
30.27450,93584
30.28262,92321
30.29073,89962
30.29887,90573
30.30698,85095
30.31510,84867
30.32323,91921
30.33135,85192
30.33948,90752
30.34760,82656
30.35572,84108
30.36385,85383
30.37197,80973
30.38010,85090
30.38822,91799
30.39633,85319
30.40447,89961
30.41258,86572
30.42072,87440
30.42883,85202
30.43695,83136
30.44508,86197
30.45320,84974
30.46132,92701
30.46945,87095
30.47757,90844
30.48570,93880
30.49382,97761
30.50193,98294
30.51007,96171
30.51818,94200
30.52632,92851
30.53443,87479
30.54255,87867
30.55068,90033
30.55880,85101
30.56693,84027
30.57505,80242
30.58317,74159
30.59130,84085
30.59942,80837
30.60753,86102
30.61567,77345
30.62378,80763
30.63192,79476
30.64003,81340
30.64815,79179
30.65628,79451
30.66440,73486
30.67253,75145
30.68065,74367
30.68877,76567
30.69690,76591
30.70502,75842
30.71313,77216
30.72127,70653
30.72938,81536
30.73752,77034
30.74563,81285
30.75375,75472
30.76188,78319
30.77000,94566
30.77813,103814
30.78625,145578
30.79437,229673
30.80250,319305
30.81062,423648
30.81875,467974
30.82687,464907
30.83498,394076
30.84312,300385
30.85123,215020
30.85935,160158
30.86748,124180
30.87560,111066
30.88373,101101
30.89185,93708
30.89997,94027
30.90810,86001
30.91622,83907
30.92435,89713
30.93247,83508
30.94058,84069
30.94872,87370
30.95683,78488
30.96495,78735
30.97308,78001
30.98120,77917
30.98933,76539
30.99745,77534
31.00557,76084
31.01370,80626
31.02182,77920
31.02995,74852
31.03807,80850
31.04618,79038
31.05432,79768
31.06243,81194
31.07057,83302
31.07868,85042
31.08680,88120
31.09493,95754
31.10305,104071
31.11117,107027
31.11930,103076
31.12742,99223
31.13555,96831
31.14367,92792
31.15178,88124
31.15992,91703
31.16803,88003
31.17617,91336
31.18428,99768
31.19240,107438
31.20053,112798
31.20865,132555
31.21678,137036
31.22490,158451
31.23302,156586
31.24115,162149
31.24927,136316
31.25738,132506
31.26552,126908
31.27363,116101
31.28177,112202
31.28988,106796
31.29800,107097
31.30613,112306
31.31425,111232
31.32238,102541
31.33050,104269
31.33862,106880
31.34675,100427
31.35487,103529
31.36298,107211
31.37112,106252
31.37923,102773
31.38737,101116
31.39548,100786
31.40360,100058
31.41173,98677
31.41985,103790
31.42798,105763
31.43610,102650
31.44422,104412
31.45235,106039
31.46047,106034
31.46860,111180
31.47672,113016
31.48483,113751
31.49297,117396
31.50108,126336
31.50920,120318
31.51733,116032
31.52545,114590
31.53358,112919
31.54170,109763
31.54982,111103
31.55795,111605
31.56607,120225
31.57420,120498
31.58232,132202
31.59043,127283
31.59857,112912
31.60668,106682
31.61482,105221
31.62293,104898
31.63105,98342
31.63918,99172
31.64730,103684
31.65542,104108
31.66355,98977
31.67167,95536
31.67980,103642
31.68792,100638
31.69603,96788
31.70417,97234
31.71228,95883
31.72042,90274
31.72853,90529
31.73665,93591
31.74478,88574
31.75290,86597
31.76102,89384
31.76915,86500
31.77727,97602
31.78540,93930
31.79352,93028
31.80163,93729
31.80977,94680
31.81788,91151
31.82602,87991
31.83413,89564
31.84225,90235
31.85038,90985
31.85850,88424
31.86663,88817
31.87475,89100
31.88287,94632
31.89100,88537
31.89912,85689
31.90723,89976
31.91537,87619
31.92348,99602
31.93162,99604
31.93973,105806
31.94785,107420
31.95598,116479
31.96410,119927
31.97223,124128
31.98035,130313
31.98847,136871
31.99660,132862
32.00472,132775
32.01283,129370
32.02097,131029
32.02908,124103
32.03722,125681
32.04533,122225
32.05345,122956
32.06158,114682
32.06970,118106
32.07783,117878
32.08595,117353
32.09407,116077
32.10220,114365
32.11032,110540
32.11845,104316
32.12657,102155
32.13468,100418
32.14282,97011
32.15093,97256
32.15905,96773
32.16718,91526
32.17530,90011
32.18343,90642
32.19155,92156
32.19967,85700
32.20780,88275
32.21592,91478
32.22405,92520
32.23217,88337
32.24028,94245
32.24842,93907
32.25653,100027
32.26467,102182
32.27278,105293
32.28090,107071
32.28903,106926
32.29715,100725
32.30527,98140
32.31340,91008
32.32152,90076
32.32965,88826
32.33777,84979
32.34588,87391
32.35402,82358
32.36213,83414
32.37027,83259
32.37838,85393
32.38650,86381
32.39463,77757
32.40275,80154
32.41088,79927
32.41900,79682
32.42712,80565
32.43525,79512
32.44337,74233
32.45148,77608
32.45962,74994
32.46773,73845
32.47587,82700
32.48398,84695
32.49210,76594
32.50023,81631
32.50835,75823
32.51648,76066
32.52460,73937
32.53272,76275
32.54085,85533
32.54897,77644
32.55708,75683
32.56522,71938
32.57333,79823
32.58147,78988
32.58958,77512
32.59770,76577
32.60583,71111
32.61395,70830
32.62208,72409
32.63020,68244
32.63832,72713
32.64645,75869
32.65457,84659
32.66270,77863
32.67082,88522
32.67893,92900
32.68707,98586
32.69518,91067
32.70330,92195
32.71143,95325
32.71955,83549
32.72768,82341
32.73580,82861
32.74392,79747
32.75205,84477
32.76017,74839
32.76830,71774
32.77642,76397
32.78453,71974
32.79267,72925
32.80078,71320
32.80890,73390
32.81703,69675
32.82515,72204
32.83328,74670
32.84140,78577
32.84952,73565
32.85765,70003
32.86577,66681
32.87390,74934
32.88202,73540
32.89013,76356
32.89827,75057
32.90638,75251
32.91452,74582
32.92263,70969
32.93075,71511
32.93888,69969
32.94700,76159
32.95512,73888
32.96325,68464
32.97137,81194
32.97950,86108
32.98762,97739
32.99573,111395
33.00387,120638
33.01198,125807
33.02012,129302
33.02823,117187
33.03635,106846
33.04448,98396
33.05260,88021
33.06073,83710
33.06885,81027
33.07697,81818
33.08510,80991
33.09322,83282
33.10133,85866
33.10947,89691
33.11758,106902
33.12572,113036
33.13383,107521
33.14195,109977
33.15008,98297
33.15820,89390
33.16633,86132
33.17445,82014
33.18257,78649
33.19070,79637
33.19882,77261
33.20693,78441
33.21507,79917
33.22318,81327
33.23132,81938
33.23943,84937
33.24755,76547
33.25568,76961
33.26380,77625
33.27193,77648
33.28005,76328
33.28817,75404
33.29630,73044
33.30442,75091
33.31255,78233
33.32067,73883
33.32878,71904
33.33692,71795
33.34503,68765
33.35315,65681
33.36128,71395
33.36940,74103
33.37753,74188
33.38565,71181
33.39377,72727
33.40190,73257
33.41002,75687
33.41815,74148
33.42627,83557
33.43438,82293
33.44252,84824
33.45063,80114
33.45877,77774
33.46688,83264
33.47500,74095
33.48313,79601
33.49125,77642
33.49937,74583
33.50750,75916
33.51562,75053
33.52375,76242
33.53187,82870
33.53998,81641
33.54812,81462
33.55623,77219
33.56437,70975
33.57248,71846
33.58060,76059
33.58873,71630
33.59685,67474
33.60497,71676
33.61310,68407
33.62122,73175
33.62935,70000
33.63747,69592
33.64558,69348
33.65372,78807
33.66183,77166
33.66997,77519
33.67808,77152
33.68620,75206
33.69433,73927
33.70245,73623
33.71058,75404
33.71870,77040
33.72682,78655
33.73495,81810
33.74307,91870
33.75118,87842
33.75932,86549
33.76743,86644
33.77557,81876
33.78368,79622
33.79180,75163
33.79993,79516
33.80805,71597
33.81618,71515
33.82430,74611
33.83242,70446
33.84055,75305
33.84867,76128
33.85678,84369
33.86492,84093
33.87303,87633
33.88117,87075
33.88928,89120
33.89740,89468
33.90553,95775
33.91365,87277
33.92178,91695
33.92990,95263
33.93802,84353
33.94615,85299
33.95427,85394
33.96240,83808
33.97052,77659
33.97863,76952
33.98677,76551
33.99488,74221
34.00300,70764
34.01113,74900
34.01925,76097
34.02738,71874
34.03550,73294
34.04362,73743
34.05175,71350
34.05987,75158
34.06800,74676
34.07612,71432
34.08423,73131
34.09237,76892
34.10048,76691
34.10862,76406
34.11673,73277
34.12485,71494
34.13298,71099
34.14110,75035
34.14922,74009
34.15735,72533
34.16547,71175
34.17360,77382
34.18172,76815
34.18983,78951
34.19797,83429
34.20608,76048
34.21422,84623
34.22233,82701
34.23045,72768
34.23858,77611
34.24670,69330
34.25482,74893
34.26295,69993
34.27107,67403
34.27920,77414
34.28732,70506
34.29543,77148
34.30357,73425
34.31168,65152
34.31982,67619
34.32793,74954
34.33605,70536
34.34418,70572
34.35230,67742
34.36043,69445
34.36855,67757
34.37667,73984
34.38480,69838
34.39292,71317
34.40103,71596
34.40917,71470
34.41728,69536
34.42542,68572
34.43353,64963
34.44165,65991
34.44978,69791
34.45790,70198
34.46603,71401
34.47415,66589
34.48227,65629
34.49040,76274
34.49852,70620
34.50665,75450
34.51477,72601
34.52288,76516
34.53102,83457
34.53913,86268
34.54725,92219
34.55538,101618
34.56350,104434
34.57163,109605
34.57975,111343
34.58787,112280
34.59600,105100
34.60412,112184
34.61225,98660
34.62037,105569
34.62848,100574
34.63662,97633
34.64473,94222
34.65285,93642
34.66098,93876
34.66910,89859
34.67723,85231
34.68535,88771
34.69347,82155
34.70160,83773
34.70972,82714
34.71785,83328
34.72597,85705
34.73408,80294
34.74222,79319
34.75033,81744
34.75847,82511
34.76658,81981
34.77470,81693
34.78283,81083
34.79095,75975
34.79907,75389
34.80720,76360
34.81532,75460
34.82345,78171
34.83157,75734
34.83968,80967
34.84782,79897
34.85593,77902
34.86407,77945
34.87218,76110
34.88030,76808
34.88843,69799
34.89655,77553
34.90467,75699
34.91280,80638
34.92092,74491
34.92905,78199
34.93717,80281
34.94528,81045
34.95342,89591
34.96153,83581
34.96967,99033
34.97778,97318
34.98590,100768
34.99403,94048
35.00215,94349
35.01028,92872
35.01840,88222
35.02652,93296
35.03465,94515
35.04277,93887
35.05088,95539
35.05902,91591
35.06713,91323
35.07527,90734
35.08338,82587
35.09150,81256
35.09963,78909
35.10775,80474
35.11588,80817
35.12400,78876
35.13212,72942
35.14025,77078
35.14837,78544
35.15650,78051
35.16462,74929
35.17273,77413
35.18087,77710
35.18898,76126
35.19710,73302
35.20523,75049
35.21335,75573
35.22148,77065
35.22960,71532
35.23772,75512
35.24585,82131
35.25397,79965
35.26210,80835
35.27022,81929
35.27833,84436
35.28647,78560
35.29458,84084
35.30270,81228
35.31083,78945
35.31895,77287
35.32708,76176
35.33520,74207
35.34332,81032
35.35145,74722
35.35957,81854
35.36770,80051
35.37582,84653
35.38393,86273
35.39207,92618
35.40018,86537
35.40832,106313
35.41643,107195
35.42455,106750
35.43268,106186
35.44080,107931
35.44892,98287
35.45705,97570
35.46517,97429
35.47330,95627
35.48142,84909
35.48953,87754
35.49767,82082
35.50578,82794
35.51392,82824
35.52203,84673
35.53015,79013
35.53828,76596
35.54640,75094
35.55453,80652
35.56265,79490
35.57077,78825
35.57890,76635
35.58702,82599
35.59513,77540
35.60327,78626
35.61138,74399
35.61952,74512
35.62763,76870
35.63575,74331
35.64388,75007
35.65200,78336
35.66013,70252
35.66825,79288
35.67637,84746
35.68450,88358
35.69262,89708
35.70073,90799
35.70887,84865
35.71698,90958
35.72512,85484
35.73323,84689
35.74135,84512
35.74948,80913
35.75760,82163
35.76573,86392
35.77385,84274
35.78197,86919
35.79010,84270
35.79822,85939
35.80635,85312
35.81447,84748
35.82258,83791
35.83072,84253
35.83883,78562
35.84695,82749
35.85508,77919
35.86320,82461
35.87133,84352
35.87945,81947
35.88757,84589
35.89570,83835
35.90382,81171
35.91195,76969
35.92007,74894
35.92818,78417
35.93632,78008
35.94443,82073
35.95257,75639
35.96068,80093
35.96880,77733
35.97693,73150
35.98505,74827
35.99317,78145
36.00130,82217
36.00942,75214
36.01755,82401
36.02567,81640
36.03378,78799
36.04192,78408
36.05003,77025
36.05817,81855
36.06628,79666
36.07440,77290
36.08253,81348
36.09065,75807
36.09877,76917
36.10690,73359
36.11502,76051
36.12315,76449
36.13127,77825
36.13938,73934
36.14752,83287
36.15563,80005
36.16377,79802
36.17188,75509
36.18000,74615
36.18813,75025
36.19625,76769
36.20438,79249
36.21250,75009
36.22062,79072
36.22875,79484
36.23687,80172
36.24498,79661
36.25312,76733
36.26123,79180
36.26937,81382
36.27748,82143
36.28560,77442
36.29373,82926
36.30185,90716
36.30998,87052
36.31810,89664
36.32622,94481
36.33435,88966
36.34247,84071
36.35058,83602
36.35872,84137
36.36683,80401
36.37497,77099
36.38308,76811
36.39120,80287
36.39933,78134
36.40745,75873
36.41558,80965
36.42370,85954
36.43182,86431
36.43995,84795
36.44807,86938
36.45620,89501
36.46432,90821
36.47243,89761
36.48057,93660
36.48868,96471
36.49680,91231
36.50493,95342
36.51305,95538
36.52118,96614
36.52930,99343
36.53742,94064
36.54555,93726
36.55367,89854
36.56180,90465
36.56992,84956
36.57803,77433
36.58617,78964
36.59428,79325
36.60242,77806
36.61053,76918
36.61865,85540
36.62678,84955
36.63490,91064
36.64302,100707
36.65115,105428
36.65927,103184
36.66740,106039
36.67552,108646
36.68363,104289
36.69177,102926
36.69988,103119
36.70802,95003
36.71613,95374
36.72425,98130
36.73238,95839
36.74050,98505
36.74862,95909
36.75675,98783
36.76487,99943
36.77300,98325
36.78112,101792
36.78923,93779
36.79737,95042
36.80548,99307
36.81362,92153
36.82173,96655
36.82985,92313
36.83798,91427
36.84610,98740
36.85423,93036
36.86235,98384
36.87047,101561
36.87860,94984
36.88672,96959
36.89483,101699
36.90297,98264
36.91108,95789
36.91922,104692
36.92733,99137
36.93545,100801
36.94358,103329
36.95170,111977
36.95983,115812
36.96795,119696
36.97607,130027
36.98420,127449
36.99232,117554
37.00045,118823
37.00857,105166
37.01668,103519
37.02482,105370
37.03293,102392
37.04105,97838
37.04918,98493
37.05730,100389
37.06543,96283
37.07355,97551
37.08167,97135
37.08980,97220
37.09792,102956
37.10605,105612
37.11417,103943
37.12228,105490
37.13042,112498
37.13853,108652
37.14665,112459
37.15478,108943
37.16290,112040
37.17103,109570
37.17915,102678
37.18727,100095
37.19540,101217
37.20352,96887
37.21165,93064
37.21977,95693
37.22788,94640
37.23602,94069
37.24413,93587
37.25227,93068
37.26038,94476
37.26850,94174
37.27663,95168
37.28475,92668
37.29287,97651
37.30100,91491
37.30912,97541
37.31725,98464
37.32537,95328
37.33348,100156
37.34162,106922
37.34973,105729
37.35787,108510
37.36598,120495
37.37410,117722
37.38223,118141
37.39035,118070
37.39847,113834
37.40660,109766
37.41472,109186
37.42285,102839
37.43097,108480
37.43908,107828
37.44722,101804
37.45533,104778
37.46347,109235
37.47158,105695
37.47970,107189
37.48783,101650
