Z:\data\JTB-E02\BACandBLUE\JTB-E02-198-16.D Fri Feb 22 17:19:41 2019
Start of data points
2.09522,68061
2.10333,69087
2.11145,66191
2.11958,69997
2.12770,61984
2.13582,66077
2.14395,66120
2.15207,64694
2.16020,65751
2.16832,60972
2.17643,63620
2.18457,61651
2.19268,59386
2.20082,56729
2.20893,56426
2.21705,56189
2.22518,56419
2.23330,55475
2.24143,51785
2.24955,50008
2.25767,54418
2.26580,124056
2.27392,1091461
2.28203,2473606
2.29017,1706558
2.29828,877269
2.30642,628519
2.31453,535419
2.32265,454120
2.33078,406900
2.33890,379203
2.34703,345126
2.35515,292787
2.36327,268080
2.37140,253102
2.37952,258465
2.38765,234459
2.39577,226275
2.40388,216702
2.41202,202066
2.42013,206810
2.42825,208295
2.43638,185930
2.44450,187645
2.45263,189100
2.46075,195576
2.46887,206288
2.47700,195113
2.48512,175319
2.49325,188110
2.50137,185515
2.50948,178881
2.51762,172044
2.52573,172440
2.53385,168640
2.54198,168809
2.55010,199250
2.55823,412771
2.56635,754559
2.57447,613639
2.58260,394613
2.59072,325030
2.59885,283352
2.60697,259946
2.61508,267419
2.62322,249194
2.63133,225004
2.63947,216496
2.64758,206600
2.65570,204922
2.66383,201714
2.67195,194112
2.68007,188457
2.68820,181024
2.69632,177945
2.70445,173698
2.71257,171133
2.72068,175641
2.72882,165381
2.73693,163896
2.74507,160920
2.75318,159522
2.76130,159283
2.76943,160800
2.77755,159216
2.78568,161814
2.79380,180218
2.80192,174998
2.81005,178404
2.81817,177011
2.82628,170690
2.83442,173840
2.84253,165860
2.85067,158305
2.85878,157015
2.86690,161849
2.87503,160850
2.88315,155562
2.89128,158671
2.89940,151049
2.90752,152699
2.91565,143096
2.92377,145693
2.93188,136196
2.94002,148053
2.94813,135782
2.95627,132501
2.96438,131952
2.97250,123328
2.98063,125282
2.98875,125168
2.99688,124592
3.00500,136245
3.01312,153235
3.02125,145923
3.02937,139773
3.03750,129576
3.04562,128633
3.05373,128908
3.06187,134978
3.06998,138157
3.07810,137897
3.08623,134610
3.09435,186513
3.10248,705876
3.11060,2318419
3.11872,3404320
3.12685,2665371
3.13497,1780726
3.14310,1333987
3.15122,1093458
3.15933,903368
3.16747,756883
3.17558,661990
3.18370,560180
3.19183,490534
3.19995,443323
3.20808,401675
3.21620,391399
3.22432,361969
3.23245,324913
3.24057,301715
3.24870,278615
3.25682,263151
3.26493,238697
3.27307,232585
3.28118,231984
3.28932,380672
3.29743,1273314
3.30555,3772710
3.31368,6866480
3.32180,7573949
3.32992,5918462
3.33805,3959557
3.34617,2744366
3.35430,2071016
3.36242,1673629
3.37053,1425420
3.37867,1237533
3.38678,1097336
3.39492,1031353
3.40303,925408
3.41115,844155
3.41928,808040
3.42740,752232
3.43553,695643
3.44365,657593
3.45177,619373
3.45990,652763
3.46802,879230
3.47613,1322917
3.48427,1479175
3.49238,1180157
3.50052,867664
3.50863,709856
3.51675,600533
3.52488,550767
3.53300,522148
3.54113,482207
3.54925,442807
3.55737,413988
3.56550,402019
3.57362,381342
3.58173,377538
3.58987,354992
3.59798,356813
3.60612,333007
3.61423,329842
3.62235,334049
3.63048,316362
3.63860,334588
3.64673,317962
3.65485,310594
3.66297,300286
3.67110,294729
3.67922,310682
3.68735,309867
3.69547,302205
3.70358,306422
3.71172,293539
3.71983,300287
3.72795,279916
3.73608,279141
3.74420,264339
3.75233,263901
3.76045,254080
3.76857,256887
3.77670,256930
3.78482,252284
3.79295,294079
3.80107,446069
3.80918,1090946
3.81732,2609002
3.82543,3759116
3.83357,3263183
3.84168,2218725
3.84980,1654674
3.85793,1355651
3.86605,1142985
3.87417,1004791
3.88230,897788
3.89042,803305
3.89855,727355
3.90667,678339
3.91478,626529
3.92292,613576
3.93103,564491
3.93917,526965
3.94728,499895
3.95540,479157
3.96353,458711
3.97165,450631
3.97977,431709
3.98790,418389
3.99602,394982
4.00415,386925
4.01227,380337
4.02038,385933
4.02852,376864
4.03663,367239
4.04477,356979
4.05288,360184
4.06100,349446
4.06913,332671
4.07725,323144
4.08538,304922
4.09350,290606
4.10162,278407
4.10975,292474
4.11787,298895
4.12598,276076
4.13412,287365
4.14223,288444
4.15037,303905
4.15848,332218
4.16660,344615
4.17473,372342
4.18285,376137
4.19098,358949
4.19910,316509
4.20722,284942
4.21535,278112
4.22347,342946
4.23158,508191
4.23972,647058
4.24783,644908
4.25597,527291
4.26408,418403
4.27220,357164
4.28033,318403
4.28845,285172
4.29658,281021
4.30470,251394
4.31282,249051
4.32095,250416
4.32907,224584
4.33720,242290
4.34532,236153
4.35343,227629
4.36157,219324
4.36968,215672
4.37780,215723
4.38593,212564
4.39405,208358
4.40218,199490
4.41030,198337
4.41842,208122
4.42655,210096
4.43467,201209
4.44280,205983
4.45092,201331
4.45903,201797
4.46717,207505
4.47528,192962
4.48342,200507
4.49153,206287
4.49965,213438
4.50778,231427
4.51590,248029
4.52402,234422
4.53215,223409
4.54027,220062
4.54840,202993
4.55652,201052
4.56463,203105
4.57277,200907
4.58088,200332
4.58902,199229
4.59713,193427
4.60525,181565
4.61338,187578
4.62150,191168
4.62963,190844
4.63775,185751
4.64587,181553
4.65400,186683
4.66212,191792
4.67023,188504
4.67837,191100
4.68648,195362
4.69462,194031
4.70273,174069
4.71085,174625
4.71898,165359
4.72710,166915
4.73523,157140
4.74335,158865
4.75147,154923
4.75960,168137
4.76772,166865
4.77583,167171
4.78397,164894
4.79208,162900
4.80022,185623
4.80833,214028
4.81645,245094
4.82458,241301
4.83270,249076
4.84083,283224
4.84895,314938
4.85707,313897
4.86520,272100
4.87332,236185
4.88145,216363
4.88957,213194
4.89768,211025
4.90582,196909
4.91393,189924
4.92205,185499
4.93018,187064
4.93830,258938
4.94643,564166
4.95455,1384388
4.96267,2797364
4.97080,4123205
4.97892,4480084
4.98705,3698492
4.99517,2671336
5.00328,1799425
5.01142,1285722
5.01953,1022104
5.02765,862420
5.03578,753397
5.04390,663735
5.05203,605441
5.06015,555129
5.06827,543100
5.07640,511124
5.08452,480198
5.09265,463339
5.10077,438728
5.10888,415268
5.11702,400992
5.12513,387349
5.13327,384021
5.14138,362125
5.14950,354344
5.15763,352880
5.16575,344689
5.17387,353187
5.18200,364776
5.19012,392821
5.19825,420424
5.20637,414507
5.21448,401344
5.22262,346305
5.23073,316600
5.23887,316256
5.24698,318831
5.25510,312579
5.26323,298571
5.27135,278106
5.27948,256389
5.28760,263655
5.29572,256158
5.30385,247963
5.31197,239961
5.32008,251906
5.32822,281180
5.33633,344828
5.34447,418081
5.35258,470434
5.36070,443037
5.36883,384087
5.37695,336686
5.38508,302423
5.39320,299509
5.40132,286895
5.40945,279993
5.41757,262738
5.42568,295981
5.43382,366159
5.44193,477070
5.45007,630578
5.45818,615998
5.46630,576851
5.47443,476734
5.48255,397160
5.49068,363151
5.49880,378648
5.50692,384234
5.51505,463952
5.52317,602805
5.53130,743046
5.53942,700518
5.54753,576347
5.55567,449204
5.56378,360169
5.57190,310012
5.58003,306686
5.58815,285120
5.59628,274929
5.60440,288931
5.61252,289915
5.62065,275550
5.62877,273833
5.63690,267936
5.64502,281518
5.65313,284880
5.66127,277830
5.66938,250725
5.67752,249653
5.68563,268351
5.69375,290893
5.70188,319796
5.71000,315661
5.71812,299176
5.72625,262659
5.73437,250827
5.74250,238563
5.75062,226027
5.75873,216987
5.76687,210282
5.77498,200996
5.78312,205140
5.79123,205319
5.79935,203627
5.80748,204978
5.81560,191847
5.82372,195937
5.83185,198265
5.83997,198867
5.84810,197525
5.85622,202458
5.86433,208413
5.87247,193499
5.88058,182289
5.88872,174873
5.89683,178790
5.90495,175225
5.91308,157868
5.92120,156039
5.92933,149302
5.93745,147296
5.94557,141928
5.95370,148659
5.96182,151330
5.96993,159610
5.97807,164555
5.98618,173079
5.99432,184043
6.00243,181226
6.01055,160793
6.01868,159481
6.02680,158724
6.03493,155317
6.04305,156514
6.05117,150705
6.05930,148443
6.06742,141113
6.07553,147519
6.08367,149121
6.09178,139494
6.09992,137100
6.10803,130693
6.11615,128983
6.12428,133021
6.13240,127319
6.14053,130471
6.14865,132503
6.15677,136930
6.16490,148293
6.17302,154233
6.18115,165657
6.18927,173900
6.19738,160121
6.20552,155171
6.21363,160080
6.22175,157287
6.22988,170834
6.23800,153113
6.24613,171479
6.25425,181166
6.26237,165902
6.27050,179098
6.27862,185580
6.28675,185514
6.29487,176431
6.30298,176570
6.31112,176635
6.31923,185621
6.32737,185372
6.33548,182257
6.34360,185513
6.35173,185841
6.35985,203268
6.36797,196113
6.37610,196422
6.38422,196755
6.39235,206769
6.40047,199936
6.40858,196480
6.41672,207827
6.42483,212916
6.43297,211941
6.44108,197229
6.44920,209800
6.45733,207418
6.46545,225658
6.47357,225907
6.48170,228665
6.48982,231231
6.49795,232010
6.50607,225557
6.51418,228059
6.52232,226885
6.53043,223313
6.53857,235927
6.54668,231526
6.55480,215454
6.56293,240039
6.57105,239764
6.57918,238234
6.58730,236925
6.59542,236212
6.60355,235944
6.61167,234378
6.61978,246308
6.62792,248496
6.63603,252298
6.64417,291699
6.65228,562096
6.66040,1624621
6.66853,4073884
6.67665,7057080
6.68478,8428407
6.69290,7307938
6.70102,5002150
6.70915,3264693
6.71727,2238569
6.72540,1701406
6.73352,1390473
6.74163,1164302
6.74977,1004724
6.75788,902628
6.76600,810145
6.77413,730711
6.78225,692395
6.79038,636791
6.79850,605903
6.80662,568023
6.81475,537461
6.82287,527874
6.83100,508771
6.83912,530281
6.84723,490937
6.85537,468116
6.86348,453092
6.87160,401274
6.87973,349412
6.88785,303996
6.89598,284778
6.90410,258090
6.91222,249655
6.92035,237167
6.92847,239177
6.93660,222935
6.94472,216961
6.95283,212293
6.96097,215331
6.96908,208787
6.97722,216801
6.98533,228498
6.99345,235692
7.00158,228299
7.00970,203616
7.01782,179706
7.02595,171605
7.03407,156730
7.04220,153281
7.05032,140756
7.05843,135731
7.06657,122291
7.07468,119522
7.08282,124777
7.09093,154171
7.09905,197513
7.10718,208912
7.11530,222117
7.12342,204809
7.13155,199346
7.13967,177287
7.14780,173959
7.15592,165956
7.16403,164567
7.17217,166612
7.18028,157604
7.18842,163688
7.19653,160738
7.20465,154005
7.21278,150904
7.22090,147986
7.22903,146435
7.23715,147836
7.24527,146974
7.25340,151220
7.26152,173759
7.26963,189168
7.27777,201614
7.28588,190002
7.29402,168492
7.30213,151378
7.31025,141433
7.31838,132996
7.32650,130286
7.33463,122203
7.34275,124487
7.35087,123307
7.35900,126854
7.36712,128290
7.37525,135875
7.38337,139751
7.39148,134490
7.39962,128951
7.40773,123157
7.41585,123426
7.42398,126343
7.43210,119534
7.44023,116513
7.44835,112412
7.45647,108208
7.46460,106902
7.47272,109524
7.48085,107904
7.48897,104457
7.49708,108686
7.50522,104851
7.51333,107103
7.52145,102946
7.52958,96212
7.53770,98316
7.54583,97864
7.55395,100067
7.56207,98794
7.57020,100276
7.57832,97289
7.58645,102081
7.59457,94111
7.60268,90776
7.61082,105036
7.61893,93325
7.62707,98554
7.63518,92661
7.64330,90502
7.65143,96228
7.65955,91995
7.66767,95841
7.67580,100914
7.68392,98167
7.69205,87631
7.70017,95593
7.70828,91096
7.71642,88448
7.72453,87413
7.73267,89153
7.74078,89905
7.74890,83902
7.75703,82161
7.76515,80053
7.77328,79728
7.78140,83047
7.78952,87609
7.79765,95436
7.80577,97237
7.81388,105885
7.82202,99080
7.83013,99618
7.83827,88417
7.84638,83956
7.85450,78699
7.86263,79911
7.87075,75533
7.87888,75803
7.88700,79239
7.89512,80142
7.90325,80395
7.91137,82952
7.91948,82731
7.92762,102499
7.93573,122155
7.94387,171582
7.95198,227139
7.96010,260571
7.96823,230495
7.97635,197037
7.98448,163568
7.99260,116945
8.00072,111947
8.00885,100401
8.01697,92855
8.02510,90158
8.03322,87282
8.04133,85447
8.04947,88230
8.05758,81243
8.06570,82332
8.07383,80897
8.08195,83679
8.09008,80657
8.09820,83487
8.10632,77993
8.11445,77684
8.12257,79781
8.13070,81338
8.13882,86751
8.14693,86290
8.15507,82082
8.16318,80385
8.17132,82829
8.17943,81374
8.18755,71989
8.19568,75149
8.20380,74793
8.21192,72501
8.22005,72457
8.22817,74272
8.23630,69811
8.24442,67717
8.25253,71676
8.26067,67546
8.26878,68075
8.27692,68964
8.28503,71771
8.29315,80723
8.30128,90675
8.30940,94271
8.31752,102080
8.32565,92596
8.33377,84644
8.34190,79851
8.35002,72676
8.35813,91025
8.36627,104270
8.37438,127837
8.38252,168057
8.39063,190973
8.39875,184792
8.40688,158789
8.41500,119579
8.42313,106550
8.43125,86002
8.43937,79923
8.44750,75986
8.45562,75238
8.46373,75674
8.47187,76274
8.47998,67828
8.48812,70336
8.49623,60682
8.50435,58129
8.51248,63393
8.52060,67556
8.52873,78794
8.53685,106139
8.54497,294628
8.55310,874432
8.56122,2316880
8.56933,4629166
8.57747,6797319
8.58558,7671231
8.59372,6670134
8.60183,4505986
8.60995,2476289
8.61808,1218412
8.62620,621259
8.63433,398314
8.64245,328389
8.65057,294989
8.65870,268681
8.66682,254712
8.67495,250324
8.68307,222796
8.69118,223902
8.69932,196527
8.70743,186853
8.71555,189868
8.72368,182199
8.73180,162519
8.73993,166190
8.74805,158884
8.75617,188061
8.76430,258156
8.77242,428060
8.78055,749135
8.78867,1074932
8.79678,1268800
8.80492,1185128
8.81303,942407
8.82117,674581
8.82928,472209
8.83740,349149
8.84553,284977
8.85365,250852
8.86177,240015
8.86990,255163
8.87802,274430
8.88615,268327
8.89427,253834
8.90238,246976
8.91052,244107
8.91863,237578
8.92677,225328
8.93488,221067
8.94300,206774
8.95113,200170
8.95925,201981
8.96737,189928
8.97550,179243
8.98362,176817
8.99175,176998
8.99987,174945
9.00798,166276
9.01612,171603
9.02423,163168
9.03237,157431
9.04048,153941
9.04860,155617
9.05673,143803
9.06485,144056
9.07298,143944
9.08110,144732
9.08922,139100
9.09735,139324
9.10547,144699
9.11358,138193
9.12172,133597
9.12983,133663
9.13797,134691
9.14608,137207
9.15420,132153
9.16233,131850
9.17045,128155
9.17858,126717
9.18670,126718
9.19482,116864
9.20295,111448
9.21107,111122
9.21920,114154
9.22732,113619
9.23543,115609
9.24357,115390
9.25168,117202
9.25980,117306
9.26793,116090
9.27605,116365
9.28418,121779
9.29230,103216
9.30042,103058
9.30855,112200
9.31667,98335
9.32480,95884
9.33292,100917
9.34103,98817
9.34917,98495
9.35728,93058
9.36540,98575
9.37353,92081
9.38165,93921
9.38978,91826
9.39790,93304
9.40602,88957
9.41415,91556
9.42227,90856
9.43040,94440
9.43852,95529
9.44663,92429
9.45477,86946
9.46288,86929
9.47102,90494
9.47913,85432
9.48725,84139
9.49538,92341
9.50350,103257
9.51162,120068
9.51975,146322
9.52787,174725
9.53600,177445
9.54412,153094
9.55223,145875
9.56037,114324
9.56848,107311
9.57662,103093
9.58473,81650
9.59285,77292
9.60098,69975
9.60910,66303
9.61722,67435
9.62535,64491
9.63347,62654
9.64160,60981
9.64972,63074
9.65783,60945
9.66597,54836
9.67408,55700
9.68222,57010
9.69033,58904
9.69845,59247
9.70658,55587
9.71470,57137
9.72283,52951
9.73095,53538
9.73907,50260
9.74720,52325
9.75532,50449
9.76343,50217
9.77157,54426
9.77968,48898
9.78782,54175
9.79593,48717
9.80405,49891
9.81218,49035
9.82030,49367
9.82843,49611
9.83655,51422
9.84467,51068
9.85280,49718
9.86092,49109
9.86905,50023
9.87717,45769
9.88528,54271
9.89342,48527
9.90153,54117
9.90965,53000
9.91778,58532
9.92590,62661
9.93403,70777
9.94215,75898
9.95027,75656
9.95840,65565
9.96652,67241
9.97465,67139
9.98277,59754
9.99088,68809
9.99902,72765
10.00713,74574
10.01527,83109
10.02338,87943
10.03150,81831
10.03963,72233
10.04775,67255
10.05587,59697
10.06400,56110
10.07212,51565
10.08025,54262
10.08837,58910
10.09648,54628
10.10462,62680
10.11273,55509
10.12087,53990
10.12898,53012
10.13710,51175
10.14523,54734
10.15335,51889
10.16147,50449
10.16960,53633
10.17772,47766
10.18585,47041
10.19397,47287
10.20208,49512
10.21022,50849
10.21833,51158
10.22647,55587
10.23458,55604
10.24270,62923
10.25083,69125
10.25895,81066
10.26708,88945
10.27520,133334
10.28332,290147
10.29145,742646
10.29957,1666054
10.30768,3061519
10.31582,4280789
10.32393,4809627
10.33207,4824399
10.34018,4893555
10.34830,5016003
10.35643,5102455
10.36455,4304786
10.37268,2906208
10.38080,1630627
10.38892,806825
10.39705,424833
10.40517,274484
10.41328,221275
10.42142,183347
10.42953,166055
10.43767,155091
10.44578,145235
10.45390,125708
10.46203,119477
10.47015,111607
10.47828,114834
10.48640,111238
10.49452,103802
10.50265,104902
10.51077,118154
10.51890,136491
10.52702,150530
10.53513,150159
10.54327,138151
10.55138,127881
10.55950,104714
10.56763,90783
10.57575,85567
10.58388,86398
10.59200,78495
10.60012,75510
10.60825,79800
10.61637,73851
10.62450,76603
10.63262,77520
10.64073,72921
10.64887,78232
10.65698,74566
10.66512,74192
10.67323,76384
10.68135,81141
10.68948,76058
10.69760,80144
10.70572,70222
10.71385,70346
10.72197,65170
10.73010,70156
10.73822,70912
10.74633,78145
10.75447,84979
10.76258,91526
10.77072,78526
10.77883,70769
10.78695,68792
10.79508,71574
10.80320,60464
10.81132,55731
10.81945,52891
10.82757,53137
10.83570,52015
10.84382,58126
10.85193,54752
10.86007,53335
10.86818,56493
10.87632,56956
10.88443,55939
10.89255,54681
10.90068,55518
10.90880,55082
10.91693,50858
10.92505,53767
10.93317,52115
10.94130,52618
10.94942,59577
10.95753,54898
10.96567,48001
10.97378,56446
10.98192,51709
10.99003,46202
10.99815,52110
11.00628,44591
11.01440,43366
11.02253,48481
11.03065,45949
11.03877,40566
11.04690,44095
11.05502,43023
11.06315,42468
11.07127,46387
11.07938,46174
11.08752,47701
11.09563,43587
11.10375,43236
11.11188,42948
11.12000,44600
11.12813,44165
11.13625,45513
11.14437,38395
11.15250,40768
11.16062,49548
11.16875,51455
11.17687,53066
11.18498,49893
11.19312,55341
11.20123,53043
11.20935,56413
11.21748,49286
11.22560,52178
11.23373,44398
11.24185,45785
11.24997,45955
11.25810,41009
11.26622,41091
11.27435,44816
11.28247,45795
11.29058,46623
11.29872,44408
11.30683,51264
11.31497,51248
11.32308,49608
11.33120,47776
11.33933,45209
11.34745,45395
11.35557,39366
11.36370,41396
11.37182,44209
11.37995,39304
11.38807,41922
11.39618,41430
11.40432,41741
11.41243,41090
11.42057,39480
11.42868,40923
11.43680,38460
11.44493,40800
11.45305,38757
11.46117,39374
11.46930,35495
11.47742,41589
11.48555,44615
11.49367,55109
11.50178,63138
11.50992,70283
11.51803,78889
11.52617,78354
11.53428,72021
11.54240,69022
11.55053,71290
11.55865,78140
11.56678,75776
11.57490,74555
11.58302,68534
11.59115,55923
11.59927,50284
11.60738,53118
11.61552,47350
11.62363,49190
11.63177,48641
11.63988,43150
11.64800,43625
11.65613,45403
11.66425,46655
11.67238,47992
11.68050,59571
11.68862,83151
11.69675,110752
11.70487,143425
11.71300,160283
11.72112,155991
11.72923,131825
11.73737,106028
11.74548,76014
11.75360,64036
11.76173,60279
11.76985,54036
11.77798,55145
11.78610,55817
11.79422,55984
11.80235,54200
11.81047,54822
11.81860,52832
11.82672,55038
11.83483,55990
11.84297,56160
11.85108,53830
11.85920,52507
11.86733,52313
11.87545,52784
11.88358,45873
11.89170,56344
11.89982,48031
11.90795,51120
11.91607,54891
11.92420,49391
11.93232,54550
11.94043,51567
11.94857,54587
11.95668,50100
11.96482,46026
11.97293,49616
11.98105,46280
11.98918,45589
11.99730,48162
12.00542,57250
12.01355,60885
12.02167,81079
12.02980,77030
12.03792,75207
12.04603,67324
12.05417,64663
12.06228,57394
12.07042,48449
12.07853,45996
12.08665,47136
12.09478,48550
12.10290,46777
12.11103,48823
12.11915,47605
12.12727,48147
12.13540,49867
12.14352,47992
12.15163,53102
12.15977,45214
12.16788,44585
12.17602,48116
12.18413,42424
12.19225,40225
12.20038,40916
12.20850,39446
12.21663,42905
12.22475,43363
12.23287,38329
12.24100,45026
12.24912,39871
12.25723,39968
12.26537,45136
12.27348,48563
12.28162,44735
12.28973,43248
12.29785,47491
12.30598,42302
12.31410,38196
12.32223,38416
12.33035,39027
12.33847,40448
12.34660,45069
12.35472,39690
12.36285,41632
12.37097,44275
12.37908,45108
12.38722,40893
12.39533,44136
12.40345,37073
12.41158,42061
12.41970,44538
12.42783,44585
12.43595,55767
12.44407,60346
12.45220,62265
12.46032,62666
12.46845,56433
12.47657,50023
12.48468,44334
12.49282,41718
12.50093,42465
12.50905,41918
12.51718,39973
12.52530,42477
12.53343,42498
12.54155,45622
12.54967,51442
12.55780,58927
12.56592,89299
12.57405,121329
12.58217,159682
12.59028,191339
12.59842,178467
12.60653,142415
12.61467,109812
12.62278,80703
12.63090,70299
12.63903,61247
12.64715,54148
12.65527,53430
12.66340,54160
12.67152,47117
12.67965,49391
12.68777,44652
12.69588,47140
12.70402,42804
12.71213,42598
12.72027,50573
12.72838,45442
12.73650,44071
12.74463,49989
12.75275,50189
12.76088,46042
12.76900,43963
12.77712,39097
12.78525,39261
12.79337,43066
12.80148,41810
12.80962,43242
12.81773,37583
12.82587,40698
12.83398,38522
12.84210,38536
12.85023,41523
12.85835,38096
12.86648,37902
12.87460,40970
12.88272,38244
12.89085,40672
12.89897,40587
12.90708,43267
12.91522,40479
12.92333,40728
12.93147,42349
12.93958,40902
12.94770,38022
12.95583,36990
12.96395,45466
12.97208,41033
12.98020,42099
12.98832,42696
12.99645,48123
13.00457,52078
13.01270,54937
13.02082,51534
13.02893,41756
13.03707,41527
13.04518,41578
13.05330,49549
13.06143,38560
13.06955,39616
13.07768,36523
13.08580,35604
13.09392,44703
13.10205,47895
13.11017,44849
13.11830,43429
13.12642,41255
13.13453,41820
13.14267,39520
13.15078,40303
13.15892,38519
13.16703,40811
13.17515,39105
13.18328,42645
13.19140,40849
13.19952,42413
13.20765,44822
13.21577,54530
13.22390,44480
13.23202,44215
13.24013,45416
13.24827,39920
13.25638,41598
13.26452,38915
13.27263,38584
13.28075,36710
13.28888,42109
13.29700,37490
13.30512,35493
13.31325,36736
13.32137,38934
13.32950,36828
13.33762,37500
13.34573,34624
13.35387,37363
13.36198,37468
13.37012,34050
13.37823,35721
13.38635,38461
13.39448,41622
13.40260,37545
13.41073,37440
13.41885,35774
13.42697,35523
13.43510,42162
13.44322,38386
13.45133,34830
13.45947,37837
13.46758,37302
13.47572,38417
13.48383,36156
13.49195,39707
13.50008,34020
13.50820,32847
13.51633,36655
13.52445,37447
13.53257,34839
13.54070,35422
13.54882,36457
13.55695,34688
13.56507,38243
13.57318,39604
13.58132,39625
13.58943,35488
13.59755,37751
13.60568,35983
13.61380,38925
13.62193,37678
13.63005,37129
13.63817,38041
13.64630,36730
13.65442,37735
13.66255,38878
13.67067,34606
13.67878,38053
13.68692,38396
13.69503,37053
13.70315,32157
13.71128,34837
13.71940,43391
13.72753,37793
13.73565,33455
13.74377,44393
13.75190,79245
13.76002,151848
13.76815,359746
13.77627,722253
13.78438,1224600
13.79252,1675597
13.80063,1770133
13.80877,1650023
13.81688,1227288
13.82500,765304
13.83313,488304
13.84125,334657
13.84937,250529
13.85750,215536
13.86562,201956
13.87375,193432
13.88187,168698
13.88998,155042
13.89812,151112
13.90623,139450
13.91437,139163
13.92248,125626
13.93060,124025
13.93873,121594
13.94685,120868
13.95497,142192
13.96310,211483
13.97122,321668
13.97935,551755
13.98747,851468
13.99558,1106329
14.00372,1317626
14.01183,1171867
14.01997,905984
14.02808,578940
14.03620,405518
14.04433,282777
14.05245,234223
14.06058,205766
14.06870,190904
14.07682,193921
14.08495,177830
14.09307,167086
14.10118,155025
14.10932,151713
14.11743,153999
14.12557,134184
14.13368,142163
14.14180,132899
14.14993,142705
14.15805,131341
14.16618,124651
14.17430,120509
14.18242,121128
14.19055,129766
14.19867,146002
14.20680,185610
14.21492,254086
14.22303,319421
14.23117,364341
14.23928,393176
14.24740,364962
14.25553,323645
14.26365,283877
14.27178,260345
14.27990,230838
14.28802,197814
14.29615,170780
14.30427,155892
14.31240,150136
14.32052,146006
14.32863,131995
14.33677,122972
14.34488,118150
14.35300,121923
14.36113,116115
14.36925,113133
14.37738,107455
14.38550,107566
14.39362,92852
14.40175,87742
14.40987,76601
14.41800,79690
14.42612,75447
14.43423,68654
14.44237,70454
14.45048,64586
14.45862,58851
14.46673,59915
14.47485,56530
14.48298,58147
14.49110,51937
14.49922,54044
14.50735,54334
14.51547,48517
14.52360,52073
14.53172,53363
14.53983,51532
14.54797,53616
14.55608,50468
14.56422,50737
14.57233,50975
14.58045,53820
14.58858,45860
14.59670,44896
14.60483,49429
14.61295,47831
14.62107,43246
14.62920,50190
14.63732,42803
14.64543,42026
14.65357,41741
14.66168,44115
14.66982,41483
14.67793,42439
14.68605,39361
14.69418,40900
14.70230,44031
14.71043,47968
14.71855,45387
14.72667,46144
14.73480,44307
14.74292,44990
14.75103,47521
14.75917,46781
14.76728,45626
14.77542,44927
14.78353,46987
14.79165,48618
14.79978,42672
14.80790,43290
14.81603,46072
14.82415,46971
14.83227,48488
14.84040,51671
14.84852,54173
14.85665,59856
14.86477,61184
14.87288,59981
14.88102,59366
14.88913,54835
14.89725,56410
14.90538,53052
14.91350,53461
14.92163,53151
14.92975,49353
14.93787,49177
14.94600,49408
14.95412,48206
14.96225,47646
14.97037,48522
14.97848,50321
14.98662,47640
14.99473,47914
15.00285,46470
15.01098,45031
15.01910,42922
15.02723,50527
15.03535,46954
15.04347,42577
15.05160,50099
15.05972,47793
15.06785,45137
15.07597,42341
15.08408,42780
15.09222,39779
15.10033,44995
15.10847,43137
15.11658,41682
15.12470,41166
15.13283,33961
15.14095,38893
15.14907,38374
15.15720,41516
15.16532,42314
15.17345,43700
15.18157,47537
15.18968,47817
15.19782,42977
15.20593,43077
15.21407,37420
15.22218,39163
15.23030,40191
15.23843,45145
15.24655,40224
15.25468,44250
15.26280,37452
15.27092,37322
15.27905,38587
15.28717,36492
15.29528,38833
15.30342,34417
15.31153,31371
15.31967,37338
15.32778,38257
15.33590,38679
15.34403,39658
15.35215,39435
15.36028,35442
15.36840,39140
15.37652,42537
15.38465,34256
15.39277,41518
15.40090,39777
15.40902,34189
15.41713,37045
15.42527,41991
15.43338,35428
15.44150,36300
15.44963,36011
15.45775,37111
15.46588,36446
15.47400,32623
15.48212,36154
15.49025,38458
15.49837,38014
15.50650,50591
15.51462,72440
15.52273,131017
15.53087,225857
15.53898,398042
15.54710,588979
15.55523,728067
15.56335,743875
15.57148,639679
15.57960,447093
15.58772,290951
15.59585,188182
15.60397,135210
15.61210,105845
15.62022,88062
15.62833,79462
15.63647,74692
15.64458,68365
15.65272,61801
15.66083,59769
15.66895,53928
15.67708,52341
15.68520,51937
15.69332,51786
15.70145,46884
15.70957,52003
15.71770,45344
15.72582,49420
15.73393,46212
15.74207,46695
15.75018,46559
15.75832,47931
15.76643,44336
15.77455,50422
15.78268,49403
15.79080,54512
15.79892,58437
15.80705,58680
15.81517,65447
15.82330,54419
15.83142,51939
15.83953,50114
15.84767,51591
15.85578,47759
15.86392,55721
15.87203,52014
15.88015,51438
15.88828,50183
15.89640,49281
15.90453,51392
15.91265,50184
15.92077,49642
15.92890,49415
15.93702,46816
15.94513,44066
15.95327,45074
15.96138,49694
15.96952,47023
15.97763,61234
15.98575,60492
15.99388,62261
16.00200,67615
16.01013,60152
16.01825,64577
16.02637,59755
16.03450,58188
16.04262,53008
16.05075,51584
16.05887,50836
16.06698,49955
16.07512,47978
16.08323,47795
16.09135,46228
16.09948,45858
16.10760,44573
16.11573,47786
16.12385,46934
16.13197,46875
16.14010,45588
16.14822,46485
16.15635,44704
16.16447,43912
16.17258,49153
16.18072,51661
16.18883,45674
16.19695,44992
16.20508,43775
16.21320,43875
16.22133,41428
16.22945,44193
16.23757,45725
16.24570,50728
16.25382,46888
16.26195,45714
16.27007,44847
16.27818,43055
16.28632,47484
16.29443,44254
16.30257,46025
16.31068,42671
16.31880,44957
16.32693,46965
16.33505,43843
16.34317,43890
16.35130,49551
16.35942,61227
16.36755,84219
16.37567,110327
16.38378,144983
16.39192,173080
16.40003,199175
16.40817,173945
16.41628,150554
16.42440,105161
16.43253,86943
16.44065,74038
16.44878,70315
16.45690,61515
16.46502,61437
16.47315,53491
16.48127,59141
16.48938,55886
16.49752,60233
16.50563,51678
16.51377,53893
16.52188,53128
16.53000,46976
16.53813,50314
16.54625,49954
16.55438,52551
16.56250,49626
16.57062,49106
16.57875,50635
16.58687,46510
16.59498,50925
16.60312,51973
16.61123,60964
16.61937,60343
16.62748,67029
16.63560,65156
16.64373,60697
16.65185,59973
16.65998,52706
16.66810,49807
16.67622,47452
16.68435,44576
16.69247,43281
16.70060,44540
16.70872,42098
16.71683,41221
16.72497,41953
16.73308,41615
16.74120,41219
16.74933,38030
16.75745,37014
16.76558,36951
16.77370,40573
16.78182,41128
16.78995,40868
16.79807,41905
16.80620,42549
16.81432,40031
16.82243,40615
16.83057,38390
16.83868,39079
16.84680,37904
16.85493,37786
16.86305,36450
16.87118,38891
16.87930,37920
16.88742,34992
16.89555,39164
16.90367,36373
16.91180,37010
16.91992,43601
16.92803,38773
16.93617,37091
16.94428,42727
16.95242,41932
16.96053,40077
16.96865,37767
16.97678,42446
16.98490,33788
16.99302,35639
17.00115,36431
17.00927,33057
17.01740,32941
17.02552,33873
17.03363,39428
17.04177,39499
17.04988,38292
17.05802,37464
17.06613,36830
17.07425,37749
17.08238,39214
17.09050,45144
17.09863,50334
17.10675,51629
17.11487,57316
17.12300,67618
17.13112,60003
17.13923,54878
17.14737,56327
17.15548,49833
17.16362,49480
17.17173,49023
17.17985,44408
17.18798,38453
17.19610,44198
17.20423,41144
17.21235,42664
17.22047,37757
17.22860,37991
17.23672,39564
17.24483,40672
17.25297,40114
17.26108,42118
17.26922,44747
17.27733,41824
17.28545,43445
17.29358,40611
17.30170,38869
17.30983,39051
17.31795,39901
17.32607,40067
17.33420,40087
17.34232,41617
17.35045,43339
17.35857,41237
17.36668,41353
17.37482,38703
17.38293,45570
17.39105,47701
17.39918,45822
17.40730,41748
17.41543,46988
17.42355,41471
17.43167,40487
17.43980,42284
17.44792,42792
17.45605,40423
17.46417,42017
17.47228,40407
17.48042,35835
17.48853,40194
17.49667,39224
17.50478,39290
17.51290,41353
17.52103,40953
17.52915,40318
17.53727,37897
17.54540,45488
17.55352,46637
17.56165,52068
17.56977,44631
17.57788,49388
17.58602,44266
17.59413,45293
17.60227,40515
17.61038,40289
17.61850,38486
17.62663,34576
17.63475,39142
17.64287,44621
17.65100,60653
17.65912,83645
17.66725,114671
17.67537,137941
17.68348,171322
17.69162,160280
17.69973,142209
17.70787,113606
17.71598,94912
17.72410,80606
17.73223,67579
17.74035,63297
17.74848,59078
17.75660,55313
17.76472,55243
17.77285,53433
17.78097,47478
17.78908,43890
17.79722,46418
17.80533,47686
17.81347,47850
17.82158,49860
17.82970,46449
17.83783,41131
17.84595,44636
17.85408,46941
17.86220,46943
17.87032,45343
17.87845,42704
17.88657,46603
17.89470,40132
17.90282,41421
17.91093,36228
17.91907,40698
17.92718,35861
17.93530,38009
17.94343,35847
17.95155,38058
17.95968,33342
17.96780,37174
17.97592,38768
17.98405,34946
17.99217,36649
18.00030,36792
18.00842,39364
18.01653,36178
18.02467,39594
18.03278,41083
18.04090,42099
18.04903,42165
18.05715,47177
18.06528,46123
18.07340,42585
18.08152,45704
18.08965,44429
18.09777,45244
18.10590,49925
18.11402,48605
18.12213,59948
18.13027,52510
18.13838,54115
18.14652,54503
18.15463,47587
18.16275,50065
18.17088,48554
18.17900,51215
18.18712,47158
18.19525,51975
18.20337,51505
18.21150,47954
18.21962,53012
18.22773,47870
18.23587,46120
18.24398,44173
18.25212,44912
18.26023,42828
18.26835,44370
18.27648,41343
18.28460,40951
18.29272,43438
18.30085,42332
18.30897,43626
18.31710,41054
18.32522,44415
18.33333,39232
18.34147,40539
18.34958,43660
18.35772,38974
18.36583,39402
18.37395,35408
18.38208,35113
18.39020,38857
18.39833,41711
18.40645,38368
18.41457,33373
18.42270,33521
18.43082,31627
18.43893,32021
18.44707,32803
18.45518,36961
18.46332,36128
18.47143,34537
18.47955,37237
18.48768,36052
18.49580,40517
18.50393,34289
18.51205,38689
18.52017,34093
18.52830,34143
18.53642,34500
18.54455,36565
18.55267,35363
18.56078,35298
18.56892,37857
18.57703,38953
18.58515,38756
18.59328,35900
18.60140,37095
18.60953,41685
18.61765,43012
18.62577,43818
18.63390,44049
18.64202,41688
18.65015,41793
18.65827,39947
18.66638,38273
18.67452,37888
18.68263,36978
18.69075,36996
18.69888,36460
18.70700,37314
18.71513,36511
18.72325,35741
18.73137,28750
18.73950,34605
18.74762,35828
18.75575,34808
18.76387,36486
18.77198,31653
18.78012,32286
18.78823,33275
18.79637,30651
18.80448,29889
18.81260,35133
18.82073,36435
18.82885,35302
18.83697,30129
18.84510,34990
18.85322,34052
18.86135,29826
18.86947,32441
18.87758,33338
18.88572,35849
18.89383,34766
18.90197,37012
18.91008,33002
18.91820,30313
18.92633,34652
18.93445,32019
18.94258,36285
18.95070,36961
18.95882,38625
18.96695,35425
18.97507,38888
18.98318,36441
18.99132,41658
18.99943,41709
19.00757,34818
19.01568,36485
19.02380,33581
19.03193,35150
19.04005,33390
19.04818,36895
19.05630,31788
19.06442,36713
19.07255,35468
19.08067,38370
19.08878,43786
19.09692,49437
19.10503,69089
19.11317,73099
19.12128,78443
19.12940,78562
19.13753,71732
19.14565,71888
19.15378,60857
19.16190,57065
19.17002,56704
19.17815,53428
19.18627,60518
19.19440,57229
19.20252,56463
19.21063,55585
19.21877,53795
19.22688,51543
19.23500,48904
19.24313,51443
19.25125,47851
19.25938,48312
19.26750,46011
19.27562,46450
19.28375,48916
19.29187,50111
19.30000,53735
19.30812,50066
19.31623,53850
19.32437,53653
19.33248,57391
19.34060,56263
19.34873,58853
19.35685,52544
19.36498,58864
19.37310,51128
19.38122,54680
19.38935,51592
19.39747,49727
19.40560,44831
19.41372,43236
19.42183,44797
19.42997,41779
19.43808,43844
19.44622,48629
19.45433,44329
19.46245,44358
19.47058,40730
19.47870,40809
19.48682,41924
19.49495,48054
19.50307,61432
19.51120,77002
19.51932,116133
19.52743,142784
19.53557,160603
19.54368,156912
19.55182,140843
19.55993,110273
19.56805,75972
19.57618,58006
19.58430,52744
19.59243,48428
19.60055,44386
19.60867,43425
19.61680,38092
19.62492,39360
19.63303,45037
19.64117,45529
19.64928,67091
19.65742,90074
19.66553,144708
19.67365,200820
19.68178,251022
19.68990,295951
19.69803,295400
19.70615,250483
19.71427,210290
19.72240,161426
19.73052,137145
19.73863,125045
19.74677,118470
19.75488,122239
19.76302,128632
19.77113,114390
19.77925,111919
19.78738,96330
19.79550,87033
19.80363,73115
19.81175,69722
19.81987,63890
19.82800,60938
19.83612,57893
19.84425,59728
19.85237,55457
19.86048,59037
19.86862,71644
19.87673,97141
19.88485,160973
19.89298,272772
19.90110,426294
19.90923,596282
19.91735,712506
19.92547,755306
19.93360,756529
19.94172,711623
19.94985,628717
19.95797,572791
19.96608,533769
19.97422,516475
19.98233,467790
19.99047,430631
19.99858,403193
20.00670,376467
20.01483,369097
20.02295,369624
20.03107,333871
20.03920,324449
20.04732,290257
20.05545,268142
20.06357,221038
20.07168,183253
20.07982,148899
20.08793,127029
20.09607,105367
20.10418,95318
20.11230,86850
20.12043,82777
20.12855,84039
20.13667,79321
20.14480,79158
20.15292,80563
20.16105,79867
20.16917,85978
20.17728,76809
20.18542,75480
20.19353,79443
20.20167,72910
20.20978,70370
20.21790,70005
20.22603,69068
20.23415,61783
20.24228,65592
20.25040,72559
20.25852,84727
20.26665,112576
20.27477,159126
20.28288,223090
20.29102,281113
20.29913,324814
20.30727,351621
20.31538,308818
20.32350,254684
20.33163,203334
20.33975,162797
20.34788,129971
20.35600,98221
20.36412,86203
20.37225,80527
20.38037,68993
20.38848,59708
20.39662,57805
20.40473,56945
20.41287,60157
20.42098,53571
20.42910,60082
20.43723,65789
20.44535,75938
20.45348,91355
20.46160,107885
20.46972,104222
20.47785,105522
20.48597,98692
20.49410,85094
20.50222,87382
20.51033,64944
20.51847,56260
20.52658,55450
20.53470,53640
20.54283,47589
20.55095,49975
20.55908,51110
20.56720,44225
20.57532,49439
20.58345,43198
20.59157,44330
20.59970,45692
20.60782,45360
20.61593,47225
20.62407,43448
20.63218,42513
20.64032,46712
20.64843,40834
20.65655,38082
20.66468,40210
20.67280,41990
20.68092,40504
20.68905,39685
20.69717,45212
20.70530,35887
20.71342,41617
20.72153,42865
20.72967,43605
20.73778,42492
20.74592,42618
20.75403,37115
20.76215,36234
20.77028,37372
20.77840,37562
20.78653,37627
20.79465,43069
20.80277,37658
20.81090,40146
20.81902,40576
20.82713,37622
20.83527,42767
20.84338,45244
20.85152,43145
20.85963,39990
20.86775,41223
20.87588,41740
20.88400,37032
20.89213,38564
20.90025,40157
20.90837,40286
20.91650,41403
20.92462,40725
20.93273,38614
20.94087,39878
20.94898,39861
20.95712,38082
20.96523,37734
20.97335,33820
20.98148,38359
20.98960,37100
20.99773,38749
21.00585,45164
21.01397,40052
21.02210,41915
21.03022,40802
21.03835,42108
21.04647,43087
21.05458,43055
21.06272,38299
21.07083,39130
21.07895,43997
21.08708,40603
21.09520,40751
21.10333,42445
21.11145,42174
21.11957,44765
21.12770,44125
21.13582,42084
21.14395,45090
21.15207,49898
21.16018,52406
21.16832,49657
21.17643,49030
21.18455,50070
21.19268,47102
21.20080,49057
21.20893,46884
21.21705,48043
21.22517,48164
21.23330,43124
21.24142,42345
21.24955,46614
21.25767,44894
21.26578,51106
21.27392,47082
21.28203,47255
21.29017,44563
21.29828,46261
21.30640,47233
21.31453,43040
21.32265,43838
21.33077,48857
21.33890,43833
21.34702,44000
21.35515,45516
21.36327,42076
21.37138,38666
21.37952,39355
21.38763,41866
21.39577,43866
21.40388,42463
21.41200,46232
21.42013,44855
21.42825,44653
21.43638,46583
21.44450,44386
21.45262,45430
21.46075,47317
21.46887,43047
21.47698,46465
21.48512,43896
21.49323,43261
21.50137,42782
21.50948,44354
21.51760,40581
21.52573,42576
21.53385,47453
21.54198,40265
21.55010,42665
21.55822,40972
21.56635,42332
21.57447,41489
21.58258,42014
21.59072,42421
21.59883,41977
21.60697,42162
21.61508,44208
21.62320,43855
21.63133,55055
21.63945,65719
21.64758,79369
21.65570,97787
21.66382,101577
21.67195,102584
21.68007,92912
21.68820,80775
21.69632,69404
21.70443,58080
21.71257,51009
21.72068,50911
21.72880,45829
21.73693,43696
21.74505,42046
21.75318,44066
21.76130,47066
21.76942,45762
21.77755,41267
21.78567,44661
21.79380,47117
21.80192,43240
21.81003,44615
21.81817,53410
21.82628,55427
21.83442,63394
21.84253,80462
21.85065,93937
21.85878,111608
21.86690,113503
21.87502,108104
21.88315,93331
21.89127,77497
21.89940,67253
21.90752,55534
21.91563,51702
21.92377,47929
21.93188,45245
21.94002,49292
21.94813,47534
21.95625,44150
21.96438,43000
21.97250,42616
21.98062,36701
21.98875,37578
21.99687,38234
22.00500,42033
22.01312,37712
22.02123,35755
22.02937,39370
22.03748,39236
22.04562,39780
22.05373,37805
22.06185,38072
22.06998,39934
22.07810,38108
22.08623,35569
22.09435,39197
22.10247,37520
22.11060,40715
22.11872,37541
22.12683,36140
22.13497,37616
22.14308,36709
22.15122,37495
22.15933,34918
22.16745,42157
22.17558,37501
22.18370,40127
22.19183,46570
22.19995,37910
22.20807,40691
22.21620,39034
22.22432,44431
22.23243,46375
22.24057,51535
22.24868,51144
22.25682,54746
22.26493,48345
22.27305,47312
22.28118,43623
22.28930,41272
22.29743,39361
22.30555,38813
22.31367,46103
22.32180,58793
22.32992,68761
22.33805,78068
22.34617,90405
22.35428,89960
22.36242,87773
22.37053,80947
22.37865,68555
22.38678,65485
22.39490,63644
22.40303,51033
22.41115,48526
22.41927,46352
22.42740,46156
22.43552,43672
22.44365,42534
22.45177,38026
22.45988,40818
22.46802,37968
22.47613,38602
22.48427,38371
22.49238,39532
22.50050,35952
22.50863,38296
22.51675,37868
22.52487,33865
22.53300,33509
22.54112,33216
22.54925,40761
22.55737,39575
22.56548,42103
22.57362,38231
22.58173,41364
22.58987,35040
22.59798,37315
22.60610,38507
22.61423,35862
22.62235,34128
22.63047,34519
22.63860,34642
22.64672,33602
22.65485,38414
22.66297,32146
22.67108,34344
22.67922,38500
22.68733,36947
22.69547,47841
22.70358,46038
22.71170,45344
22.71983,43881
22.72795,41862
22.73608,41018
22.74420,39359
22.75232,38200
22.76045,37613
22.76857,42633
22.77668,34169
22.78482,36111
22.79293,35070
22.80107,35802
22.80918,37313
22.81730,35141
22.82543,35915
22.83355,33838
22.84168,32781
22.84980,30979
22.85792,39233
22.86605,41440
22.87417,40758
22.88230,37705
22.89042,35275
22.89853,41151
22.90667,41042
22.91478,41026
22.92290,41409
22.93103,50254
22.93915,58891
22.94728,60225
22.95540,65957
22.96352,69222
22.97165,67718
22.97977,65392
22.98790,63723
22.99602,60582
23.00413,55137
23.01227,52022
23.02038,50335
23.02850,46445
23.03663,45615
23.04475,45069
23.05288,41746
23.06100,39688
23.06912,35564
23.07725,40338
23.08537,40041
23.09350,37828
23.10162,40765
23.10973,40055
23.11787,40113
23.12598,39773
23.13412,37926
23.14223,39712
23.15035,37868
23.15848,33125
23.16660,31578
23.17472,36200
23.18285,34274
23.19097,35955
23.19910,35478
23.20722,35615
23.21533,36201
23.22347,37600
23.23158,38817
23.23972,35052
23.24783,38667
23.25595,40731
23.26408,42377
23.27220,42993
23.28033,46504
23.28845,43439
23.29657,45728
23.30470,42421
23.31282,39628
23.32093,37649
23.32907,42188
23.33718,36497
23.34532,34286
23.35343,37001
23.36155,39505
23.36968,35602
23.37780,36271
23.38593,37505
23.39405,35314
23.40217,37728
23.41030,35983
23.41842,38450
23.42653,37133
23.43467,34438
23.44278,35906
23.45092,39959
23.45903,35053
23.46715,35613
23.47528,33620
23.48340,33625
23.49153,35313
23.49965,39421
23.50777,37465
23.51590,37471
23.52402,36414
23.53215,39885
23.54027,36722
23.54838,38013
23.55652,38413
23.56463,40633
23.57275,40710
23.58088,42394
23.58900,42814
23.59713,48708
23.60525,50664
23.61337,54624
23.62150,53081
23.62962,62620
23.63775,62555
23.64587,79104
23.65398,118308
23.66212,166701
23.67023,232444
23.67835,289965
23.68648,313934
23.69460,280604
23.70273,233548
23.71085,176968
23.71897,139412
23.72710,109126
23.73522,82128
23.74335,78214
23.75147,80372
23.75958,101707
23.76772,189798
23.77583,449372
23.78397,1044598
23.79208,2137153
23.80020,3319809
23.80833,4083259
23.81645,4141930
23.82457,3585055
23.83270,2642972
23.84082,1913452
23.84895,1366285
23.85707,942662
23.86518,700110
23.87332,543362
23.88143,459186
23.88957,387827
23.89768,332620
23.90580,310099
23.91393,278708
23.92205,239131
23.93018,232608
23.93830,207142
23.94642,179695
23.95455,184555
23.96267,179391
23.97078,165149
23.97892,158022
23.98703,154437
23.99517,143642
24.00328,140721
24.01140,134911
24.01953,130250
24.02765,127049
24.03578,122344
24.04390,139582
24.05202,137178
24.06015,133645
24.06827,123480
24.07638,116161
24.08452,112956
24.09263,111568
24.10077,102868
24.10888,99996
24.11700,95631
24.12513,92264
24.13325,95790
24.14138,93553
24.14950,98308
24.15762,104824
24.16575,111542
24.17387,100340
24.18200,98506
24.19012,94186
24.19823,87748
24.20637,87166
24.21448,88977
24.22260,91574
24.23073,100793
24.23885,105973
24.24698,111113
24.25510,104961
24.26322,96580
24.27135,87854
24.27947,85310
24.28760,80584
24.29572,70527
24.30383,76239
24.31197,72233
24.32008,69091
24.32822,67498
24.33633,69627
24.34445,70769
24.35258,69892
24.36070,61805
24.36882,67654
24.37695,67356
24.38507,68101
24.39320,81888
24.40132,85194
24.40943,115952
24.41757,128387
24.42568,149283
24.43382,142179
24.44193,118834
24.45005,99488
24.45818,83417
24.46630,75656
24.47442,61959
24.48255,57904
24.49067,62715
24.49880,61441
24.50692,64364
24.51503,70765
24.52317,74203
24.53128,81706
24.53942,88516
24.54753,87250
24.55565,77766
24.56378,74941
24.57190,69109
24.58003,63726
24.58815,64944
24.59627,60651
24.60440,65369
24.61252,62469
24.62063,60233
24.62877,60069
24.63688,60376
24.64502,63365
24.65313,59985
24.66125,59878
24.66938,54508
24.67750,57139
24.68563,62092
24.69375,65123
24.70187,64332
24.71000,53744
24.71812,59048
24.72623,50010
24.73437,57113
24.74248,49390
24.75062,54520
24.75873,48902
24.76685,53359
24.77498,51285
24.78310,45840
24.79123,50877
24.79935,48402
24.80747,50509
24.81560,50500
24.82372,47516
24.83185,49984
24.83997,47427
24.84808,48957
24.85622,50110
24.86433,49097
24.87245,45627
24.88058,46032
24.88870,42374
24.89683,43052
24.90495,50207
24.91307,41932
24.92120,44887
24.92932,46763
24.93745,43915
24.94557,48405
24.95368,40676
24.96182,47176
24.96993,42029
24.97807,45498
24.98618,44723
24.99430,47600
25.00243,45568
25.01055,43559
25.01867,45293
25.02680,44735
25.03492,44745
25.04305,42069
25.05117,41913
25.05928,43533
25.06742,43227
25.07553,37758
25.08367,41040
25.09178,46383
25.09990,42661
25.10803,43820
25.11615,41693
25.12427,41326
25.13240,41733
25.14052,43292
25.14865,46138
25.15677,44506
25.16488,46219
25.17302,48641
25.18113,50117
25.18927,48839
25.19738,49326
25.20550,47277
25.21363,44810
25.22175,40852
25.22988,43726
25.23800,48648
25.24612,44518
25.25425,42885
25.26237,48907
25.27048,41310
25.27862,46856
25.28673,43793
25.29487,44571
25.30298,48102
25.31110,49399
25.31923,47655
25.32735,48244
25.33548,51769
25.34360,53638
25.35172,54726
25.35985,46430
25.36797,47258
25.37610,44120
25.38422,40442
25.39233,44033
25.40047,41827
25.40858,40432
25.41670,40773
25.42483,41792
25.43295,45015
25.44108,37225
25.44920,42337
25.45732,42472
25.46545,48197
25.47357,39915
25.48170,45089
25.48982,50886
25.49793,47820
25.50607,47440
25.51418,42397
25.52230,47677
25.53043,45642
25.53855,43826
25.54668,40349
25.55480,41086
25.56292,42779
25.57105,41457
25.57917,41906
25.58730,38417
25.59542,39306
25.60353,39408
25.61167,41038
25.61978,39427
25.62792,39659
25.63603,39217
25.64415,40468
25.65228,45372
25.66040,43945
25.66852,46453
25.67665,48727
25.68477,43149
25.69290,42248
25.70102,39537
25.70913,42786
25.71727,41316
25.72538,40940
25.73352,44844
25.74163,45252
25.74975,43113
25.75788,46325
25.76600,48040
25.77412,46410
25.78225,44065
25.79037,41422
25.79850,43177
25.80662,40138
25.81473,39430
25.82287,42093
25.83098,42896
25.83912,45891
25.84723,45679
25.85535,41070
25.86348,42745
25.87160,40569
25.87973,36411
25.88785,36693
25.89597,36649
25.90410,37566
25.91222,38288
25.92033,36181
25.92847,38548
25.93658,38302
25.94472,38427
25.95283,33664
25.96095,34850
25.96908,34571
25.97720,33402
25.98533,37806
25.99345,34274
26.00157,35254
26.00970,33389
26.01782,38367
26.02595,37987
26.03407,34469
26.04218,36438
26.05032,38010
26.05843,37880
26.06655,34002
26.07468,37448
26.08280,38783
26.09093,36462
26.09905,35089
26.10717,35712
26.11530,38736
26.12342,40223
26.13155,40718
26.13967,41299
26.14778,47368
26.15592,51815
26.16403,52904
26.17217,54512
26.18028,58900
26.18840,56719
26.19653,54951
26.20465,51367
26.21277,45282
26.22090,45479
26.22902,44109
26.23715,43378
26.24527,41497
26.25338,39591
26.26152,42623
26.26963,37818
26.27777,40093
26.28588,47254
26.29400,43340
26.30213,43279
26.31025,37160
26.31837,39068
26.32650,39390
26.33462,43607
26.34275,38334
26.35087,40003
26.35898,35497
26.36712,36825
26.37523,35696
26.38337,36691
26.39148,39940
26.39960,36626
26.40773,40596
26.41585,40031
26.42398,35104
26.43210,35535
26.44022,38796
26.44835,39626
26.45647,33769
26.46458,37090
26.47272,34960
26.48083,34179
26.48897,34435
26.49708,40297
26.50520,34196
26.51333,35686
26.52145,42115
26.52958,35227
26.53770,35084
26.54582,35100
26.55395,34854
26.56207,38750
26.57018,32579
26.57832,32875
26.58643,36502
26.59457,35969
26.60268,36004
26.61080,34413
26.61893,36118
26.62705,36130
26.63518,36455
26.64330,36524
26.65142,39156
26.65955,34147
26.66767,40195
26.67580,41444
26.68392,41534
26.69203,37476
26.70017,37684
26.70828,39224
26.71640,38822
26.72453,37332
26.73265,40949
26.74078,39588
26.74890,37959
26.75702,42315
26.76515,39820
26.77327,37676
26.78140,36400
26.78952,41771
26.79763,40060
26.80577,39879
26.81388,39356
26.82202,41804
26.83013,39534
26.83825,48491
26.84638,46759
26.85450,42940
26.86262,43182
26.87075,47296
26.87887,45229
26.88700,48346
26.89512,52410
26.90323,42168
26.91137,44549
26.91948,41182
26.92762,41481
26.93573,40141
26.94385,35696
26.95198,42202
26.96010,42913
26.96822,46126
26.97635,55265
26.98447,78007
26.99260,130459
27.00072,225660
27.00883,400199
27.01697,638445
27.02508,963981
27.03322,1269753
27.04133,1414465
27.04945,1332032
27.05758,1133172
27.06570,863937
27.07383,652254
27.08195,487884
27.09007,392518
27.09820,307039
27.10632,260001
27.11443,215134
27.12257,206699
27.13068,181712
27.13882,166427
27.14693,145214
27.15505,137905
27.16318,139649
27.17130,130335
27.17943,127088
27.18755,114985
27.19567,116081
27.20380,105850
27.21192,101872
27.22005,99905
27.22817,91668
27.23628,93239
27.24442,92962
27.25253,81302
27.26065,86445
27.26878,82098
27.27690,83210
27.28503,75818
27.29315,73963
27.30127,70095
27.30940,70448
27.31752,72880
27.32565,69644
27.33377,63224
27.34188,63032
27.35002,65964
27.35813,63845
27.36625,63486
27.37438,69323
27.38250,65141
27.39063,65828
27.39875,67465
27.40687,62488
27.41500,63422
27.42312,63725
27.43125,60654
27.43937,64838
27.44748,57828
27.45562,60437
27.46373,58787
27.47187,56419
27.47998,59428
27.48810,61018
27.49623,56165
27.50435,53178
27.51247,53469
27.52060,52071
27.52872,51585
27.53685,56506
27.54497,60187
27.55308,58585
27.56122,56523
27.56933,54420
27.57747,57183
27.58558,47384
27.59370,54488
27.60183,50018
27.60995,49659
27.61807,52528
27.62620,51012
27.63432,55438
27.64245,57620
27.65057,52836
27.65868,49262
27.66682,51292
27.67493,48577
27.68307,44611
27.69118,46537
27.69930,52470
27.70743,43947
27.71555,42709
27.72368,45234
27.73180,43405
27.73992,42517
27.74805,46946
27.75617,40780
27.76428,49142
27.77242,42891
27.78053,45119
27.78867,42493
27.79678,42108
27.80490,41311
27.81303,43082
27.82115,42308
27.82928,43200
27.83740,44694
27.84552,42231
27.85365,45373
27.86177,47335
27.86990,43810
27.87802,47566
27.88613,43495
27.89427,41822
27.90238,43018
27.91050,44315
27.91863,41301
27.92675,41231
27.93488,38534
27.94300,39953
27.95112,42238
27.95925,39276
27.96737,42647
27.97550,39022
27.98362,39305
27.99173,40175
27.99987,46683
28.00798,47205
28.01610,47396
28.02423,43288
28.03235,44892
28.04048,40675
28.04860,40272
28.05672,38052
28.06485,42250
28.07297,34966
28.08110,41720
28.08922,42256
28.09733,44146
28.10547,39070
28.11358,43580
28.12172,38890
28.12983,38487
28.13795,42146
28.14608,41054
28.15420,38151
28.16232,40646
28.17045,38746
28.17857,37745
28.18670,36883
28.19482,36925
28.20293,37603
28.21107,41626
28.21918,44121
28.22732,48963
28.23543,49411
28.24355,55751
28.25168,57594
28.25980,49825
28.26793,46212
28.27605,52641
28.28417,48169
28.29230,42160
28.30042,47572
28.30853,44569
28.31667,52379
28.32478,63211
28.33292,77441
28.34103,99706
28.34915,134556
28.35728,161270
28.36540,207084
28.37353,225686
28.38165,253496
28.38977,255167
28.39790,253949
28.40602,230033
28.41413,208715
28.42227,188224
28.43038,185618
28.43852,162187
28.44663,139821
28.45475,129756
28.46288,114835
28.47100,105741
28.47913,99817
28.48725,93765
28.49537,85397
28.50350,83093
28.51162,78815
28.51975,73815
28.52787,74738
28.53598,72744
28.54412,74162
28.55223,66518
28.56035,66324
28.56848,65935
28.57660,62269
28.58473,62344
28.59285,59509
28.60097,65365
28.60910,61525
28.61722,58615
28.62535,57112
28.63347,55354
28.64158,52411
28.64972,56107
28.65783,53995
28.66597,60752
28.67408,62448
28.68220,62061
28.69033,61547
28.69845,59499
28.70657,59232
28.71470,52396
28.72282,53370
28.73095,54216
28.73907,48064
28.74718,47032
28.75532,52526
28.76343,53138
28.77157,56660
28.77968,69822
28.78780,70859
28.79593,82101
28.80405,76291
28.81217,73232
28.82030,64467
28.82842,56168
28.83655,52237
28.84467,56564
28.85278,46392
28.86092,44871
28.86903,44753
28.87717,46458
28.88528,47360
28.89340,49045
28.90153,46317
28.90965,50593
28.91778,42299
28.92590,43915
28.93402,45747
28.94215,42007
28.95027,43780
28.95838,46657
28.96652,50668
28.97463,46397
28.98277,56944
28.99088,53740
28.99900,55970
29.00713,47877
29.01525,47730
29.02338,46685
29.03150,43659
29.03962,49185
29.04775,41363
29.05587,44234
29.06398,42771
29.07212,44692
29.08023,45406
29.08837,44426
29.09648,44607
29.10460,47345
29.11273,41344
29.12085,43664
29.12898,49613
29.13710,45631
29.14522,44444
29.15335,45650
29.16147,44682
29.16960,45990
29.17772,45444
29.18583,48568
29.19397,44660
29.20208,39031
29.21020,45744
29.21833,50618
29.22645,46942
29.23458,50056
29.24270,50322
29.25082,58865
29.25895,68455
29.26707,71939
29.27520,67060
29.28332,66787
29.29143,63070
29.29957,60057
29.30768,49011
29.31582,47631
29.32393,50292
29.33205,50941
29.34018,46265
29.34830,46302
29.35642,48863
29.36455,48255
29.37267,44616
29.38080,47041
29.38892,44979
29.39703,47135
29.40517,49303
29.41328,50788
29.42142,50371
29.42953,46595
29.43765,47279
29.44578,43907
29.45390,44989
29.46202,42619
29.47015,42538
29.47827,44353
29.48640,48218
29.49452,47744
29.50263,47600
29.51077,50438
29.51888,53785
29.52702,53510
29.53513,50766
29.54325,48725
29.55138,49372
29.55950,49778
29.56763,40473
29.57575,41018
29.58387,45410
29.59200,40063
29.60012,39465
29.60823,41366
29.61637,42257
29.62448,40647
29.63262,40466
29.64073,38175
29.64885,42232
29.65698,39741
29.66510,39072
29.67323,43058
29.68135,40774
29.68947,41729
29.69760,42139
29.70572,36916
29.71385,37010
29.72197,38245
29.73008,40951
29.73822,42463
29.74633,38041
29.75445,40745
29.76258,36340
29.77070,39654
29.77883,43969
29.78695,40368
29.79507,41803
29.80320,36121
29.81132,37996
29.81945,41619
29.82757,36022
29.83568,38235
29.84382,39498
29.85193,42958
29.86005,37967
29.86818,52102
29.87630,76307
29.88443,125637
29.89255,217939
29.90067,349540
29.90880,505924
29.91692,587452
29.92505,571342
29.93317,460059
29.94128,327961
29.94942,208329
29.95753,128437
29.96567,103095
29.97378,85780
29.98190,97384
29.99003,108613
29.99815,124127
30.00627,138698
30.01440,150027
30.02252,175786
30.03065,179144
30.03877,187590
30.04688,182749
30.05502,192540
30.06313,175635
30.07127,176264
30.07938,168327
30.08750,161205
30.09563,154036
30.10375,132953
30.11187,121949
30.12000,117809
30.12812,118173
30.13625,110019
30.14437,100128
30.15248,89651
30.16062,93721
30.16873,91159
30.17687,90006
30.18498,82412
30.19310,75325
30.20123,74316
30.20935,76993
30.21748,70374
30.22560,68588
30.23372,65056
30.24185,62794
30.24997,65621
30.25808,61376
30.26622,60465
30.27433,56812
30.28247,62282
30.29058,58340
30.29870,59465
30.30683,50643
30.31495,55098
30.32308,60429
30.33120,55223
30.33932,53815
30.34745,53892
30.35557,52922
30.36370,53520
30.37182,54373
30.37993,48989
30.38807,54142
30.39618,51442
30.40430,54574
30.41243,51248
30.42055,48694
30.42868,47740
30.43680,49469
30.44492,51311
30.45305,52058
30.46117,47839
30.46930,48487
30.47742,42654
30.48553,49503
30.49367,50146
30.50178,52493
30.50992,46087
30.51803,45221
30.52615,44654
30.53428,46264
30.54240,43148
30.55052,44903
30.55865,42011
30.56677,41582
30.57490,42698
30.58302,43383
30.59113,41070
30.59927,44829
30.60738,41568
30.61552,44115
30.62363,39672
30.63175,38892
30.63988,45825
30.64800,38809
30.65612,40220
30.66425,41599
30.67237,40995
30.68050,39869
30.68862,40891
30.69673,42151
30.70487,38353
30.71298,36804
30.72112,41194
30.72923,43288
30.73735,42211
30.74548,40131
30.75360,43889
30.76173,40132
30.76985,41576
30.77797,41026
30.78610,46937
30.79422,51457
30.80233,51142
30.81047,61818
30.81858,71186
30.82672,75689
30.83483,75048
30.84295,71388
30.85108,57020
30.85920,55366
30.86733,49659
30.87545,45803
30.88357,45241
30.89170,44612
30.89982,38968
30.90793,44312
30.91607,42565
30.92418,40317
30.93232,42146
30.94043,43777
30.94855,43585
30.95668,43865
30.96480,42177
30.97293,41703
30.98105,43491
30.98917,41984
30.99730,37289
31.00542,39483
31.01355,43114
31.02167,42774
31.02978,39726
31.03792,40030
31.04603,47058
31.05415,45033
31.06228,44264
31.07040,46427
31.07853,39858
31.08665,50272
31.09477,62909
31.10290,79458
31.11102,103212
31.11915,117602
31.12727,124092
31.13538,115538
31.14352,100094
31.15163,80268
31.15977,67737
31.16788,54919
31.17600,59245
31.18413,44518
31.19225,49471
31.20037,56811
31.20850,70647
31.21662,75950
31.22475,86123
31.23287,101376
31.24098,105348
31.24912,91911
31.25723,85083
31.26537,75087
31.27348,63980
31.28160,56692
31.28973,50473
31.29785,45308
31.30597,47331
31.31410,42465
31.32222,48107
31.33035,40985
31.33847,42027
31.34658,40084
31.35472,40416
31.36283,45241
31.37097,45421
31.37908,46946
31.38720,55058
31.39533,58032
31.40345,60187
31.41158,57867
31.41970,55761
31.42782,49328
31.43595,51286
31.44407,49799
31.45218,46983
31.46032,49639
31.46843,47038
31.47657,42414
31.48468,41903
31.49280,43603
31.50093,44779
31.50905,38202
31.51718,41531
31.52530,43040
31.53342,41772
31.54155,37697
31.54967,44413
31.55780,35217
31.56592,38348
31.57403,38245
31.58217,39350
31.59028,36656
31.59840,38571
31.60653,39616
31.61465,36787
31.62278,39266
31.63090,38385
31.63902,36440
31.64715,41683
31.65527,39379
31.66340,37082
31.67152,40557
31.67963,42930
31.68777,40039
31.69588,37472
31.70400,39278
31.71213,41738
31.72025,40663
31.72838,36745
31.73650,36830
31.74462,39086
31.75275,36893
31.76087,38667
31.76900,40182
31.77712,39312
31.78523,40799
31.79337,41906
31.80148,41591
31.80962,40270
31.81773,40705
31.82585,44197
31.83398,40337
31.84210,42738
31.85022,43571
31.85835,43622
31.86647,49049
31.87460,47946
31.88272,49041
31.89083,51600
31.89897,46694
31.90708,48515
31.91522,55768
31.92333,61552
31.93145,66241
31.93958,76303
31.94770,93755
31.95582,108840
31.96395,128359
31.97207,144217
31.98020,145816
31.98832,148491
31.99643,145942
32.00457,150779
32.01268,145364
32.02082,131459
32.02893,126306
32.03705,120046
32.04518,102105
32.05330,101933
32.06143,93187
32.06955,94082
32.07767,84124
32.08580,85943
32.09392,87035
32.10203,84370
32.11017,80451
32.11828,77257
32.12642,68705
32.13453,65536
32.14265,65206
32.15078,58757
32.15890,56345
32.16703,55141
32.17515,54351
32.18327,53660
32.19140,58844
32.19952,56015
32.20765,51180
32.21577,51382
32.22388,53827
32.23202,51356
32.24013,50285
32.24825,48398
32.25638,50872
32.26450,50705
32.27263,51914
32.28075,53484
32.28887,55239
32.29700,50610
32.30512,48435
32.31325,54964
32.32137,47408
32.32948,46917
32.33762,49946
32.34573,49033
32.35385,52267
32.36198,54607
32.37010,52259
32.37823,55364
32.38635,50497
32.39447,53079
32.40260,50081
32.41072,47601
32.41885,48581
32.42697,49941
32.43508,45337
32.44322,44190
32.45133,49932
32.45947,42965
32.46758,44558
32.47570,41140
32.48383,49934
32.49195,43428
32.50007,42895
32.50820,44235
32.51632,39843
32.52445,41733
32.53257,43037
32.54068,41143
32.54882,41638
32.55693,46955
32.56507,43440
32.57318,47009
32.58130,46062
32.58943,46232
32.59755,41568
32.60568,43283
32.61380,43803
32.62192,42873
32.63005,38822
32.63817,39287
32.64628,40225
32.65442,45793
32.66253,50242
32.67067,54007
32.67878,58940
32.68690,68215
32.69503,74323
32.70315,61368
32.71128,59087
32.71940,50930
32.72752,55071
32.73565,47182
32.74377,46959
32.75188,49523
32.76002,42786
32.76813,42153
32.77627,44729
32.78438,40461
32.79250,40173
32.80063,41281
32.80875,41267
32.81688,40316
32.82500,45343
32.83312,42117
32.84125,42438
32.84937,41593
32.85750,35725
32.86562,43317
32.87373,39107
32.88187,41253
32.88998,40785
32.89810,40234
32.90623,39498
32.91435,39375
32.92248,43120
32.93060,38614
32.93872,45007
32.94685,50088
32.95497,43505
32.96310,40060
32.97122,39224
32.97933,42412
32.98747,36156
32.99558,41269
33.00372,42079
33.01183,38701
33.01995,40814
33.02808,38476
33.03620,41080
33.04432,44303
33.05245,36816
33.06057,37899
33.06870,43193
33.07682,41805
33.08493,44918
33.09307,44896
33.10118,48720
33.10932,58322
33.11743,65511
33.12555,69730
33.13368,73850
33.14180,67554
33.14992,67567
33.15805,57979
33.16617,54767
33.17430,53291
33.18242,46964
33.19053,46178
33.19867,47402
33.20678,47703
33.21492,45947
33.22303,47983
33.23115,47556
33.23928,46404
33.24740,50849
33.25553,46281
33.26365,43682
33.27177,46179
33.27990,40256
33.28802,44741
33.29613,41198
33.30427,40994
33.31238,39273
33.32052,38772
33.32863,38216
33.33675,43380
33.34488,39044
33.35300,42454
33.36113,42180
33.36925,40382
33.37737,41276
33.38550,40140
33.39362,38025
33.40173,42667
33.40987,44616
33.41798,41253
33.42612,41235
33.43423,41957
33.44235,42135
33.45048,44701
33.45860,38989
33.46673,38185
33.47485,43641
33.48297,40974
33.49110,42457
33.49922,42959
33.50735,42186
33.51547,39434
33.52358,40336
33.53172,44141
33.53983,41646
33.54795,41684
33.55608,40567
33.56420,44203
33.57233,40641
33.58045,39861
33.58857,40252
33.59670,39784
33.60482,39065
33.61295,39955
33.62107,37700
33.62918,44654
33.63732,41265
33.64543,40088
33.65357,43604
33.66168,43978
33.66980,39758
33.67793,40273
33.68605,37305
33.69417,39270
33.70230,41687
33.71042,41594
33.71855,42557
33.72667,37850
33.73478,42124
33.74292,41776
33.75103,38647
33.75917,42156
33.76728,40419
33.77540,41335
33.78353,39306
33.79165,37454
33.79977,40398
33.80790,40557
33.81602,37090
33.82415,40809
33.83227,42705
33.84038,42278
33.84852,41569
33.85663,48912
33.86477,47240
33.87288,50100
33.88100,51102
33.88913,48039
33.89725,40788
33.90538,44150
33.91350,44664
33.92162,49811
33.92975,42004
33.93787,46618
33.94598,45770
33.95412,48141
33.96223,44566
33.97037,41704
33.97848,42967
33.98660,47333
33.99473,45332
34.00285,41453
34.01098,43304
34.01910,44220
34.02722,35973
34.03535,41240
34.04347,43165
34.05160,46183
34.05972,45033
34.06783,46210
34.07597,45024
34.08408,43115
34.09220,40210
34.10033,42097
34.10845,43171
34.11658,37817
34.12470,43853
34.13282,45704
34.14095,37740
34.14907,42340
34.15720,41113
34.16532,47536
34.17343,41073
34.18157,39109
34.18968,46138
34.19780,40633
34.20593,41565
34.21405,42626
34.22218,42488
34.23030,41367
34.23842,44950
34.24655,43475
34.25467,45931
34.26280,42773
34.27092,42452
34.27903,46148
34.28717,45451
34.29528,47182
34.30342,45053
34.31153,48126
34.31965,42833
34.32778,45696
34.33590,44097
34.34402,45219
34.35215,44931
34.36027,44872
34.36840,43622
34.37652,43302
34.38463,50215
34.39277,45078
34.40088,44650
34.40902,40390
34.41713,50097
34.42525,46044
34.43338,40756
34.44150,42896
34.44962,44164
34.45775,44146
34.46587,45879
34.47400,42971
34.48212,43733
34.49023,42154
34.49837,43088
34.50648,43248
34.51462,46740
34.52273,52124
34.53085,61904
34.53898,71864
34.54710,82796
34.55523,97344
34.56335,118061
34.57147,126132
34.57960,141694
34.58772,131719
34.59583,126675
34.60397,107787
34.61208,96347
34.62022,97570
34.62833,84787
34.63645,80953
34.64458,72397
34.65270,68926
34.66083,66493
34.66895,71316
34.67707,61828
34.68520,60790
34.69332,64847
34.70145,62163
34.70957,59130
34.71768,60822
34.72582,59995
34.73393,60450
34.74205,58018
34.75018,54249
34.75830,55506
34.76643,57698
34.77455,54600
34.78267,53232
34.79080,50194
34.79892,50176
34.80705,54599
34.81517,54966
34.82328,56735
34.83142,51513
34.83953,54972
34.84767,52573
34.85578,50757
34.86390,52275
34.87203,48751
34.88015,50178
34.88827,47778
34.89640,54421
34.90452,55538
34.91265,54497
34.92077,48042
34.92888,57261
34.93702,50045
34.94513,54506
34.95327,67297
34.96138,87000
34.96950,126806
34.97763,177038
34.98575,222125
34.99387,254328
35.00200,241412
35.01012,207683
35.01825,150565
35.02637,110599
35.03448,88732
35.04262,71886
35.05073,64166
35.05887,62058
35.06698,63968
35.07510,61989
35.08323,61460
35.09135,57360
35.09948,61348
35.10760,60703
35.11572,60652
35.12385,59091
35.13197,59088
35.14008,58408
35.14822,58833
35.15633,58175
35.16447,57950
35.17258,56499
35.18070,60963
35.18883,59104
35.19695,65988
35.20508,58444
35.21320,55062
35.22132,51019
35.22945,52611
35.23757,52362
35.24568,55226
35.25382,53393
35.26193,57187
35.27007,56360
35.27818,55722
35.28630,55894
35.29443,58388
35.30255,54126
35.31068,52302
35.31880,52429
35.32692,51797
35.33505,54619
35.34317,51025
35.35130,51097
35.35942,52884
35.36753,52395
35.37567,49792
35.38378,59675
35.39190,50499
35.40003,49643
35.40815,50754
35.41628,48966
35.42440,44251
35.43252,48098
35.44065,50549
35.44877,52784
35.45690,49732
35.46502,52917
35.47313,52270
35.48127,49168
35.48938,51069
35.49752,55983
35.50563,53850
35.51375,51451
35.52188,50787
35.53000,50953
35.53812,52286
35.54625,50819
35.55437,48927
35.56250,54451
35.57062,52022
35.57873,53307
35.58687,51567
35.59498,55598
35.60312,56961
35.61123,56240
35.61935,61225
35.62748,56189
35.63560,56162
35.64372,54693
35.65185,54551
35.65997,51860
35.66810,56374
35.67622,53829
35.68433,52459
35.69247,60962
35.70058,63205
35.70872,65176
35.71683,60474
35.72495,57472
35.73308,59455
35.74120,51869
35.74933,55903
35.75745,55671
35.76557,56058
35.77370,55515
35.78182,53808
35.78993,57902
35.79807,56888
35.80618,53322
35.81432,54019
35.82243,56713
35.83055,52129
35.83868,53552
35.84680,54819
35.85493,52092
35.86305,56444
35.87117,52979
35.87930,54539
35.88742,57124
35.89555,54814
35.90367,55454
35.91178,54178
35.91992,52143
35.92803,51748
35.93615,51955
35.94428,48948
35.95240,47267
35.96053,48814
35.96865,53258
35.97677,52018
35.98490,49998
35.99302,56035
36.00115,53040
36.00927,49918
36.01738,57038
36.02552,50163
36.03363,54893
36.04175,61234
36.04988,57960
36.05800,52373
36.06613,59346
36.07425,55969
36.08237,57450
36.09050,58728
36.09862,54448
36.10675,54463
36.11487,48673
36.12298,55133
36.13112,51941
36.13923,54739
36.14737,50976
36.15548,53151
36.16360,55962
36.17173,57685
36.17985,59110
36.18797,53696
36.19610,55705
36.20422,56007
36.21235,52435
36.22047,50540
36.22858,57656
36.23672,57319
36.24483,50147
36.25297,53026
36.26108,56592
36.26920,58437
36.27733,51990
36.28545,51387
36.29357,50313
36.30170,52368
36.30982,56592
36.31795,65281
36.32607,69341
36.33418,66965
36.34232,80415
36.35043,73038
36.35857,69118
36.36668,65710
36.37480,57687
36.38293,49401
36.39105,52944
36.39918,53996
36.40730,56719
36.41542,53129
36.42355,59445
36.43167,52054
36.43978,55913
36.44792,54690
36.45603,56131
36.46417,54112
36.47228,52970
36.48040,51382
36.48853,49695
36.49665,53878
36.50478,53754
36.51290,50693
36.52102,52949
36.52915,52475
36.53727,51449
36.54540,55801
36.55352,49789
36.56163,51124
36.56977,50161
36.57788,54370
36.58600,53667
36.59413,52700
36.60225,53240
36.61038,53777
36.61850,54809
36.62662,53496
36.63475,54027
36.64287,52553
36.65100,51126
36.65912,47672
36.66723,50829
36.67537,58105
36.68348,56926
36.69160,55320
36.69973,55721
36.70785,60801
36.71598,54141
36.72410,61398
36.73222,60910
36.74035,55978
36.74847,54798
36.75660,57033
36.76472,51715
36.77283,52238
36.78097,58247
36.78908,50490
36.79722,54469
36.80533,55248
36.81345,54751
36.82158,57657
36.82970,50992
36.83782,49913
36.84595,51886
36.85407,51094
36.86220,50502
36.87032,52975
36.87843,50548
36.88657,55194
36.89468,56902
36.90282,53082
36.91093,57121
36.91905,52513
36.92718,52978
36.93530,51059
36.94343,52677
36.95155,56798
36.95967,61147
36.96780,52748
36.97592,54154
36.98403,54838
36.99217,56540
37.00028,50720
37.00842,57524
37.01653,55437
37.02465,50612
37.03278,53418
37.04090,51192
37.04903,53783
37.05715,54557
37.06527,56569
37.07340,55049
37.08152,55152
37.08963,53100
37.09777,52089
37.10588,54396
37.11402,58436
37.12213,52061
37.13025,56849
37.13838,55604
37.14650,54179
37.15463,54346
37.16275,59010
37.17087,53423
37.17900,58156
37.18712,54053
37.19525,61288
37.20337,52465
37.21148,56330
37.21962,59261
37.22773,61883
37.23585,56755
37.24398,55855
37.25210,59479
37.26023,64143
37.26835,54116
37.27647,55743
37.28460,65425
37.29272,54368
37.30085,55230
37.30897,56220
37.31708,55442
37.32522,57796
37.33333,62136
37.34145,69253
37.34958,73458
37.35770,79362
37.36583,97438
37.37395,100997
37.38207,110431
37.39020,111540
37.39832,114608
37.40645,107801
37.41457,94352
37.42268,94444
37.43082,88233
37.43893,83364
37.44707,79866
37.45518,74540
37.46330,75240
37.47143,73165
37.47955,77324
37.48767,72213
