Z:\data\JTB-E02\BACandBLUE\JTB-E18-006-08.D Thu Apr 11 11:02:42 2019
Start of data points
2.09540	138241
2.10353	135531
2.11165	133113
2.11978	136160
2.12790	129025
2.13602	133685
2.14415	129655
2.15227	135356
2.16040	128102
2.16852	128172
2.17663	126642
2.18477	124034
2.19288	122518
2.20100	124182
2.20913	126181
2.21725	115549
2.22538	119282
2.23350	120206
2.24162	116917
2.24975	125064
2.25787	121442
2.26600	140392
2.27412	554485
2.28223	1485374
2.29037	1232005
2.29848	645718
2.30662	476235
2.31473	408005
2.32285	369836
2.33098	334238
2.33910	308089
2.34722	289378
2.35535	269214
2.36347	248346
2.37160	241175
2.37972	229348
2.38783	221910
2.39597	212303
2.40408	211913
2.41222	208488
2.42033	205864
2.42845	203426
2.43658	196644
2.44470	192697
2.45282	191702
2.46095	192803
2.46907	199798
2.47720	189550
2.48532	183538
2.49343	191422
2.50157	189206
2.50968	191906
2.51782	185752
2.52593	181515
2.53405	180644
2.54218	181167
2.55030	182513
2.55843	263760
2.56655	511569
2.57467	539921
2.58280	427416
2.59092	355007
2.59903	337896
2.60717	746582
2.61528	2194450
2.62342	2425013
2.63153	1475525
2.63965	912088
2.64778	646538
2.65590	492693
2.66403	398570
2.67215	334567
2.68027	306154
2.68840	277017
2.69652	256957
2.70465	244168
2.71277	236857
2.72088	225732
2.72902	219890
2.73713	214887
2.74525	211353
2.75338	208985
2.76150	198053
2.76963	195341
2.77775	233808
2.78587	474931
2.79400	823459
2.80212	711769
2.81025	514057
2.81837	433742
2.82648	396169
2.83462	352908
2.84273	318379
2.85085	292325
2.85898	267772
2.86710	256011
2.87523	245051
2.88335	237511
2.89147	227890
2.89960	222679
2.90772	220660
2.91585	217105
2.92397	212649
2.93208	213920
2.94022	204083
2.94833	198329
2.95647	208734
2.96458	255231
2.97270	296413
2.98083	266019
2.98895	260876
2.99707	283159
3.00520	308567
3.01332	299729
3.02145	267336
3.02957	253588
3.03768	248023
3.04582	234119
3.05393	236802
3.06207	255204
3.07018	303467
3.07830	451769
3.08643	2104711
3.09455	7689627
3.10267	1.486119E+07
3.11080	2.24556E+07
3.11892	2.463572E+07
3.12705	2.014944E+07
3.13517	1.473262E+07
3.14328	1.146298E+07
3.15142	9054922
3.15953	7295557
3.16767	6024015
3.17578	4985926
3.18390	4284978
3.19203	3960952
3.20015	3977914
3.20828	3600305
3.21640	2987082
3.22452	2527885
3.23265	2167714
3.24077	1941519
3.24888	1709855
3.25702	1527357
3.26513	1381009
3.27327	1256309
3.28138	1160388
3.28950	1134800
3.29763	1536143
3.30575	2866979
3.31388	4771808
3.32200	5632652
3.33012	5140450
3.33825	4089843
3.34637	3326888
3.35450	2772390
3.36262	2400846
3.37073	2092278
3.37887	1888001
3.38698	1693712
3.39510	1553510
3.40323	1449965
3.41135	1346500
3.41948	1283093
3.42760	1253705
3.43572	1175205
3.44385	1083342
3.45197	1015254
3.46010	943756
3.46822	886397
3.47633	861809
3.48447	831666
3.49258	793805
3.50070	763222
3.50883	718399
3.51695	696582
3.52508	696090
3.53320	696236
3.54132	683410
3.54945	661020
3.55757	646391
3.56570	631134
3.57382	690997
3.58193	774235
3.59007	775309
3.59818	699914
3.60632	634823
3.61443	616517
3.62255	593181
3.63068	593263
3.63880	572335
3.64692	561282
3.65505	540419
3.66317	776040
3.67130	2609194
3.67942	7707112
3.68753	1.208011E+07
3.69567	1.119E+07
3.70378	7692234
3.71192	5631622
3.72003	4499134
3.72815	3831535
3.73628	3333224
3.74440	2917947
3.75253	2645324
3.76065	2416129
3.76877	2217079
3.77690	2036014
3.78502	1907098
3.79313	1779217
3.80127	1739097
3.80938	2069313
3.81752	3033483
3.82563	3636329
3.83375	3288196
3.84188	2627279
3.85000	2211430
3.85813	1977294
3.86625	1773206
3.87437	1631519
3.88250	1530533
3.89062	1414897
3.89873	1333861
3.90687	1261749
3.91498	1213268
3.92312	1208427
3.93123	1282023
3.93935	1348953
3.94748	1936090
3.95560	5605994
3.96373	1.522909E+07
3.97185	2.547556E+07
3.97997	2.824988E+07
3.98810	2.277217E+07
3.99622	1.615108E+07
4.00435	1.999745E+07
4.01247	3.941472E+07
4.02058	6.05411E+07
4.02872	6.979247E+07
4.03683	6.213636E+07
4.04495	4.052228E+07
4.05308	2.250335E+07
4.06120	1.434785E+07
4.06933	1.035788E+07
4.07745	7936142
4.08557	6378637
4.09370	5238538
4.10182	4423019
4.10995	3844960
4.11807	3418567
4.12618	3053585
4.13432	2760090
4.14243	2543087
4.15057	2406290
4.15868	2295181
4.16680	2172025
4.17493	2065987
4.18305	1954647
4.19117	1850096
4.19930	1700327
4.20742	1655667
4.21555	2246641
4.22367	4894399
4.23178	9802238
4.23992	1.39851E+07
4.24803	1.427349E+07
4.25617	1.090769E+07
4.26428	7300617
4.27240	5109495
4.28053	3752022
4.28865	2902181
4.29677	2358789
4.30490	1977275
4.31302	1727254
4.32115	1533659
4.32927	1395820
4.33738	1304096
4.34552	1219614
4.35363	1171053
4.36177	1131941
4.36988	1165940
4.37800	1170513
4.38613	1134227
4.39425	1061762
4.40238	969396
4.41050	942322
4.41862	903666
4.42675	862401
4.43487	855331
4.44298	804996
4.45112	796393
4.45923	789929
4.46737	784195
4.47548	744413
4.48360	725956
4.49173	725955
4.49985	730589
4.50798	699813
4.51610	696435
4.52422	678370
4.53235	664924
4.54047	645454
4.54858	652471
4.55672	655465
4.56483	627855
4.57297	619216
4.58108	607320
4.58920	622284
4.59733	596664
4.60545	587209
4.61358	585485
4.62170	578266
4.62982	629112
4.63795	753971
4.64607	915198
4.65420	979338
4.66232	891648
4.67043	769596
4.67857	701082
4.68668	682917
4.69480	649634
4.70293	620972
4.71105	595907
4.71918	560497
4.72730	556574
4.73542	537989
4.74355	510716
4.75167	501586
4.75980	504006
4.76792	502464
4.77603	492493
4.78417	511670
4.79228	569533
4.80042	802952
4.80853	1159795
4.81665	1342300
4.82478	1238652
4.83290	1020418
4.84102	907239
4.84915	838829
4.85727	800602
4.86540	768107
4.87352	739008
4.88163	693502
4.88977	655865
4.89788	617207
4.90602	589422
4.91413	573389
4.92225	561319
4.93038	553877
4.93850	612515
4.94662	863549
4.95475	1515925
4.96287	2497248
4.97100	3242191
4.97912	3385193
4.98723	2943805
4.99537	2341702
5.00348	1842538
5.01162	1554384
5.01973	1341968
5.02785	1215431
5.03598	1162693
5.04410	1172962
5.05223	1150230
5.06035	1091224
5.06847	1007683
5.07660	935940
5.08472	889906
5.09283	859375
5.10097	808095
5.10908	781631
5.11722	741797
5.12533	716269
5.13345	694515
5.14158	673231
5.14970	682174
5.15783	698103
5.16595	730683
5.17407	792290
5.18220	771511
5.19032	744268
5.19845	709017
5.20657	706985
5.21468	736109
5.22282	730315
5.23093	702535
5.23905	660189
5.24718	621484
5.25530	591727
5.26343	583375
5.27155	539040
5.27967	511780
5.28780	501801
5.29592	494178
5.30405	494599
5.31217	479406
5.32028	481919
5.32842	497011
5.33653	534496
5.34465	589274
5.35278	597738
5.36090	560139
5.36903	531195
5.37715	483212
5.38527	494249
5.39340	504906
5.40152	515841
5.40965	523884
5.41777	503417
5.42588	470622
5.43402	455958
5.44213	436973
5.45027	456280
5.45838	460943
5.46650	465393
5.47463	466956
5.48275	448123
5.49087	418591
5.49900	400852
5.50712	405172
5.51525	400337
5.52337	408552
5.53148	392916
5.53962	394939
5.54773	392382
5.55587	414126
5.56398	453911
5.57210	565041
5.58023	643847
5.58835	653074
5.59647	595934
5.60460	524598
5.61272	459270
5.62085	423218
5.62897	410826
5.63708	401513
5.64522	413333
5.65333	401594
5.66147	393632
5.66958	392231
5.67770	385064
5.68583	398894
5.69395	425215
5.70208	415235
5.71020	422360
5.71832	406080
5.72645	393439
5.73457	373696
5.74268	383036
5.75082	368351
5.75893	369919
5.76707	348813
5.77518	355455
5.78330	352897
5.79143	351802
5.79955	350222
5.80768	353666
5.81580	345916
5.82392	366679
5.83205	393070
5.84017	432243
5.84830	476131
5.85642	468995
5.86453	447879
5.87267	425441
5.88078	388651
5.88890	374962
5.89703	362503
5.90515	353618
5.91328	315936
5.92140	287825
5.92952	302089
5.93765	300518
5.94577	314165
5.95390	322193
5.96202	344887
5.97013	370922
5.97827	389956
5.98638	421959
5.99450	426274
6.00263	442676
6.01075	475199
6.01888	522211
6.02700	600299
6.03512	618169
6.04325	567005
6.05137	472369
6.05950	385944
6.06762	338939
6.07573	300393
6.08387	290903
6.09198	282174
6.10012	279868
6.10823	266892
6.11635	264252
6.12448	274591
6.13260	309973
6.14072	389304
6.14885	478611
6.15697	527865
6.16510	498587
6.17322	459659
6.18133	405531
6.18947	379840
6.19758	352538
6.20572	322069
6.21383	304648
6.22195	291944
6.23008	297960
6.23820	296244
6.24633	292689
6.25445	299970
6.26257	300808
6.27070	322366
6.27882	298402
6.28693	288274
6.29507	280145
6.30318	282665
6.31132	281916
6.31943	292575
6.32755	343562
6.33568	467273
6.34380	588157
6.35193	626343
6.36005	559671
6.36817	476708
6.37630	407940
6.38442	358783
6.39253	341059
6.40067	316123
6.40878	319085
6.41692	306558
6.42503	297500
6.43315	280104
6.44128	276771
6.44940	273891
6.45753	269801
6.46565	265119
6.47377	262388
6.48190	253869
6.49002	260072
6.49815	254869
6.50627	254613
6.51438	257324
6.52252	258350
6.53063	252483
6.53875	248895
6.54688	248671
6.55500	251962
6.56313	261903
6.57125	304862
6.57937	359144
6.58750	414121
6.59562	416772
6.60375	372775
6.61187	316518
6.61998	285231
6.62812	262460
6.63623	257369
6.64435	256493
6.65248	273338
6.66060	336492
6.66873	454629
6.67685	557513
6.68497	554029
6.69310	488132
6.70122	396507
6.70935	344451
6.71747	323498
6.72558	295952
6.73372	277118
6.74183	293623
6.74997	283385
6.75808	270224
6.76620	265115
6.77433	260976
6.78245	254826
6.79057	257373
6.79870	272153
6.80682	297141
6.81495	325488
6.82307	358452
6.83118	353898
6.83932	338404
6.84743	319713
6.85557	325889
6.86368	351824
6.87180	371797
6.87993	361091
6.88805	324720
6.89618	267759
6.90430	221965
6.91242	203261
6.92055	186492
6.92867	185208
6.93678	178688
6.94492	181257
6.95303	179440
6.96117	192934
6.96928	208298
6.97740	213048
6.98553	216897
6.99365	204218
7.00178	188632
7.00990	177141
7.01802	168210
7.02615	164126
7.03427	158507
7.04240	162663
7.05052	169333
7.05863	172131
7.06677	180435
7.07488	186963
7.08300	179676
7.09113	177472
7.09925	168793
7.10738	159280
7.11550	158458
7.12362	144409
7.13175	158148
7.13987	163536
7.14800	187578
7.15612	231100
7.16423	298994
7.17237	339571
7.18048	353608
7.18860	322996
7.19673	292380
7.20485	281147
7.21298	381576
7.22110	667231
7.22922	1232244
7.23735	1837417
7.24547	1948217
7.25360	1585455
7.26172	1022424
7.26983	615152
7.27797	422786
7.28608	317213
7.29422	243549
7.30233	203290
7.31045	200247
7.31858	201411
7.32670	207183
7.33482	213624
7.34295	208843
7.35107	210085
7.35920	194748
7.36732	188551
7.37543	183366
7.38357	181369
7.39168	176528
7.39982	184691
7.40793	178218
7.41605	170051
7.42418	172743
7.43230	164110
7.44042	163467
7.44855	172846
7.45667	162955
7.46480	166307
7.47292	166755
7.48103	153272
7.48917	150789
7.49728	153310
7.50542	156553
7.51353	161376
7.52165	191636
7.52978	274503
7.53790	417088
7.54603	673570
7.55415	984096
7.56227	1215735
7.57040	1295649
7.57852	1198907
7.58663	972817
7.59477	705111
7.60288	497515
7.61102	363911
7.61913	288105
7.62725	235674
7.63538	206659
7.64350	191962
7.65163	173018
7.65975	166167
7.66787	161875
7.67600	159558
7.68412	145019
7.69225	147434
7.70037	148003
7.70848	152079
7.71662	151246
7.72473	151862
7.73285	144412
7.74098	145024
7.74910	141369
7.75723	144601
7.76535	152576
7.77347	155528
7.78160	163859
7.78972	167606
7.79785	190591
7.80597	203710
7.81408	199044
7.82222	205183
7.83033	187128
7.83845	169926
7.84658	160368
7.85470	154446
7.86283	156632
7.87095	160255
7.87907	162932
7.88720	179979
7.89532	178408
7.90345	169490
7.91157	170258
7.91968	161191
7.92782	163276
7.93593	167458
7.94407	179844
7.95218	204779
7.96030	216327
7.96843	223904
7.97655	227832
7.98467	226592
7.99280	218315
8.00092	187210
8.00905	179054
8.01717	165749
8.02528	162699
8.03342	170395
8.04153	158361
8.04967	169848
8.05778	150701
8.06590	152907
8.07403	149336
8.08215	144672
8.09028	144062
8.09840	145347
8.10652	141713
8.11465	139952
8.12277	135387
8.13088	145731
8.13902	146089
8.14713	148824
8.15527	157267
8.16338	159516
8.17150	155773
8.17963	152993
8.18775	150796
8.19588	140227
8.20400	136315
8.21212	141636
8.22025	134016
8.22837	141556
8.23648	138107
8.24462	132362
8.25273	134450
8.26087	135384
8.26898	131012
8.27710	133671
8.28523	126359
8.29335	130899
8.30148	131939
8.30960	139619
8.31772	136688
8.32585	139926
8.33397	139463
8.34210	137119
8.35022	134685
8.35833	139913
8.36647	145280
8.37458	158137
8.38270	179216
8.39083	201990
8.39895	196099
8.40708	177485
8.41520	166831
8.42332	148698
8.43145	133264
8.43957	132691
8.44770	133273
8.45582	126759
8.46393	128798
8.47207	127358
8.48018	126517
8.48830	130656
8.49643	128922
8.50455	126579
8.51268	138257
8.52080	188148
8.52892	395400
8.53705	838938
8.54517	1667185
8.55330	2422060
8.56142	2735751
8.56953	2318418
8.57767	1556249
8.58578	911216
8.59392	544209
8.60203	425152
8.61015	417692
8.61828	409858
8.62640	368337
8.63452	322979
8.64265	266588
8.65077	248796
8.65890	224879
8.66702	212566
8.67513	191610
8.68327	190638
8.69138	185630
8.69952	182238
8.70763	181260
8.71575	172375
8.72388	171916
8.73200	167643
8.74013	169917
8.74825	164615
8.75637	178868
8.76450	229734
8.77262	371734
8.78073	595939
8.78887	872249
8.79698	1015052
8.80512	990629
8.81323	804766
8.82135	616359
8.82948	451960
8.83760	369039
8.84573	324324
8.85385	326874
8.86197	329020
8.87010	315703
8.87822	306929
8.88633	295297
8.89447	276472
8.90258	270056
8.91072	259294
8.91883	245102
8.92695	250334
8.93508	252667
8.94320	261996
8.95133	262912
8.95945	276149
8.96757	261454
8.97570	250455
8.98382	237206
8.99195	229080
9.00007	231834
9.00818	210085
9.01632	207456
9.02443	203557
9.03255	197178
9.04068	186558
9.04880	187728
9.05693	174459
9.06505	175972
9.07317	175864
9.08130	171894
9.08942	176982
9.09755	184467
9.10567	192379
9.11378	197499
9.12192	207201
9.13003	214983
9.13817	212190
9.14628	194331
9.15440	186448
9.16253	181745
9.17065	171635
9.17877	168235
9.18690	171028
9.19502	168357
9.20315	168607
9.21127	168983
9.21938	161948
9.22752	165069
9.23563	167721
9.24377	163797
9.25188	159668
9.26000	157188
9.26813	148749
9.27625	152646
9.28437	149456
9.29250	151419
9.30062	150389
9.30875	137066
9.31687	139795
9.32498	140556
9.33312	142067
9.34123	134362
9.34937	137805
9.35748	138393
9.36560	133848
9.37373	134829
9.38185	137190
9.38998	141185
9.39810	143072
9.40622	146342
9.41435	157665
9.42247	169044
9.43058	201394
9.43872	221250
9.44683	254799
9.45497	255673
9.46308	220468
9.47120	202110
9.47933	177097
9.48745	157837
9.49558	142252
9.50370	141186
9.51182	149432
9.51995	156304
9.52807	179991
9.53620	172952
9.54432	177690
9.55243	167874
9.56057	157645
9.56868	155007
9.57680	159652
9.58493	164445
9.59305	166432
9.60118	175122
9.60930	152182
9.61742	140219
9.62555	120996
9.63367	113677
9.64180	107194
9.64992	102037
9.65803	99071
9.66617	96932
9.67428	97063
9.68240	97451
9.69053	96932
9.69865	95028
9.70678	98827
9.71490	95639
9.72302	95525
9.73115	94654
9.73927	90601
9.74740	88648
9.75552	85518
9.76363	85497
9.77177	81813
9.77988	88251
9.78802	86403
9.79613	86672
9.80425	86889
9.81238	79980
9.82050	83598
9.82862	83400
9.83675	80544
9.84487	80739
9.85300	88010
9.86112	88590
9.86923	95855
9.87737	98557
9.88548	99215
9.89362	100183
9.90173	87868
9.90985	83350
9.91798	83135
9.92610	92468
9.93422	104615
9.94235	154092
9.95047	208531
9.95860	267007
9.96672	323746
9.97483	321687
9.98297	272577
9.99108	236300
9.99922	211542
10.00733	198482
10.01545	182456
10.02358	174161
10.03170	166022
10.03983	147389
10.04795	135781
10.05607	126516
10.06420	124443
10.07232	132632
10.08043	129600
10.08857	123965
10.09668	123396
10.10482	123508
10.11293	118640
10.12105	112738
10.12918	107664
10.13730	103203
10.14543	105155
10.15355	104746
10.16167	102951
10.16980	98588
10.17792	101967
10.18605	96252
10.19417	96628
10.20228	93826
10.21042	93227
10.21853	92298
10.22665	96630
10.23478	96214
10.24290	98434
10.25103	102784
10.25915	121287
10.26727	180840
10.27540	363005
10.28352	773175
10.29165	1436793
10.29977	2290645
10.30788	3175470
10.31602	4351126
10.32413	6324839
10.33225	8797250
10.34038	1.05648E+07
10.34850	1.06632E+07
10.35663	8744162
10.36475	6404193
10.37287	4546471
10.38100	3575181
10.38912	2870894
10.39725	2248642
10.40537	1696974
10.41348	1296990
10.42162	995539
10.42973	862238
10.43787	784222
10.44598	751718
10.45410	733520
10.46223	682336
10.47035	628567
10.47847	584237
10.48660	552654
10.49472	501992
10.50285	490860
10.51097	444141
10.51908	418106
10.52722	398161
10.53533	368990
10.54347	365999
10.55158	356993
10.55970	346927
10.56783	317897
10.57595	315100
10.58408	306905
10.59220	283916
10.60032	273856
10.60845	268388
10.61657	266075
10.62468	253721
10.63282	239352
10.64093	233159
10.64907	227347
10.65718	218949
10.66530	210775
10.67343	204516
10.68155	209401
10.68968	202161
10.69780	197474
10.70592	199260
10.71405	199419
10.72217	188018
10.73028	186905
10.73842	188538
10.74653	182725
10.75467	176391
10.76278	175489
10.77090	172391
10.77903	161450
10.78715	165564
10.79528	156007
10.80340	154975
10.81152	155048
10.81965	153572
10.82777	151647
10.83590	138974
10.84402	145960
10.85213	136984
10.86027	142198
10.86838	133886
10.87650	131507
10.88463	131245
10.89275	134559
10.90088	127572
10.90900	127059
10.91712	123996
10.92525	123438
10.93337	120712
10.94150	117970
10.94962	130705
10.95773	117921
10.96587	127510
10.97398	126305
10.98210	131133
10.99023	127043
10.99835	128006
11.00648	116948
11.01460	114462
11.02272	109584
11.03085	116566
11.03897	115377
11.04710	111439
11.05522	106398
11.06333	104502
11.07147	106555
11.07958	110640
11.08772	115309
11.09583	109950
11.10395	114157
11.11208	107894
11.12020	110419
11.12832	107905
11.13645	102817
11.14457	95453
11.15270	101995
11.16082	101521
11.16893	100021
11.17707	103238
11.18518	109904
11.19332	104548
11.20143	100854
11.20955	99083
11.21768	103329
11.22580	92981
11.23393	90440
11.24205	93581
11.25017	90390
11.25830	80442
11.26642	72574
11.27453	77317
11.28267	81597
11.29078	79262
11.29892	84786
11.30703	109594
11.31515	167348
11.32328	267408
11.33140	400607
11.33953	555538
11.34765	672148
11.35577	690842
11.36390	620963
11.37202	496272
11.38015	364895
11.38827	298634
11.39638	258556
11.40452	246876
11.41263	236420
11.42075	234449
11.42888	220583
11.43700	193713
11.44513	178026
11.45325	164310
11.46137	152322
11.46950	139770
11.47762	138325
11.48575	148027
11.49387	165839
11.50198	177681
11.51012	189394
11.51823	183036
11.52635	181673
11.53448	168030
11.54260	149444
11.55073	141333
11.55885	139919
11.56697	134489
11.57510	124269
11.58322	121705
11.59135	123532
11.59947	122272
11.60758	135972
11.61572	166951
11.62383	188403
11.63197	188370
11.64008	193512
11.64820	170416
11.65633	149220
11.66445	136053
11.67257	132842
11.68070	130311
11.68882	128696
11.69695	117960
11.70507	114081
11.71318	109499
11.72132	110983
11.72943	112474
11.73757	114443
11.74568	108930
11.75380	108409
11.76193	108320
11.77005	98934
11.77817	99973
11.78630	96444
11.79442	92731
11.80255	93711
11.81067	93093
11.81878	98040
11.82692	97491
11.83503	104404
11.84317	108349
11.85128	109752
11.85940	106903
11.86753	103230
11.87565	92129
11.88378	90064
11.89190	83143
11.90002	90557
11.90815	117557
11.91627	153583
11.92438	226670
11.93252	285387
11.94063	304926
11.94877	300070
11.95688	251422
11.96500	205955
11.97313	199846
11.98125	291769
11.98938	659313
11.99750	1376237
12.00562	2457826
12.01375	3688906
12.02187	4643258
12.03000	4389405
12.03812	3746461
12.04623	2868552
12.05437	2156593
12.06248	1705482
12.07060	1434890
12.07873	1272923
12.08685	1182731
12.09498	1083605
12.10310	1025770
12.11122	982328
12.11935	957240
12.12747	932769
12.13560	931467
12.14372	932030
12.15183	858663
12.15997	812227
12.16808	753312
12.17620	714520
12.18433	686938
12.19245	653748
12.20058	642236
12.20870	625316
12.21682	621740
12.22495	587257
12.23307	568810
12.24120	552457
12.24932	538435
12.25743	531363
12.26557	524726
12.27368	501685
12.28182	473793
12.28993	469819
12.29805	448871
12.30618	451914
12.31430	430930
12.32242	426696
12.33055	422016
12.33867	406755
12.34680	403877
12.35492	383409
12.36303	393635
12.37117	381286
12.37928	390601
12.38742	397555
12.39553	443391
12.40365	487936
12.41178	516482
12.41990	534947
12.42803	490246
12.43615	439510
12.44427	418456
12.45240	395494
12.46052	371175
12.46863	360775
12.47677	345499
12.48488	333878
12.49302	341133
12.50113	321223
12.50925	315870
12.51738	302027
12.52550	297142
12.53363	304710
12.54175	303429
12.54987	311028
12.55800	334297
12.56612	347758
12.57423	369307
12.58237	371221
12.59048	345486
12.59862	312823
12.60673	292256
12.61485	275143
12.62298	264444
12.63110	266296
12.63923	258215
12.64735	250705
12.65547	243946
12.66360	223956
12.67172	211275
12.67985	196566
12.68797	170076
12.69608	142011
12.70422	133839
12.71233	130201
12.72045	127229
12.72858	122226
12.73670	129738
12.74483	131310
12.75295	123268
12.76107	121203
12.76920	117497
12.77732	112075
12.78545	111253
12.79357	107397
12.80168	104000
12.80982	101354
12.81793	99157
12.82605	98005
12.83418	95373
12.84230	93658
12.85043	88063
12.85855	93673
12.86667	91109
12.87480	88391
12.88292	88925
12.89105	87517
12.89917	90542
12.90728	87429
12.91542	91290
12.92353	89920
12.93167	85569
12.93978	92140
12.94790	105509
12.95603	176383
12.96415	383204
12.97227	836062
12.98040	1538424
12.98852	2173528
12.99665	2363020
13.00477	2092024
13.01288	1484227
13.02102	921285
13.02913	573807
13.03727	410664
13.04538	300420
13.05350	252191
13.06163	227078
13.06975	198454
13.07788	184291
13.08600	173259
13.09412	159381
13.10225	143496
13.11037	134200
13.11848	137486
13.12662	123948
13.13473	123613
13.14287	119354
13.15098	112468
13.15910	111096
13.16723	108245
13.17535	106493
13.18348	113415
13.19160	111207
13.19972	104899
13.20785	112696
13.21597	112843
13.22408	109314
13.23222	107366
13.24033	109326
13.24847	109933
13.25658	103736
13.26470	103106
13.27283	98208
13.28095	87957
13.28908	94299
13.29720	93911
13.30532	95357
13.31345	84291
13.32157	81680
13.32970	85819
13.33782	84996
13.34593	87687
13.35407	84140
13.36218	85171
13.37030	84060
13.37843	81341
13.38655	79364
13.39468	76937
13.40280	81644
13.41092	79210
13.41905	79561
13.42717	77837
13.43530	77758
13.44342	79095
13.45153	77574
13.45967	82404
13.46778	78469
13.47592	82464
13.48403	80773
13.49215	80952
13.50028	78355
13.50840	82054
13.51652	87679
13.52465	89990
13.53277	101528
13.54090	101870
13.54902	110944
13.55713	115373
13.56527	115125
13.57338	116070
13.58152	115295
13.58963	117409
13.59775	120259
13.60588	123871
13.61400	123042
13.62212	134540
13.63025	126798
13.63837	123834
13.64650	125229
13.65462	126195
13.66273	114549
13.67087	115589
13.67898	119102
13.68712	113063
13.69523	114391
13.70335	110985
13.71148	113565
13.71960	109925
13.72773	120300
13.73585	125168
13.74397	167210
13.75210	291029
13.76022	531973
13.76833	986244
13.77647	1578162
13.78458	2179886
13.79272	2324821
13.80083	2235114
13.80895	1933904
13.81708	1555040
13.82520	1284515
13.83333	1096842
13.84145	1000338
13.84957	939368
13.85770	862037
13.86582	797783
13.87395	758675
13.88207	679456
13.89018	618372
13.89832	582055
13.90643	540541
13.91455	535815
13.92268	479706
13.93080	467229
13.93893	453835
13.94705	454569
13.95517	513102
13.96330	658098
13.97142	881685
13.97955	1292505
13.98767	1516615
13.99578	1621785
14.00392	1561360
14.01203	1438828
14.02015	1125249
14.02828	921769
14.03640	841130
14.04453	701345
14.05265	645126
14.06077	627904
14.06890	576121
14.07702	599016
14.08515	547573
14.09327	522138
14.10138	511207
14.10952	491980
14.11763	483099
14.12577	477009
14.13388	519613
14.14200	584367
14.15013	651029
14.15825	717587
14.16637	756893
14.17450	759888
14.18262	714664
14.19075	688693
14.19887	722051
14.20698	798718
14.21512	839749
14.22323	856622
14.23137	806486
14.23948	743436
14.24760	669477
14.25573	603042
14.26385	547347
14.27197	489251
14.28010	454737
14.28822	422574
14.29635	381114
14.30447	355754
14.31258	347242
14.32072	340492
14.32883	318220
14.33697	303944
14.34508	301709
14.35320	280866
14.36133	281001
14.36945	264123
14.37758	248567
14.38570	242650
14.39382	226353
14.40195	217775
14.41007	206440
14.41818	203836
14.42632	206397
14.43443	202293
14.44257	196036
14.45068	183399
14.45880	167491
14.46693	160342
14.47505	163652
14.48318	147420
14.49130	146880
14.49942	147836
14.50755	156714
14.51567	168689
14.52380	196236
14.53192	208412
14.54003	220766
14.54817	229768
14.55628	199041
14.56440	190679
14.57253	174433
14.58065	152923
14.58878	140712
14.59690	137083
14.60502	120539
14.61315	124058
14.62127	125235
14.62940	110951
14.63752	106910
14.64563	104921
14.65377	109046
14.66188	102269
14.67000	98422
14.67813	102514
14.68625	94257
14.69438	94613
14.70250	96749
14.71062	97601
14.71875	93181
14.72687	99373
14.73500	100310
14.74312	107034
14.75123	106926
14.75937	117290
14.76748	112029
14.77562	112891
14.78373	119197
14.79185	135769
14.79998	210331
14.80810	420729
14.81622	917869
14.82435	1792760
14.83247	2783893
14.84060	3444953
14.84872	3477325
14.85683	2979945
14.86497	2265631
14.87308	1617918
14.88122	1171188
14.88933	868462
14.89745	726694
14.90558	614172
14.91370	533707
14.92183	471031
14.92995	431779
14.93807	399928
14.94620	354161
14.95432	331996
14.96243	314416
14.97057	298681
14.97868	279201
14.98682	268524
14.99493	250386
15.00305	233229
15.01118	235338
15.01930	220350
15.02743	209870
15.03555	208124
15.04367	190922
15.05180	180970
15.05992	185235
15.06803	173352
15.07617	164171
15.08428	163560
15.09242	155009
15.10053	153725
15.10865	145628
15.11678	147755
15.12490	149357
15.13303	144061
15.14115	146492
15.14927	149261
15.15740	141384
15.16552	132482
15.17365	127167
15.18177	114174
15.18988	108735
15.19802	105503
15.20613	98910
15.21425	90161
15.22238	88823
15.23050	87464
15.23863	85337
15.24675	87680
15.25487	79259
15.26300	78719
15.27112	83564
15.27925	82359
15.28737	81270
15.29548	78532
15.30362	78128
15.31173	74726
15.31985	81731
15.32798	76205
15.33610	81237
15.34423	72832
15.35235	70014
15.36047	71986
15.36860	69468
15.37672	72932
15.38485	73399
15.39297	74446
15.40108	72404
15.40922	72318
15.41733	70281
15.42547	70054
15.43358	71735
15.44170	73723
15.44983	67615
15.45795	71003
15.46607	71191
15.47420	77097
15.48232	85436
15.49045	94017
15.49857	112614
15.50668	126031
15.51482	137058
15.52293	138951
15.53107	134119
15.53918	130495
15.54730	121579
15.55543	121887
15.56355	105663
15.57168	97551
15.57980	91131
15.58792	84641
15.59605	90239
15.60417	84518
15.61228	83476
15.62042	83651
15.62853	84556
15.63667	81259
15.64478	82033
15.65290	76749
15.66103	75616
15.66915	76121
15.67728	75659
15.68540	73684
15.69352	69091
15.70165	66693
15.70977	68757
15.71788	70920
15.72602	68461
15.73413	68312
15.74227	68211
15.75038	72061
15.75850	80949
15.76663	100740
15.77475	137423
15.78288	213689
15.79100	285474
15.79912	339568
15.80725	346593
15.81537	321423
15.82350	273003
15.83162	227515
15.83973	185333
15.84787	162935
15.85598	143816
15.86410	134246
15.87223	125515
15.88035	115311
15.88848	114634
15.89660	107861
15.90472	100129
15.91285	102356
15.92097	100871
15.92910	100204
15.93722	93263
15.94533	102545
15.95347	106649
15.96158	128867
15.96972	155983
15.97783	185988
15.98595	214213
15.99408	230939
16.00220	232755
16.01032	218203
16.01845	204651
16.02657	196583
16.03470	179624
16.04282	176411
16.05093	158488
16.05907	153810
16.06718	141418
16.07532	138651
16.08343	128619
16.09155	120554
16.09968	118960
16.10780	111983
16.11592	114480
16.12405	114219
16.13217	113383
16.14030	111177
16.14842	103652
16.15653	105472
16.16467	114789
16.17278	109123
16.18092	108532
16.18903	98705
16.19715	96313
16.20528	96192
16.21340	96417
16.22153	90547
16.22965	90230
16.23777	90288
16.24590	89990
16.25402	84518
16.26213	83789
16.27027	86182
16.27838	80514
16.28652	85871
16.29463	92151
16.30275	87069
16.31088	93370
16.31900	87109
16.32713	87137
16.33525	81540
16.34337	83952
16.35150	90401
16.35962	98749
16.36773	118643
16.37587	156696
16.38398	203803
16.39212	244142
16.40023	252349
16.40835	248929
16.41648	223541
16.42460	197883
16.43273	170359
16.44085	152506
16.44897	137422
16.45710	143689
16.46522	177998
16.47335	262031
16.48147	423692
16.48958	607374
16.49772	731013
16.50583	737553
16.51395	638502
16.52208	509126
16.53020	366129
16.53833	287730
16.54645	233848
16.55457	212031
16.56270	186087
16.57082	163826
16.57895	158795
16.58707	149402
16.59518	145906
16.60332	149701
16.61143	137607
16.61957	127589
16.62768	134797
16.63580	129060
16.64393	125021
16.65205	114510
16.66017	115142
16.66830	117554
16.67642	104385
16.68455	107027
16.69267	102590
16.70078	101301
16.70892	96205
16.71703	94096
16.72517	91361
16.73328	93932
16.74140	85327
16.74953	87636
16.75765	86316
16.76578	90806
16.77390	88831
16.78202	84823
16.79015	87925
16.79827	86778
16.80638	84322
16.81452	83275
16.82263	76532
16.83077	77716
16.83888	78588
16.84700	75920
16.85513	77139
16.86325	78975
16.87138	83650
16.87950	90686
16.88762	81686
16.89575	81811
16.90387	74715
16.91198	73770
16.92012	73111
16.92823	73909
16.93637	71377
16.94448	67262
16.95260	72442
16.96073	67986
16.96885	70358
16.97698	69211
16.98510	70048
16.99322	67142
17.00135	69782
17.00947	69437
17.01760	68870
17.02572	72258
17.03383	70180
17.04197	68977
17.05008	73665
17.05820	73597
17.06633	73478
17.07445	73034
17.08258	74332
17.09070	73046
17.09882	75173
17.10695	81213
17.11507	75395
17.12320	79011
17.13132	80042
17.13943	82094
17.14757	85728
17.15568	86009
17.16380	77567
17.17193	82764
17.18005	84206
17.18818	76751
17.19630	71412
17.20442	73108
17.21255	74855
17.22067	69965
17.22880	73386
17.23692	66581
17.24503	69161
17.25317	74703
17.26128	69574
17.26942	68070
17.27753	72600
17.28565	73631
17.29378	71741
17.30190	67515
17.31002	77014
17.31815	79543
17.32627	95282
17.33440	108426
17.34252	125362
17.35063	138699
17.35877	136510
17.36688	137296
17.37502	123863
17.38313	121090
17.39125	116956
17.39938	117590
17.40750	108524
17.41563	102856
17.42375	98093
17.43187	101523
17.44000	98578
17.44812	98070
17.45623	94132
17.46437	89972
17.47248	86303
17.48062	88977
17.48873	82665
17.49685	83899
17.50498	80199
17.51310	79808
17.52123	77276
17.52935	77808
17.53747	73830
17.54560	82084
17.55372	74313
17.56183	75215
17.56997	73977
17.57808	78845
17.58622	87453
17.59433	117957
17.60245	154235
17.61058	223559
17.61870	318409
17.62683	475782
17.63495	1910255
17.64307	1.431949E+07
17.65120	2.564428E+07
17.65932	2.727091E+07
17.66745	2.631949E+07
17.67557	2.490623E+07
17.68368	2.354376E+07
17.69182	2.232162E+07
17.69993	2.071115E+07
17.70805	1.95482E+07
17.71618	1.836242E+07
17.72430	1.716544E+07
17.73243	1.58761E+07
17.74055	1.481976E+07
17.74867	1.371802E+07
17.75680	1.280954E+07
17.76492	1.157148E+07
17.77305	1.099327E+07
17.78117	1.013882E+07
17.78928	9514602
17.79742	8871326
17.80553	8344815
17.81367	7836700
17.82178	7409009
17.82990	6907165
17.83803	6572102
17.84615	6327168
17.85427	5903259
17.86240	5615823
17.87052	5413753
17.87865	5126377
17.88677	4852662
17.89488	4581849
17.90302	4346650
17.91113	4164236
17.91927	3984143
17.92738	3803322
17.93550	3632345
17.94363	3475120
17.95175	3295949
17.95987	3233750
17.96800	3072784
17.97612	2947958
17.98425	2878386
17.99237	2664661
18.00048	2583266
18.00862	2537290
18.01673	2443463
18.02487	2372849
18.03298	2306005
18.04110	2200855
18.04923	2172071
18.05735	2126792
18.06548	2094599
18.07360	2220245
18.08172	2352708
18.08985	2671906
18.09797	2982141
18.10608	3117903
18.11422	3146633
18.12233	2966891
18.13047	2743687
18.13858	2447751
18.14670	2298229
18.15483	2140884
18.16295	2030851
18.17108	1918170
18.17920	1816192
18.18732	1744541
18.19545	1652896
18.20357	1598113
18.21168	1533414
18.21982	1432448
18.22793	1383945
18.23607	1371845
18.24418	1305959
18.25230	1252511
18.26043	1192500
18.26855	1169298
18.27668	1140321
18.28480	1086254
18.29292	1022740
18.30105	972523
18.30917	941920
18.31730	906660
18.32542	869134
18.33353	856987
18.34167	850030
18.34978	815502
18.35790	806281
18.36603	797287
18.37415	786153
18.38228	763790
18.39040	751770
18.39852	733228
18.40665	727134
18.41477	710514
18.42290	692704
18.43102	693211
18.43913	689768
18.44727	671522
18.45538	682718
18.46352	700681
18.47163	732823
18.47975	744884
18.48788	778281
18.49600	798951
18.50412	784330
18.51225	739431
18.52037	685778
18.52850	647250
18.53662	612637
18.54473	586187
18.55287	572603
18.56098	566770
18.56912	563338
18.57723	549207
18.58535	539829
18.59348	521885
18.60160	520129
18.60972	512633
18.61785	510595
18.62597	505152
18.63410	500233
18.64222	487699
18.65033	489513
18.65847	482671
18.66658	475339
18.67472	448024
18.68283	454864
18.69095	441083
18.69908	430862
18.70720	441423
18.71533	424869
18.72345	421276
18.73157	408959
18.73970	411398
18.74782	408067
18.75593	404341
18.76407	387958
18.77218	390766
18.78032	394248
18.78843	384429
18.79655	380221
18.80468	380097
18.81280	377649
18.82093	363275
18.82905	361996
18.83717	360524
18.84530	357855
18.85342	351978
18.86155	360583
18.86967	353064
18.87778	352109
18.88592	345086
18.89403	340316
18.90215	335976
18.91028	334191
18.91840	336295
18.92653	333647
18.93465	338841
18.94277	349855
18.95090	372733
18.95902	394046
18.96715	417930
18.97527	416783
18.98338	410008
18.99152	391061
18.99963	374846
19.00775	359872
19.01588	352692
19.02400	331614
19.03213	321207
19.04025	309688
19.04837	311979
19.05650	317622
19.06462	303785
19.07275	301648
19.08087	319764
19.08898	352797
19.09712	379438
19.10523	418212
19.11337	448665
19.12148	452014
19.12960	436658
19.13773	411665
19.14585	376824
19.15397	356325
19.16210	348115
19.17022	328924
19.17835	322443
19.18647	305924
19.19458	305836
19.20272	302116
19.21083	288309
19.21897	287256
19.22708	280716
19.23520	267655
19.24333	261384
19.25145	264050
19.25957	260445
19.26770	254981
19.27582	263538
19.28395	246300
19.29207	255852
19.30018	251393
19.30832	257515
19.31643	258355
19.32457	261620
19.33268	266694
19.34080	258364
19.34893	266886
19.35705	284539
19.36518	302538
19.37330	337411
19.38142	358461
19.38955	370598
19.39767	366255
19.40578	355342
19.41392	336448
19.42203	346398
19.43017	356487
19.43828	380584
19.44640	389109
19.45453	406712
19.46265	398298
19.47078	401713
19.47890	408965
19.48702	413452
19.49515	423398
19.50327	448984
19.51140	483508
19.51952	518539
19.52763	512541
19.53577	489643
19.54388	436632
19.55200	374029
19.56013	311254
19.56825	289838
19.57638	267366
19.58450	251063
19.59262	249024
19.60075	233163
19.60887	234431
19.61700	224306
19.62512	228871
19.63323	244632
19.64137	259975
19.64948	300599
19.65760	382629
19.66573	481011
19.67385	569512
19.68198	625739
19.69010	610916
19.69822	575722
19.70635	508763
19.71447	454269
19.72260	384584
19.73072	343315
19.73883	323649
19.74697	300351
19.75508	280695
19.76322	261256
19.77133	253334
19.77945	237795
19.78758	237531
19.79570	223101
19.80382	229544
19.81195	241704
19.82007	229718
19.82820	230427
19.83632	226819
19.84443	218566
19.85257	219415
19.86068	244757
19.86882	328660
19.87693	517875
19.88505	837161
19.89318	1342139
19.90130	1903705
19.90943	2312491
19.91755	2431128
19.92567	2301470
19.93380	2063926
19.94192	1713905
19.95003	1448090
19.95817	1240451
19.96628	1110595
19.97442	1020304
19.98253	913744
19.99065	857577
19.99878	818411
20.00690	761142
20.01503	749126
20.02315	702524
20.03127	662713
20.03940	619761
20.04752	563133
20.05563	512129
20.06377	451330
20.07188	413391
20.08002	373202
20.08813	349973
20.09625	335427
20.10438	327845
20.11250	330839
20.12063	323725
20.12875	322476
20.13687	309309
20.14500	310194
20.15312	304491
20.16125	317791
20.16937	327057
20.17748	363169
20.18562	378710
20.19373	410684
20.20185	447592
20.20998	444038
20.21810	444626
20.22623	434997
20.23435	387853
20.24247	390608
20.25060	375906
20.25872	382877
20.26685	437800
20.27497	506628
20.28308	585579
20.29122	637752
20.29933	650045
20.30747	611657
20.31558	526926
20.32370	461732
20.33183	379503
20.33995	333914
20.34807	292568
20.35620	262585
20.36432	237535
20.37245	224278
20.38057	210813
20.38868	207523
20.39682	196786
20.40493	198088
20.41307	200253
20.42118	203811
20.42930	209623
20.43743	229376
20.44555	225881
20.45367	233990
20.46180	246734
20.46992	236104
20.47805	228062
20.48617	219124
20.49428	203190
20.50242	188480
20.51053	180919
20.51867	176042
20.52678	172480
20.53490	164440
20.54303	158407
20.55115	167185
20.55928	159815
20.56740	161359
20.57552	152633
20.58365	155636
20.59177	144453
20.59988	150298
20.60802	140098
20.61613	148019
20.62427	139520
20.63238	142667
20.64050	137626
20.64863	139340
20.65675	142048
20.66488	140473
20.67300	142070
20.68112	142004
20.68925	137334
20.69737	140787
20.70548	142884
20.71362	140853
20.72173	131430
20.72987	133247
20.73798	135912
20.74610	131873
20.75423	138926
20.76235	142649
20.77048	138789
20.77860	136024
20.78672	148736
20.79485	162663
20.80297	196702
20.81110	255107
20.81922	300919
20.82733	334286
20.83547	334477
20.84358	308264
20.85170	265522
20.85983	222301
20.86795	184595
20.87608	164106
20.88420	155025
20.89232	145983
20.90045	151442
20.90857	142304
20.91670	148350
20.92482	141492
20.93293	138933
20.94107	149458
20.94918	143687
20.95732	145007
20.96543	137901
20.97355	142084
20.98168	135099
20.98980	129781
20.99792	133915
21.00605	130101
21.01417	125178
21.02230	133939
21.03042	131818
21.03853	131942
21.04667	128441
21.05478	128535
21.06292	132173
21.07103	136535
21.07915	142672
21.08728	143695
21.09540	152729
21.10352	134711
21.11165	129974
21.11977	127425
21.12790	131380
21.13602	131465
21.14413	132466
21.15227	143916
21.16038	150490
21.16852	157633
21.17663	159038
21.18475	157646
21.19288	154026
21.20100	146194
21.20913	143613
21.21725	139871
21.22537	133963
21.23350	129258
21.24162	132473
21.24973	126454
21.25787	122771
21.26598	122440
21.27412	126375
21.28223	117827
21.29035	125184
21.29848	117553
21.30660	118249
21.31473	116023
21.32285	121685
21.33097	118446
21.33910	109893
21.34722	115221
21.35535	117657
21.36347	110203
21.37158	118216
21.37972	110808
21.38783	120248
21.39595	124209
21.40408	131445
21.41220	142963
21.42033	151818
21.42845	162322
21.43657	151245
21.44470	152756
21.45282	140926
21.46095	144937
21.46907	131359
21.47718	128779
21.48532	126826
21.49343	126405
21.50155	120805
21.50968	120337
21.51780	127171
21.52593	115908
21.53405	117293
21.54217	127947
21.55030	127917
21.55842	125763
21.56655	127473
21.57467	128704
21.58278	131592
21.59092	129775
21.59903	134919
21.60717	140729
21.61528	156846
21.62340	158042
21.63153	167028
21.63965	174715
21.64777	181410
21.65590	188729
21.66402	189835
21.67215	180312
21.68027	174271
21.68838	166753
21.69652	153200
21.70463	143080
21.71277	137926
21.72088	130768
21.72900	130722
21.73713	119780
21.74525	128978
21.75337	130563
21.76150	135619
21.76962	131543
21.77775	133010
21.78587	143754
21.79398	145107
21.80212	150559
21.81023	164646
21.81837	165365
21.82648	166028
21.83460	176017
21.84273	190587
21.85085	177933
21.85898	185713
21.86710	162090
21.87522	145873
21.88335	139517
21.89147	130658
21.89958	117994
21.90772	114338
21.91583	110702
21.92397	108176
21.93208	111109
21.94020	105653
21.94833	101780
21.95645	105081
21.96458	98528
21.97270	93610
21.98082	92294
21.98895	94946
21.99707	88656
22.00520	86724
22.01332	92881
22.02143	91145
22.02957	88318
22.03768	90022
22.04580	91238
22.05393	95743
22.06205	91025
22.07018	90397
22.07830	91310
22.08642	99818
22.09455	89073
22.10267	89678
22.11080	88368
22.11892	87621
22.12703	92879
22.13517	85378
22.14328	90353
22.15140	100905
22.15953	102835
22.16765	104244
22.17578	104942
22.18390	102527
22.19202	98477
22.20015	102815
22.20827	97882
22.21640	101467
22.22452	97181
22.23263	95866
22.24077	103152
22.24888	101533
22.25702	95399
22.26513	99654
22.27325	92853
22.28138	88590
22.28950	93879
22.29762	91860
22.30575	97349
22.31387	96739
22.32200	104162
22.33012	100914
22.33823	97537
22.34637	95474
22.35448	95343
22.36262	92544
22.37073	92089
22.37885	84786
22.38698	92200
22.39510	96711
22.40323	96529
22.41135	120796
22.41947	125778
22.42760	139114
22.43572	154085
22.44383	146955
22.45197	147847
22.46008	147708
22.46822	139866
22.47633	133528
22.48445	132896
22.49258	128582
22.50070	137133
22.50883	136328
22.51695	133297
22.52507	139857
22.53320	133505
22.54132	141522
22.54943	138396
22.55757	144059
22.56568	137409
22.57382	135794
22.58193	121810
22.59005	126152
22.59818	128741
22.60630	115669
22.61443	116859
22.62255	117387
22.63067	116123
22.63880	117628
22.64692	119804
22.65505	127523
22.66317	125796
22.67128	120642
22.67942	130058
22.68753	127093
22.69565	128724
22.70378	135540
22.71190	134208
22.72003	133658
22.72815	133725
22.73627	137893
22.74440	135059
22.75252	136006
22.76065	134917
22.76877	128815
22.77688	133589
22.78502	137368
22.79313	131311
22.80125	139255
22.80938	139263
22.81750	142364
22.82563	149317
22.83375	140233
22.84187	138669
22.85000	134689
22.85812	131434
22.86625	132274
22.87437	127747
22.88248	133906
22.89062	139826
22.89873	147150
22.90687	153760
22.91498	174319
22.92310	201594
22.93123	220115
22.93935	236377
22.94747	226292
22.95560	211679
22.96372	199847
22.97185	173631
22.97997	171398
22.98808	147105
22.99622	140507
23.00433	140057
23.01247	132391
23.02058	130636
23.02870	125918
23.03683	110460
23.04495	110449
23.05308	107395
23.06120	106107
23.06932	105460
23.07745	101809
23.08557	101481
23.09368	99791
23.10182	110419
23.10993	115761
23.11807	122092
23.12618	116080
23.13430	121847
23.14243	120172
23.15055	124378
23.15868	129238
23.16680	118622
23.17492	126003
23.18305	122779
23.19117	125484
23.19930	127677
23.20742	126014
23.21553	123538
23.22367	125742
23.23178	127765
23.23990	128739
23.24803	126948
23.25615	127823
23.26428	132117
23.27240	136924
23.28052	139453
23.28865	140909
23.29677	137651
23.30490	132832
23.31302	131370
23.32113	124042
23.32927	130723
23.33738	132536
23.34550	145134
23.35363	169096
23.36175	189360
23.36988	216715
23.37800	255561
23.38612	307784
23.39425	332195
23.40237	371854
23.41050	399293
23.41862	420224
23.42673	454881
23.43487	465371
23.44298	472614
23.45112	473853
23.45923	460674
23.46735	431919
23.47548	417678
23.48360	408424
23.49172	379145
23.49985	370647
23.50797	338870
23.51610	320273
23.52422	308503
23.53233	290368
23.54047	282822
23.54858	268761
23.55672	255956
23.56483	252021
23.57295	248989
23.58108	250155
23.58920	269822
23.59732	297681
23.60545	321365
23.61357	337038
23.62170	327922
23.62982	302626
23.63793	277660
23.64607	254049
23.65418	239447
23.66232	226674
23.67043	213119
23.67855	209050
23.68668	198164
23.69480	187594
23.70293	179850
23.71105	176066
23.71917	173070
23.72730	161486
23.73542	173517
23.74353	174354
23.75167	236488
23.75978	403580
23.76792	825640
23.77603	1645969
23.78415	2899538
23.79228	4199258
23.80040	4878212
23.80853	4944532
23.81665	4146869
23.82477	3198894
23.83290	2294016
23.84102	1689008
23.84915	1276057
23.85727	1000850
23.86538	807784
23.87352	681696
23.88163	613030
23.88975	531721
23.89788	488995
23.90600	450192
23.91413	415613
23.92225	386756
23.93037	370867
23.93850	348690
23.94662	330896
23.95475	317581
23.96287	301608
23.97098	282741
23.97912	264067
23.98723	267929
23.99535	276341
24.00348	344526
24.01160	507409
24.01973	904245
24.02785	1515193
24.03597	2119684
24.04410	2508339
24.05222	2394365
24.06035	1981884
24.06847	1404338
24.07658	886981
24.08472	551545
24.09283	380304
24.10097	300162
24.10908	255517
24.11720	232391
24.12533	222075
24.13345	220999
24.14157	221620
24.14970	215101
24.15782	216275
24.16595	222288
24.17407	205508
24.18218	201438
24.19032	187473
24.19843	190464
24.20657	183232
24.21468	186264
24.22280	193651
24.23093	186024
24.23905	181169
24.24718	182847
24.25530	161846
24.26342	158209
24.27155	145773
24.27967	144626
24.28778	139916
24.29592	142683
24.30403	136780
24.31217	138550
24.32028	138555
24.32840	142020
24.33653	134266
24.34465	134510
24.35278	127406
24.36090	133615
24.36902	132712
24.37715	139978
24.38527	174743
24.39338	214061
24.40152	263579
24.40963	305639
24.41777	323211
24.42588	308104
24.43400	258959
24.44213	202607
24.45025	177195
24.45838	153379
24.46650	140902
24.47462	136708
24.48275	140951
24.49087	145542
24.49900	155685
24.50712	160905
24.51523	163697
24.52337	167526
24.53148	173784
24.53960	169087
24.54773	162823
24.55585	157895
24.56398	153839
24.57210	142450
24.58022	138196
24.58835	132354
24.59647	129172
24.60460	131686
24.61272	120474
24.62083	118089
24.62897	113545
24.63708	119335
24.64520	116088
24.65333	120739
24.66145	114970
24.66958	108590
24.67770	109452
24.68582	110383
24.69395	110129
24.70207	108924
24.71020	109517
24.71832	102916
24.72643	99182
24.73457	103931
24.74268	99917
24.75082	102604
24.75893	110339
24.76705	122750
24.77518	130350
24.78330	141971
24.79142	156079
24.79955	157904
24.80767	159571
24.81580	160255
24.82392	155741
24.83203	168949
24.84017	172371
24.84828	189846
24.85642	214024
24.86453	249181
24.87265	318557
24.88078	414643
24.88890	513455
24.89703	590635
24.90515	635961
24.91327	582968
24.92140	497234
24.92952	391193
24.93763	315271
24.94577	253686
24.95388	216493
24.96202	191003
24.97013	184581
24.97825	190019
24.98638	178870
24.99450	181362
25.00263	180281
25.01075	180956
25.01887	176143
25.02700	176234
25.03512	178503
25.04323	179653
25.05137	168085
25.05948	169475
25.06762	180749
25.07573	179575
25.08385	176719
25.09198	181974
25.10010	196247
25.10823	230475
25.11635	332600
25.12447	534934
25.13260	872227
25.14072	1370477
25.14885	1893774
25.15697	2144051
25.16508	2082013
25.17322	1772447
25.18133	1350910
25.18945	956228
25.19758	649627
25.20570	455481
25.21383	324681
25.22195	258263
25.23007	230711
25.23820	221510
25.24632	217736
25.25445	241661
25.26257	252755
25.27068	264770
25.27882	289801
25.28693	282297
25.29507	261856
25.30318	240059
25.31130	217420
25.31943	203002
25.32755	186947
25.33567	174806
25.34380	171916
25.35192	167804
25.36005	165780
25.36817	161797
25.37628	158772
25.38442	154893
25.39253	159266
25.40067	148529
25.40878	152997
25.41690	144198
25.42503	149293
25.43315	147198
25.44127	145331
25.44940	144448
25.45752	148507
25.46565	150105
25.47377	156943
25.48188	158481
25.49002	159258
25.49813	153638
25.50627	155783
25.51438	149308
25.52250	144301
25.53063	143478
25.53875	135778
25.54688	132048
25.55500	141208
25.56312	131364
25.57125	135024
25.57937	136889
25.58748	133812
25.59562	128735
25.60373	126058
25.61187	132675
25.61998	124778
25.62810	130851
25.63623	119123
25.64435	116900
25.65248	126171
25.66060	123116
25.66872	120236
25.67685	114364
25.68497	116706
25.69308	111876
25.70122	106686
25.70933	107780
25.71747	109792
25.72558	104491
25.73370	101979
25.74183	101951
25.74995	101573
25.75808	101512
25.76620	117199
25.77432	145729
25.78245	179058
25.79057	205232
25.79870	215533
25.80682	214069
25.81493	183433
25.82307	157714
25.83118	130568
25.83930	124149
25.84743	128596
25.85555	131221
25.86368	133847
25.87180	130986
25.87992	126268
25.88805	113545
25.89617	113273
25.90430	99808
25.91242	90943
25.92053	88808
25.92867	91957
25.93678	89604
25.94492	92352
25.95303	90907
25.96115	92792
25.96928	89992
25.97740	89461
25.98552	90839
25.99365	88068
26.00177	84351
26.00990	89179
26.01802	86940
26.02613	85078
26.03427	85999
26.04238	78413
26.05052	79999
26.05863	88783
26.06675	85229
26.07488	92028
26.08300	93971
26.09112	104274
26.09925	110298
26.10737	116285
26.11550	125824
26.12362	127850
26.13173	134534
26.13987	136062
26.14798	137503
26.15612	140220
26.16423	135861
26.17235	138832
26.18048	135991
26.18860	141986
26.19673	143446
26.20485	132221
26.21297	137950
26.22110	140065
26.22922	135869
26.23733	136396
26.24547	140037
26.25358	135487
26.26172	139791
26.26983	136453
26.27795	147239
26.28608	140437
26.29420	141341
26.30233	136976
26.31045	141071
26.31857	138326
26.32670	137067
26.33482	131647
26.34295	132351
26.35107	132307
26.35918	132174
26.36732	131191
26.37543	144367
26.38355	158776
26.39168	166527
26.39980	174024
26.40793	183223
26.41605	190124
26.42417	183321
26.43230	179481
26.44042	165306
26.44855	154344
26.45667	149444
26.46478	141169
26.47292	145077
26.48103	144300
26.48915	140240
26.49728	134500
26.50540	134189
26.51353	122955
26.52165	121171
26.52977	121571
26.53790	120296
26.54602	117162
26.55415	113118
26.56227	112636
26.57038	112547
26.57852	113085
26.58663	119026
26.59477	114078
26.60288	109895
26.61100	107945
26.61913	109092
26.62725	110482
26.63537	114259
26.64350	110705
26.65162	110751
26.65975	114190
26.66787	111695
26.67598	109158
26.68412	120376
26.69223	111483
26.70037	111078
26.70848	108697
26.71660	107202
26.72473	108079
26.73285	113816
26.74098	104739
26.74910	100765
26.75722	107717
26.76535	108156
26.77347	108142
26.78158	106814
26.78972	102625
26.79783	102149
26.80597	108713
26.81408	112459
26.82220	111453
26.83033	105923
26.83845	103721
26.84658	106313
26.85470	102507
26.86282	106137
26.87095	105183
26.87907	107278
26.88718	105930
26.89532	107256
26.90343	104114
26.91157	97624
26.91968	96168
26.92780	99996
26.93593	95164
26.94405	98230
26.95218	99751
26.96030	113533
26.96842	115412
26.97655	128775
26.98467	169262
26.99280	236039
27.00092	363649
27.00903	525173
27.01717	696491
27.02528	868434
27.03340	972273
27.04153	952677
27.04965	850205
27.05778	738512
27.06590	598842
27.07402	480073
27.08215	397304
27.09027	317955
27.09840	285239
27.10652	250490
27.11463	229579
27.12277	217972
27.13088	200378
27.13900	190215
27.14713	185330
27.15525	179902
27.16338	163738
27.17150	163859
27.17962	159374
27.18775	153908
27.19587	152030
27.20400	145393
27.21212	141935
27.22023	144134
27.22837	134470
27.23648	134042
27.24462	134268
27.25273	128908
27.26085	130335
27.26898	122695
27.27710	122630
27.28522	117846
27.29335	115271
27.30147	115129
27.30960	111094
27.31772	110511
27.32583	107461
27.33397	110005
27.34208	103089
27.35022	108874
27.35833	101491
27.36645	103757
27.37458	102823
27.38270	101880
27.39083	108983
27.39895	99847
27.40707	99825
27.41520	94899
27.42332	94634
27.43143	97191
27.43957	97403
27.44768	95345
27.45582	94792
27.46393	94105
27.47205	90752
27.48018	95105
27.48830	96019
27.49643	88658
27.50455	90116
27.51267	93833
27.52080	90255
27.52892	96562
27.53703	89209
27.54517	89866
27.55328	100604
27.56142	92914
27.56953	98517
27.57765	91395
27.58578	100892
27.59390	102815
27.60203	114556
27.61015	119599
27.61827	114927
27.62640	110419
27.63452	109771
27.64265	99843
27.65077	93570
27.65888	89012
27.66702	86556
27.67513	83029
27.68325	81806
27.69138	82179
27.69950	85028
27.70763	81154
27.71575	82913
27.72387	82002
27.73200	85752
27.74012	82013
27.74825	81428
27.75637	82123
27.76448	79895
27.77262	81658
27.78073	80240
27.78887	83081
27.79698	84436
27.80510	80719
27.81323	83761
27.82135	76965
27.82947	82876
27.83760	80366
27.84572	75485
27.85385	79897
27.86197	80359
27.87008	73751
27.87822	74789
27.88633	81222
27.89447	75260
27.90258	75806
27.91070	75442
27.91883	76907
27.92695	74973
27.93507	72021
27.94320	71142
27.95132	77601
27.95945	75367
27.96757	73476
27.97568	76834
27.98382	72509
27.99193	73935
28.00007	75473
28.00818	70877
28.01630	77439
28.02443	75711
28.03255	72506
28.04068	77235
28.04880	85631
28.05692	81215
28.06505	86238
28.07317	87501
28.08128	83594
28.08942	87652
28.09753	84758
28.10567	84349
28.11378	83952
28.12190	83076
28.13003	82690
28.13815	80461
28.14628	74657
28.15440	70956
28.16252	72217
28.17065	73692
28.17877	74466
28.18688	84621
28.19502	91041
28.20313	94584
28.21127	108915
28.21938	113365
28.22750	121438
28.23563	122306
28.24375	118320
28.25188	101642
28.26000	98156
28.26812	86130
28.27625	85835
28.28437	80031
28.29250	83252
28.30062	85229
28.30873	82790
28.31687	81625
28.32498	82346
28.33310	93054
28.34123	95460
28.34935	103174
28.35748	113421
28.36560	126052
28.37372	134034
28.38185	144781
28.38997	148853
28.39810	158117
28.40622	156514
28.41433	147903
28.42247	143310
28.43058	135485
28.43872	133763
28.44683	131289
28.45495	118346
28.46308	114627
28.47120	109978
28.47932	103763
28.48745	101810
28.49557	100013
28.50370	100551
28.51182	102985
28.51993	100956
28.52807	99491
28.53618	94288
28.54432	92725
28.55243	92524
28.56055	90026
28.56868	97187
28.57680	103509
28.58492	98828
28.59305	98617
28.60117	97155
28.60930	96918
28.61742	99619
28.62553	106422
28.63367	102521
28.64178	106117
28.64992	107139
28.65803	107670
28.66615	108321
28.67428	100685
28.68240	105060
28.69053	96251
28.69865	95916
28.70677	96990
28.71490	92601
28.72302	89655
28.73113	85621
28.73927	85346
28.74738	87939
28.75552	93729
28.76363	104506
28.77175	117818
28.77988	134240
28.78800	139961
28.79613	152446
28.80425	144786
28.81237	133341
28.82050	118363
28.82862	110084
28.83675	101951
28.84487	100768
28.85298	90066
28.86112	88910
28.86923	83307
28.87735	89920
28.88548	92284
28.89360	84375
28.90173	93147
28.90985	90717
28.91797	89971
28.92610	91086
28.93422	89604
28.94235	95036
28.95047	91530
28.95858	92302
28.96672	85690
28.97483	90125
28.98295	92332
28.99108	84115
28.99920	82761
29.00733	78965
29.01545	76870
29.02357	77270
29.03170	74659
29.03982	82623
29.04795	80258
29.05607	77858
29.06418	74953
29.07232	73168
29.08043	77084
29.08857	80734
29.09668	79812
29.10480	79990
29.11293	78388
29.12105	82075
29.12917	77059
29.13730	77998
29.14542	72890
29.15355	72649
29.16167	72657
29.16978	73963
29.17792	72526
29.18603	83300
29.19417	86442
29.20228	90187
29.21040	103526
29.21853	107057
29.22665	106915
29.23477	115366
29.24290	120404
29.25102	120538
29.25915	131404
29.26727	132544
29.27538	146760
29.28352	145752
29.29163	134916
29.29977	119018
29.30788	108485
29.31600	93581
29.32413	88288
29.33225	82379
29.34038	79996
29.34850	76424
29.35662	76984
29.36475	74218
29.37287	74824
29.38098	72712
29.38912	74140
29.39723	75357
29.40537	73066
29.41348	75235
29.42160	77256
29.42973	81484
29.43785	78039
29.44598	80337
29.45410	85798
29.46222	84141
29.47035	83547
29.47847	82630
29.48660	86608
29.49472	88018
29.50283	92434
29.51097	94811
29.51908	90094
29.52720	90662
29.53533	88119
29.54345	85326
29.55158	83291
29.55970	81637
29.56782	78554
29.57595	77452
29.58407	81361
29.59220	76648
29.60032	76953
29.60843	75542
29.61657	73895
29.62468	70189
29.63282	70234
29.64093	70412
29.64905	74316
29.65718	68433
29.66530	67038
29.67342	73882
29.68155	71158
29.68967	68365
29.69780	72919
29.70592	69525
29.71403	74178
29.72217	67930
29.73028	73299
29.73842	69306
29.74653	67663
29.75465	72313
29.76278	66101
29.77090	68331
29.77902	64948
29.78715	65216
29.79527	67386
29.80340	65165
29.81152	59765
29.81963	62913
29.82777	64670
29.83588	64081
29.84402	62714
29.85213	67523
29.86025	69183
29.86838	67786
29.87650	74096
29.88463	78774
29.89275	87499
29.90087	93120
29.90900	96905
29.91712	101566
29.92523	89427
29.93337	80807
29.94148	81567
29.94962	76635
29.95773	72362
29.96585	72372
29.97398	75616
29.98210	76798
29.99023	80085
29.99835	87119
30.00647	91055
30.01460	100846
30.02272	96306
30.03083	106019
30.03897	102891
30.04708	106697
30.05522	105450
30.06333	105412
30.07145	108023
30.07958	105294
30.08770	106436
30.09583	98940
30.10395	102903
30.11207	102517
30.12020	98803
30.12832	97785
30.13645	98101
30.14457	92955
30.15268	93450
30.16082	99027
30.16893	89789
30.17705	86293
30.18518	90418
30.19330	89322
30.20143	88384
30.20955	88195
30.21767	94423
30.22580	87347
30.23392	88166
30.24205	87970
30.25017	82387
30.25828	78458
30.26642	77280
30.27453	75269
30.28267	72047
30.29078	73089
30.29890	75984
30.30703	72929
30.31515	69688
30.32327	67978
30.33140	71741
30.33952	68964
30.34765	74222
30.35577	73714
30.36388	69312
30.37202	74358
30.38013	71678
30.38827	62275
30.39638	65518
30.40450	67570
30.41263	62145
30.42075	71643
30.42887	64816
30.43700	66069
30.44512	67796
30.45325	67391
30.46137	68745
30.46948	65702
30.47762	73756
30.48573	67146
30.49387	70756
30.50198	70790
30.51010	72590
30.51823	69153
30.52635	68290
30.53448	68587
30.54260	67095
30.55072	67986
30.55885	65342
30.56697	66471
30.57508	63180
30.58322	65388
30.59133	68438
30.59947	62840
30.60758	63345
30.61570	64565
30.62383	66188
30.63195	70876
30.64008	64254
30.64820	66430
30.65632	63322
30.66445	67127
30.67257	65096
30.68070	71538
30.68882	64795
30.69693	60929
30.70507	65574
30.71318	72104
30.72130	66563
30.72943	63809
30.73755	67437
30.74568	66902
30.75380	65778
30.76192	67263
30.77005	67803
30.77817	69667
30.78630	74655
30.79442	77826
30.80253	81166
30.81067	92611
30.81878	95407
30.82690	90672
30.83503	87120
30.84315	79227
30.85128	76409
30.85940	72133
30.86752	70207
30.87565	66755
30.88377	66020
30.89190	70440
30.90002	67028
30.90813	70824
30.91627	65897
30.92438	63179
30.93252	65247
30.94063	68502
30.94875	68753
30.95688	64610
30.96500	70887
30.97312	67494
30.98125	65685
30.98937	68343
30.99750	67335
31.00562	64620
31.01373	69796
31.02187	68685
31.02998	65921
31.03812	65146
31.04623	66051
31.05435	69447
31.06248	71077
31.07060	75955
31.07872	75648
31.08685	84844
31.09497	85026
31.10310	94928
31.11122	102476
31.11933	100887
31.12747	90499
31.13558	85610
31.14372	81745
31.15183	77059
31.15995	74817
31.16808	75643
31.17620	75517
31.18433	82085
31.19245	87307
31.20057	92830
31.20870	98983
31.21682	110173
31.22493	120022
31.23307	119776
31.24118	117431
31.24932	113705
31.25743	109213
31.26555	97857
31.27368	89528
31.28180	81183
31.28993	80039
31.29805	74692
31.30617	71780
31.31430	68371
31.32242	68455
31.33055	74208
31.33867	70402
31.34678	70387
31.35492	67859
31.36303	72531
31.37115	64324
31.37928	70803
31.38740	74575
31.39553	70630
31.40365	65832
31.41177	64281
31.41990	71169
31.42802	75753
31.43615	67816
31.44427	71202
31.45238	73870
31.46052	68487
31.46863	71353
31.47675	64243
31.48488	66199
31.49300	63992
31.50113	64898
31.50925	72587
31.51737	72506
31.52550	71328
31.53362	75354
31.54175	73662
31.54987	68861
31.55798	72551
31.56612	70900
31.57423	73092
31.58237	71720
31.59048	73523
31.59860	70197
31.60673	70905
31.61485	68817
31.62297	76935
31.63110	71618
31.63922	69787
31.64735	77588
31.65547	78131
31.66358	70888
31.67172	74765
31.67983	72317
31.68797	71909
31.69608	71653
31.70420	71529
31.71233	72674
31.72045	71265
31.72858	68355
31.73670	72581
31.74482	72321
31.75295	70802
31.76107	72341
31.76918	76170
31.77732	85914
31.78543	82338
31.79357	83038
31.80168	86721
31.80980	84061
31.81793	79954
31.82605	80680
31.83418	76144
31.84230	72797
31.85042	76005
31.85855	76988
31.86667	74053
31.87478	71966
31.88292	72149
31.89103	71993
31.89917	79977
31.90728	73021
31.91540	75282
31.92353	76703
31.93165	82102
31.93978	81438
31.94790	89229
31.95602	90455
31.96415	100853
31.97227	100039
31.98040	108815
31.98852	105487
31.99663	110335
32.00477	104392
32.01288	108591
32.02100	110976
32.02913	108632
32.03725	102865
32.04538	92962
32.05350	95434
32.06162	88951
32.06975	96611
32.07787	95095
32.08600	97435
32.09412	98966
32.10223	97293
32.11037	91498
32.11848	92190
32.12662	87000
32.13473	81652
32.14285	82774
32.15098	86968
32.15910	80116
32.16722	75363
32.17535	78830
32.18347	74599
32.19160	78393
32.19972	72486
32.20783	75703
32.21597	72999
32.22408	74270
32.23222	69029
32.24033	77029
32.24845	75652
32.25658	83171
32.26470	87226
32.27282	87013
32.28095	89953
32.28907	90309
32.29720	89336
32.30532	85418
32.31343	75465
32.32157	72036
32.32968	75417
32.33782	78029
32.34593	77497
32.35405	76281
32.36218	74560
32.37030	73704
32.37843	72595
32.38655	77616
32.39467	69110
32.40280	73408
32.41092	68326
32.41903	72437
32.42717	71059
32.43528	70967
32.44342	67140
32.45153	65511
32.45965	64367
32.46778	65327
32.47590	65903
32.48403	68783
32.49215	64219
32.50027	70192
32.50840	67663
32.51652	65762
32.52463	73226
32.53277	68984
32.54088	67801
32.54902	71696
32.55713	67076
32.56525	68424
32.57338	66525
32.58150	72236
32.58963	66941
32.59775	64558
32.60587	66523
32.61400	64960
32.62212	65611
32.63025	62893
32.63837	67438
32.64648	72307
32.65462	80916
32.66273	90283
32.67085	99416
32.67898	103756
32.68710	112435
32.69523	114296
32.70335	104168
32.71147	99939
32.71960	96608
32.72772	88910
32.73585	83322
32.74397	78596
32.75208	74893
32.76022	74098
32.76833	71243
32.77647	72647
32.78458	67855
32.79270	71569
32.80083	67360
32.80895	70673
32.81707	66715
32.82520	67223
32.83332	71308
32.84145	66476
32.84957	68872
32.85768	68797
32.86582	70287
32.87393	70179
32.88207	64723
32.89018	64154
32.89830	64521
32.90643	69139
32.91455	66012
32.92267	69879
32.93080	69636
32.93892	67913
32.94705	66084
32.95517	66070
32.96328	61806
32.97142	67696
32.97953	66459
32.98767	70801
32.99578	76603
33.00390	78398
33.01203	78117
33.02015	76682
33.02828	77572
33.03640	73781
33.04452	73737
33.05265	78318
33.06077	76687
33.06888	74867
33.07702	77322
33.08513	80269
33.09327	84654
33.10138	96283
33.10950	98445
33.11763	110479
33.12575	115667
33.13388	113563
33.14200	101987
33.15012	93206
33.15825	86426
33.16637	77985
33.17450	70714
33.18262	68536
33.19073	72637
33.19887	73865
33.20698	76831
33.21510	77163
33.22323	74535
33.23135	74360
33.23948	78299
33.24760	70327
33.25572	72239
33.26385	69345
33.27197	65071
33.28010	71979
33.28822	72354
33.29633	71311
33.30447	71365
33.31258	71212
33.32070	69940
33.32883	71417
33.33695	74588
33.34508	69957
33.35320	69913
33.36132	68980
33.36945	66366
33.37757	69291
33.38570	75089
33.39382	75493
33.40193	72098
33.41007	77488
33.41818	73809
33.42632	83973
33.43443	85139
33.44255	88647
33.45068	86273
33.45880	82870
33.46692	81189
33.47505	77256
33.48317	80540
33.49130	73840
33.49942	66479
33.50753	69859
33.51567	68289
33.52378	69384
33.53192	70861
33.54003	69307
33.54815	71101
33.55628	77116
33.56440	71178
33.57252	75704
33.58065	75140
33.58877	75584
33.59690	72528
33.60502	69508
33.61313	69925
33.62127	61216
33.62938	67220
33.63752	68699
33.64563	76181
33.65375	73348
33.66188	79647
33.67000	78041
33.67813	74605
33.68625	75818
33.69437	71121
33.70250	74782
33.71062	72267
33.71873	80566
33.72687	80693
33.73498	81351
33.74312	89770
33.75123	95687
33.75935	98230
33.76748	96883
33.77560	95644
33.78373	84858
33.79185	82010
33.79997	73500
33.80810	70936
33.81622	71970
33.82435	69860
33.83247	75048
33.84058	80406
33.84872	81848
33.85683	89281
33.86495	89507
33.87308	90577
33.88120	95279
33.88933	97026
33.89745	99308
33.90557	98073
33.91370	104218
33.92182	103114
33.92995	99740
33.93807	96171
33.94618	96566
33.95432	89802
33.96243	89114
33.97055	80269
33.97868	74869
33.98680	74806
33.99493	72645
34.00305	71831
34.01117	70688
34.01930	67019
34.02742	72293
34.03555	80871
34.04367	75215
34.05178	69923
34.05992	77041
34.06803	72728
34.07617	70517
34.08428	74827
34.09240	79302
34.10053	72772
34.10865	67501
34.11677	72607
34.12490	74795
34.13302	67891
34.14115	70884
34.14927	66396
34.15738	67499
34.16552	70338
34.17363	75350
34.18177	79970
34.18988	84213
34.19800	85510
34.20613	91100
34.21425	89682
34.22238	93807
34.23050	86337
34.23862	82306
34.24675	79235
34.25487	77922
34.26298	73484
34.27112	71796
34.27923	69683
34.28737	69695
34.29548	67506
34.30360	66923
34.31173	69695
34.31985	71843
34.32798	67724
34.33610	69505
34.34422	68009
34.35235	66145
34.36047	62189
34.36858	70908
34.37672	69026
34.38483	68586
34.39297	70922
34.40108	68044
34.40920	63365
34.41733	63770
34.42545	63545
34.43358	71920
34.44170	64815
34.44982	68453
34.45795	67713
34.46607	66977
34.47420	63579
34.48232	68593
34.49043	69738
34.49857	62201
34.50668	72302
34.51480	70299
34.52293	70674
34.53105	76839
34.53918	81910
34.54730	89310
34.55542	94312
34.56355	98639
34.57167	103641
34.57980	101334
34.58792	100990
34.59603	98764
34.60417	101254
34.61228	100767
34.62040	102633
34.62853	104386
34.63665	106358
34.64478	102592
34.65290	100403
34.66102	94055
34.66915	97902
34.67727	89637
34.68540	87619
34.69352	87817
34.70163	83950
34.70977	85059
34.71788	88368
34.72602	84054
34.73413	75565
34.74225	80601
34.75038	83303
34.75850	79171
34.76662	78665
34.77475	78459
34.78287	76791
34.79100	78603
34.79912	81324
34.80723	85321
34.81537	79051
34.82348	82686
34.83162	78300
34.83973	79923
34.84785	76090
34.85598	78981
34.86410	74513
34.87223	76225
34.88035	78537
34.88847	77046
34.89660	73890
34.90472	74029
34.91283	75265
34.92097	83555
34.92908	78154
34.93722	91212
34.94533	86558
34.95345	86640
34.96158	88986
34.96970	89631
34.97783	88968
34.98595	88861
34.99407	91590
35.00220	84657
35.01032	88814
35.01845	95688
35.02657	101138
35.03468	103308
35.04282	101591
35.05093	103282
35.05905	103773
35.06718	101021
35.07530	93677
35.08343	90877
35.09155	92671
35.09967	88801
35.10780	79766
35.11592	77711
35.12405	78850
35.13217	78685
35.14028	72417
35.14842	77748
35.15653	74335
35.16465	81321
35.17278	80400
35.18090	78930
35.18903	72867
35.19715	72948
35.20527	75099
35.21340	71777
35.22152	75079
35.22965	75406
35.23777	81432
35.24588	83126
35.25402	88472
35.26213	86743
35.27027	89732
35.27838	90440
35.28650	93141
35.29463	91936
35.30275	83407
35.31087	82357
35.31900	78047
35.32712	83771
35.33525	79521
35.34337	82259
35.35148	82442
35.35962	79124
35.36773	85291
35.37587	86601
35.38398	88043
35.39210	99488
35.40023	107972
35.40835	116614
35.41647	129626
35.42460	133691
35.43272	134784
35.44085	138150
35.44897	128782
35.45708	114884
35.46522	115655
35.47333	105050
35.48147	98442
35.48958	91728
35.49770	82854
35.50583	80873
35.51395	79416
35.52208	79374
35.53020	83608
35.53832	84668
35.54645	89045
35.55457	85923
35.56268	80479
35.57082	85643
35.57893	84765
35.58707	85356
35.59518	79666
35.60330	78570
35.61143	73245
35.61955	75550
35.62768	77737
35.63580	72936
35.64392	71062
35.65205	77213
35.66017	76039
35.66828	79163
35.67642	84101
35.68453	91511
35.69267	94431
35.70078	92079
35.70890	99302
35.71703	103177
35.72515	97711
35.73328	95850
35.74140	86861
35.74952	88734
35.75765	91020
35.76577	93443
35.77390	88665
35.78202	88542
35.79013	93019
35.79827	87887
35.80638	85820
35.81450	82827
35.82263	86124
35.83075	81932
35.83888	77518
35.84700	77799
35.85512	81460
35.86325	84762
35.87137	91238
35.87950	83794
35.88762	91476
35.89573	80558
35.90387	80558
35.91198	83066
35.92012	88109
35.92823	88890
35.93635	77668
35.94448	77764
35.95260	79211
35.96072	79107
35.96885	77674
35.97697	78719
35.98510	83681
35.99322	79521
36.00133	80757
36.00947	81149
36.01758	86187
36.02572	83604
36.03383	84596
36.04195	86926
36.05008	79477
36.05820	88896
36.06633	79842
36.07445	84506
36.08257	85260
36.09070	83971
36.09882	81757
36.10693	81019
36.11507	76273
36.12318	74890
36.13132	86735
36.13943	77453
36.14755	75122
36.15568	81380
36.16380	82897
36.17193	85040
36.18005	83397
36.18817	79876
36.19630	80235
36.20442	78532
36.21253	81510
36.22067	78445
36.22878	77397
36.23692	78616
36.24503	79908
36.25315	86507
36.26128	89122
36.26940	90922
36.27753	87134
36.28565	89999
36.29377	91312
36.30190	92892
36.31002	99293
36.31815	101035
36.32627	105750
36.33438	109094
36.34252	102575
36.35063	99222
36.35875	90279
36.36688	82430
36.37500	84190
36.38313	83624
36.39125	84183
36.39937	83824
36.40750	87012
36.41562	82295
36.42375	85667
36.43187	93258
36.43998	95624
36.44812	101606
36.45623	106412
36.46435	103020
36.47248	107870
36.48060	103731
36.48873	104205
36.49685	105145
36.50497	103191
36.51310	107708
36.52122	109265
36.52935	107861
36.53747	101617
36.54558	103619
36.55372	101718
36.56183	90892
36.56997	84546
36.57808	85846
36.58620	77613
36.59433	82283
36.60245	81332
36.61057	80823
36.61870	87166
36.62682	89441
36.63495	93457
36.64307	105064
36.65118	111563
36.65932	105439
36.66743	103581
36.67557	107476
36.68368	99219
36.69180	105652
36.69993	95428
36.70805	91981
36.71618	89620
36.72430	87523
36.73242	89290
36.74055	88889
36.74867	89093
36.75678	87665
36.76492	85407
36.77303	79949
36.78117	83254
36.78928	82604
36.79740	81229
36.80553	83550
36.81365	82357
36.82178	83337
36.82990	78348
36.83802	84637
36.84615	83692
36.85427	79438
36.86238	81884
36.87052	83923
36.87863	86948
36.88677	81963
36.89488	91066
36.90300	86005
36.91113	84550
36.91925	83258
36.92738	83041
36.93550	83319
36.94362	93892
36.95175	81324
36.95987	83681
36.96800	89812
36.97612	82881
36.98423	83835
36.99237	87910
37.00048	82088
37.00860	81019
37.01673	83976
37.02485	90840
37.03298	87604
37.04110	82485
37.04922	83182
37.05735	87053
37.06547	86912
37.07360	89823
37.08172	88450
37.08983	90236
37.09797	91466
37.10608	101000
37.11422	104106
37.12233	96517
37.13045	109358
37.13858	108676
37.14670	108653
37.15482	104637
37.16295	98215
37.17107	101643
37.17920	97281
37.18732	95538
37.19543	85519
37.20357	87282
37.21168	89181
37.21982	81091
37.22793	82434
37.23605	90144
37.24418	82905
37.25230	82041
37.26042	83657
37.26855	78569
37.27667	85101
37.28480	87645
37.29292	92385
37.30103	89260
37.30917	94191
37.31728	91445
37.32542	91376
37.33353	101139
37.34165	92965
37.34978	98495
37.35790	107390
37.36603	103368
37.37415	109195
37.38227	114798
37.39040	105706
37.39852	105040
37.40663	105426
37.41477	99885
37.42288	100212
37.43102	94056
37.43913	105986
37.44725	95204
37.45538	95344
37.46350	93627
37.47163	97568
37.47975	98495
37.48787	97880
