C:\MassHunter\GCMS\1\data\JTB-E02\BACandBLUE\JTB-E18-016-09.D Thu Jun 27 11:27:19 2019
Start of data points
2.09512,65526
2.10325,63589
2.11137,63363
2.11948,65978
2.12762,64279
2.13573,61533
2.14387,70385
2.15198,64074
2.16010,60140
2.16823,60161
2.17635,59214
2.18448,59776
2.19260,58323
2.20072,59038
2.20885,60668
2.21697,58582
2.22508,57505
2.23322,59835
2.24133,56056
2.24947,54193
2.25758,53198
2.26570,58754
2.27383,80161
2.28195,514989
2.29008,1556527
2.29820,972060
2.30632,388652
2.31445,274263
2.32257,217686
2.33070,203423
2.33882,204630
2.34693,325402
2.35507,240981
2.36318,171424
2.37130,158131
2.37943,148685
2.38755,136469
2.39568,139432
2.40380,126962
2.41192,124975
2.42005,119214
2.42817,120759
2.43630,124067
2.44442,112534
2.45253,116681
2.46067,114118
2.46878,108282
2.47692,110226
2.48503,105759
2.49315,108249
2.50128,125646
2.50940,137593
2.51752,112156
2.52565,108786
2.53377,104304
2.54190,98637
2.55002,107226
2.55813,112302
2.56627,129263
2.57438,157708
2.58252,135026
2.59063,128068
2.59875,120084
2.60688,118857
2.61500,423937
2.62312,1289570
2.63125,1095147
2.63937,541107
2.64750,354119
2.65562,276883
2.66373,216042
2.67187,176914
2.67998,161702
2.68812,142507
2.69623,139563
2.70435,131389
2.71248,120927
2.72060,117490
2.72873,113796
2.73685,112986
2.74497,111565
2.75310,108945
2.76122,111606
2.76933,103308
2.77747,106146
2.78558,119883
2.79372,216190
2.80183,276021
2.80995,195787
2.81808,154420
2.82620,152812
2.83433,152598
2.84245,141388
2.85057,120692
2.85870,111119
2.86682,109855
2.87495,112313
2.88307,104712
2.89118,102118
2.89932,102269
2.90743,96305
2.91555,99891
2.92368,97500
2.93180,90616
2.93993,99432
2.94805,95850
2.95617,89190
2.96430,100871
2.97242,133453
2.98055,141549
2.98867,116916
2.99678,109382
3.00492,109333
3.01303,105762
3.02115,99972
3.02928,98422
3.03740,91743
3.04553,94927
3.05365,91731
3.06177,93724
3.06990,88128
3.07802,92484
3.08615,170333
3.09427,921289
3.10238,2899813
3.11052,4440577
3.11863,5918146
3.12677,5498961
3.13488,3359681
3.14300,2175665
3.15113,1680105
3.15925,1322088
3.16737,1065327
3.17550,908690
3.18362,806361
3.19175,856496
3.19987,1346723
3.20798,1783457
3.21612,1421852
3.22423,1019109
3.23237,843009
3.24048,704929
3.24860,616586
3.25673,552202
3.26485,491678
3.27297,440499
3.28110,405221
3.28922,394659
3.29735,576698
3.30547,1512231
3.31358,3613846
3.32172,5345417
3.32983,5017312
3.33797,3619174
3.34608,2531293
3.35420,1887668
3.36233,1517691
3.37045,1264101
3.37858,1061368
3.38670,933536
3.39482,825430
3.40295,750289
3.41107,682059
3.41918,628171
3.42732,587309
3.43543,566024
3.44357,534573
3.45168,513692
3.45980,487285
3.46793,458904
3.47605,473588
3.48418,469452
3.49230,450683
3.50042,430091
3.50855,406012
3.51667,379753
3.52480,375623
3.53292,355795
3.54103,382604
3.54917,385776
3.55728,378136
3.56540,354924
3.57353,366612
3.58165,429617
3.58978,481858
3.59790,432606
3.60602,374463
3.61415,353800
3.62227,355637
3.63040,348144
3.63852,345304
3.64663,340716
3.65477,323135
3.66288,327931
3.67100,563879
3.67913,1933845
3.68725,4767890
3.69538,5718097
3.70350,3957513
3.71162,2362622
3.71975,1680610
3.72787,1392514
3.73600,1218222
3.74412,1059381
3.75223,953677
3.76037,851409
3.76848,811187
3.77662,744203
3.78473,699406
3.79285,666879
3.80098,651845
3.80910,775959
3.81722,1410294
3.82535,2351062
3.83347,2436258
3.84160,1757573
3.84972,1238901
3.85783,1026738
3.86597,887195
3.87408,808670
3.88222,734276
3.89033,672066
3.89845,638032
3.90658,607801
3.91470,577993
3.92283,594442
3.93095,686933
3.93907,802036
3.94720,828311
3.95532,1030755
3.96343,2479399
3.97157,5412030
3.97968,7236960
3.98782,5819383
3.99593,3564393
4.00405,4087237
4.01218,1.155726E+07
4.02030,2.572308E+07
4.02843,3.35945E+07
4.03655,2.76198E+07
4.04467,1.491626E+07
4.05280,7150083
4.06092,4248654
4.06903,2978711
4.07717,2323203
4.08528,1866740
4.09342,1566257
4.10153,1390096
4.10965,1215412
4.11778,1098503
4.12590,1009464
4.13403,948524
4.14215,906623
4.15027,926660
4.15840,985905
4.16652,935337
4.17465,864833
4.18277,779828
4.19088,753690
4.19902,695313
4.20713,665506
4.21525,944533
4.22338,2790016
4.23150,8035712
4.23963,1.485703E+07
4.24775,1.811E+07
4.25587,1.544762E+07
4.26400,9680195
4.27212,5869716
4.28025,4104141
4.28837,3069315
4.29648,2406056
4.30462,1975691
4.31273,1683561
4.32087,1458586
4.32898,1303538
4.33710,1189643
4.34523,1091751
4.35335,1050067
4.36147,1027101
4.36960,994767
4.37772,944229
4.38585,895984
4.39397,818646
4.40208,761807
4.41022,721689
4.41833,696517
4.42647,666889
4.43458,632254
4.44270,603445
4.45083,595510
4.45895,576000
4.46707,558399
4.47520,554312
4.48332,529066
4.49145,512171
4.49957,511277
4.50768,498804
4.51582,492063
4.52393,477907
4.53207,464546
4.54018,456306
4.54830,443049
4.55643,438246
4.56455,433129
4.57268,431399
4.58080,410220
4.58892,401894
4.59705,399828
4.60517,381902
4.61328,383765
4.62142,387897
4.62953,413125
4.63767,511941
4.64578,704313
4.65390,804242
4.66203,755507
4.67015,599353
4.67828,484020
4.68640,438162
4.69452,403743
4.70265,389611
4.71077,361067
4.71888,350300
4.72702,344676
4.73513,333053
4.74327,342274
4.75138,331242
4.75950,316674
4.76763,315992
4.77575,313880
4.78388,304159
4.79200,312667
4.80012,349767
4.80825,422320
4.81637,495392
4.82450,493124
4.83262,419158
4.84073,401913
4.84887,397420
4.85698,396214
4.86510,385692
4.87323,380735
4.88135,362642
4.88948,344170
4.89760,327628
4.90572,315940
4.91385,306151
4.92197,293976
4.93010,305821
4.93822,382183
4.94633,681036
4.95447,1448401
4.96258,2687814
4.97072,3683913
4.97883,3809631
4.98695,3134587
4.99508,2265836
5.00320,1608045
5.01132,1201021
5.01945,951190
5.02757,857659
5.03570,945229
5.04382,1218024
5.05193,1461755
5.06007,1375865
5.06818,1120126
5.07632,915758
5.08443,784813
5.09255,716121
5.10068,646091
5.10880,613924
5.11692,582756
5.12505,558928
5.13317,519668
5.14130,505994
5.14942,501369
5.15753,493563
5.16567,512537
5.17378,541204
5.18192,551994
5.19003,516064
5.19815,485461
5.20628,487959
5.21440,500533
5.22253,497450
5.23065,491030
5.23877,470762
5.24690,452097
5.25502,444377
5.26313,409320
5.27127,378502
5.27938,355723
5.28752,342176
5.29563,332810
5.30375,323539
5.31188,325609
5.32000,325426
5.32813,326399
5.33625,330678
5.34437,365682
5.35250,369365
5.36062,361977
5.36875,338554
5.37687,322870
5.38498,315463
5.39312,309880
5.40123,313788
5.40935,317940
5.41748,310110
5.42560,297648
5.43373,291582
5.44185,290546
5.44997,287227
5.45810,290769
5.46622,287952
5.47435,285290
5.48247,273572
5.49058,270876
5.49872,261806
5.50683,263340
5.51495,264101
5.52308,273798
5.53120,268653
5.53933,264183
5.54745,258572
5.55557,256332
5.56370,257687
5.57182,270201
5.57995,279815
5.58807,290810
5.59618,284963
5.60432,265536
5.61243,247480
5.62057,246743
5.62868,253817
5.63680,260772
5.64493,273131
5.65305,280625
5.66117,272661
5.66930,268736
5.67742,264700
5.68555,270182
5.69367,301921
5.70178,335301
5.70992,317054
5.71803,291035
5.72617,259360
5.73428,244228
5.74240,233093
5.75053,235103
5.75865,234947
5.76677,224340
5.77490,220213
5.78302,224181
5.79115,216490
5.79927,219063
5.80738,217473
5.81552,215263
5.82363,217849
5.83177,222361
5.83988,215198
5.84800,211616
5.85613,220412
5.86425,210100
5.87238,209142
5.88050,213998
5.88862,208354
5.89675,197389
5.90487,198024
5.91298,173733
5.92112,162268
5.92923,152595
5.93737,149789
5.94548,156497
5.95360,166299
5.96173,192065
5.96985,218809
5.97798,243787
5.98610,282845
5.99422,327396
6.00235,319692
6.01047,296187
6.01860,241511
6.02672,210861
6.03483,187708
6.04297,173437
6.05108,167583
6.05920,163757
6.06733,151731
6.07545,155390
6.08358,139724
6.09170,142907
6.09982,146324
6.10795,137387
6.11607,144918
6.12420,149362
6.13232,189710
6.14043,270934
6.14857,395562
6.15668,482403
6.16482,467278
6.17293,378132
6.18105,289704
6.18918,248171
6.19730,230163
6.20542,207798
6.21355,200306
6.22167,191461
6.22980,192779
6.23792,189808
6.24603,184809
6.25417,187122
6.26228,195920
6.27042,190186
6.27853,197101
6.28665,197890
6.29478,190865
6.30290,182109
6.31102,185498
6.31915,192072
6.32727,190761
6.33540,197196
6.34352,203163
6.35163,206278
6.35977,205069
6.36788,202793
6.37602,192853
6.38413,189967
6.39225,197361
6.40038,188509
6.40850,192031
6.41663,188669
6.42475,186187
6.43287,188269
6.44100,191900
6.44912,190928
6.45723,185966
6.46537,188546
6.47348,187953
6.48162,191048
6.48973,189964
6.49785,193311
6.50598,196313
6.51410,201071
6.52223,196096
6.53035,198592
6.53847,207037
6.54660,193394
6.55472,191364
6.56283,201291
6.57097,198993
6.57908,219633
6.58722,219368
6.59533,225843
6.60345,221305
6.61158,221672
6.61970,212149
6.62783,206406
6.63595,202779
6.64407,211685
6.65220,228247
6.66032,263825
6.66845,367588
6.67657,502749
6.68468,552644
6.69282,497183
6.70093,391563
6.70905,310491
6.71718,282683
6.72530,254581
6.73343,252164
6.74155,213148
6.74967,199941
6.75780,181887
6.76592,173581
6.77405,162215
6.78217,167793
6.79028,156186
6.79842,156387
6.80653,147882
6.81467,146472
6.82278,139568
6.83090,132485
6.83903,137380
6.84715,144190
6.85527,159054
6.86340,175436
6.87152,186528
6.87965,185740
6.88777,170642
6.89588,141369
6.90402,114310
6.91213,99145
6.92027,96311
6.92838,90163
6.93650,86807
6.94463,83563
6.95275,82722
6.96087,90800
6.96900,101482
6.97712,117647
6.98525,133905
6.99337,139309
7.00148,131026
7.00962,114006
7.01773,97907
7.02587,93239
7.03398,98443
7.04210,94909
7.05023,84305
7.05835,83865
7.06648,83027
7.07460,85170
7.08272,84441
7.09085,85282
7.09897,83626
7.10708,77013
7.11522,73973
7.12333,76015
7.13147,78091
7.13958,85211
7.14770,97509
7.15583,138694
7.16395,195347
7.17208,241591
7.18020,234552
7.18832,202554
7.19645,155688
7.20457,140791
7.21270,199038
7.22082,435229
7.22893,894964
7.23707,1397808
7.24518,1575503
7.25330,1265182
7.26143,768492
7.26955,466046
7.27768,301253
7.28580,225435
7.29392,173582
7.30205,130436
7.31017,107027
7.31830,100131
7.32642,108870
7.33453,117655
7.34267,114124
7.35078,109216
7.35890,107953
7.36703,98563
7.37515,92233
7.38328,92251
7.39140,98952
7.39952,98720
7.40765,102196
7.41577,99193
7.42390,92515
7.43202,93084
7.44013,86002
7.44827,82925
7.45638,85737
7.46452,80392
7.47263,78512
7.48075,80817
7.48888,76625
7.49700,79779
7.50512,73242
7.51325,77455
7.52137,76244
7.52950,85978
7.53762,114267
7.54573,150065
7.55387,197488
7.56198,249282
7.57012,264263
7.57823,251261
7.58635,219499
7.59448,166291
7.60260,130900
7.61072,109642
7.61885,92790
7.62697,85835
7.63510,81016
7.64322,78519
7.65133,76460
7.65947,73859
7.66758,68750
7.67572,69166
7.68383,74707
7.69195,68022
7.70008,65321
7.70820,66475
7.71633,69337
7.72445,67820
7.73257,72653
7.74070,68949
7.74882,67121
7.75693,69978
7.76507,75748
7.77318,77680
7.78132,73714
7.78943,75521
7.79755,76928
7.80568,82808
7.81380,84241
7.82193,81503
7.83005,78903
7.83817,69893
7.84630,61881
7.85442,67456
7.86255,67298
7.87067,70537
7.87878,76255
7.88692,74210
7.89503,78697
7.90315,76956
7.91128,72800
7.91940,76993
7.92753,78252
7.93565,94765
7.94377,107482
7.95190,129835
7.96002,136873
7.96815,123257
7.97627,109291
7.98438,90079
7.99252,79025
8.00063,75154
8.00875,71269
8.01688,62757
8.02500,67412
8.03313,70174
8.04125,68877
8.04937,68726
8.05750,70878
8.06562,63256
8.07375,62849
8.08187,60600
8.08998,62639
8.09812,59515
8.10623,66297
8.11437,67809
8.12248,61194
8.13060,64019
8.13873,70411
8.14685,80244
8.15497,97193
8.16310,102790
8.17122,99687
8.17935,88066
8.18747,80906
8.19558,72270
8.20372,69093
8.21183,66844
8.21997,64522
8.22808,65550
8.23620,62784
8.24433,67148
8.25245,60687
8.26058,58803
8.26870,59345
8.27682,59577
8.28495,61138
8.29307,58283
8.30118,62077
8.30932,59911
8.31743,67292
8.32557,70509
8.33368,73031
8.34180,71773
8.34993,67694
8.35805,67725
8.36618,62701
8.37430,60432
8.38242,59262
8.39055,62641
8.39867,63038
8.40678,61527
8.41492,61539
8.42303,59096
8.43117,62496
8.43928,57635
8.44740,60481
8.45553,57304
8.46365,56637
8.47178,56546
8.47990,52430
8.48802,57338
8.49615,56029
8.50427,53825
8.51240,59599
8.52052,65412
8.52863,87178
8.53677,141560
8.54488,238627
8.55300,322708
8.56113,348493
8.56925,281703
8.57738,214748
8.58550,133313
8.59362,94123
8.60175,86006
8.60987,87656
8.61800,82646
8.62612,83087
8.63423,75860
8.64237,74990
8.65048,67704
8.65860,65253
8.66673,63259
8.67485,66435
8.68298,67376
8.69110,64123
8.69922,68504
8.70735,69041
8.71547,72248
8.72360,68491
8.73172,67619
8.73983,62568
8.74797,76037
8.75608,140727
8.76422,322722
8.77233,666099
8.78045,1135889
8.78858,1536042
8.79670,1581988
8.80482,1277084
8.81295,839404
8.82107,525572
8.82920,339993
8.83732,256815
8.84543,224520
8.85357,218731
8.86168,217785
8.86982,204826
8.87793,192328
8.88605,169090
8.89418,155340
8.90230,154177
8.91043,136003
8.91855,139150
8.92667,136776
8.93480,137719
8.94292,148585
8.95103,156541
8.95917,158998
8.96728,147601
8.97542,138895
8.98353,136285
8.99165,129382
8.99978,131633
9.00790,120336
9.01603,115462
9.02415,111437
9.03227,103228
9.04040,103588
9.04852,100232
9.05663,106654
9.06477,94010
9.07288,98424
9.08102,102054
9.08913,91376
9.09725,100754
9.10538,113012
9.11350,104952
9.12163,115546
9.12975,114164
9.13787,109673
9.14600,107151
9.15412,100990
9.16225,105307
9.17037,96546
9.17848,92803
9.18662,93468
9.19473,90094
9.20285,92120
9.21098,85514
9.21910,83963
9.22723,83731
9.23535,87776
9.24347,80632
9.25160,85016
9.25972,81979
9.26785,81730
9.27597,85802
9.28408,81389
9.29222,81701
9.30033,77788
9.30847,76303
9.31658,77786
9.32470,76629
9.33283,73669
9.34095,79967
9.34907,79504
9.35720,76283
9.36532,71862
9.37345,74625
9.38157,75505
9.38968,76729
9.39782,73601
9.40593,79059
9.41407,86413
9.42218,88364
9.43030,93165
9.43843,107393
9.44655,113882
9.45467,111473
9.46280,109023
9.47092,94353
9.47905,91672
9.48717,81650
9.49528,74823
9.50342,70440
9.51153,76903
9.51967,80435
9.52778,86215
9.53590,90138
9.54403,84971
9.55215,79891
9.56028,75532
9.56840,63127
9.57652,63995
9.58465,68896
9.59277,78511
9.60088,79980
9.60902,76698
9.61713,71924
9.62527,58620
9.63338,58586
9.64150,48621
9.64963,47681
9.65775,47483
9.66588,44496
9.67400,52383
9.68212,47345
9.69025,43480
9.69837,44614
9.70650,43685
9.71462,43058
9.72273,46191
9.73087,42840
9.73898,40760
9.74710,42577
9.75523,42123
9.76335,39679
9.77148,39489
9.77960,39788
9.78772,42297
9.79585,40799
9.80397,41239
9.81210,39365
9.82022,41579
9.82833,41540
9.83647,43486
9.84458,38868
9.85270,42492
9.86083,42295
9.86895,46036
9.87708,45287
9.88520,46125
9.89332,43499
9.90145,44260
9.90957,40636
9.91770,42368
9.92582,48305
9.93393,61700
9.94207,93788
9.95018,139221
9.95832,185478
9.96643,201798
9.97455,200608
9.98268,168843
9.99080,126515
9.99892,97812
10.00705,83449
10.01517,73541
10.02330,72641
10.03142,67651
10.03953,62331
10.04767,61062
10.05578,55165
10.06392,54616
10.07203,61505
10.08015,53278
10.08828,54910
10.09640,54904
10.10452,60680
10.11265,62681
10.12077,54793
10.12890,52512
10.13702,50527
10.14513,51620
10.15327,48775
10.16138,50755
10.16952,48926
10.17763,54731
10.18575,50264
10.19388,47730
10.20200,47553
10.21013,46988
10.21825,44828
10.22637,50798
10.23450,49928
10.24262,52871
10.25073,54542
10.25887,68769
10.26698,119704
10.27512,266272
10.28323,601128
10.29135,1113181
10.29948,1782627
10.30760,2554922
10.31573,3600969
10.32385,5240005
10.33197,7200780
10.34010,8625772
10.34822,8079380
10.35635,5967688
10.36447,3568935
10.37258,1934833
10.38072,1109665
10.38883,761784
10.39695,559737
10.40508,426003
10.41320,325080
10.42133,274020
10.42945,242246
10.43757,209409
10.44570,197604
10.45382,186716
10.46195,170608
10.47007,157317
10.47818,154132
10.48632,144294
10.49443,138580
10.50255,133457
10.51068,121824
10.51880,117845
10.52693,117070
10.53505,111746
10.54317,107614
10.55130,109338
10.55942,110974
10.56755,109067
10.57567,105253
10.58378,103683
10.59192,102724
10.60003,99628
10.60817,97504
10.61628,86034
10.62440,83720
10.63253,83198
10.64065,82712
10.64877,77227
10.65690,76920
10.66502,75425
10.67315,75928
10.68127,75326
10.68938,72732
10.69752,76321
10.70563,74685
10.71377,75051
10.72188,76074
10.73000,72215
10.73813,75401
10.74625,75772
10.75438,70062
10.76250,69590
10.77062,66938
10.77875,73013
10.78687,67316
10.79498,64803
10.80312,61809
10.81123,58624
10.81937,62102
10.82748,59372
10.83560,60686
10.84373,57606
10.85185,58811
10.85998,54187
10.86810,51077
10.87622,54837
10.88435,53426
10.89247,56285
10.90058,56344
10.90872,52022
10.91683,51699
10.92497,50500
10.93308,53575
10.94120,50283
10.94933,51044
10.95745,50683
10.96558,53976
10.97370,53529
10.98182,55370
10.98995,54139
10.99807,53812
11.00620,48544
11.01432,47331
11.02243,49075
11.03057,47479
11.03868,47759
11.04680,48236
11.05493,46668
11.06305,48007
11.07118,49739
11.07930,54872
11.08742,51205
11.09555,49740
11.10367,48309
11.11180,48443
11.11992,47507
11.12803,43549
11.13617,41172
11.14428,43069
11.15240,44944
11.16053,45663
11.16865,40253
11.17678,46357
11.18490,48289
11.19302,51977
11.20115,50262
11.20927,48221
11.21740,46990
11.22552,46583
11.23363,44206
11.24177,43517
11.24988,38777
11.25802,38771
11.26613,42348
11.27425,40156
11.28238,41035
11.29050,38045
11.29862,40511
11.30675,50167
11.31487,67813
11.32300,103416
11.33112,166298
11.33923,223682
11.34737,279903
11.35548,303640
11.36362,273746
11.37173,220165
11.37985,162744
11.38798,122770
11.39610,95990
11.40423,87290
11.41235,79291
11.42047,72653
11.42860,67278
11.43672,63035
11.44483,61717
11.45297,52941
11.46108,54908
11.46922,61354
11.47733,74410
11.48545,100628
11.49358,144758
11.50170,188008
11.50983,195345
11.51795,189628
11.52607,154904
11.53420,119288
11.54232,99556
11.55045,91106
11.55857,79916
11.56668,71911
11.57482,71989
11.58293,68513
11.59105,67838
11.59918,76591
11.60730,91733
11.61543,114246
11.62355,134608
11.63167,123411
11.63980,115330
11.64792,94774
11.65605,79810
11.66417,63283
11.67228,54514
11.68042,53634
11.68853,54170
11.69665,55858
11.70478,58320
11.71290,51801
11.72103,54996
11.72915,51523
11.73727,51929
11.74540,50440
11.75352,47510
11.76165,48404
11.76977,45716
11.77788,47590
11.78602,46972
11.79413,48671
11.80227,44753
11.81038,50973
11.81850,46279
11.82663,51184
11.83475,51555
11.84287,50424
11.85100,52577
11.85912,51829
11.86725,53962
11.87537,54295
11.88348,50116
11.89162,46813
11.89973,43916
11.90787,41384
11.91598,43379
11.92410,46193
11.93223,49300
11.94035,49913
11.94847,51784
11.95660,45413
11.96472,42350
11.97285,46099
11.98097,48147
11.98908,63882
11.99722,91794
12.00533,135397
12.01347,162325
12.02158,182013
12.02970,158614
12.03783,130781
12.04595,102454
12.05408,74504
12.06220,62721
12.07032,58724
12.07845,56572
12.08657,54712
12.09468,55355
12.10282,56976
12.11093,57095
12.11907,55171
12.12718,56057
12.13530,54693
12.14343,54232
12.15155,53584
12.15968,55793
12.16780,50993
12.17592,51135
12.18405,48996
12.19217,47706
12.20030,49670
12.20842,45109
12.21653,46620
12.22467,46558
12.23278,45765
12.24090,46388
12.24903,46699
12.25715,44570
12.26528,45508
12.27340,44489
12.28152,42381
12.28965,40138
12.29777,40065
12.30590,39032
12.31402,40855
12.32213,40321
12.33027,39439
12.33838,42853
12.34650,39309
12.35463,38275
12.36275,40343
12.37088,42098
12.37900,39657
12.38712,41758
12.39525,42122
12.40337,45739
12.41150,52866
12.41962,67515
12.42773,73614
12.43587,83895
12.44398,75486
12.45212,80287
12.46023,65195
12.46835,61928
12.47648,56389
12.48460,52574
12.49272,49736
12.50085,44942
12.50897,46142
12.51710,50835
12.52522,47084
12.53333,47947
12.54147,62627
12.54958,74183
12.55772,97286
12.56583,123601
12.57395,138713
12.58208,126806
12.59020,100394
12.59833,81999
12.60645,70887
12.61457,58025
12.62270,50644
12.63082,54779
12.63893,50378
12.64707,48885
12.65518,46323
12.66332,45901
12.67143,48276
12.67955,41194
12.68768,44482
12.69580,43693
12.70393,44626
12.71205,41491
12.72017,43519
12.72830,44601
12.73642,51920
12.74453,51315
12.75267,53544
12.76078,52517
12.76892,46975
12.77703,40198
12.78515,37865
12.79328,41753
12.80140,41318
12.80953,37896
12.81765,37632
12.82577,35325
12.83390,32900
12.84202,39784
12.85015,37007
12.85827,32378
12.86638,36067
12.87452,33274
12.88263,31497
12.89075,33068
12.89888,31992
12.90700,32787
12.91513,31372
12.92325,31851
12.93137,29374
12.93950,30553
12.94762,35392
12.95575,37607
12.96387,43602
12.97198,59729
12.98012,77293
12.98823,90473
12.99635,90265
13.00448,79750
13.01260,68593
13.02073,56924
13.02885,49392
13.03697,43097
13.04510,44394
13.05322,44406
13.06135,40614
13.06947,39902
13.07758,39456
13.08572,38249
13.09383,35889
13.10197,37076
13.11008,35205
13.11820,38468
13.12633,34896
13.13445,34576
13.14257,41341
13.15070,35429
13.15882,37320
13.16695,37509
13.17507,37754
13.18318,38983
13.19132,39003
13.19943,38313
13.20757,42330
13.21568,40736
13.22380,40857
13.23193,44207
13.24005,40755
13.24818,37796
13.25630,37724
13.26442,37310
13.27255,37288
13.28067,35768
13.28878,35186
13.29692,35851
13.30503,32655
13.31317,29847
13.32128,30229
13.32940,34999
13.33753,34339
13.34565,36879
13.35378,35031
13.36190,37190
13.37002,35173
13.37815,37993
13.38627,35573
13.39438,34477
13.40252,32018
13.41063,31541
13.41877,31848
13.42688,32074
13.43500,30458
13.44313,31931
13.45125,30431
13.45938,31484
13.46750,31379
13.47562,33496
13.48375,38774
13.49187,28464
13.50000,34453
13.50812,32157
13.51623,33438
13.52437,35145
13.53248,40192
13.54060,35280
13.54873,31629
13.55685,32011
13.56498,31182
13.57310,32341
13.58122,33887
13.58935,35127
13.59747,45231
13.60560,63473
13.61372,92339
13.62183,123975
13.62997,144900
13.63808,137673
13.64622,115186
13.65433,88481
13.66245,59953
13.67058,53999
13.67870,45350
13.68682,40350
13.69495,39967
13.70307,39060
13.71120,38024
13.71932,41223
13.72743,39804
13.73557,51972
13.74368,92672
13.75182,201015
13.75993,437740
13.76805,859534
13.77618,1227536
13.78430,1471193
13.79242,1445266
13.80055,1207704
13.80867,862743
13.81680,600478
13.82492,464943
13.83303,411619
13.84117,393218
13.84928,377702
13.85742,332416
13.86553,273065
13.87365,222051
13.88178,193976
13.88990,165226
13.89803,138514
13.90615,126587
13.91427,124192
13.92240,117481
13.93052,106904
13.93863,112463
13.94677,101115
13.95488,95162
13.96302,100313
13.97113,103661
13.97925,113927
13.98738,109125
13.99550,121000
14.00363,103214
14.01175,100633
14.01987,89919
14.02800,86391
14.03612,88416
14.04423,80652
14.05237,76042
14.06048,82218
14.06862,84163
14.07673,80359
14.08485,87919
14.09298,72235
14.10110,78620
14.10923,76248
14.11735,79214
14.12547,71394
14.13360,77233
14.14172,76873
14.14985,80243
14.15797,81545
14.16608,84519
14.17422,108022
14.18233,146471
14.19045,208234
14.19858,283490
14.20670,352775
14.21483,370429
14.22295,322139
14.23107,255937
14.23920,210029
14.24732,174793
14.25545,162094
14.26357,147340
14.27168,137893
14.27982,122603
14.28793,110334
14.29607,103563
14.30418,93583
14.31230,83198
14.32043,85653
14.32855,82699
14.33667,78451
14.34480,76366
14.35292,72478
14.36105,69667
14.36917,62914
14.37728,59052
14.38542,61338
14.39353,71930
14.40167,114355
14.40978,183984
14.41790,288168
14.42603,380935
14.43415,414196
14.44227,360543
14.45040,272891
14.45852,184356
14.46665,129631
14.47477,99502
14.48288,86865
14.49102,79378
14.49913,75193
14.50727,71100
14.51538,70756
14.52350,68990
14.53163,69313
14.53975,67470
14.54788,65210
14.55600,61267
14.56412,55660
14.57225,54283
14.58037,52360
14.58848,50593
14.59662,50289
14.60473,46056
14.61287,47474
14.62098,46883
14.62910,44349
14.63723,46440
14.64535,45041
14.65348,45125
14.66160,47954
14.66972,46762
14.67785,44420
14.68597,44516
14.69410,47271
14.70222,43638
14.71033,41307
14.71847,42035
14.72658,44064
14.73470,38957
14.74283,45199
14.75095,46938
14.75908,43643
14.76720,48514
14.77532,48447
14.78345,51985
14.79157,76410
14.79970,144007
14.80782,344409
14.81593,767435
14.82407,1434915
14.83218,2008833
14.84030,2357663
14.84843,2273759
14.85655,1723656
14.86468,1138630
14.87280,706428
14.88092,464827
14.88905,327423
14.89717,249950
14.90530,211598
14.91342,178921
14.92153,159949
14.92967,139616
14.93778,127800
14.94592,117036
14.95403,114777
14.96215,108275
14.97028,105441
14.97840,97130
14.98652,96240
14.99465,93336
15.00277,84666
15.01090,84111
15.01902,85385
15.02713,78776
15.03527,74424
15.04338,74420
15.05152,73303
15.05963,72469
15.06775,65456
15.07588,66504
15.08400,65293
15.09213,64253
15.10025,61370
15.10837,62218
15.11650,61778
15.12462,64802
15.13273,61184
15.14087,68115
15.14898,73319
15.15712,75681
15.16523,71356
15.17335,61818
15.18148,58913
15.18960,55329
15.19773,52461
15.20585,48692
15.21397,48910
15.22210,46652
15.23022,44421
15.23833,42174
15.24647,45328
15.25458,42208
15.26272,41717
15.27083,40123
15.27895,40306
15.28708,40702
15.29520,38652
15.30333,38388
15.31145,38995
15.31957,38070
15.32770,36896
15.33582,34657
15.34395,35301
15.35207,36816
15.36018,40822
15.36832,38837
15.37643,38686
15.38455,40456
15.39268,41162
15.40080,37171
15.40893,37200
15.41705,38050
15.42517,33351
15.43330,34970
15.44142,37308
15.44955,39119
15.45767,36997
15.46578,40616
15.47392,44394
15.48203,53098
15.49015,64452
15.49828,77635
15.50640,84931
15.51453,88173
15.52265,92008
15.53077,90567
15.53890,93030
15.54702,97114
15.55515,97953
15.56327,88038
15.57138,78638
15.57952,68442
15.58763,51662
15.59577,46357
15.60388,41634
15.61200,40286
15.62013,38868
15.62825,37073
15.63637,37824
15.64450,38870
15.65262,42298
15.66075,38972
15.66887,39345
15.67698,35273
15.68512,38246
15.69323,32463
15.70137,31386
15.70948,33393
15.71760,32263
15.72573,34376
15.73385,37197
15.74198,45965
15.75010,44557
15.75822,61787
15.76635,79340
15.77447,125220
15.78258,195999
15.79072,237172
15.79883,265947
15.80697,252198
15.81508,189321
15.82320,144466
15.83133,103876
15.83945,78078
15.84758,72913
15.85570,64340
15.86382,57875
15.87195,55034
15.88007,60275
15.88818,53212
15.89632,48957
15.90443,52492
15.91257,50216
15.92068,49061
15.92880,45352
15.93693,46807
15.94505,45255
15.95318,53696
15.96130,60270
15.96942,69265
15.97755,83609
15.98567,95153
15.99380,93444
16.00192,87883
16.01003,79124
16.01817,78636
16.02628,75549
16.03440,68932
16.04253,70208
16.05065,65279
16.05878,66031
16.06690,56253
16.07502,51309
16.08315,54034
16.09127,49386
16.09940,45224
16.10752,47478
16.11563,46919
16.12377,45387
16.13188,47028
16.14002,49203
16.14813,49456
16.15625,50402
16.16438,51278
16.17250,47833
16.18062,46168
16.18875,45376
16.19687,41909
16.20500,44288
16.21312,41376
16.22123,44232
16.22937,41495
16.23748,43379
16.24562,38744
16.25373,44684
16.26185,43371
16.26998,42475
16.27810,43417
16.28622,41490
16.29435,42097
16.30247,44588
16.31060,46494
16.31872,45127
16.32683,43302
16.33497,44027
16.34308,43240
16.35122,47019
16.35933,62970
16.36745,74377
16.37558,91033
16.38370,94529
16.39183,101579
16.39995,86588
16.40807,75840
16.41620,64997
16.42432,54404
16.43243,53584
16.44057,51029
16.44868,60384
16.45682,88453
16.46493,145726
16.47305,223152
16.48118,309174
16.48930,365396
16.49743,354997
16.50555,285161
16.51367,211866
16.52180,142942
16.52992,102788
16.53803,79655
16.54617,72597
16.55428,72430
16.56242,65515
16.57053,62417
16.57865,67108
16.58678,60139
16.59490,68137
16.60303,73461
16.61115,83301
16.61927,78412
16.62740,82638
16.63552,79774
16.64365,75145
16.65177,68731
16.65988,56047
16.66802,60709
16.67613,49296
16.68425,51747
16.69238,49952
16.70050,45147
16.70863,46826
16.71675,47111
16.72487,47701
16.73300,44013
16.74112,42452
16.74925,43374
16.75737,46871
16.76548,48089
16.77362,46282
16.78173,45726
16.78987,42498
16.79798,40747
16.80610,37487
16.81423,38052
16.82235,40962
16.83047,40595
16.83860,39723
16.84672,35288
16.85485,39346
16.86297,35320
16.87108,34442
16.87922,38667
16.88733,33109
16.89547,41710
16.90358,36700
16.91170,38327
16.91983,34863
16.92795,38538
16.93608,36277
16.94420,36021
16.95232,38309
16.96045,36165
16.96857,34876
16.97668,35619
16.98482,36178
16.99293,38315
17.00107,36820
17.00918,37471
17.01730,33874
17.02543,40224
17.03355,43388
17.04168,43212
17.04980,45128
17.05792,48521
17.06605,48174
17.07417,48996
17.08228,44143
17.09042,47562
17.09853,41970
17.10667,41184
17.11478,39410
17.12290,41744
17.13103,41816
17.13915,38641
17.14728,43947
17.15540,42383
17.16352,38742
17.17165,44304
17.17977,39403
17.18790,45571
17.19602,35767
17.20413,37091
17.21227,35147
17.22038,36646
17.22850,37612
17.23663,35662
17.24475,36751
17.25288,36137
17.26100,36268
17.26912,37635
17.27725,42375
17.28537,36274
17.29350,34429
17.30162,34043
17.30973,35195
17.31787,41187
17.32598,39529
17.33410,48677
17.34223,52869
17.35035,57428
17.35848,59371
17.36660,55931
17.37472,56140
17.38285,50434
17.39097,54113
17.39910,47073
17.40722,48088
17.41533,46305
17.42347,46757
17.43158,46134
17.43972,46319
17.44783,42802
17.45595,49282
17.46408,44842
17.47220,44130
17.48032,38366
17.48845,39245
17.49657,39411
17.50470,39715
17.51282,41380
17.52093,39874
17.52907,38487
17.53718,39080
17.54532,41268
17.55343,44382
17.56155,61641
17.56968,90321
17.57780,145713
17.58592,263977
17.59405,457092
17.60217,679373
17.61030,879990
17.61842,961388
17.62653,853329
17.63467,654996
17.64278,442432
17.65092,291048
17.65903,211758
17.66715,175418
17.67528,145463
17.68340,133075
17.69153,112169
17.69965,103416
17.70777,95723
17.71590,87691
17.72402,81066
17.73213,73524
17.74027,72665
17.74838,66239
17.75652,63496
17.76463,62233
17.77275,63684
17.78088,59175
17.78900,63423
17.79713,81862
17.80525,121659
17.81337,173903
17.82150,266963
17.82962,357390
17.83775,397022
17.84587,375422
17.85398,298085
17.86212,239020
17.87023,181020
17.87835,135134
17.88648,115747
17.89460,104530
17.90273,87487
17.91085,84330
17.91897,79863
17.92710,71436
17.93522,71148
17.94335,62286
17.95147,64012
17.95958,60146
17.96772,60739
17.97583,59043
17.98397,59840
17.99208,58967
18.00020,57253
18.00833,57724
18.01645,62744
18.02457,67200
18.03270,72144
18.04082,88937
18.04895,102465
18.05707,156440
18.06518,304940
18.07332,636556
18.08143,1199957
18.08957,1891933
18.09768,2446481
18.10580,2545402
18.11393,2252693
18.12205,1680031
18.13017,1151393
18.13830,819721
18.14642,619226
18.15455,516972
18.16267,448844
18.17078,389452
18.17892,344180
18.18703,308148
18.19517,287085
18.20328,257980
18.21140,237122
18.21953,221635
18.22765,213000
18.23578,194584
18.24390,183656
18.25202,171331
18.26015,150539
18.26827,140655
18.27638,130347
18.28452,118973
18.29263,96722
18.30077,80849
18.30888,68188
18.31700,62002
18.32513,62301
18.33325,57972
18.34138,55397
18.34950,58504
18.35762,52700
18.36575,52662
18.37387,51231
18.38198,49275
18.39012,52094
18.39823,52485
18.40637,51435
18.41448,51011
18.42260,54903
18.43073,54146
18.43885,58062
18.44698,72355
18.45510,98228
18.46322,130683
18.47135,182799
18.47947,245635
18.48760,317623
18.49572,372251
18.50383,374862
18.51197,359726
18.52008,324963
18.52820,290209
18.53633,272981
18.54445,253896
18.55258,263042
18.56070,263005
18.56882,250270
18.57695,249136
18.58507,252516
18.59320,251026
18.60132,243594
18.60943,247779
18.61757,243735
18.62568,251026
18.63382,246617
18.64193,245793
18.65005,238073
18.65818,237760
18.66630,231502
18.67442,230460
18.68255,219482
18.69067,218588
18.69880,223624
18.70692,219489
18.71503,203641
18.72317,208833
18.73128,210914
18.73942,206098
18.74753,206727
18.75565,201606
18.76378,194854
18.77190,192863
18.78002,197412
18.78815,197041
18.79627,188482
18.80440,189378
18.81252,186797
18.82063,192171
18.82877,185986
18.83688,194085
18.84502,189407
18.85313,197831
18.86125,182380
18.86938,181857
18.87750,177417
18.88563,174730
18.89375,169261
18.90187,171357
18.91000,174463
18.91812,170899
18.92623,175173
18.93437,171463
18.94248,175039
18.95062,167048
18.95873,174176
18.96685,173038
18.97498,172095
18.98310,168257
18.99123,164863
18.99935,161717
19.00747,163164
19.01560,149680
19.02372,153443
19.03185,147408
19.03997,149984
19.04808,148897
19.05622,151948
19.06433,167295
19.07245,191423
19.08058,270264
19.08870,395797
19.09683,572893
19.10495,755332
19.11307,822390
19.12120,795592
19.12932,646171
19.13745,489399
19.14557,369908
19.15368,277021
19.16182,228377
19.16993,195841
19.17805,175033
19.18618,167072
19.19430,164930
19.20243,149875
19.21055,152379
19.21867,144390
19.22680,142032
19.23492,138767
19.24305,141004
19.25117,138937
19.25928,129068
19.26742,132943
19.27553,130541
19.28367,133211
19.29178,138154
19.29990,151215
19.30803,141964
19.31615,146754
19.32427,139667
19.33240,133247
19.34052,132647
19.34865,136489
19.35677,144372
19.36488,170551
19.37302,184548
19.38113,194055
19.38927,202424
19.39738,184257
19.40550,161595
19.41363,145940
19.42175,137397
19.42987,125896
19.43800,120708
19.44612,118315
19.45425,117405
19.46237,115943
19.47048,118840
19.47862,138491
19.48673,165047
19.49487,204990
19.50298,244032
19.51110,284065
19.51923,279782
19.52735,248192
19.53548,204438
19.54360,161154
19.55172,137418
19.55985,127469
19.56797,114552
19.57608,107268
19.58422,110592
19.59233,99528
19.60047,98795
19.60858,102303
19.61670,95704
19.62483,99694
19.63295,98698
19.64108,110924
19.64920,129596
19.65732,164343
19.66545,196683
19.67357,235829
19.68170,257902
19.68982,262464
19.69793,251448
19.70607,232947
19.71418,200832
19.72230,188325
19.73043,168191
19.73855,153641
19.74668,135585
19.75480,134514
19.76292,121729
19.77105,113593
19.77917,106446
19.78730,116867
19.79542,125226
19.80353,124015
19.81167,121846
19.81978,120322
19.82790,115788
19.83603,107124
19.84415,120152
19.85228,157557
19.86040,315762
19.86852,751147
19.87665,1741195
19.88477,3421501
19.89290,5583481
19.90102,7493261
19.90913,8370700
19.91727,7738264
19.92538,6300947
19.93352,4395928
19.94163,2849080
19.94975,1861409
19.95788,1373995
19.96600,1081756
19.97412,934718
19.98225,830824
19.99037,771813
19.99850,691862
20.00662,662130
20.01473,618111
20.02287,582923
20.03098,541454
20.03912,498683
20.04723,438327
20.05535,374872
20.06348,323816
20.07160,258757
20.07973,214083
20.08785,192371
20.09597,180608
20.10410,165842
20.11222,164880
20.12033,155822
20.12847,144487
20.13658,138036
20.14472,130492
20.15283,130883
20.16095,132159
20.16908,132177
20.17720,140389
20.18533,150850
20.19345,157616
20.20157,157848
20.20970,157989
20.21782,152067
20.22593,145436
20.23407,134758
20.24218,139579
20.25032,137080
20.25843,152349
20.26655,188592
20.27468,221472
20.28280,248162
20.29093,249511
20.29905,247290
20.30717,225347
20.31530,196259
20.32342,174898
20.33155,149602
20.33967,135394
20.34778,117002
20.35592,106621
20.36403,99093
20.37215,93350
20.38028,87906
20.38840,90043
20.39653,80402
20.40465,77433
20.41277,82998
20.42090,82015
20.42902,84188
20.43715,88676
20.44527,92088
20.45338,90174
20.46152,91667
20.46963,93121
20.47777,83538
20.48588,81727
20.49400,80295
20.50213,77740
20.51025,74056
20.51837,68225
20.52650,72054
20.53462,67077
20.54275,68003
20.55087,68437
20.55898,70788
20.56712,69286
20.57523,64755
20.58337,63787
20.59148,63363
20.59960,70928
20.60773,62604
20.61585,63272
20.62397,65241
20.63210,63995
20.64022,63757
20.64835,64402
20.65647,68912
20.66458,72595
20.67272,71924
20.68083,68501
20.68897,68077
20.69708,66942
20.70520,68118
20.71333,64756
20.72145,64373
20.72958,60256
20.73770,67560
20.74582,63907
20.75395,61349
20.76207,69163
20.77018,69212
20.77832,69551
20.78643,86164
20.79457,110963
20.80268,167559
20.81080,213040
20.81893,258616
20.82705,293376
20.83518,275071
20.84330,219743
20.85142,165308
20.85955,126317
20.86767,96898
20.87578,78070
20.88392,72542
20.89203,76367
20.90017,71843
20.90828,68598
20.91640,65673
20.92453,68396
20.93265,65145
20.94078,68407
20.94890,74173
20.95702,69737
20.96515,66372
20.97327,70098
20.98140,64983
20.98952,62882
20.99763,59122
21.00577,62882
21.01388,63125
21.02200,61392
21.03013,64441
21.03825,61017
21.04638,66312
21.05450,61041
21.06262,61607
21.07075,57399
21.07887,61412
21.08700,61758
21.09512,59758
21.10323,63101
21.11137,58716
21.11948,56205
21.12762,58463
21.13573,60695
21.14385,64950
21.15198,75426
21.16010,80643
21.16822,85855
21.17635,80642
21.18447,86254
21.19260,73813
21.20072,73263
21.20883,67945
21.21697,62564
21.22508,59626
21.23322,63591
21.24133,59615
21.24945,59695
21.25758,58663
21.26570,54104
21.27382,53647
21.28195,57795
21.29007,49106
21.29820,49244
21.30632,54307
21.31443,52216
21.32257,50060
21.33068,51418
21.33882,52564
21.34693,47563
21.35505,53771
21.36318,45249
21.37130,50518
21.37943,53379
21.38755,65564
21.39567,68789
21.40380,72610
21.41192,90275
21.42003,98317
21.42817,88163
21.43628,82817
21.44442,75750
21.45253,66434
21.46065,54704
21.46878,55867
21.47690,57715
21.48503,56330
21.49315,52380
21.50127,52518
21.50940,49048
21.51752,46801
21.52565,52890
21.53377,52642
21.54188,50359
21.55002,45951
21.55813,45064
21.56625,51472
21.57438,51707
21.58250,57524
21.59063,67673
21.59875,69369
21.60687,71221
21.61500,73708
21.62312,76427
21.63125,76830
21.63937,82072
21.64748,83888
21.65562,87477
21.66373,81406
21.67185,86433
21.67998,93903
21.68810,94146
21.69623,83163
21.70435,85656
21.71247,75281
21.72060,70905
21.72872,66314
21.73685,57343
21.74497,55879
21.75308,54250
21.76122,54578
21.76933,60078
21.77747,61711
21.78558,56140
21.79370,54612
21.80183,57841
21.80995,59037
21.81807,61426
21.82620,66577
21.83432,69494
21.84245,78269
21.85057,79574
21.85868,76509
21.86682,74523
21.87493,65558
21.88307,60283
21.89118,57693
21.89930,53231
21.90743,58054
21.91555,50217
21.92367,52435
21.93180,50330
21.93992,48988
21.94805,47133
21.95617,45305
21.96428,44160
21.97242,45054
21.98053,47052
21.98867,41106
21.99678,41706
22.00490,46209
22.01303,53829
22.02115,56968
22.02928,62900
22.03740,76391
22.04552,73465
22.05365,73360
22.06177,74424
22.06988,76744
22.07802,78768
22.08613,79171
22.09427,86790
22.10238,78567
22.11050,80797
22.11863,81958
22.12675,88362
22.13488,81715
22.14300,85416
22.15112,83261
22.15925,85901
22.16737,87816
22.17550,86495
22.18362,84884
22.19173,83352
22.19987,81396
22.20798,81773
22.21610,86260
22.22423,87053
22.23235,84810
22.24048,77225
22.24860,75008
22.25672,67463
22.26485,61708
22.27297,59470
22.28110,61694
22.28922,60839
22.29733,61212
22.30547,65786
22.31358,61420
22.32172,64865
22.32983,64821
22.33795,61911
22.34608,65014
22.35420,59733
22.36232,55966
22.37045,55229
22.37857,52015
22.38670,59171
22.39482,71512
22.40293,83630
22.41107,102151
22.41918,121479
22.42732,131473
22.43543,130352
22.44355,111672
22.45168,94257
22.45980,83699
22.46792,71392
22.47605,71582
22.48417,85332
22.49230,86690
22.50042,97314
22.50853,94451
22.51667,98660
22.52478,89172
22.53292,82030
22.54103,79616
22.54915,92409
22.55728,108501
22.56540,116924
22.57353,116615
22.58165,130395
22.58977,124654
22.59790,128430
22.60602,131587
22.61413,132325
22.62227,138534
22.63038,134436
22.63852,140178
22.64663,136532
22.65475,137433
22.66288,137562
22.67100,141264
22.67913,140317
22.68725,143242
22.69537,154980
22.70350,159462
22.71162,163769
22.71973,167909
22.72787,166355
22.73598,169672
22.74412,163506
22.75223,156416
22.76035,147545
22.76848,147516
22.77660,152277
22.78473,163248
22.79285,174270
22.80097,193864
22.80910,212168
22.81722,218960
22.82535,212134
22.83347,200111
22.84158,183095
22.84972,167248
22.85783,155672
22.86595,147224
22.87408,144435
22.88220,153687
22.89033,155783
22.89845,166247
22.90657,198521
22.91470,225830
22.92282,247357
22.93095,267301
22.93907,263397
22.94718,250278
22.95532,219666
22.96343,184021
22.97157,170786
22.97968,149524
22.98780,137460
22.99593,133351
23.00405,126699
23.01217,125324
23.02030,114926
23.02842,118319
23.03655,117976
23.04467,119317
23.05278,109949
23.06092,105799
23.06903,110249
23.07717,106950
23.08528,108125
23.09340,104916
23.10153,102768
23.10965,102076
23.11777,97615
23.12590,98348
23.13402,99628
23.14215,93693
23.15027,91149
23.15838,95033
23.16652,91029
23.17463,90827
23.18277,89831
23.19088,88020
23.19900,86503
23.20713,85845
23.21525,89130
23.22338,88917
23.23150,87655
23.23962,87653
23.24775,87930
23.25587,89905
23.26398,94477
23.27212,96761
23.28023,96307
23.28837,88555
23.29648,91593
23.30460,88961
23.31273,86165
23.32085,85713
23.32898,91265
23.33710,99777
23.34522,124390
23.35335,156512
23.36147,214793
23.36960,310901
23.37772,425499
23.38583,549820
23.39397,694789
23.40208,801389
23.41020,859043
23.41833,914180
23.42645,958883
23.43458,939593
23.44270,894313
23.45082,841111
23.45895,810126
23.46707,759907
23.47520,708966
23.48332,651830
23.49143,599626
23.49957,542368
23.50768,499931
23.51580,452017
23.52393,435624
23.53205,404392
23.54018,373570
23.54830,349450
23.55642,331337
23.56455,339046
23.57267,324066
23.58080,346548
23.58892,352867
23.59703,389701
23.60517,410715
23.61328,417000
23.62142,384115
23.62953,346897
23.63765,297439
23.64578,274574
23.65390,265875
23.66202,270319
23.67015,264400
23.67827,252708
23.68640,233824
23.69452,205565
23.70263,183090
23.71077,170739
23.71888,151081
23.72702,142209
23.73513,135405
23.74325,145438
23.75138,176991
23.75950,271006
23.76762,492032
23.77575,870235
23.78387,1413393
23.79200,1950552
23.80012,2263775
23.80823,2247196
23.81637,1920357
23.82448,1586092
23.83262,1252802
23.84073,957653
23.84885,786343
23.85698,620057
23.86510,520954
23.87323,443990
23.88135,393727
23.88947,363875
23.89760,325861
23.90572,307116
23.91383,292986
23.92197,278203
23.93008,255924
23.93822,237630
23.94633,225518
23.95445,205037
23.96258,193787
23.97070,188366
23.97883,176014
23.98695,177704
23.99507,168030
24.00320,158609
24.01132,168149
24.01945,182085
24.02757,208548
24.03568,224443
24.04382,227330
24.05193,221743
24.06005,188457
24.06818,169110
24.07630,150715
24.08443,136106
24.09255,123608
24.10067,120953
24.10880,116118
24.11692,109108
24.12505,113039
24.13317,115746
24.14128,112170
24.14942,111160
24.15753,116553
24.16565,114437
24.17378,114932
24.18190,113020
24.19003,109454
24.19815,117851
24.20627,107482
24.21440,107212
24.22252,102034
24.23065,99935
24.23877,101274
24.24688,93289
24.25502,90429
24.26313,94102
24.27127,106728
24.27938,132789
24.28750,154810
24.29563,179560
24.30375,187420
24.31187,190558
24.32000,192715
24.32812,207987
24.33625,209777
24.34437,215549
24.35248,214853
24.36062,218560
24.36873,226746
24.37687,237399
24.38498,257548
24.39310,283265
24.40123,286112
24.40935,292930
24.41748,287168
24.42560,253979
24.43372,235733
24.44185,219836
24.44997,221548
24.45808,223354
24.46622,237194
24.47433,253519
24.48247,281617
24.49058,286749
24.49870,295697
24.50683,292684
24.51495,282478
24.52308,266647
24.53120,268317
24.53932,267484
24.54745,266758
24.55557,269843
24.56368,277774
24.57182,266679
24.57993,254591
24.58807,247151
24.59618,224727
24.60430,216177
24.61243,204297
24.62055,200869
24.62868,200388
24.63680,203177
24.64492,201824
24.65305,197795
24.66117,198537
24.66930,194667
24.67742,193732
24.68553,191836
24.69367,191626
24.70178,188180
24.70990,192975
24.71803,188130
24.72615,191780
24.73428,190618
24.74240,190901
24.75052,185581
24.75865,196807
24.76677,193282
24.77490,196554
24.78302,205418
24.79113,197306
24.79927,203084
24.80738,196095
24.81550,196483
24.82363,188715
24.83175,198743
24.83988,228416
24.84800,249854
24.85612,303226
24.86425,373197
24.87237,443900
24.88050,569242
24.88862,679481
24.89673,728754
24.90487,734271
24.91298,618231
24.92112,489831
24.92923,368206
24.93735,292103
24.94548,224266
24.95360,202099
24.96172,183457
24.96985,183977
24.97797,167148
24.98610,163350
24.99422,156955
25.00233,159147
25.01047,153598
25.01858,150776
25.02672,150527
25.03483,143671
25.04295,138662
25.05108,136756
25.05920,128101
25.06733,123996
25.07545,110931
25.08357,106155
25.09170,111549
25.09982,146215
25.10793,234020
25.11607,435269
25.12418,863549
25.13232,1528442
25.14043,2259385
25.14855,2793357
25.15668,2920638
25.16480,2450390
25.17293,1823998
25.18105,1157016
25.18917,664374
25.19730,370730
25.20542,230980
25.21353,164080
25.22167,128891
25.22978,125356
25.23792,123160
25.24603,148686
25.25415,176369
25.26228,222092
25.27040,249100
25.27853,268447
25.28665,263938
25.29477,235031
25.30290,191908
25.31102,156009
25.31915,120690
25.32727,108466
25.33538,93900
25.34352,85245
25.35163,85437
25.35975,79565
25.36788,78017
25.37600,71071
25.38413,73046
25.39225,74201
25.40037,67609
25.40850,68745
25.41662,70125
25.42475,64287
25.43287,63763
25.44098,66842
25.44912,63921
25.45723,64740
25.46537,68026
25.47348,71782
25.48160,89194
25.48973,108519
25.49785,138835
25.50597,167265
25.51410,189160
25.52222,205154
25.53035,211261
25.53847,221952
25.54658,226284
25.55472,230099
25.56283,231554
25.57097,234290
25.57908,237734
25.58720,233460
25.59533,234821
25.60345,241154
25.61157,228773
25.61970,237884
25.62782,236206
25.63595,232478
25.64407,228921
25.65218,224105
25.66032,223521
25.66843,225438
25.67657,218747
25.68468,227215
25.69280,220543
25.70093,219224
25.70905,225796
25.71718,217791
25.72530,212798
25.73342,210714
25.74155,213334
25.74967,212650
25.75778,199391
25.76592,204192
25.77403,200262
25.78217,206236
25.79028,204316
25.79840,202456
25.80653,202683
25.81465,196549
25.82278,198004
25.83090,195864
25.83902,202966
25.84715,193233
25.85527,198022
25.86340,186079
25.87152,188113
25.87963,179566
25.88777,184640
25.89588,181530
25.90400,172254
25.91213,170042
25.92025,162695
25.92838,160972
25.93650,164410
25.94462,161184
25.95275,161600
25.96087,162506
25.96900,152634
25.97712,156741
25.98523,152356
25.99337,152789
26.00148,143620
26.00960,141455
26.01773,144380
26.02585,139212
26.03398,147373
26.04210,135204
26.05022,131969
26.05835,132880
26.06647,137074
26.07460,133133
26.08272,134345
26.09083,135832
26.09897,129534
26.10708,123685
26.11522,130985
26.12333,127135
26.13145,129546
26.13958,129622
26.14770,126877
26.15582,128174
26.16395,134132
26.17207,127443
26.18020,126422
26.18832,117645
26.19643,120953
26.20457,114565
26.21268,115323
26.22082,115986
26.22893,107859
26.23705,108933
26.24518,110453
26.25330,108159
26.26142,105569
26.26955,103488
26.27767,105806
26.28580,94009
26.29392,96708
26.30203,97988
26.31017,94805
26.31828,97385
26.32642,92500
26.33453,89466
26.34265,90643
26.35078,93347
26.35890,87916
26.36703,89921
26.37515,90335
26.38327,91338
26.39140,87847
26.39952,92126
26.40763,91514
26.41577,88443
26.42388,91140
26.43202,86187
26.44013,83483
26.44825,79535
26.45638,80016
26.46450,82630
26.47263,81236
26.48075,81695
26.48887,82544
26.49700,77653
26.50512,83005
26.51325,72265
26.52137,76524
26.52948,75082
26.53762,72803
26.54573,72121
26.55385,71517
26.56198,76719
26.57010,70089
26.57823,70100
26.58635,69649
26.59447,70860
26.60260,73269
26.61072,68558
26.61885,70665
26.62697,73104
26.63508,67060
26.64322,64471
26.65133,73133
26.65945,75078
26.66758,73861
26.67570,81763
26.68383,79405
26.69195,75779
26.70007,69997
26.70820,65824
26.71632,67742
26.72445,66558
26.73257,64981
26.74068,60251
26.74882,64525
26.75693,60985
26.76507,61471
26.77318,62194
26.78130,62729
26.78943,65986
26.79755,68820
26.80567,71030
26.81380,65131
26.82192,69412
26.83005,62563
26.83817,63665
26.84628,63887
26.85442,61519
26.86253,59916
26.87067,60319
26.87878,58724
26.88690,56525
26.89503,57885
26.90315,52983
26.91128,55755
26.91940,55709
26.92752,54074
26.93565,58922
26.94377,54446
26.95188,56821
26.96002,58754
26.96813,64677
26.97627,79125
26.98438,94445
26.99250,139469
27.00063,191951
27.00875,249588
27.01688,321378
27.02500,381402
27.03312,416658
27.04125,416702
27.04937,385952
27.05748,356135
27.06562,309442
27.07373,258892
27.08187,219008
27.08998,190323
27.09810,163358
27.10623,152775
27.11435,140431
27.12248,137933
27.13060,128014
27.13872,120933
27.14685,120997
27.15497,112798
27.16310,102877
27.17122,101556
27.17933,104218
27.18747,101074
27.19558,97031
27.20370,95870
27.21183,92358
27.21995,84472
27.22808,86222
27.23620,83148
27.24432,81139
27.25245,86021
27.26057,75249
27.26870,77745
27.27682,72549
27.28493,75623
27.29307,67703
27.30118,66765
27.30930,65488
27.31743,61058
27.32555,64068
27.33368,66216
27.34180,63631
27.34992,63777
27.35805,64751
27.36617,68719
27.37430,63202
27.38242,66544
27.39053,68074
27.39867,64177
27.40678,61449
27.41492,60516
27.42303,56612
27.43115,57832
27.43928,56619
27.44740,52643
27.45552,55414
27.46365,57168
27.47177,52236
27.47990,50340
27.48802,54981
27.49613,51408
27.50427,53561
27.51238,56680
27.52052,59485
27.52863,61512
27.53675,61206
27.54488,60170
27.55300,55573
27.56113,54767
27.56925,59023
27.57737,59928
27.58550,66236
27.59362,76581
27.60173,81821
27.60987,80596
27.61798,75193
27.62612,71213
27.63423,65247
27.64235,55739
27.65048,55684
27.65860,55592
27.66673,53601
27.67485,52240
27.68297,52699
27.69110,53640
27.69922,53846
27.70735,56581
27.71547,53449
27.72358,50283
27.73172,48160
27.73983,49504
27.74795,46802
27.75608,49509
27.76420,50018
27.77233,46915
27.78045,52455
27.78857,53685
27.79670,52821
27.80482,48406
27.81295,48972
27.82107,55090
27.82918,52025
27.83732,49836
27.84543,52840
27.85355,52211
27.86168,52110
27.86980,49816
27.87793,48450
27.88605,45840
27.89417,47656
27.90230,44896
27.91042,46019
27.91855,43351
27.92667,43589
27.93478,43177
27.94292,45386
27.95103,45187
27.95917,43679
27.96728,42135
27.97540,44077
27.98353,44119
27.99165,47028
27.99977,48166
28.00790,45626
28.01602,54371
28.02415,52042
28.03227,55321
28.04038,59753
28.04852,63673
28.05663,65360
28.06477,66324
28.07288,64608
28.08100,68891
28.08913,62614
28.09725,56110
28.10537,55331
28.11350,56497
28.12162,52098
28.12975,49039
28.13787,45002
28.14598,44841
28.15412,45635
28.16223,44525
28.17037,44227
28.17848,49327
28.18660,51438
28.19473,56928
28.20285,68881
28.21098,75754
28.21910,80102
28.22722,82405
28.23535,76436
28.24347,71242
28.25158,67118
28.25972,56993
28.26783,50670
28.27597,52862
28.28408,51457
28.29220,51452
28.30033,52486
28.30845,55191
28.31658,64936
28.32470,74722
28.33282,85591
28.34095,95196
28.34907,106200
28.35720,122515
28.36532,134510
28.37343,139198
28.38157,157220
28.38968,157577
28.39780,166327
28.40593,165805
28.41405,153981
28.42218,149121
28.43030,154718
28.43842,144037
28.44655,133440
28.45467,120447
28.46280,112445
28.47092,114738
28.47903,104938
28.48717,104759
28.49528,88724
28.50340,92634
28.51153,84483
28.51965,83046
28.52778,85115
28.53590,77116
28.54402,74186
28.55215,72255
28.56027,68630
28.56840,62397
28.57652,68870
28.58463,62369
28.59277,61521
28.60088,62794
28.60902,61633
28.61713,62300
28.62525,64586
28.63338,63982
28.64150,66035
28.64962,61785
28.65775,67485
28.66587,63338
28.67400,70822
28.68212,64567
28.69023,65774
28.69837,60747
28.70648,61034
28.71462,55324
28.72273,57537
28.73085,56813
28.73898,58561
28.74710,60215
28.75523,72336
28.76335,69185
28.77147,76325
28.77960,81154
28.78772,77397
28.79583,72269
28.80397,69034
28.81208,68295
28.82022,66408
28.82833,61907
28.83645,60450
28.84458,55976
28.85270,53551
28.86083,58268
28.86895,61599
28.87707,65221
28.88520,67112
28.89332,69990
28.90143,76001
28.90957,77901
28.91768,71972
28.92582,67546
28.93393,60958
28.94205,63240
28.95018,60184
28.95830,60182
28.96643,58968
28.97455,60193
28.98267,56407
28.99080,53555
28.99892,53280
29.00705,53647
29.01517,54140
29.02328,49920
29.03142,51224
29.03953,46623
29.04765,46201
29.05578,45908
29.06390,48660
29.07203,52467
29.08015,52058
29.08827,53542
29.09640,52633
29.10452,54870
29.11265,57377
29.12077,50963
29.12888,46697
29.13702,47999
29.14513,47650
29.15325,49001
29.16138,47987
29.16950,50839
29.17763,52227
29.18575,59157
29.19387,66989
29.20200,79880
29.21012,90535
29.21825,105061
29.22637,102417
29.23448,98529
29.24262,86181
29.25073,81466
29.25887,76861
29.26698,78398
29.27510,75466
29.28323,71132
29.29135,67167
29.29947,61416
29.30760,53927
29.31572,55107
29.32385,46900
29.33197,45191
29.34008,47384
29.34822,47487
29.35633,45809
29.36447,42950
29.37258,40366
29.38070,40352
29.38883,45371
29.39695,43159
29.40508,43910
29.41320,49142
29.42132,46699
29.42945,45435
29.43757,45588
29.44568,47110
29.45382,43880
29.46193,45409
29.47007,46096
29.47818,45878
29.48630,49962
29.49443,49360
29.50255,45561
29.51068,45028
29.51880,46626
29.52692,45630
29.53505,48249
29.54317,46139
29.55128,43813
29.55942,43672
29.56753,45673
29.57567,40368
29.58378,43085
29.59190,40740
29.60003,40576
29.60815,43381
29.61628,41881
29.62440,40444
29.63252,45207
29.64065,40292
29.64877,42118
29.65690,42757
29.66502,40065
29.67313,46059
29.68127,47351
29.68938,49571
29.69750,49620
29.70563,49201
29.71375,49387
29.72188,51460
29.73000,44432
29.73812,45969
29.74625,44023
29.75437,43032
29.76250,37261
29.77062,39979
29.77873,38994
29.78687,35027
29.79498,37319
29.80312,39499
29.81123,36385
29.81935,38537
29.82748,39760
29.83560,38162
29.84372,38748
29.85185,38596
29.85997,36907
29.86810,42741
29.87622,52022
29.88433,57339
29.89247,70062
29.90058,76349
29.90872,79370
29.91683,80639
29.92495,71873
29.93308,58050
29.94120,52638
29.94932,53830
29.95745,53095
29.96557,56006
29.97370,60682
29.98182,63440
29.98993,67455
29.99807,71803
30.00618,80249
30.01432,83042
30.02243,84403
30.03055,88147
30.03868,91600
30.04680,94650
30.05493,93208
30.06305,99737
30.07117,95662
30.07930,99060
30.08742,96063
30.09553,89909
30.10367,88671
30.11178,90836
30.11992,87625
30.12803,82139
30.13615,81199
30.14428,74468
30.15240,74537
30.16053,68226
30.16865,70531
30.17677,70181
30.18490,70407
30.19302,67746
30.20113,66103
30.20927,63297
30.21738,61002
30.22552,60259
30.23363,54643
30.24175,60915
30.24988,58816
30.25800,54008
30.26613,53419
30.27425,50589
30.28237,51683
30.29050,50020
30.29862,51382
30.30675,51080
30.31487,48876
30.32298,48360
30.33112,50696
30.33923,48956
30.34735,48640
30.35548,50663
30.36360,45045
30.37173,50778
30.37985,48739
30.38797,50111
30.39610,46365
30.40422,42456
30.41235,46748
30.42047,43560
30.42858,41693
30.43672,42620
30.44483,41012
30.45297,46278
30.46108,48992
30.46920,42527
30.47733,44147
30.48545,43618
30.49357,45711
30.50170,46697
30.50982,43370
30.51795,43320
30.52607,39887
30.53418,43418
30.54232,39814
30.55043,44554
30.55857,41856
30.56668,45198
30.57480,41654
30.58293,43104
30.59105,42333
30.59917,42541
30.60730,42279
30.61542,38475
30.62355,43451
30.63167,41785
30.63978,39196
30.64792,40857
30.65603,37594
30.66417,40405
30.67228,42587
30.68040,42131
30.68853,40503
30.69665,35187
30.70478,40780
30.71290,38364
30.72102,39116
30.72915,40271
30.73727,38382
30.74538,38274
30.75352,42029
30.76163,41167
30.76977,45710
30.77788,51034
30.78600,54447
30.79413,70928
30.80225,81821
30.81038,92505
30.81850,96764
30.82662,88410
30.83475,75805
30.84287,66261
30.85100,55941
30.85912,47262
30.86723,47079
30.87537,43446
30.88348,44670
30.89160,42125
30.89973,43681
30.90785,52849
30.91598,49794
30.92410,54404
30.93222,52865
30.94035,52036
30.94847,57860
30.95660,56725
30.96472,56843
30.97283,54690
30.98097,56536
30.98908,56221
30.99720,56265
31.00533,60623
31.01345,60798
31.02158,58730
31.02970,61339
31.03782,62552
31.04595,59112
31.05407,62843
31.06220,66517
31.07032,59197
31.07843,65126
31.08657,67298
31.09468,73051
31.10282,79594
31.11093,85776
31.11905,80847
31.12718,75833
31.13530,74714
31.14342,69742
31.15155,74740
31.15967,67601
31.16780,70790
31.17592,74133
31.18403,72901
31.19217,85094
31.20028,92331
31.20842,115852
31.21653,130168
31.22465,139798
31.23278,142296
31.24090,136711
31.24903,123201
31.25715,103142
31.26527,82018
31.27340,73530
31.28152,66409
31.28963,62634
31.29777,62038
31.30588,58906
31.31402,58789
31.32213,61923
31.33025,63427
31.33838,63589
31.34650,64652
31.35463,63210
31.36275,61485
31.37087,61731
31.37900,61566
31.38712,59651
31.39523,67958
31.40337,61797
31.41148,60261
31.41962,58962
31.42773,53916
31.43585,53202
31.44398,51047
31.45210,52052
31.46023,52789
31.46835,54627
31.47647,50120
31.48460,53173
31.49272,53128
31.50085,53379
31.50897,52210
31.51708,51075
31.52522,54461
31.53333,53787
31.54145,53417
31.54958,51288
31.55770,50505
31.56583,53871
31.57395,56398
31.58207,50754
31.59020,49366
31.59832,53661
31.60645,49365
31.61457,46989
31.62268,51515
31.63082,53009
31.63893,51698
31.64705,49604
31.65518,49410
31.66330,52206
31.67143,50770
31.67955,49790
31.68767,55826
31.69580,50601
31.70392,56391
31.71205,45963
31.72017,46083
31.72828,51839
31.73642,49143
31.74453,43847
31.75267,48790
31.76078,50734
31.76890,49195
31.77703,45993
31.78515,45103
31.79327,45917
31.80140,45913
31.80952,44202
31.81765,49473
31.82577,48702
31.83388,45814
31.84202,45018
31.85013,49818
31.85827,48052
31.86638,51639
31.87450,55354
31.88263,53152
31.89075,56369
31.89888,56968
31.90700,64988
31.91512,69535
31.92325,78225
31.93137,76299
31.93948,80943
31.94762,83693
31.95573,92155
31.96387,85241
31.97198,91763
31.98010,96551
31.98823,90863
31.99635,94213
32.00448,94280
32.01260,90764
32.02072,88279
32.02885,91207
32.03697,83354
32.04508,81158
32.05322,83512
32.06133,83265
32.06947,79664
32.07758,77168
32.08570,70562
32.09383,65702
32.10195,70054
32.11008,64686
32.11820,61676
32.12632,58948
32.13445,62228
32.14257,62218
32.15070,56798
32.15882,55372
32.16693,56940
32.17507,56635
32.18318,53871
32.19130,57080
32.19943,54285
32.20755,53375
32.21568,47718
32.22380,48602
32.23192,51265
32.24005,49832
32.24817,53814
32.25630,55234
32.26442,52363
32.27253,55080
32.28067,51837
32.28878,50273
32.29692,57316
32.30503,50959
32.31315,48292
32.32128,47695
32.32940,47632
32.33752,46412
32.34565,47095
32.35377,47397
32.36190,52620
32.37002,47413
32.37813,49393
32.38627,47909
32.39438,47047
32.40252,45497
32.41063,43756
32.41875,40458
32.42688,42059
32.43500,44456
32.44312,45020
32.45125,43255
32.45937,45786
32.46750,46932
32.47562,43722
32.48373,44075
32.49187,44636
32.49998,43016
32.50812,44962
32.51623,45032
32.52435,40232
32.53248,41395
32.54060,46133
32.54873,44805
32.55685,42582
32.56497,45870
32.57310,45649
32.58122,45789
32.58933,42246
32.59747,40961
32.60558,42115
32.61372,43292
32.62183,41880
32.62995,44441
32.63808,47161
32.64620,49063
32.65433,48956
32.66245,54857
32.67057,57925
32.67870,61243
32.68682,60717
32.69493,51590
32.70307,51831
32.71118,49672
32.71932,47849
32.72743,47686
32.73555,46774
32.74368,43436
32.75180,44416
32.75993,46390
32.76805,40913
32.77617,40838
32.78430,42775
32.79242,43218
32.80055,46542
32.80867,44827
32.81678,43061
32.82492,42496
32.83303,41490
32.84115,38808
32.84928,41600
32.85740,43710
32.86553,40078
32.87365,39367
32.88177,43905
32.88990,42891
32.89802,47136
32.90615,44094
32.91427,48975
32.92238,46116
32.93052,46961
32.93863,41813
32.94677,39917
32.95488,40982
32.96300,46428
32.97113,46408
32.97925,52212
32.98737,55314
32.99550,60080
33.00362,63041
33.01175,65257
33.01987,64204
33.02798,60242
33.03612,56897
33.04423,53270
33.05237,53128
33.06048,53888
33.06860,57418
33.07673,56264
33.08485,59875
33.09298,61495
33.10110,62581
33.10922,68810
33.11735,70841
33.12547,68330
33.13358,67499
33.14172,65024
33.14983,60951
33.15797,56460
33.16608,54167
33.17420,48582
33.18233,48011
33.19045,50395
33.19858,44547
33.20670,46542
33.21482,48102
33.22295,42993
33.23107,43954
33.23918,44723
33.24732,44701
33.25543,40883
33.26357,43521
33.27168,47118
33.27980,45179
33.28793,43369
33.29605,44242
33.30418,43956
33.31230,44697
33.32042,43692
33.32855,42626
33.33667,44714
33.34480,44921
33.35292,47627
33.36103,46427
33.36917,50509
33.37728,47125
33.38540,45212
33.39353,45769
33.40165,46499
33.40978,42420
33.41790,47106
33.42602,43728
33.43415,43787
33.44227,44002
33.45040,42058
33.45852,41266
33.46663,46223
33.47477,42096
33.48288,38274
33.49100,42206
33.49913,41894
33.50725,43346
33.51538,42472
33.52350,45666
33.53162,46028
33.53975,47110
33.54787,44451
33.55600,52518
33.56412,51890
33.57223,51691
33.58037,48858
33.58848,44839
33.59662,44773
33.60473,43086
33.61285,42255
33.62098,43182
33.62910,42998
33.63722,45006
33.64535,43864
33.65347,47956
33.66160,49436
33.66972,46641
33.67783,46674
33.68597,43708
33.69408,43171
33.70222,45597
33.71033,42093
33.71845,39192
33.72658,41910
33.73470,43282
33.74283,46297
33.75095,44219
33.75907,45536
33.76720,43426
33.77532,42105
33.78343,39927
33.79157,41358
33.79968,37333
33.80782,40312
33.81593,41099
33.82405,47145
33.83218,40779
33.84030,41733
33.84843,38895
33.85655,42647
33.86467,44209
33.87280,46372
33.88092,46686
33.88903,45894
33.89717,44818
33.90528,45510
33.91342,45528
33.92153,41853
33.92965,44359
33.93778,41351
33.94590,47258
33.95403,42445
33.96215,43324
33.97027,46237
33.97840,43302
33.98652,40824
33.99465,45653
34.00277,38157
34.01088,42453
34.01902,43535
34.02713,42848
34.03525,42221
34.04338,42518
34.05150,43295
34.05963,41094
34.06775,40425
34.07587,41551
34.08400,44033
34.09212,43844
34.10025,41749
34.10837,41910
34.11648,43485
34.12462,41730
34.13273,46328
34.14087,42276
34.14898,43268
34.15710,44825
34.16523,44234
34.17335,44827
34.18147,41541
34.18960,44652
34.19772,41121
34.20585,42098
34.21397,44480
34.22208,41541
34.23022,46249
34.23833,44843
34.24647,42642
34.25458,42356
34.26270,38851
34.27083,45005
34.27895,46762
34.28707,43751
34.29520,45193
34.30332,44228
34.31145,42388
34.31957,42488
34.32768,41337
34.33582,45386
34.34393,42396
34.35207,44011
34.36018,43863
34.36830,45877
34.37643,48061
34.38455,42398
34.39268,42683
34.40080,39821
34.40892,48482
34.41705,39890
34.42517,44774
34.43328,43069
34.44142,47140
34.44953,44092
34.45767,44028
34.46578,41354
34.47390,42335
34.48203,44604
34.49015,44437
34.49828,46631
34.50640,48210
34.51452,52786
34.52265,63069
34.53077,64830
34.53888,72614
34.54702,81527
34.55513,81040
34.56327,87458
34.57138,83844
34.57950,79010
34.58763,75218
34.59575,74456
34.60388,67202
34.61200,65785
34.62012,63191
34.62825,59647
34.63637,61868
34.64450,58079
34.65262,55664
34.66073,60665
34.66887,52583
34.67698,53562
34.68510,56503
34.69323,48001
34.70135,51199
34.70948,49264
34.71760,46067
34.72572,50195
34.73385,46620
34.74197,52612
34.75010,52833
34.75822,47251
34.76633,49509
34.77447,50343
34.78258,48877
34.79072,48623
34.79883,51988
34.80695,44997
34.81508,51411
34.82320,44333
34.83132,43437
34.83945,48388
34.84757,45774
34.85570,46539
34.86382,44237
34.87193,46772
34.88007,48030
34.88818,48642
34.89632,49422
34.90443,47273
34.91255,50091
34.92068,49467
34.92880,47915
34.93692,52445
34.94505,53444
34.95317,51313
34.96130,56414
34.96942,57610
34.97753,59610
34.98567,53775
34.99378,55831
35.00192,54219
35.01003,51675
35.01815,49048
35.02628,46788
35.03440,50756
35.04253,43572
35.05065,48179
35.05877,50367
35.06690,46239
35.07502,46251
35.08313,49828
35.09127,46863
35.09938,48010
35.10752,45505
35.11563,45580
35.12375,44938
35.13188,44375
35.14000,50235
35.14813,49943
35.15625,49038
35.16437,51670
35.17250,46390
35.18062,47297
35.18875,48470
35.19687,50516
35.20498,43871
35.21312,45487
35.22123,45249
35.22935,48884
35.23748,46944
35.24560,44449
35.25373,46050
35.26185,45271
35.26997,46750
35.27810,49730
35.28622,46709
35.29435,44954
35.30247,49572
35.31058,45783
35.31872,41768
35.32683,44386
35.33495,42602
35.34308,45862
35.35120,45247
35.35933,43417
35.36745,42245
35.37557,47569
35.38370,43800
35.39182,49251
35.39995,47456
35.40807,49070
35.41618,49283
35.42432,49972
35.43243,50455
35.44057,52207
35.44868,48653
35.45680,54424
35.46493,48707
35.47305,49517
35.48117,50687
35.48930,50141
35.49742,51621
35.50555,50480
35.51367,53010
35.52178,51554
35.52992,44386
35.53803,47051
35.54617,48010
35.55428,49016
35.56240,46023
35.57053,49424
35.57865,48436
35.58678,48459
35.59490,44709
35.60302,47276
35.61115,47326
35.61927,45845
35.62738,44623
35.63552,45683
35.64363,46222
35.65177,47417
35.65988,46387
35.66800,50068
35.67613,50895
35.68425,51534
35.69238,49069
35.70050,46322
35.70862,43499
35.71675,51566
35.72487,46979
35.73298,46460
35.74112,49572
35.74923,52022
35.75737,49532
35.76548,55299
35.77360,55081
35.78173,53664
35.78985,55894
35.79798,48433
35.80610,49642
35.81422,50812
35.82235,51421
35.83047,47504
35.83860,47714
35.84672,43182
35.85483,48699
35.86297,48646
35.87108,46199
35.87920,44904
35.88733,46903
35.89545,47068
35.90358,47419
35.91170,44195
35.91982,49521
35.92795,48748
35.93607,47007
35.94420,45780
35.95232,44267
35.96043,47596
35.96857,47626
35.97668,47787
35.98480,47443
35.99293,48618
36.00105,46526
36.00918,55246
36.01730,58046
36.02542,47743
36.03355,47678
36.04167,52340
36.04980,55969
36.05792,52283
36.06603,47468
36.07417,46847
36.08228,51945
36.09042,48635
36.09853,45153
36.10665,49194
36.11478,48862
36.12290,50714
36.13102,49405
36.13915,50771
36.14727,48160
36.15540,51946
36.16352,53155
36.17163,46452
36.17977,46876
36.18788,49341
36.19602,49394
36.20413,45603
36.21225,47623
36.22038,44369
36.22850,48078
36.23663,46636
36.24475,48444
36.25287,43066
36.26100,48121
36.26912,49773
36.27723,48182
36.28537,56438
36.29348,57690
36.30162,61838
36.30973,70156
36.31785,64623
36.32598,59893
36.33410,57419
36.34223,51223
36.35035,45974
36.35847,53078
36.36660,50041
36.37472,58338
36.38283,47965
36.39097,50191
36.39908,54026
36.40722,50951
36.41533,50825
36.42345,51843
36.43158,52483
36.43970,50035
36.44783,52596
36.45595,50778
36.46407,48323
36.47220,52695
36.48032,47707
36.48845,52457
36.49657,46084
36.50468,51721
36.51282,52019
36.52093,49510
36.52905,53655
36.53718,53027
36.54530,52297
36.55343,56767
36.56155,58433
36.56967,52333
36.57780,52969
36.58592,54831
36.59405,57705
36.60217,51425
36.61028,52199
36.61842,59107
36.62653,59411
36.63467,57019
36.64278,56473
36.65090,56475
36.65903,60940
36.66715,55968
36.67527,54344
36.68340,53645
36.69152,52452
36.69965,54438
36.70777,50154
36.71588,55104
36.72402,53488
36.73213,58135
36.74027,54739
36.74838,55144
36.75650,52020
36.76463,57104
36.77275,59358
36.78087,53084
36.78900,55266
36.79712,52214
36.80525,55267
36.81337,52173
36.82148,53963
36.82962,52512
36.83773,56333
36.84587,55626
36.85398,53543
36.86210,47274
36.87023,55986
36.87835,53191
36.88648,56737
36.89460,51783
36.90272,55453
36.91085,52264
36.91897,52260
36.92708,58744
36.93522,53352
36.94333,58578
36.95147,64662
36.95958,64947
36.96770,66439
36.97583,71541
36.98395,65115
36.99208,66607
37.00020,57044
37.00832,55252
37.01645,58437
37.02457,53358
37.03268,55269
37.04082,53033
37.04893,55824
37.05707,60968
37.06518,55435
37.07330,56111
37.08143,59334
37.08955,53739
37.09768,59557
37.10580,56435
37.11392,54039
37.12205,52569
37.13017,54971
37.13830,57969
37.14642,57441
37.15453,53278
37.16267,54574
37.17078,55313
37.17890,53352
37.18703,56009
37.19515,56208
37.20328,54407
37.21140,55622
37.21952,56831
37.22765,53611
37.23577,54388
37.24390,52407
37.25202,53552
37.26013,51401
37.26827,53660
37.27638,56017
37.28452,51420
37.29263,54967
37.30075,55589
37.30888,56293
37.31700,65966
37.32512,67754
37.33325,76751
37.34137,81608
37.34950,84887
37.35762,89062
37.36573,80610
37.37387,86916
37.38198,83426
37.39012,78065
37.39823,78139
37.40635,75247
37.41448,73056
37.42260,70636
37.43072,73127
37.43885,71306
37.44697,69899
37.45510,74459
37.46322,65308
37.47133,66496
37.47947,68815
37.48758,64737
