C:\MassHunter\GCMS\1\data\JTB-E02\BACandBLUE\JTB-E18-011-12.D Tue Jun 18 14:28:55 2019
Start of data points
2.09520	86139
2.10332	84385
2.11143	86946
2.11957	87613
2.12768	90896
2.13582	84647
2.14393	86949
2.15205	83994
2.16018	85657
2.16830	83946
2.17642	82927
2.18455	83302
2.19267	84601
2.20080	79608
2.20892	85795
2.21703	80471
2.22517	78868
2.23328	75208
2.24142	74556
2.24953	74669
2.25765	75896
2.26578	89279
2.27390	451840
2.28202	1613559
2.29015	1303731
2.29827	545044
2.30640	355776
2.31452	283430
2.32263	233894
2.33077	223922
2.33888	210093
2.34702	188149
2.35513	175971
2.36325	170747
2.37138	157875
2.37950	159730
2.38763	158902
2.39575	145688
2.40387	139389
2.41200	140300
2.42012	134905
2.42823	149897
2.43637	137359
2.44448	128033
2.45262	128581
2.46073	121963
2.46885	119393
2.47698	108813
2.48510	112656
2.49323	141556
2.50135	165483
2.50947	129695
2.51760	121008
2.52572	119554
2.53385	110600
2.54197	109199
2.55008	117888
2.55822	161539
2.56633	291491
2.57445	251814
2.58258	186546
2.59070	157723
2.59883	144080
2.60695	214469
2.61507	534713
2.62320	611996
2.63132	390625
2.63945	261410
2.64757	194460
2.65568	166763
2.66382	153976
2.67193	139497
2.68005	132026
2.68818	129060
2.69630	121616
2.70443	116492
2.71255	114133
2.72067	115425
2.72880	113366
2.73692	113374
2.74505	106450
2.75317	108919
2.76128	108218
2.76942	108247
2.77753	137619
2.78567	388608
2.79378	740611
2.80190	566744
2.81003	333205
2.81815	281302
2.82627	281833
2.83440	262099
2.84252	250008
2.85065	212730
2.85877	180077
2.86688	161689
2.87502	158523
2.88313	140970
2.89127	144434
2.89938	135384
2.90750	125007
2.91563	123779
2.92375	120729
2.93187	117367
2.94000	117629
2.94812	116999
2.95625	118740
2.96437	120306
2.97248	121314
2.98062	117760
2.98873	120816
2.99687	122888
3.00498	128788
3.01310	137633
3.02123	129153
3.02935	122033
3.03748	121072
3.04560	110147
3.05372	109354
3.06185	116294
3.06997	124681
3.07808	139240
3.08622	326982
3.09433	1034772
3.10247	2021112
3.11058	3436816
3.11870	4147674
3.12683	2904389
3.13495	1810541
3.14308	1328551
3.15120	1035537
3.15932	853056
3.16745	721548
3.17557	667242
3.18370	664632
3.19182	958714
3.19993	1452187
3.20807	1352731
3.21618	971504
3.22430	758642
3.23243	636723
3.24055	546250
3.24868	466238
3.25680	426388
3.26492	376760
3.27305	356404
3.28117	344698
3.28930	487751
3.29742	1455973
3.30553	4077596
3.31367	7148933
3.32178	7594804
3.32990	5702852
3.33803	3815505
3.34615	2717842
3.35428	2033441
3.36240	1629692
3.37052	1367208
3.37865	1164172
3.38677	1012188
3.39490	912220
3.40302	812209
3.41113	738078
3.41927	701899
3.42738	659251
3.43552	620874
3.44363	604239
3.45175	557058
3.45988	520834
3.46800	527671
3.47612	562646
3.48425	558690
3.49237	520245
3.50050	475354
3.50862	452430
3.51673	444684
3.52487	437134
3.53298	441301
3.54112	452952
3.54923	444938
3.55735	425114
3.56548	405940
3.57360	398694
3.58173	418345
3.58985	407040
3.59797	380368
3.60610	364728
3.61422	366597
3.62233	365539
3.63047	386823
3.63858	410311
3.64672	427306
3.65483	414872
3.66295	613241
3.67108	2416134
3.67920	7666623
3.68733	1.177736E+07
3.69545	9871084
3.70357	5910733
3.71170	3831267
3.71982	3007528
3.72793	2486238
3.73607	2113428
3.74418	1891209
3.75232	1688020
3.76043	1545832
3.76855	1402911
3.77668	1309559
3.78480	1212642
3.79293	1148592
3.80105	1126157
3.80917	1376777
3.81730	2054550
3.82542	2398634
3.83355	1999830
3.84167	1512929
3.84978	1264268
3.85792	1132039
3.86603	1015470
3.87415	944960
3.88228	871518
3.89040	824253
3.89853	775444
3.90665	741360
3.91477	749400
3.92290	806765
3.93102	920911
3.93915	958240
3.94727	944984
3.95538	1346622
3.96352	2693855
3.97163	4147385
3.97977	3915595
3.98788	2600719
3.99600	2109136
4.00413	4562436
4.01225	1.137487E+07
4.02037	1.778844E+07
4.02850	1.649768E+07
4.03662	9900181
4.04475	4818747
4.05287	2703358
4.06098	1878377
4.06912	1445465
4.07723	1206507
4.08537	1041819
4.09348	928559
4.10160	858637
4.10973	796960
4.11785	744715
4.12597	691878
4.13410	671326
4.14222	682880
4.15035	762151
4.15847	751612
4.16658	699824
4.17472	648743
4.18283	637111
4.19097	596088
4.19908	548719
4.20720	648003
4.21533	1517194
4.22345	4826802
4.23158	1.078668E+07
4.23970	1.499696E+07
4.24782	1.429291E+07
4.25595	9776141
4.26407	5812869
4.27218	3845640
4.28032	2779591
4.28843	2099743
4.29657	1698362
4.30468	1439472
4.31280	1234622
4.32093	1093998
4.32905	1005243
4.33718	910967
4.34530	871039
4.35342	839433
4.36155	845158
4.36967	878881
4.37778	865146
4.38592	794910
4.39403	713800
4.40217	664416
4.41028	625881
4.41840	580029
4.42653	572274
4.43465	552161
4.44278	532886
4.45090	512415
4.45902	514401
4.46715	496797
4.47527	487216
4.48340	475732
4.49152	465534
4.49963	448743
4.50777	444282
4.51588	440043
4.52400	434369
4.53213	434930
4.54025	428911
4.54838	425603
4.55650	421660
4.56462	420379
4.57275	412051
4.58087	392221
4.58900	383887
4.59712	368082
4.60523	364745
4.61337	372772
4.62148	392547
4.62962	476716
4.63773	642527
4.64585	830908
4.65398	863521
4.66210	713060
4.67022	561404
4.67835	491757
4.68647	458745
4.69460	437637
4.70272	393911
4.71083	377090
4.71897	355776
4.72708	354067
4.73522	351613
4.74333	339725
4.75145	330547
4.75958	339546
4.76770	318280
4.77582	312051
4.78395	328148
4.79207	373345
4.80020	541693
4.80832	768476
4.81643	874354
4.82457	761986
4.83268	613994
4.84082	536193
4.84893	512898
4.85705	490157
4.86518	465623
4.87330	424422
4.88143	384087
4.88955	371960
4.89767	348342
4.90580	345605
4.91392	334079
4.92203	330104
4.93017	352041
4.93828	512824
4.94642	1016608
4.95453	2052787
4.96265	3385136
4.97078	4179426
4.97890	3896721
4.98703	3043162
4.99515	2190989
5.00327	1613851
5.01140	1252156
5.01952	1038176
5.02765	905510
5.03577	894916
5.04388	931033
5.05202	901045
5.06013	805877
5.06825	722563
5.07638	647976
5.08450	616102
5.09263	602728
5.10075	578645
5.10887	563321
5.11700	526296
5.12512	511099
5.13325	500529
5.14137	487982
5.14948	476222
5.15762	529106
5.16573	584020
5.17385	620592
5.18198	614331
5.19010	563704
5.19823	540774
5.20635	559439
5.21447	578552
5.22260	582302
5.23072	536354
5.23885	517422
5.24697	493221
5.25508	472028
5.26322	437997
5.27133	404992
5.27947	372075
5.28758	358660
5.29570	357281
5.30383	346470
5.31195	342019
5.32007	342189
5.32820	356488
5.33632	388183
5.34445	386137
5.35257	401085
5.36068	384252
5.36882	359923
5.37693	344319
5.38507	354645
5.39318	375725
5.40130	389062
5.40943	399051
5.41755	375883
5.42567	353447
5.43380	334999
5.44192	331413
5.45005	340702
5.45817	362529
5.46628	357553
5.47442	353018
5.48253	338789
5.49067	325842
5.49878	300088
5.50690	294551
5.51503	297883
5.52315	295564
5.53128	294969
5.53940	287288
5.54752	285311
5.55565	320424
5.56377	396022
5.57188	520837
5.58002	615999
5.58813	612114
5.59627	511833
5.60438	413504
5.61250	354556
5.62063	310260
5.62875	313312
5.63688	320046
5.64500	322647
5.65312	311367
5.66125	303540
5.66937	298957
5.67750	293220
5.68562	320296
5.69373	337539
5.70187	350115
5.70998	329920
5.71810	314553
5.72623	305756
5.73435	282442
5.74248	270107
5.75060	262083
5.75872	272012
5.76685	259105
5.77497	266656
5.78310	256236
5.79122	252224
5.79933	247364
5.80747	249858
5.81558	253755
5.82370	243843
5.83183	252826
5.83995	253423
5.84808	249810
5.85620	248490
5.86432	252218
5.87245	249834
5.88057	250143
5.88870	249624
5.89682	243117
5.90493	245444
5.91307	228559
5.92118	205282
5.92932	197847
5.93743	187219
5.94555	189425
5.95368	208142
5.96180	221471
5.96992	262422
5.97805	304178
5.98617	357197
5.99430	388275
6.00242	374229
6.01053	319639
6.01867	274840
6.02678	231782
6.03492	213409
6.04303	201332
6.05115	190278
6.05928	188773
6.06740	175534
6.07553	175227
6.08365	174896
6.09177	172114
6.09990	183580
6.10802	193546
6.11613	216370
6.12427	236500
6.13238	294024
6.14052	390466
6.14863	498737
6.15675	526793
6.16488	461079
6.17300	365855
6.18113	287812
6.18925	262940
6.19737	253062
6.20550	243500
6.21362	254933
6.22173	256255
6.22987	240123
6.23798	229295
6.24612	221070
6.25423	230847
6.26235	254324
6.27048	259902
6.27860	246040
6.28673	225266
6.29485	217791
6.30297	216674
6.31110	204886
6.31922	211233
6.32735	230651
6.33547	261887
6.34358	288547
6.35172	291200
6.35983	281511
6.36795	246840
6.37608	230868
6.38420	227983
6.39233	224944
6.40045	222508
6.40857	217662
6.41670	214627
6.42482	207256
6.43295	214049
6.44107	217906
6.44918	213350
6.45732	213711
6.46543	217687
6.47355	214996
6.48168	217675
6.48980	220128
6.49793	220126
6.50605	219001
6.51417	213602
6.52230	221707
6.53042	222077
6.53855	227881
6.54667	224352
6.55478	219434
6.56292	247291
6.57103	304775
6.57917	419562
6.58728	502070
6.59540	497479
6.60353	410132
6.61165	330748
6.61977	277317
6.62790	254009
6.63602	253384
6.64415	278038
6.65227	422624
6.66038	873644
6.66852	1638371
6.67663	2296380
6.68477	2258973
6.69288	1663171
6.70100	1195370
6.70913	774148
6.71725	571127
6.72538	441608
6.73350	382365
6.74162	349127
6.74975	316205
6.75787	296491
6.76598	273563
6.77412	263438
6.78223	244833
6.79037	227018
6.79848	224218
6.80660	210537
6.81473	209522
6.82285	194223
6.83098	194336
6.83910	196707
6.84722	193893
6.85535	206642
6.86347	197793
6.87160	195800
6.87972	186251
6.88783	168522
6.89597	143256
6.90408	132681
6.91220	128718
6.92033	116117
6.92845	113359
6.93658	114335
6.94470	103194
6.95282	106424
6.96095	107583
6.96907	122631
6.97720	137922
6.98532	161687
6.99343	168074
7.00157	159809
7.00968	137786
7.01780	129168
7.02593	129788
7.03405	115761
7.04218	117195
7.05030	127667
7.05842	131168
7.06655	150227
7.07467	164395
7.08280	175808
7.09092	159224
7.09903	149918
7.10717	134836
7.11528	118190
7.12342	111193
7.13153	108024
7.13965	121533
7.14778	164778
7.15590	254571
7.16402	364021
7.17215	407762
7.18027	378963
7.18840	311503
7.19652	293214
7.20463	489241
7.21277	992452
7.22088	1683804
7.22902	2054312
7.23713	1806604
7.24525	1211436
7.25338	684957
7.26150	419099
7.26962	270216
7.27775	189875
7.28587	153908
7.29400	137998
7.30212	132527
7.31023	126027
7.31837	129944
7.32648	135662
7.33462	148247
7.34273	135022
7.35085	141716
7.35898	129965
7.36710	135031
7.37523	120810
7.38335	119896
7.39147	116980
7.39960	117288
7.40772	117350
7.41583	112162
7.42397	118187
7.43208	112061
7.44022	109570
7.44833	111547
7.45645	108039
7.46458	107545
7.47270	108879
7.48083	107434
7.48895	104069
7.49707	101072
7.50520	97710
7.51332	101360
7.52145	120271
7.52957	178018
7.53768	316052
7.54582	604925
7.55393	1038988
7.56205	1499532
7.57018	1889143
7.57830	1958990
7.58643	1668543
7.59455	1251520
7.60267	810717
7.61080	508403
7.61892	294453
7.62705	198819
7.63517	161164
7.64328	141958
7.65142	120108
7.65953	113777
7.66765	102882
7.67578	104744
7.68390	99061
7.69203	97814
7.70015	100022
7.70827	96177
7.71640	101437
7.72452	106731
7.73265	104712
7.74077	111108
7.74888	113719
7.75702	105997
7.76513	110917
7.77327	109829
7.78138	115753
7.78950	110169
7.79763	127000
7.80575	125084
7.81387	136885
7.82200	134370
7.83012	128262
7.83825	119416
7.84637	108914
7.85448	103502
7.86262	105661
7.87073	112675
7.87887	124301
7.88698	138122
7.89510	159544
7.90323	158512
7.91135	145373
7.91948	138376
7.92760	129653
7.93572	128066
7.94385	149939
7.95197	165533
7.96008	161682
7.96822	148046
7.97633	127220
7.98447	110273
7.99258	95204
8.00070	86903
8.00883	84097
8.01695	84555
8.02508	85520
8.03320	82224
8.04132	82139
8.04945	77922
8.05757	77747
8.06568	78728
8.07382	85663
8.08193	82551
8.09007	75405
8.09818	77471
8.10630	78990
8.11443	77687
8.12255	76291
8.13068	81717
8.13880	96068
8.14692	109900
8.15505	121882
8.16317	132880
8.17130	123027
8.17942	108589
8.18753	102748
8.19567	84033
8.20378	85674
8.21190	77788
8.22003	80927
8.22815	91843
8.23628	86393
8.24440	83859
8.25252	82301
8.26065	79406
8.26877	79870
8.27690	71571
8.28502	71791
8.29313	72280
8.30127	73810
8.30938	75823
8.31750	78366
8.32563	89171
8.33375	91561
8.34188	90868
8.35000	87400
8.35812	81799
8.36625	79849
8.37437	77683
8.38250	83307
8.39062	86814
8.39873	80437
8.40687	78049
8.41498	73468
8.42312	66218
8.43123	69457
8.43935	68882
8.44748	65014
8.45560	63229
8.46372	68228
8.47185	68924
8.47997	64991
8.48810	67035
8.49622	62969
8.50433	66851
8.51247	78938
8.52058	116290
8.52872	201083
8.53683	330816
8.54495	461613
8.55308	471524
8.56120	386933
8.56933	256775
8.57745	157392
8.58557	118528
8.59370	111667
8.60182	121940
8.60993	133832
8.61807	138867
8.62618	130712
8.63432	114465
8.64243	92802
8.65055	85197
8.65868	83957
8.66680	77421
8.67493	72846
8.68305	71924
8.69117	75963
8.69930	81180
8.70742	83308
8.71553	81211
8.72367	86152
8.73178	82783
8.73992	77715
8.74803	81324
8.75615	117773
8.76428	236526
8.77240	518082
8.78053	928574
8.78865	1342398
8.79677	1535064
8.80490	1349047
8.81302	965996
8.82115	647829
8.82927	409490
8.83738	320132
8.84552	270921
8.85363	260335
8.86175	241221
8.86988	226623
8.87800	204256
8.88613	191438
8.89425	182186
8.90237	174374
8.91050	167562
8.91862	166357
8.92675	168238
8.93487	178541
8.94298	194793
8.95112	194251
8.95923	190044
8.96737	174323
8.97548	165346
8.98360	174774
8.99173	179432
8.99985	180134
9.00797	169202
9.01610	155464
9.02422	144989
9.03235	136465
9.04047	123381
9.04858	130072
9.05672	122834
9.06483	121503
9.07297	119974
9.08108	122343
9.08920	122934
9.09733	133835
9.10545	152734
9.11357	174974
9.12170	201278
9.12982	202608
9.13795	187583
9.14607	168093
9.15418	144893
9.16232	132865
9.17043	122915
9.17857	121458
9.18668	117016
9.19480	119684
9.20293	109130
9.21105	110763
9.21918	104518
9.22730	107721
9.23542	103131
9.24355	107610
9.25167	114781
9.25978	114057
9.26792	112405
9.27603	114635
9.28417	110777
9.29228	106699
9.30040	110032
9.30853	100544
9.31665	100427
9.32478	98487
9.33290	95450
9.34102	97118
9.34915	96607
9.35727	92829
9.36540	91251
9.37352	95848
9.38163	95375
9.38977	91711
9.39788	95665
9.40600	98354
9.41413	121073
9.42225	138205
9.43038	173503
9.43850	219208
9.44662	235299
9.45475	248272
9.46287	219203
9.47100	178625
9.47912	140302
9.48723	119282
9.49537	108934
9.50348	101756
9.51160	113254
9.51973	140565
9.52785	155955
9.53598	161371
9.54410	156252
9.55222	133900
9.56035	121002
9.56847	102856
9.57660	88691
9.58472	80472
9.59283	74403
9.60097	70464
9.60908	67639
9.61722	66159
9.62533	65117
9.63345	64117
9.64158	58895
9.64970	62365
9.65782	63172
9.66595	57812
9.67407	62059
9.68220	63087
9.69032	60916
9.69843	57497
9.70657	56288
9.71468	56173
9.72282	54787
9.73093	57140
9.73905	53997
9.74718	51498
9.75530	51876
9.76342	53155
9.77155	54388
9.77967	53973
9.78780	58063
9.79592	50719
9.80403	51714
9.81217	51758
9.82028	58889
9.82842	52055
9.83653	51986
9.84465	55800
9.85278	53518
9.86090	57302
9.86903	57226
9.87715	58015
9.88527	58237
9.89340	53038
9.90152	54169
9.90963	53941
9.91777	55166
9.92588	62586
9.93402	75621
9.94213	104611
9.95025	153259
9.95838	198894
9.96650	222852
9.97463	202467
9.98275	168100
9.99087	134841
9.99900	115535
10.00712	100318
10.01525	88129
10.02337	87949
10.03148	81099
10.03962	76367
10.04773	71407
10.05585	71623
10.06398	73730
10.07210	71545
10.08023	73253
10.08835	71553
10.09647	76680
10.10460	70390
10.11272	69372
10.12085	65277
10.12897	62858
10.13708	66367
10.14522	64042
10.15333	59608
10.16145	58928
10.16958	57031
10.17770	56407
10.18583	57642
10.19395	57111
10.20207	56554
10.21020	57439
10.21832	59260
10.22645	59970
10.23457	72164
10.24268	77316
10.25082	89722
10.25893	124752
10.26707	244119
10.27518	538310
10.28330	1097588
10.29143	1888192
10.29955	2845253
10.30767	3993895
10.31580	5771768
10.32392	8311268
10.33205	1.083561E+07
10.34017	1.152299E+07
10.34828	1.010056E+07
10.35642	7536794
10.36453	5661859
10.37267	4598764
10.38078	3921963
10.38890	3212391
10.39703	2364369
10.40515	1592224
10.41328	1087550
10.42140	760695
10.42952	612962
10.43765	538296
10.44577	504135
10.45388	479037
10.46202	446296
10.47013	407502
10.47827	366827
10.48638	332247
10.49450	305618
10.50263	279111
10.51075	261730
10.51888	246602
10.52700	244144
10.53512	223492
10.54325	218574
10.55137	218365
10.55948	209576
10.56762	197604
10.57573	189552
10.58387	181199
10.59198	181377
10.60010	175421
10.60823	174904
10.61635	163147
10.62448	154392
10.63260	150980
10.64072	153703
10.64885	143196
10.65697	136776
10.66510	141446
10.67322	134590
10.68133	130883
10.68947	140612
10.69758	134369
10.70570	147924
10.71383	149600
10.72195	140036
10.73008	137239
10.73820	127925
10.74632	127060
10.75445	119620
10.76257	116231
10.77070	116436
10.77882	121531
10.78693	114333
10.79507	109314
10.80318	113369
10.81130	126739
10.81943	120756
10.82755	128707
10.83568	121523
10.84380	112945
10.85192	100558
10.86005	96003
10.86817	93331
10.87630	91630
10.88442	87868
10.89253	85100
10.90067	87270
10.90878	85985
10.91692	87562
10.92503	88719
10.93315	82134
10.94128	85427
10.94940	80070
10.95752	73439
10.96565	79928
10.97377	82651
10.98190	85998
10.99002	84594
10.99813	90584
11.00627	96836
11.01438	91739
11.02252	104632
11.03063	98735
11.03875	92811
11.04688	87619
11.05500	81201
11.06313	81724
11.07125	82898
11.07937	85856
11.08750	93537
11.09562	96883
11.10373	101434
11.11187	98848
11.11998	92880
11.12812	86282
11.13623	84497
11.14435	75352
11.15248	72592
11.16060	71516
11.16873	75320
11.17685	81690
11.18497	76721
11.19310	81986
11.20122	76256
11.20933	75493
11.21747	68488
11.22558	65628
11.23372	64322
11.24183	58060
11.24995	60109
11.25808	58926
11.26620	56148
11.27433	51835
11.28245	52662
11.29057	51983
11.29870	68514
11.30682	120533
11.31495	222231
11.32307	455841
11.33118	869572
11.33932	1359065
11.34743	1764742
11.35555	1888518
11.36368	1705878
11.37180	1292500
11.37993	879338
11.38805	591455
11.39617	409242
11.40430	314573
11.41242	270157
11.42055	223920
11.42867	200477
11.43678	160773
11.44492	134198
11.45303	113162
11.46117	101505
11.46928	99625
11.47740	100103
11.48553	107423
11.49365	115277
11.50177	134738
11.50990	132121
11.51802	138329
11.52615	125564
11.53427	111317
11.54238	107279
11.55052	106751
11.55863	99734
11.56677	91817
11.57488	96775
11.58300	94127
11.59113	104384
11.59925	113381
11.60737	131359
11.61550	157193
11.62362	164681
11.63175	162987
11.63987	142414
11.64798	118584
11.65612	100783
11.66423	94460
11.67237	91275
11.68048	92135
11.68860	100899
11.69673	102830
11.70485	110880
11.71298	111619
11.72110	108700
11.72922	100227
11.73735	91762
11.74547	81218
11.75358	74151
11.76172	76116
11.76983	72894
11.77797	64247
11.78608	67615
11.79420	65001
11.80233	61812
11.81045	60402
11.81858	61771
11.82670	59135
11.83482	63928
11.84295	61263
11.85107	60716
11.85918	59636
11.86732	63955
11.87543	57690
11.88357	52644
11.89168	53679
11.89980	55483
11.90793	62124
11.91605	61152
11.92418	61894
11.93230	70072
11.94042	67651
11.94855	63116
11.95667	62426
11.96480	61698
11.97292	76539
11.98103	126838
11.98917	256548
11.99728	459108
12.00540	707816
12.01353	874274
12.02165	934457
12.02978	729337
12.03790	521879
12.04602	344589
12.05415	245119
12.06227	188105
12.07040	157279
12.07852	146761
12.08663	143286
12.09477	146924
12.10288	153256
12.11102	166335
12.11913	213250
12.12725	261089
12.13538	325584
12.14350	368826
12.15162	369274
12.15975	319930
12.16787	249077
12.17600	191794
12.18412	148025
12.19223	133138
12.20037	127033
12.20848	123164
12.21662	114804
12.22473	111445
12.23285	109447
12.24098	104809
12.24910	101335
12.25723	101094
12.26535	103102
12.27347	98822
12.28160	96714
12.28972	91013
12.29783	93240
12.30597	87702
12.31408	84330
12.32222	79351
12.33033	79855
12.33845	73732
12.34658	81685
12.35470	75861
12.36283	77787
12.37095	72793
12.37907	78426
12.38720	79094
12.39532	82388
12.40343	99578
12.41157	113916
12.41968	133825
12.42782	137990
12.43593	130553
12.44405	126625
12.45218	108416
12.46030	111487
12.46843	96421
12.47655	92699
12.48467	91327
12.49280	90072
12.50092	78555
12.50905	80185
12.51717	81275
12.52528	92615
12.53342	112701
12.54153	186994
12.54965	307650
12.55778	487271
12.56590	620237
12.57403	631001
12.58215	529734
12.59027	369113
12.59840	238618
12.60652	169465
12.61465	135083
12.62277	117050
12.63088	109769
12.63902	104977
12.64713	98001
12.65525	89753
12.66338	82194
12.67150	80629
12.67963	75948
12.68775	71525
12.69587	70934
12.70400	65468
12.71212	64808
12.72025	64398
12.72837	67737
12.73648	73657
12.74462	66921
12.75273	71002
12.76087	67355
12.76898	63403
12.77710	60522
12.78523	58298
12.79335	55093
12.80147	58165
12.80960	56187
12.81772	52741
12.82585	56477
12.83397	51352
12.84208	50682
12.85022	50796
12.85833	49549
12.86647	47431
12.87458	50196
12.88270	49439
12.89083	47079
12.89895	50014
12.90708	46333
12.91520	43561
12.92332	45542
12.93145	52859
12.93957	50322
12.94768	62090
12.95582	93285
12.96393	161454
12.97207	260317
12.98018	369742
12.98830	414849
12.99643	378426
13.00455	299306
13.01268	200739
13.02080	136345
13.02892	104767
13.03705	95655
13.04517	81559
13.05328	75404
13.06142	67129
13.06953	64529
13.07767	66402
13.08578	62452
13.09390	66346
13.10203	58784
13.11015	59165
13.11828	56425
13.12640	58636
13.13452	51617
13.14265	50719
13.15077	51769
13.15890	53508
13.16702	55447
13.17513	56828
13.18327	55516
13.19138	61684
13.19950	64060
13.20763	64766
13.21575	69060
13.22388	69208
13.23200	66618
13.24012	63664
13.24825	63899
13.25637	54506
13.26450	54117
13.27262	52051
13.28073	52319
13.28887	50979
13.29698	48700
13.30512	46701
13.31323	47349
13.32135	46748
13.32948	47231
13.33760	47655
13.34572	47752
13.35385	46433
13.36197	45517
13.37010	44136
13.37822	45409
13.38633	44133
13.39447	45522
13.40258	47565
13.41072	47583
13.41883	45159
13.42695	46432
13.43508	44691
13.44320	41826
13.45132	43195
13.45945	50275
13.46757	48585
13.47570	49117
13.48382	51529
13.49193	48394
13.50007	50689
13.50818	46872
13.51632	49183
13.52443	44405
13.53255	45872
13.54068	45244
13.54880	43842
13.55693	45073
13.56505	42954
13.57317	49283
13.58130	49495
13.58942	57409
13.59753	57160
13.60567	67219
13.61378	61308
13.62192	65134
13.63003	64811
13.63815	55273
13.64628	53092
13.65440	49448
13.66253	42506
13.67065	44963
13.67877	42086
13.68690	40676
13.69502	43328
13.70313	38468
13.71127	40729
13.71938	38523
13.72752	52933
13.73563	82472
13.74375	196187
13.75188	451828
13.76000	978252
13.76813	1757777
13.77625	2510358
13.78437	2812668
13.79250	2577238
13.80062	2024587
13.80875	1454235
13.81687	1024573
13.82498	824189
13.83312	775945
13.84123	777901
13.84935	717434
13.85748	637832
13.86560	538739
13.87373	423282
13.88185	340766
13.88997	287001
13.89810	249156
13.90622	215786
13.91435	197353
13.92247	193632
13.93058	181974
13.93872	178686
13.94683	174258
13.95497	188918
13.96308	213732
13.97120	250217
13.97933	284269
13.98745	311660
13.99557	307075
14.00370	256997
14.01182	227078
14.01995	207935
14.02807	180829
14.03618	168013
14.04432	160741
14.05243	148733
14.06057	147292
14.06868	143694
14.07680	144191
14.08493	142044
14.09305	139118
14.10117	133644
14.10930	133792
14.11742	131576
14.12555	136932
14.13367	153664
14.14178	174027
14.14992	198623
14.15803	222427
14.16617	237634
14.17428	229034
14.18240	240490
14.19053	291075
14.19865	387098
14.20678	496070
14.21490	546013
14.22302	510228
14.23115	439942
14.23927	360413
14.24738	304349
14.25552	272169
14.26363	237934
14.27177	219153
14.27988	197677
14.28800	175416
14.29613	166492
14.30425	145616
14.31238	138537
14.32050	131274
14.32862	125133
14.33675	118971
14.34487	115813
14.35300	112780
14.36112	101062
14.36923	93700
14.37737	83804
14.38548	79992
14.39360	74478
14.40173	73519
14.40985	78331
14.41798	85608
14.42610	87218
14.43422	87677
14.44235	82896
14.45047	79096
14.45860	80008
14.46672	77411
14.47483	81647
14.48297	86508
14.49108	82706
14.49920	84416
14.50733	87751
14.51545	87550
14.52358	91515
14.53170	94880
14.53982	96733
14.54795	86606
14.55607	81563
14.56420	70156
14.57232	64766
14.58043	61802
14.58857	59778
14.59668	53120
14.60482	55541
14.61293	52649
14.62105	53855
14.62918	54114
14.63730	52451
14.64542	52474
14.65355	48294
14.66167	50666
14.66980	49551
14.67792	47271
14.68603	49599
14.69417	49015
14.70228	49247
14.71042	50487
14.71853	55619
14.72665	52740
14.73478	52179
14.74290	60797
14.75103	61550
14.75915	65708
14.76727	72900
14.77540	68249
14.78352	80995
14.79163	126541
14.79977	280580
14.80788	698026
14.81602	1596795
14.82413	2931343
14.83225	4063411
14.84038	4539868
14.84850	4085145
14.85663	3161012
14.86475	2106640
14.87287	1250996
14.88100	781319
14.88912	550571
14.89723	430967
14.90537	352002
14.91348	301489
14.92162	269206
14.92973	252207
14.93785	231930
14.94598	221969
14.95410	221006
14.96223	225165
14.97035	224066
14.97847	215120
14.98660	217553
14.99472	194668
15.00285	175057
15.01097	156379
15.01908	137574
15.02722	134739
15.03533	128739
15.04345	127682
15.05158	124093
15.05970	117877
15.06783	113284
15.07595	106964
15.08407	96812
15.09220	93563
15.10032	96032
15.10845	93498
15.11657	89061
15.12468	103280
15.13282	101418
15.14093	104629
15.14905	113918
15.15718	106662
15.16530	99544
15.17343	86763
15.18155	78672
15.18967	71326
15.19780	67032
15.20592	63353
15.21405	57989
15.22217	60817
15.23028	60529
15.23842	60574
15.24653	60089
15.25467	59065
15.26278	55563
15.27090	55068
15.27903	54278
15.28715	52114
15.29527	53321
15.30340	52667
15.31152	53129
15.31965	52694
15.32777	52400
15.33588	47487
15.34402	47952
15.35213	46336
15.36027	49230
15.36838	47127
15.37650	48929
15.38463	52463
15.39275	53284
15.40088	62606
15.40900	63862
15.41712	65001
15.42525	69119
15.43337	66110
15.44148	59490
15.44962	62632
15.45773	57890
15.46587	65509
15.47398	88291
15.48210	137573
15.49023	206110
15.49835	279888
15.50648	344334
15.51460	365719
15.52272	356104
15.53085	315304
15.53897	253802
15.54708	203485
15.55522	157255
15.56333	127588
15.57147	102570
15.57958	86092
15.58770	72482
15.59583	62674
15.60395	62712
15.61208	55199
15.62020	55193
15.62832	50696
15.63645	56128
15.64457	48976
15.65270	53704
15.66082	52336
15.66893	46569
15.67707	50576
15.68518	44351
15.69330	46010
15.70143	40976
15.70955	44664
15.71768	48907
15.72580	44229
15.73392	44812
15.74205	50927
15.75017	54234
15.75830	72848
15.76642	101868
15.77453	162914
15.78267	246504
15.79078	297504
15.79892	308981
15.80703	276003
15.81515	219898
15.82328	159849
15.83140	121974
15.83952	94364
15.84765	85844
15.85577	77285
15.86390	73148
15.87202	75912
15.88013	77605
15.88827	71537
15.89638	71699
15.90452	75504
15.91263	72707
15.92075	67284
15.92888	61516
15.93700	60562
15.94512	66021
15.95325	88714
15.96137	113598
15.96950	135815
15.97762	167465
15.98573	188083
15.99387	172988
16.00198	154929
16.01012	123673
16.01823	99980
16.02635	94512
16.03448	84130
16.04260	83998
16.05073	83080
16.05885	78835
16.06697	75167
16.07510	63969
16.08322	63247
16.09133	67107
16.09947	58728
16.10758	65217
16.11572	59084
16.12383	64339
16.13195	69444
16.14008	74127
16.14820	73895
16.15633	77411
16.16445	76242
16.17257	69776
16.18070	62663
16.18882	60804
16.19693	62007
16.20507	57512
16.21318	58467
16.22132	58026
16.22943	58358
16.23755	54642
16.24568	58684
16.25380	48632
16.26193	54478
16.27005	58807
16.27817	62753
16.28630	65793
16.29442	67616
16.30255	72252
16.31067	74521
16.31878	70486
16.32692	66695
16.33503	72754
16.34315	78300
16.35128	88605
16.35940	114010
16.36753	161025
16.37565	200250
16.38377	227248
16.39190	217364
16.40002	187512
16.40815	142695
16.41627	111559
16.42438	97447
16.43252	85977
16.44063	88024
16.44877	112585
16.45688	175736
16.46500	327656
16.47313	574423
16.48125	818851
16.48937	937972
16.49750	881608
16.50562	693369
16.51375	473940
16.52187	303409
16.52998	211905
16.53812	158796
16.54623	136381
16.55437	124293
16.56248	111012
16.57060	103573
16.57873	103764
16.58685	101571
16.59497	107245
16.60310	114189
16.61122	123531
16.61935	129891
16.62747	133272
16.63558	125244
16.64372	115408
16.65183	97929
16.65997	85338
16.66808	84134
16.67620	74275
16.68433	76523
16.69245	74853
16.70058	75560
16.70870	72472
16.71682	63020
16.72495	71934
16.73307	64308
16.74118	62632
16.74932	65911
16.75743	69436
16.76557	71701
16.77368	75601
16.78180	67678
16.78993	62199
16.79805	61350
16.80618	55916
16.81430	57596
16.82242	57200
16.83055	52369
16.83867	52780
16.84680	51101
16.85492	50627
16.86303	50908
16.87117	50388
16.87928	50503
16.88740	48038
16.89553	45432
16.90365	49572
16.91178	49488
16.91990	48823
16.92802	45386
16.93615	48520
16.94427	47616
16.95240	47124
16.96052	47688
16.96863	48843
16.97677	48317
16.98488	49902
16.99300	48179
17.00113	48983
17.00925	45261
17.01738	48097
17.02550	49190
17.03362	53613
17.04175	56428
17.04987	49624
17.05800	51305
17.06612	61095
17.07423	58457
17.08237	66841
17.09048	69458
17.09862	72097
17.10673	79852
17.11485	95641
17.12298	106341
17.13110	114577
17.13922	108983
17.14735	103098
17.15547	88069
17.16360	82096
17.17172	70713
17.17983	63405
17.18797	60880
17.19608	53740
17.20422	50014
17.21233	50355
17.22045	53378
17.22858	47197
17.23670	48322
17.24483	49099
17.25295	49945
17.26107	50533
17.26920	49556
17.27732	48901
17.28543	45131
17.29357	48047
17.30168	46497
17.30982	48495
17.31793	53857
17.32605	62444
17.33418	69431
17.34230	89362
17.35043	91168
17.35855	108220
17.36667	109395
17.37480	106756
17.38292	97520
17.39103	91982
17.39917	84879
17.40728	80435
17.41542	79088
17.42353	83277
17.43165	80160
17.43978	79038
17.44790	74739
17.45603	78585
17.46415	71293
17.47227	66588
17.48040	66751
17.48852	60437
17.49665	53644
17.50477	54028
17.51288	52918
17.52102	56068
17.52913	52277
17.53725	59007
17.54538	56391
17.55350	57503
17.56163	67874
17.56975	91420
17.57787	139537
17.58600	215399
17.59412	333412
17.60225	445643
17.61037	539054
17.61848	534902
17.62662	475735
17.63473	372343
17.64287	298096
17.65098	266301
17.65910	263189
17.66723	276410
17.67535	269833
17.68347	247534
17.69160	215744
17.69972	182614
17.70785	154608
17.71597	130459
17.72408	118122
17.73222	105840
17.74033	103698
17.74847	95794
17.75658	94088
17.76470	91550
17.77283	93057
17.78095	85078
17.78907	83998
17.79720	86390
17.80532	98516
17.81345	118339
17.82157	156107
17.82968	177458
17.83782	192118
17.84593	188044
17.85407	177941
17.86218	158386
17.87030	144189
17.87843	128710
17.88655	118031
17.89468	100916
17.90280	85828
17.91092	76026
17.91905	74059
17.92717	65018
17.93528	63084
17.94342	64445
17.95153	59093
17.95967	56955
17.96778	58286
17.97590	57039
17.98403	56659
17.99215	59794
18.00028	60873
18.00840	61995
18.01652	69551
18.02465	81497
18.03277	94474
18.04088	110554
18.04902	120866
18.05713	144628
18.06527	202386
18.07338	360437
18.08150	602814
18.08963	908693
18.09775	1171285
18.10588	1221866
18.11400	1097729
18.12212	838433
18.13025	624650
18.13837	476870
18.14650	387653
18.15462	334521
18.16273	288717
18.17087	266279
18.17898	233750
18.18710	213103
18.19523	189649
18.20335	184094
18.21148	164564
18.21960	154994
18.22772	146601
18.23585	140373
18.24397	130178
18.25210	126443
18.26022	126241
18.26833	116026
18.27647	107801
18.28458	89710
18.29272	81000
18.30083	70110
18.30895	63461
18.31708	60100
18.32520	61705
18.33332	56180
18.34145	56070
18.34957	59945
18.35770	56009
18.36582	54366
18.37393	59894
18.38207	69052
18.39018	85919
18.39832	130257
18.40643	190244
18.41455	287162
18.42268	383906
18.43080	457528
18.43892	452289
18.44705	416452
18.45517	378365
18.46330	386208
18.47142	428952
18.47953	468127
18.48767	481060
18.49578	465531
18.50392	435938
18.51203	379868
18.52015	349794
18.52828	315739
18.53640	298381
18.54453	292156
18.55265	291290
18.56077	280544
18.56890	279104
18.57702	278036
18.58513	278999
18.59327	280419
18.60138	281716
18.60952	280562
18.61763	290282
18.62575	284368
18.63388	293092
18.64200	289086
18.65013	275515
18.65825	274109
18.66637	263810
18.67450	253054
18.68262	254900
18.69075	242650
18.69887	238962
18.70698	247564
18.71512	263103
18.72323	244144
18.73135	247222
18.73948	239002
18.74760	230465
18.75573	221687
18.76385	212061
18.77197	224570
18.78010	220177
18.78822	201770
18.79635	208055
18.80447	205097
18.81258	209576
18.82072	207069
18.82883	208030
18.83695	203259
18.84508	201296
18.85320	199199
18.86133	198373
18.86945	202596
18.87757	193820
18.88570	197400
18.89382	202028
18.90195	199531
18.91007	198168
18.91818	193059
18.92632	188247
18.93443	198492
18.94257	194133
18.95068	200156
18.95880	205192
18.96693	205224
18.97505	201057
18.98317	202605
18.99130	188454
18.99942	184275
19.00755	179103
19.01567	173857
19.02378	173114
19.03192	168182
19.04003	167494
19.04817	164083
19.05628	163023
19.06440	171812
19.07253	190206
19.08065	239886
19.08877	304214
19.09690	405488
19.10502	487558
19.11315	543834
19.12127	503420
19.12938	451294
19.13752	356723
19.14563	282150
19.15377	233778
19.16188	210148
19.17000	199385
19.17813	186752
19.18625	174934
19.19438	168023
19.20250	161272
19.21062	164247
19.21875	159722
19.22687	147561
19.23498	149273
19.24312	143049
19.25123	139545
19.25937	138641
19.26748	134533
19.27560	146635
19.28373	148782
19.29185	139762
19.29998	142597
19.30810	151382
19.31622	140455
19.32435	148778
19.33247	147212
19.34060	143482
19.34872	147957
19.35683	164081
19.36497	175529
19.37308	203470
19.38120	212646
19.38933	205276
19.39745	193325
19.40558	181035
19.41370	150044
19.42182	143844
19.42995	144611
19.43807	136536
19.44620	128948
19.45432	126896
19.46243	126755
19.47057	135308
19.47868	143458
19.48680	172811
19.49493	211288
19.50305	268110
19.51118	338414
19.51930	369696
19.52742	346115
19.53555	301978
19.54367	246234
19.55180	195272
19.55992	171146
19.56803	152746
19.57617	143095
19.58428	125557
19.59242	119075
19.60053	113328
19.60865	112952
19.61678	109658
19.62490	113069
19.63302	124544
19.64115	140050
19.64927	172304
19.65740	229512
19.66552	292846
19.67363	335923
19.68177	382121
19.68988	373793
19.69802	355583
19.70613	325167
19.71425	287187
19.72238	243095
19.73050	222528
19.73863	203980
19.74675	191173
19.75487	174329
19.76300	174208
19.77112	165725
19.77923	169130
19.78737	185392
19.79548	204419
19.80362	217898
19.81173	228851
19.81985	210531
19.82798	202884
19.83610	182507
19.84423	146970
19.85235	157607
19.86047	207015
19.86860	349913
19.87672	672209
19.88483	1219018
19.89297	1952732
19.90108	2701393
19.90922	2934339
19.91733	2748248
19.92545	2228411
19.93358	1655015
19.94170	1164595
19.94983	837966
19.95795	652397
19.96607	564619
19.97420	512573
19.98232	465645
19.99045	426720
19.99857	402677
20.00668	382450
20.01482	363170
20.02293	350208
20.03105	345603
20.03918	311448
20.04730	286253
20.05543	283219
20.06355	278687
20.07167	297871
20.07980	320206
20.08792	347316
20.09605	358791
20.10417	336952
20.11228	288274
20.12042	246254
20.12853	198358
20.13667	179876
20.14478	183447
20.15290	233524
20.16103	322957
20.16915	475891
20.17727	729805
20.18540	998764
20.19352	1290731
20.20165	1409732
20.20977	1391883
20.21788	1190315
20.22602	938394
20.23413	731020
20.24227	572379
20.25038	554451
20.25850	639456
20.26663	783510
20.27475	934415
20.28287	1018269
20.29100	1016446
20.29912	912726
20.30725	747538
20.31537	557962
20.32348	381895
20.33162	286937
20.33973	207112
20.34787	164098
20.35598	143223
20.36410	125511
20.37223	111824
20.38035	106284
20.38848	100382
20.39660	98810
20.40472	102490
20.41285	97107
20.42097	101385
20.42908	108190
20.43722	113630
20.44533	126725
20.45347	137700
20.46158	145399
20.46970	153311
20.47783	153616
20.48595	149403
20.49408	143818
20.50220	121569
20.51032	105956
20.51845	101230
20.52657	95118
20.53468	92470
20.54282	88871
20.55093	91881
20.55907	90756
20.56718	85916
20.57530	81889
20.58343	79602
20.59155	77578
20.59968	77884
20.60780	76300
20.61592	74268
20.62405	73783
20.63217	77843
20.64030	78005
20.64842	79863
20.65653	89689
20.66467	90510
20.67278	84298
20.68090	78227
20.68903	79354
20.69715	75043
20.70528	77766
20.71340	69364
20.72152	71766
20.72965	67321
20.73777	71792
20.74590	72186
20.75402	73626
20.76213	73803
20.77027	81408
20.77838	90514
20.78652	112338
20.79463	161546
20.80275	242664
20.81088	348553
20.81900	451047
20.82712	494306
20.83525	450943
20.84337	361882
20.85150	249633
20.85962	168523
20.86773	126526
20.87587	97237
20.88398	91861
20.89212	90135
20.90023	89936
20.90835	92355
20.91648	102906
20.92460	118421
20.93272	114194
20.94085	129238
20.94897	125061
20.95710	119164
20.96522	111664
20.97333	96713
20.98147	88243
20.98958	80025
20.99772	74329
21.00583	73850
21.01395	80123
21.02208	70525
21.03020	72088
21.03833	74594
21.04645	78478
21.05457	74102
21.06270	77726
21.07082	71843
21.07893	74431
21.08707	75571
21.09518	79024
21.10332	71787
21.11143	72279
21.11955	68782
21.12768	73948
21.13580	87474
21.14393	103116
21.15205	137448
21.16017	172934
21.16830	196486
21.17642	189075
21.18455	174782
21.19267	148448
21.20078	117309
21.20892	102455
21.21703	94074
21.22515	82125
21.23328	81834
21.24140	78169
21.24953	72687
21.25765	76929
21.26577	76324
21.27390	71305
21.28202	74706
21.29015	71786
21.29827	72653
21.30638	67200
21.31452	66580
21.32263	66607
21.33075	66504
21.33888	65699
21.34700	63640
21.35513	58003
21.36325	60182
21.37137	64362
21.37950	67562
21.38762	79336
21.39575	80257
21.40387	91285
21.41198	94301
21.42012	106836
21.42823	105602
21.43637	92749
21.44448	91399
21.45260	79724
21.46073	75594
21.46885	75669
21.47697	70939
21.48510	75510
21.49322	67993
21.50135	70185
21.50947	69714
21.51758	66012
21.52572	69663
21.53383	63299
21.54197	63465
21.55008	64593
21.55820	59440
21.56633	61960
21.57445	62908
21.58257	69270
21.59070	78205
21.59882	79516
21.60695	82744
21.61507	88837
21.62318	89008
21.63132	95945
21.63943	103337
21.64757	111681
21.65568	116365
21.66380	116645
21.67193	119680
21.68005	118005
21.68818	110085
21.69630	103312
21.70442	91792
21.71255	80461
21.72067	74584
21.72878	72328
21.73692	68411
21.74503	65126
21.75317	67471
21.76128	68766
21.76940	71256
21.77753	77231
21.78565	78642
21.79378	86244
21.80190	86589
21.81002	93377
21.81815	99195
21.82627	94147
21.83440	99501
21.84252	103184
21.85063	103164
21.85877	101046
21.86688	97901
21.87500	83281
21.88313	77966
21.89125	77175
21.89938	71479
21.90750	67482
21.91562	66780
21.92375	72126
21.93187	64787
21.94000	60285
21.94812	66295
21.95623	62674
21.96437	60092
21.97248	56671
21.98062	57447
21.98873	60302
21.99685	54359
22.00498	53079
22.01310	59482
22.02122	60912
22.02935	60736
22.03747	56488
22.04560	57949
22.05372	63052
22.06183	61602
22.06997	60842
22.07808	61780
22.08622	59670
22.09433	60976
22.10245	62894
22.11058	55478
22.11870	55463
22.12682	55828
22.13495	51077
22.14307	53041
22.15120	56048
22.15932	57286
22.16743	57548
22.17557	59159
22.18368	57523
22.19182	59243
22.19993	53865
22.20805	59203
22.21618	58363
22.22430	58544
22.23243	62127
22.24055	57953
22.24867	65140
22.25680	62947
22.26492	59986
22.27303	59146
22.28117	70250
22.28928	75381
22.29742	76640
22.30553	78418
22.31365	82080
22.32178	76645
22.32990	75179
22.33803	73967
22.34615	65737
22.35427	68369
22.36240	62642
22.37052	59162
22.37863	64555
22.38677	69844
22.39488	82966
22.40302	107128
22.41113	136049
22.41925	157334
22.42738	177684
22.43550	172567
22.44363	156831
22.45175	126474
22.45987	101745
22.46800	91861
22.47612	84088
22.48425	80636
22.49237	94188
22.50048	100334
22.50862	116051
22.51673	122161
22.52485	131850
22.53298	123380
22.54110	121479
22.54923	108079
22.55735	95022
22.56547	91483
22.57360	84237
22.58172	74273
22.58985	70339
22.59797	66971
22.60608	65415
22.61422	62449
22.62233	62609
22.63047	60352
22.63858	60432
22.64670	61016
22.65483	67751
22.66295	73909
22.67107	69565
22.67920	65815
22.68732	70410
22.69545	77675
22.70357	84396
22.71168	86661
22.71982	90246
22.72793	96632
22.73607	87238
22.74418	78787
22.75230	80160
22.76043	70376
22.76855	74257
22.77667	68345
22.78480	72578
22.79292	81908
22.80105	94332
22.80917	97044
22.81728	104585
22.82542	109193
22.83353	96599
22.84167	88113
22.84978	84966
22.85790	82407
22.86603	88668
22.87415	108541
22.88228	121306
22.89040	142121
22.89852	162103
22.90665	164915
22.91477	167770
22.92288	159430
22.93102	166363
22.93913	163347
22.94727	150618
22.95538	132437
22.96350	114997
22.97163	100643
22.97975	96616
22.98788	95167
22.99600	88736
23.00412	82676
23.01225	83250
23.02037	87829
23.02850	86682
23.03662	83836
23.04473	86158
23.05287	87439
23.06098	94304
23.06910	89662
23.07723	88816
23.08535	95922
23.09348	87799
23.10160	89769
23.10972	85837
23.11785	82629
23.12597	88090
23.13410	77872
23.14222	81231
23.15033	76916
23.15847	81460
23.16658	81872
23.17470	80615
23.18283	82686
23.19095	81326
23.19908	81125
23.20720	81749
23.21532	82571
23.22345	77498
23.23157	78520
23.23970	81317
23.24782	80728
23.25593	84105
23.26407	83045
23.27218	91966
23.28032	88701
23.28843	86823
23.29655	78419
23.30468	80411
23.31280	82278
23.32092	83144
23.32905	88544
23.33717	97244
23.34530	110085
23.35342	130545
23.36153	152096
23.36967	181081
23.37778	189077
23.38592	184750
23.39403	185091
23.40215	181178
23.41028	174886
23.41840	168610
23.42652	164994
23.43465	159873
23.44277	154885
23.45090	148505
23.45902	148918
23.46713	140703
23.47527	136516
23.48338	136292
23.49152	128011
23.49963	127562
23.50775	119178
23.51588	116364
23.52400	114578
23.53213	107753
23.54025	102352
23.54837	112541
23.55650	109258
23.56462	113662
23.57273	128266
23.58087	164666
23.58898	206333
23.59712	252795
23.60523	285956
23.61335	286312
23.62148	272230
23.62960	226241
23.63773	191970
23.64585	170441
23.65397	169053
23.66210	167931
23.67022	187325
23.67835	175410
23.68647	158531
23.69458	145590
23.70272	124996
23.71083	108747
23.71895	100063
23.72708	92814
23.73520	87280
23.74333	106464
23.75145	149700
23.75957	265597
23.76770	561978
23.77582	1067900
23.78395	1788166
23.79207	2512319
23.80018	2814937
23.80832	2702325
23.81643	2323134
23.82455	1870339
23.83268	1424957
23.84080	1078780
23.84893	830079
23.85705	669004
23.86517	550735
23.87330	476054
23.88142	418436
23.88955	365407
23.89767	335576
23.90578	316730
23.91392	299178
23.92203	292477
23.93017	266604
23.93828	247678
23.94640	238305
23.95453	213464
23.96265	191886
23.97077	189410
23.97890	175435
23.98702	171691
23.99515	184094
24.00327	210837
24.01138	309122
24.01952	473681
24.02763	696883
24.03577	942239
24.04388	997817
24.05200	927126
24.06013	710744
24.06825	510491
24.07638	346904
24.08450	249045
24.09262	196075
24.10075	167326
24.10887	153298
24.11698	145753
24.12512	142056
24.13323	145804
24.14137	154230
24.14948	151342
24.15760	164368
24.16573	157855
24.17385	159627
24.18198	152477
24.19010	151245
24.19822	147527
24.20635	147296
24.21447	148690
24.22258	143703
24.23072	136426
24.23883	126236
24.24697	117593
24.25508	108136
24.26320	104645
24.27133	96488
24.27945	91990
24.28758	94224
24.29570	88251
24.30382	92422
24.31195	91844
24.32007	94209
24.32820	97342
24.33632	93219
24.34443	91032
24.35257	93295
24.36068	87781
24.36880	94817
24.37693	98383
24.38505	121033
24.39318	145811
24.40130	185971
24.40942	192152
24.41755	175404
24.42567	152747
24.43380	119912
24.44192	100007
24.45003	89390
24.45817	89593
24.46628	89987
24.47442	96102
24.48253	109433
24.49065	107667
24.49878	122076
24.50690	142717
24.51502	153683
24.52315	166418
24.53127	182916
24.53940	179729
24.54752	199115
24.55563	206813
24.56377	207275
24.57188	203810
24.58002	193032
24.58813	181460
24.59625	169326
24.60438	163197
24.61250	160009
24.62062	152291
24.62875	147805
24.63687	146075
24.64500	152039
24.65312	156446
24.66123	149727
24.66937	146865
24.67748	143024
24.68562	145713
24.69373	144290
24.70185	146820
24.70998	143556
24.71810	142969
24.72623	143312
24.73435	141047
24.74247	136880
24.75060	141291
24.75872	142411
24.76683	149826
24.77497	150814
24.78308	156713
24.79122	168813
24.79933	172829
24.80745	173867
24.81558	175890
24.82370	176594
24.83183	186373
24.83995	208050
24.84807	228192
24.85620	274992
24.86432	321097
24.87243	412113
24.88057	512674
24.88868	609937
24.89682	636174
24.90493	614541
24.91305	538252
24.92118	418361
24.92930	317630
24.93743	250364
24.94555	202571
24.95367	183519
24.96180	166619
24.96992	151921
24.97805	158642
24.98617	149030
24.99428	146677
25.00242	148881
25.01053	141235
25.01865	142390
25.02678	137450
25.03490	139964
25.04303	141232
25.05115	141289
25.05927	149409
25.06740	138437
25.07552	143518
25.08365	144571
25.09177	145905
25.09988	179205
25.10802	267634
25.11613	523977
25.12427	994011
25.13238	1735510
25.14050	2560704
25.14863	3075671
25.15675	3133173
25.16487	2646626
25.17300	1907026
25.18112	1208033
25.18925	698843
25.19737	387472
25.20548	258166
25.21362	180330
25.22173	143779
25.22987	124075
25.23798	131379
25.24610	148774
25.25423	168656
25.26235	194214
25.27047	217843
25.27860	220241
25.28672	206159
25.29485	196154
25.30297	164799
25.31108	133405
25.31922	115249
25.32733	107997
25.33547	103586
25.34358	93255
25.35170	91923
25.35983	89962
25.36795	85967
25.37608	81837
25.38420	76043
25.39232	76248
25.40045	72781
25.40857	70190
25.41668	71981
25.42482	72261
25.43293	72012
25.44107	68396
25.44918	70177
25.45730	75874
25.46543	73881
25.47355	72327
25.48168	80806
25.48980	78837
25.49792	87184
25.50605	90437
25.51417	110434
25.52230	139200
25.53042	171524
25.53853	190293
25.54667	202863
25.55478	211364
25.56290	216763
25.57103	208083
25.57915	228605
25.58728	231913
25.59540	240039
25.60352	235043
25.61165	241177
25.61977	221825
25.62790	226646
25.63602	224113
25.64413	227182
25.65227	232320
25.66038	232719
25.66850	227735
25.67663	225836
25.68475	227968
25.69288	240228
25.70100	225199
25.70912	242422
25.71725	239036
25.72537	231290
25.73350	225907
25.74162	216675
25.74973	214985
25.75787	213913
25.76598	209446
25.77412	218907
25.78223	207611
25.79035	209264
25.79848	209667
25.80660	206910
25.81472	212357
25.82285	214071
25.83097	223617
25.83910	224221
25.84722	233017
25.85533	229373
25.86347	229957
25.87158	226269
25.87972	205022
25.88783	198199
25.89595	191481
25.90408	181178
25.91220	181282
25.92032	172041
25.92845	167754
25.93657	172224
25.94470	173428
25.95282	166386
25.96093	164656
25.96907	159151
25.97718	159526
25.98532	168496
25.99343	153092
26.00155	156676
26.00968	145870
26.01780	150342
26.02593	150310
26.03405	143346
26.04217	146616
26.05030	146476
26.05842	143885
26.06653	138451
26.07467	139323
26.08278	142744
26.09092	141803
26.09903	141500
26.10715	138023
26.11528	139369
26.12340	138627
26.13153	141846
26.13965	150692
26.14777	148057
26.15590	146143
26.16402	154071
26.17215	145576
26.18027	142940
26.18838	139563
26.19652	137679
26.20463	127984
26.21275	115598
26.22088	117974
26.22900	118581
26.23713	117547
26.24525	116155
26.25337	111842
26.26150	114968
26.26962	115165
26.27775	111792
26.28587	101500
26.29398	103720
26.30212	103344
26.31023	101635
26.31835	104185
26.32648	92751
26.33460	100031
26.34273	102010
26.35085	111477
26.35897	140116
26.36710	176613
26.37522	250136
26.38335	361284
26.39147	461824
26.39958	556606
26.40772	598964
26.41583	597212
26.42397	517467
26.43208	405390
26.44020	285652
26.44833	223628
26.45645	161266
26.46457	131188
26.47270	119731
26.48082	114198
26.48895	102362
26.49707	100021
26.50518	95867
26.51332	93326
26.52143	84209
26.52957	86754
26.53768	78581
26.54580	80465
26.55393	78310
26.56205	77671
26.57018	82058
26.57830	85588
26.58642	84578
26.59455	82802
26.60267	78731
26.61078	82065
26.61892	77502
26.62703	79910
26.63517	80412
26.64328	72852
26.65140	78413
26.65953	78367
26.66765	76102
26.67578	82226
26.68390	76427
26.69202	79234
26.70015	75671
26.70827	78021
26.71638	69467
26.72452	75522
26.73263	68993
26.74077	71633
26.74888	71666
26.75700	73551
26.76513	70311
26.77325	69463
26.78138	69108
26.78950	71796
26.79762	68157
26.80575	71994
26.81387	76748
26.82200	72116
26.83012	70287
26.83823	72673
26.84637	65511
26.85448	65175
26.86260	71195
26.87073	69573
26.87885	65441
26.88698	70331
26.89510	64519
26.90322	64283
26.91135	63391
26.91947	65566
26.92760	61178
26.93572	62831
26.94383	59587
26.95197	66280
26.96008	70595
26.96820	71122
26.97633	89156
26.98445	129067
26.99258	192914
27.00070	300308
27.00882	430895
27.01695	588386
27.02507	727010
27.03320	775425
27.04132	771942
27.04943	732478
27.05757	612665
27.06568	492670
27.07382	420918
27.08193	341763
27.09005	296544
27.09818	260813
27.10630	228089
27.11442	202830
27.12255	190429
27.13067	184312
27.13880	173901
27.14692	168967
27.15503	165429
27.16317	163206
27.17128	156008
27.17942	170316
27.18753	166981
27.19565	164852
27.20378	165873
27.21190	151502
27.22003	145878
27.22815	134191
27.23627	127441
27.24440	122288
27.25252	115809
27.26063	115051
27.26877	109372
27.27688	102760
27.28502	97366
27.29313	100921
27.30125	98341
27.30938	96092
27.31750	98282
27.32563	95209
27.33375	95960
27.34187	93985
27.35000	91558
27.35812	96363
27.36625	95253
27.37437	90510
27.38248	88985
27.39062	91417
27.39873	84789
27.40685	85806
27.41498	83199
27.42310	84461
27.43123	86485
27.43935	81615
27.44747	77863
27.45560	75868
27.46372	74837
27.47185	75492
27.47997	76781
27.48808	70483
27.49622	75292
27.50433	72920
27.51245	73881
27.52058	76020
27.52870	73007
27.53683	76607
27.54495	77919
27.55307	73614
27.56120	78788
27.56932	73902
27.57745	87154
27.58557	91952
27.59368	98471
27.60182	103243
27.60993	102138
27.61807	103000
27.62618	99970
27.63430	92174
27.64243	86063
27.65055	81313
27.65867	74890
27.66680	76529
27.67492	74550
27.68305	77319
27.69117	76899
27.69928	83340
27.70742	83513
27.71553	81135
27.72367	70659
27.73178	71315
27.73990	67730
27.74803	64347
27.75615	62903
27.76427	65951
27.77240	59905
27.78052	64993
27.78865	63721
27.79677	65631
27.80488	66007
27.81302	63000
27.82113	67019
27.82927	64846
27.83738	60239
27.84550	67101
27.85363	61351
27.86175	60600
27.86988	59553
27.87800	62642
27.88612	60658
27.89425	66208
27.90237	61913
27.91048	63503
27.91862	55593
27.92673	56108
27.93487	53216
27.94298	53360
27.95110	56323
27.95923	58863
27.96735	63808
27.97548	56600
27.98360	61116
27.99172	62663
27.99985	63437
28.00797	65119
28.01610	75582
28.02422	78828
28.03233	92502
28.04047	102277
28.04858	112647
28.05670	117047
28.06483	124460
28.07295	107725
28.08108	95827
28.08920	88979
28.09732	81964
28.10545	83282
28.11357	69042
28.12170	72126
28.12982	63082
28.13793	61621
28.14607	59933
28.15418	59702
28.16230	60487
28.17043	57119
28.17855	61587
28.18668	64579
28.19480	75637
28.20292	82148
28.21105	88037
28.21917	101508
28.22730	102571
28.23542	96738
28.24353	94897
28.25167	79420
28.25978	76998
28.26792	70408
28.27603	65411
28.28415	65323
28.29228	66255
28.30040	73296
28.30852	80842
28.31665	91374
28.32477	110039
28.33290	122079
28.34102	133521
28.34913	161067
28.35727	181182
28.36538	196558
28.37352	213876
28.38163	216384
28.38975	234451
28.39788	244296
28.40600	243269
28.41413	219769
28.42225	205906
28.43037	194108
28.43850	176713
28.44662	173122
28.45473	154788
28.46287	142619
28.47098	142423
28.47912	134583
28.48723	135929
28.49535	139581
28.50348	136126
28.51160	127584
28.51973	122045
28.52785	115527
28.53597	111000
28.54410	107970
28.55222	99354
28.56033	92404
28.56847	86663
28.57658	86798
28.58472	83615
28.59283	80992
28.60095	87453
28.60908	86301
28.61720	90184
28.62533	94269
28.63345	88978
28.64157	91481
28.64970	95392
28.65782	99438
28.66595	99338
28.67407	89796
28.68218	90058
28.69032	89454
28.69843	80547
28.70655	75515
28.71468	76153
28.72280	76506
28.73093	75389
28.73905	72882
28.74717	74498
28.75530	83662
28.76342	95438
28.77155	103209
28.77967	107616
28.78778	109154
28.79592	101019
28.80403	97726
28.81215	95877
28.82028	83657
28.82840	79124
28.83653	76218
28.84465	71115
28.85277	73890
28.86090	74921
28.86902	71722
28.87715	80105
28.88527	79095
28.89338	78687
28.90152	81750
28.90963	83800
28.91777	79986
28.92588	73769
28.93400	74692
28.94213	75138
28.95025	76218
28.95837	81353
28.96650	74760
28.97462	73133
28.98275	71789
28.99087	71639
28.99898	66760
29.00712	65025
29.01523	66419
29.02337	64079
29.03148	65302
29.03960	64484
29.04773	58273
29.05585	55178
29.06398	60690
29.07210	58532
29.08022	64468
29.08835	66210
29.09647	68421
29.10458	66966
29.11272	61610
29.12083	64207
29.12897	59724
29.13708	59021
29.14520	58507
29.15333	58592
29.16145	60604
29.16958	61661
29.17770	63866
29.18582	74511
29.19395	73727
29.20207	82729
29.21018	98649
29.21832	111448
29.22643	129474
29.23457	172964
29.24268	239410
29.25080	362178
29.25893	503442
29.26705	626431
29.27518	664711
29.28330	623657
29.29142	481699
29.29955	342327
29.30767	204831
29.31580	127279
29.32392	96654
29.33203	73592
29.34017	66198
29.34828	61583
29.35640	61543
29.36453	59873
29.37265	60666
29.38078	63189
29.38890	59803
29.39702	60523
29.40515	62701
29.41327	68681
29.42140	67849
29.42952	74702
29.43763	68042
29.44577	69321
29.45388	58481
29.46202	64389
29.47013	63604
29.47825	62038
29.48638	59664
29.49450	60717
29.50262	65920
29.51075	69525
29.51887	65744
29.52700	68140
29.53512	64881
29.54323	61279
29.55137	57167
29.55948	56563
29.56762	56199
29.57573	51854
29.58385	52585
29.59198	56335
29.60010	55781
29.60822	53693
29.61635	57175
29.62447	55095
29.63260	55804
29.64072	55013
29.64883	57245
29.65697	59920
29.66508	51761
29.67322	54250
29.68133	54894
29.68945	57359
29.69758	60524
29.70570	62498
29.71383	60637
29.72195	62827
29.73007	57416
29.73820	58925
29.74632	59509
29.75443	58444
29.76257	55832
29.77068	54580
29.77882	51230
29.78693	52776
29.79505	45261
29.80318	49590
29.81130	50674
29.81943	53249
29.82755	50712
29.83567	49823
29.84380	46440
29.85192	52309
29.86003	55426
29.86817	57796
29.87628	61692
29.88442	68525
29.89253	74895
29.90065	82803
29.90878	85529
29.91690	81967
29.92503	75455
29.93315	70603
29.94127	66488
29.94940	67986
29.95752	67459
29.96565	72723
29.97377	82120
29.98188	89671
29.99002	112230
29.99813	116866
30.00625	129359
30.01438	137508
30.02250	136747
30.03063	133750
30.03875	139367
30.04687	132409
30.05500	135118
30.06312	124878
30.07125	135023
30.07937	125612
30.08748	119776
30.09562	127270
30.10373	121509
30.11187	114438
30.11998	112385
30.12810	110448
30.13623	107648
30.14435	102445
30.15247	100668
30.16060	102147
30.16872	100496
30.17685	94761
30.18497	102888
30.19308	98250
30.20122	101137
30.20933	109391
30.21747	99499
30.22558	93720
30.23370	88984
30.24183	87989
30.24995	80804
30.25807	75631
30.26620	73823
30.27432	67592
30.28245	69755
30.29057	71352
30.29868	70426
30.30682	63497
30.31493	61640
30.32307	66050
30.33118	66775
30.33930	64100
30.34743	69679
30.35555	65802
30.36368	66210
30.37180	67048
30.37992	64318
30.38805	62815
30.39617	63074
30.40428	60056
30.41242	62029
30.42053	60058
30.42867	61013
30.43678	57935
30.44490	59084
30.45303	58322
30.46115	59805
30.46928	55547
30.47740	58189
30.48552	60658
30.49365	62063
30.50177	60012
30.50990	57889
30.51802	57262
30.52613	52592
30.53427	54336
30.54238	57221
30.55050	55478
30.55863	54345
30.56675	58241
30.57488	60042
30.58300	60352
30.59112	60379
30.59925	60986
30.60737	62432
30.61550	59174
30.62362	58312
30.63173	57192
30.63987	57464
30.64798	56871
30.65610	57802
30.66423	52973
30.67235	50636
30.68048	56380
30.68860	50902
30.69672	61882
30.70485	65522
30.71297	68366
30.72110	78616
30.72922	79673
30.73733	81690
30.74547	85708
30.75358	89506
30.76172	89163
30.76983	94838
30.77795	98588
30.78608	109410
30.79420	119202
30.80232	136019
30.81045	146315
30.81857	143423
30.82670	142485
30.83482	134388
30.84293	124869
30.85107	117767
30.85918	118135
30.86732	115340
30.87543	112137
30.88355	115235
30.89168	116008
30.89980	111164
30.90793	113148
30.91605	110817
30.92417	106312
30.93230	101730
30.94042	103856
30.94853	107929
30.95667	102402
30.96478	106215
30.97292	103415
30.98103	102072
30.98915	99505
30.99728	99565
31.00540	98341
31.01353	99152
31.02165	99890
31.02977	102467
31.03790	105547
31.04602	102724
31.05413	104458
31.06227	105264
31.07038	104548
31.07852	104598
31.08663	114848
31.09475	116769
31.10288	130426
31.11100	133132
31.11913	133344
31.12725	117451
31.13537	113242
31.14350	108376
31.15162	103812
31.15975	103180
31.16787	100037
31.17598	103825
31.18412	107164
31.19223	114266
31.20035	131728
31.20848	150137
31.21660	169858
31.22473	181582
31.23285	178194
31.24097	176081
31.24910	152553
31.25722	131556
31.26535	115751
31.27347	102414
31.28158	95054
31.28972	88545
31.29783	87723
31.30595	84855
31.31408	86481
31.32220	85208
31.33033	86977
31.33845	86757
31.34657	86850
31.35470	86871
31.36282	82858
31.37095	86029
31.37907	85590
31.38718	85729
31.39532	83169
31.40343	85684
31.41157	77830
31.41968	83784
31.42780	79435
31.43593	80284
31.44405	71855
31.45217	74317
31.46030	72144
31.46842	71853
31.47655	75519
31.48467	77010
31.49278	81273
31.50092	78210
31.50903	82357
31.51717	85434
31.52528	85341
31.53340	85722
31.54153	85166
31.54965	79412
31.55778	87037
31.56590	72550
31.57402	72492
31.58215	73031
31.59027	70501
31.59838	70380
31.60652	72140
31.61463	73428
31.62277	69589
31.63088	72197
31.63900	77251
31.64713	72543
31.65525	76958
31.66338	76327
31.67150	78302
31.67962	75740
31.68775	75402
31.69587	76148
31.70398	73614
31.71212	69984
31.72023	72454
31.72837	67426
31.73648	63690
31.74460	65731
31.75273	67554
31.76085	68857
31.76898	68265
31.77710	67669
31.78522	63333
31.79335	64912
31.80147	75442
31.80960	72012
31.81772	71242
31.82583	64805
31.83397	63867
31.84208	59917
31.85020	66642
31.85833	66050
31.86645	71518
31.87458	69884
31.88270	71832
31.89082	71552
31.89895	75608
31.90707	81766
31.91520	90664
31.92332	92220
31.93143	100470
31.93957	106364
31.94768	107032
31.95582	113062
31.96393	125449
31.97205	128725
31.98018	133833
31.98830	135525
31.99642	141242
32.00455	136731
32.01267	139961
32.02080	134809
32.02892	127126
32.03703	119649
32.04517	111949
32.05328	112887
32.06142	106027
32.06953	106347
32.07765	106576
32.08578	100266
32.09390	94064
32.10202	98272
32.11015	90483
32.11827	86905
32.12640	86379
32.13452	82512
32.14263	81554
32.15077	76668
32.15888	78389
32.16702	80080
32.17513	74712
32.18325	76719
32.19138	76266
32.19950	76351
32.20763	74231
32.21575	78873
32.22387	76504
32.23200	71991
32.24012	72216
32.24823	73521
32.25637	71883
32.26448	77621
32.27262	79111
32.28073	76015
32.28885	73268
32.29698	74866
32.30510	72329
32.31323	68545
32.32135	68806
32.32947	70513
32.33760	67019
32.34572	73501
32.35383	71124
32.36197	70936
32.37008	70339
32.37822	70732
32.38633	69066
32.39445	74052
32.40258	70350
32.41070	74976
32.41883	65536
32.42695	68325
32.43507	66466
32.44320	70503
32.45132	62720
32.45945	63062
32.46757	60674
32.47568	63102
32.48382	63971
32.49193	61977
32.50005	61845
32.50818	60601
32.51630	58142
32.52443	64397
32.53255	60834
32.54067	59706
32.54880	59057
32.55692	65141
32.56505	69121
32.57317	63566
32.58128	64341
32.58942	60613
32.59753	66724
32.60567	62174
32.61378	58517
32.62190	63024
32.63003	61485
32.63815	61430
32.64627	67366
32.65440	74954
32.66252	83764
32.67065	89398
32.67877	90384
32.68688	89562
32.69502	84291
32.70313	79520
32.71127	74525
32.71938	76476
32.72750	71210
32.73563	67842
32.74375	70041
32.75188	68354
32.76000	58428
32.76812	62240
32.77625	63969
32.78437	62860
32.79248	63551
32.80062	62966
32.80873	64226
32.81687	60409
32.82498	63405
32.83310	64766
32.84123	58949
32.84935	62771
32.85748	63824
32.86560	68096
32.87372	65521
32.88185	70949
32.88997	68299
32.89808	73622
32.90622	77872
32.91433	78348
32.92247	77790
32.93058	75712
32.93870	70400
32.94683	64961
32.95495	62692
32.96308	62876
32.97120	69520
32.97932	70258
32.98745	79120
32.99557	80467
33.00370	87209
33.01182	91079
33.01993	88008
33.02807	81740
33.03618	81380
33.04430	74144
33.05243	75205
33.06055	72073
33.06868	80559
33.07680	87382
33.08492	93916
33.09305	101759
33.10117	111560
33.10930	110574
33.11742	110260
33.12553	111688
33.13367	104414
33.14178	93886
33.14990	89719
33.15803	74864
33.16615	80310
33.17428	72930
33.18240	69836
33.19052	75977
33.19865	69881
33.20677	71039
33.21490	68397
33.22302	68626
33.23113	68679
33.23927	77759
33.24738	66885
33.25552	67855
33.26363	75234
33.27175	69031
33.27988	65179
33.28800	66454
33.29612	60724
33.30425	70724
33.31237	70439
33.32050	69741
33.32862	68334
33.33673	67607
33.34487	69415
33.35298	74002
33.36112	74669
33.36923	76830
33.37735	73372
33.38548	70347
33.39360	70514
33.40173	65838
33.40985	62564
33.41797	61690
33.42610	65379
33.43422	61788
33.44233	63641
33.45047	65280
33.45858	60577
33.46672	67091
33.47483	61994
33.48295	58203
33.49108	62902
33.49920	66361
33.50733	67545
33.51545	67418
33.52357	67447
33.53170	71708
33.53982	71793
33.54793	70070
33.55607	74805
33.56418	77907
33.57232	77871
33.58043	70221
33.58855	67857
33.59668	66000
33.60480	68744
33.61293	66064
33.62105	69886
33.62917	68868
33.63730	71301
33.64542	74546
33.65355	74024
33.66167	76880
33.66978	68110
33.67792	73433
33.68603	69559
33.69415	69251
33.70228	67835
33.71040	60459
33.71853	63633
33.72665	62919
33.73477	63597
33.74290	62776
33.75102	63326
33.75915	65123
33.76727	66396
33.77538	60852
33.78352	61960
33.79163	56553
33.79977	61493
33.80788	62662
33.81600	61228
33.82413	64573
33.83225	60387
33.84037	66917
33.84850	70280
33.85662	70247
33.86475	65391
33.87287	66606
33.88098	62275
33.88912	66930
33.89723	69906
33.90537	67943
33.91348	68224
33.92160	66251
33.92973	70040
33.93785	66883
33.94597	61987
33.95410	65526
33.96222	66335
33.97035	62992
33.97847	66585
33.98658	68719
33.99472	67240
34.00283	65959
34.01097	65362
34.01908	61998
34.02720	60143
34.03533	65029
34.04345	68676
34.05158	69171
34.05970	65359
34.06782	71452
34.07595	70100
34.08407	69483
34.09218	64785
34.10032	68033
34.10843	72305
34.11657	68182
34.12468	70613
34.13280	71556
34.14093	76085
34.14905	66778
34.15718	71109
34.16530	74320
34.17342	70954
34.18155	78610
34.18967	75675
34.19778	77629
34.20592	74915
34.21403	77714
34.22217	74906
34.23028	76302
34.23840	76752
34.24653	76104
34.25465	75903
34.26278	77983
34.27090	75908
34.27902	75383
34.28715	70456
34.29527	70889
34.30340	71853
34.31152	72403
34.31963	75011
34.32777	69866
34.33588	74892
34.34400	73631
34.35213	68178
34.36025	76860
34.36838	73491
34.37650	73711
34.38462	73495
34.39275	69877
34.40087	69554
34.40900	71115
34.41712	72414
34.42523	71853
34.43337	71925
34.44148	66125
34.44962	68818
34.45773	70434
34.46585	68559
34.47398	66653
34.48210	66397
34.49022	73033
34.49835	73123
34.50647	77560
34.51460	82941
34.52272	87874
34.53083	100427
34.53897	111326
34.54708	120821
34.55522	131091
34.56333	141141
34.57145	133260
34.57958	134670
34.58770	125359
34.59582	126339
34.60395	109676
34.61207	104756
34.62020	103354
34.62832	96509
34.63643	93431
34.64457	94367
34.65268	87313
34.66082	91394
34.66893	86979
34.67705	85849
34.68518	86767
34.69330	84892
34.70143	81530
34.70955	79138
34.71767	81082
34.72580	82250
34.73392	85103
34.74203	75061
34.75017	81902
34.75828	77830
34.76642	81059
34.77453	74952
34.78265	86734
34.79078	80327
34.79890	85188
34.80703	89559
34.81515	85821
34.82327	86944
34.83140	89449
34.83952	82431
34.84765	88510
34.85577	88634
34.86388	82122
34.87202	81381
34.88013	80422
34.88825	81785
34.89638	80972
34.90450	78333
34.91263	85658
34.92075	86904
34.92887	87570
34.93700	87793
34.94512	85337
34.95325	88170
34.96137	92812
34.96948	97199
34.97762	96763
34.98573	97545
34.99385	94104
35.00198	92936
35.01010	88980
35.01823	89055
35.02635	94980
35.03447	87542
35.04260	81267
35.05072	87404
35.05885	84310
35.06697	82286
35.07508	81937
35.08322	83412
35.09133	78027
35.09947	78164
35.10758	84197
35.11570	77239
35.12383	75809
35.13195	76388
35.14007	79616
35.14820	75885
35.15632	77885
35.16445	77002
35.17257	81011
35.18068	77180
35.18882	77676
35.19693	75894
35.20507	73965
35.21318	75462
35.22130	75329
35.22943	73161
35.23755	72976
35.24568	71922
35.25380	70831
35.26192	75018
35.27005	76436
35.27817	74944
35.28628	73349
35.29442	76394
35.30253	74591
35.31067	75761
35.31878	71026
35.32690	71640
35.33503	70553
35.34315	68695
35.35128	72739
35.35940	76787
35.36752	71737
35.37565	76615
35.38377	74667
35.39188	77946
35.40002	89548
35.40813	86927
35.41627	89466
35.42438	94528
35.43250	102466
35.44063	97596
35.44875	95037
35.45688	89947
35.46500	91652
35.47312	87381
35.48125	86342
35.48937	87288
35.49750	82079
35.50562	79760
35.51373	80466
35.52187	76522
35.52998	77949
35.53810	77312
35.54623	74322
35.55435	72135
35.56248	75513
35.57060	77872
35.57872	82531
35.58685	79952
35.59497	77675
35.60310	75595
35.61122	77184
35.61933	71928
35.62747	72943
35.63558	75637
35.64370	75742
35.65183	78206
35.65995	74029
35.66808	82813
35.67620	79475
35.68432	83343
35.69245	83022
35.70057	79705
35.70870	86072
35.71682	75914
35.72493	90005
35.73307	82267
35.74118	81683
35.74932	87487
35.75743	95646
35.76555	95778
35.77368	99727
35.78180	95391
35.78992	92569
35.79805	89483
35.80617	87160
35.81430	81658
35.82242	79468
35.83053	73493
35.83867	80189
35.84678	78710
35.85492	79593
35.86303	81274
35.87115	79363
35.87928	86066
35.88740	78586
35.89553	82259
35.90365	74112
35.91177	77057
35.91990	74574
35.92802	75925
35.93613	73835
35.94427	77291
35.95238	73605
35.96052	78324
35.96863	75928
35.97675	76694
35.98488	76027
35.99300	79823
36.00113	82529
36.00925	82277
36.01737	82244
36.02550	83275
36.03362	88559
36.04173	82974
36.04987	79727
36.05798	80319
36.06612	81464
36.07423	80092
36.08235	78745
36.09048	83998
36.09860	80545
36.10673	84460
36.11485	82132
36.12297	81692
36.13110	81025
36.13922	84723
36.14735	84903
36.15547	82495
36.16358	87895
36.17172	85585
36.17983	86545
36.18795	79727
36.19608	79254
36.20420	78770
36.21233	75482
36.22045	81082
36.22857	89344
36.23670	92673
36.24482	96114
36.25295	94600
36.26107	102131
36.26918	101844
36.27732	104947
36.28543	104964
36.29357	117324
36.30168	118440
36.30980	125273
36.31793	126577
36.32605	122352
36.33417	128709
36.34230	124738
36.35042	117336
36.35855	118525
36.36667	115807
36.37478	114003
36.38292	107007
36.39103	105806
36.39917	113518
36.40728	113757
36.41540	113579
36.42353	113271
36.43165	111676
36.43977	104927
36.44790	107790
36.45602	108589
36.46415	107660
36.47227	106582
36.48038	101350
36.48852	101141
36.49663	110149
36.50477	104282
36.51288	101614
36.52100	107779
36.52913	100309
36.53725	104882
36.54538	108096
36.55350	106724
36.56162	103010
36.56975	106242
36.57787	100325
36.58598	101433
36.59412	103331
36.60223	103248
36.61037	108319
36.61848	100664
36.62660	101733
36.63473	99688
36.64285	103857
36.65098	104765
36.65910	97208
36.66722	99642
36.67535	100641
36.68347	97215
36.69158	101284
36.69972	106819
36.70783	106311
36.71597	101835
36.72408	97022
36.73220	99107
36.74033	96384
36.74845	93436
36.75658	103495
36.76470	102245
36.77282	94436
36.78095	98561
36.78907	96751
36.79720	101423
36.80532	100821
36.81343	98640
36.82157	91937
36.82968	96638
36.83780	98136
36.84593	98407
36.85405	95860
36.86218	95131
36.87030	94968
36.87842	93182
36.88655	96310
36.89467	95658
36.90280	95605
36.91092	90904
36.91903	97877
36.92717	98090
36.93528	91567
36.94342	99764
36.95153	105622
36.95965	106691
36.96778	114691
36.97590	114273
36.98402	110208
36.99215	107523
37.00027	104327
37.00840	103689
37.01652	100312
37.02463	97000
37.03277	98256
37.04088	102267
37.04902	96692
37.05713	96932
37.06525	101361
37.07338	98971
37.08150	97938
37.08962	101324
37.09775	102388
37.10587	102419
37.11400	99225
37.12212	97658
37.13023	96929
37.13837	96685
37.14648	93796
37.15462	100087
37.16273	86332
37.17085	95009
37.17898	99868
37.18710	96776
37.19523	95671
37.20335	99328
37.21147	104676
37.21960	99335
37.22772	93873
37.23583	97689
37.24397	92036
37.25208	95405
37.26022	96171
37.26833	91050
37.27645	96605
37.28458	100747
37.29270	95994
37.30083	98718
37.30895	99502
37.31707	105267
37.32520	113159
37.33332	121463
37.34145	128522
37.34957	136592
37.35768	142966
37.36582	142292
37.37393	144359
37.38205	140679
37.39018	128923
37.39830	133885
37.40643	129445
37.41455	128145
37.42267	122404
37.43080	120388
37.43892	121717
37.44705	118002
37.45517	115779
37.46328	113845
37.47142	118864
37.47953	117244
37.48765	107583
