C:\MassHunter\GCMS\1\data\JTB-E18\JTB-E18-029-05.D Tue Oct 01 12:43:55 2019
Start of data points
2.09515,204054
2.10327,195681
2.11140,203033
2.11952,196221
2.12765,191336
2.13577,196792
2.14388,192167
2.15202,182709
2.16013,184003
2.16827,175748
2.17638,166723
2.18450,167360
2.19263,168670
2.20075,156891
2.20887,161102
2.21700,159907
2.22512,157389
2.23325,156903
2.24137,153006
2.24948,149404
2.25762,145133
2.26573,159833
2.27387,415550
2.28198,1723026
2.29010,1879550
2.29823,911688
2.30635,565441
2.31448,459065
2.32260,410637
2.33072,369317
2.33885,342357
2.34697,327935
2.35508,291370
2.36322,280258
2.37133,259623
2.37947,275841
2.38758,437661
2.39570,454464
2.40383,310190
2.41195,261765
2.42008,254132
2.42820,259639
2.43632,244175
2.44445,240639
2.45257,251040
2.46070,233926
2.46882,227375
2.47693,224141
2.48507,205913
2.49318,220605
2.50130,266498
2.50943,238051
2.51755,209728
2.52568,216312
2.53380,202129
2.54192,206437
2.55005,205600
2.55817,239697
2.56630,326204
2.57442,334872
2.58253,270721
2.59067,262399
2.59878,249806
2.60690,265404
2.61503,466143
2.62315,585939
2.63128,451761
2.63940,334546
2.64752,285361
2.65565,263943
2.66377,253514
2.67190,246184
2.68002,314451
2.68813,351679
2.69627,271430
2.70438,222714
2.71252,207240
2.72063,208018
2.72875,218647
2.73688,213018
2.74500,210437
2.75312,206731
2.76125,205467
2.76937,201999
2.77750,205099
2.78562,286798
2.79373,426674
2.80187,359247
2.80998,285095
2.81812,291074
2.82623,470194
2.83435,1059951
2.84248,1300153
2.85060,784439
2.85872,458091
2.86685,417849
2.87497,395172
2.88310,307190
2.89122,269998
2.89933,249248
2.90747,233293
2.91558,234171
2.92372,217908
2.93183,205579
2.93995,194944
2.94808,195094
2.95620,197888
2.96433,195476
2.97245,198242
2.98057,196252
2.98870,201143
2.99682,217661
3.00493,234299
3.01307,249760
3.02118,273197
3.02932,506258
3.03743,1101588
3.04555,1570893
3.05368,3469751
3.06180,9635601
3.06993,1.304002E+07
3.07805,8513428
3.08617,4228749
3.09430,3154080
3.10242,3081724
3.11055,3040992
3.11867,2901386
3.12678,2125539
3.13492,1500457
3.14303,1200889
3.15115,1010850
3.15928,859892
3.16740,834509
3.17553,864196
3.18365,889478
3.19177,1248343
3.19990,1826672
3.20802,1685167
3.21615,1220533
3.22427,1000649
3.23238,896596
3.24052,808743
3.24863,709770
3.25675,631548
3.26488,581894
3.27300,530947
3.28113,543842
3.28925,818066
3.29737,1992723
3.30550,4001891
3.31362,5177886
3.32175,4482285
3.32987,3265292
3.33798,2402891
3.34612,1906118
3.35423,1582562
3.36237,1356919
3.37048,1307966
3.37860,1580730
3.38673,1769526
3.39485,1578323
3.40297,1558305
3.41110,2887279
3.41922,4893375
3.42735,4723482
3.43547,2900477
3.44358,1683207
3.45172,1187807
3.45983,989968
3.46797,885019
3.47608,831353
3.48420,748433
3.49233,680166
3.50045,629442
3.50858,590265
3.51670,562745
3.52482,560330
3.53295,573382
3.54107,573586
3.54918,531441
3.55732,505493
3.56543,496529
3.57357,557864
3.58168,636216
3.58980,606369
3.59793,510434
3.60605,487249
3.61418,534741
3.62230,968844
3.63042,2114228
3.63855,3325456
3.64667,3107984
3.65478,2030312
3.66292,1407102
3.67103,2320641
3.67917,5050432
3.68728,6358621
3.69540,4656400
3.70353,2793998
3.71165,2011510
3.71978,1602150
3.72790,1386215
3.73602,1263056
3.74415,1159973
3.75227,1070579
3.76040,1007857
3.76852,949141
3.77663,922904
3.78477,860128
3.79288,831872
3.80100,804172
3.80913,959029
3.81725,1223921
3.82538,1301443
3.83350,1071332
3.84162,878502
3.84975,767611
3.85787,708742
3.86600,664713
3.87412,634593
3.88223,594712
3.89037,593521
3.89848,585696
3.90660,562432
3.91473,572435
3.92285,682174
3.93098,806832
3.93910,817838
3.94722,843869
3.95535,1312750
3.96347,2395337
3.97160,3064039
3.97972,2472370
3.98783,1585774
3.99597,1582833
4.00408,3513206
4.01222,7190989
4.02033,8981952
4.02845,6892851
4.03658,3851528
4.04470,2203741
4.05282,1533419
4.06095,1231086
4.06907,1047994
4.07720,906076
4.08532,811703
4.09343,744845
4.10157,678220
4.10968,639064
4.11782,593012
4.12593,575173
4.13405,623832
4.14218,856276
4.15030,1330636
4.15843,1561274
4.16655,1336847
4.17467,1016060
4.18280,831963
4.19092,720468
4.19903,641366
4.20717,700930
4.21528,1493020
4.22342,4637316
4.23153,1.015649E+07
4.23965,1.414427E+07
4.24778,1.374549E+07
4.25590,9598991
4.26403,6258835
4.27215,4475838
4.28027,3372741
4.28840,2659320
4.29652,2106278
4.30463,1747762
4.31277,1484830
4.32088,1302252
4.32902,1149420
4.33713,1036340
4.34525,981420
4.35338,954978
4.36150,914638
4.36963,872832
4.37775,798607
4.38587,744866
4.39400,672902
4.40212,646685
4.41025,620077
4.41837,592855
4.42648,562676
4.43462,541824
4.44273,548887
4.45085,542725
4.45898,531421
4.46710,524394
4.47523,505024
4.48335,491723
4.49147,468897
4.49960,458833
4.50772,437005
4.51585,431736
4.52397,429967
4.53208,419331
4.54022,405945
4.54833,405080
4.55647,399969
4.56458,389979
4.57270,374635
4.58083,373813
4.58895,365245
4.59707,356145
4.60520,360764
4.61332,359814
4.62145,410369
4.62957,535111
4.63768,746274
4.64582,843979
4.65393,740618
4.66207,584001
4.67018,464476
4.67830,430015
4.68643,404156
4.69455,388843
4.70267,374796
4.71080,350498
4.71892,338079
4.72705,330508
4.73517,331288
4.74328,312960
4.75142,316133
4.75953,304772
4.76767,304095
4.77578,297881
4.78390,304023
4.79203,325018
4.80015,390283
4.80828,441967
4.81640,436416
4.82452,400021
4.83265,364601
4.84077,361195
4.84888,350904
4.85702,344927
4.86513,333145
4.87327,323376
4.88138,316903
4.88950,311632
4.89763,296576
4.90575,301777
4.91388,324256
4.92200,429639
4.93012,714769
4.93825,1174516
4.94637,1561022
4.95450,1658344
4.96262,1503609
4.97073,1200077
4.97887,944191
4.98698,789565
4.99510,679680
5.00323,606220
5.01135,560912
5.01948,556462
5.02760,683332
5.03572,910620
5.04385,1113811
5.05197,1078843
5.06010,911255
5.06822,776609
5.07633,673209
5.08447,604706
5.09258,590664
5.10070,589443
5.10883,632505
5.11695,660334
5.12508,645682
5.13320,590655
5.14132,539348
5.14945,497746
5.15757,511245
5.16570,572799
5.17382,628351
5.18193,668546
5.19007,677600
5.19818,650310
5.20632,615158
5.21443,583379
5.22255,516187
5.23068,476818
5.23880,460511
5.24692,416361
5.25505,403792
5.26317,383384
5.27130,374178
5.27942,366926
5.28753,368634
5.29567,356173
5.30378,338536
5.31192,328968
5.32003,322780
5.32815,324805
5.33628,342567
5.34440,336761
5.35252,329364
5.36065,321026
5.36877,306143
5.37690,304760
5.38502,313157
5.39313,316482
5.40127,320836
5.40938,315424
5.41752,297501
5.42563,293484
5.43375,281301
5.44188,295186
5.45000,289707
5.45813,295702
5.46625,283961
5.47437,264853
5.48250,269756
5.49062,266393
5.49873,256086
5.50687,267314
5.51498,255416
5.52312,259894
5.53123,252324
5.53935,264290
5.54748,265535
5.55560,281703
5.56373,326844
5.57185,359282
5.57997,358217
5.58810,341686
5.59622,302861
5.60435,279571
5.61247,259728
5.62058,259701
5.62872,259419
5.63683,263230
5.64495,256547
5.65308,252051
5.66120,256029
5.66933,251734
5.67745,258948
5.68557,276962
5.69370,286155
5.70182,292142
5.70995,305759
5.71807,310722
5.72618,331291
5.73432,335277
5.74243,317019
5.75055,313621
5.75868,316741
5.76680,336866
5.77493,334021
5.78305,321600
5.79117,311257
5.79930,335223
5.80742,489826
5.81555,817645
5.82367,1261083
5.83178,1551151
5.83992,1548466
5.84803,1212882
5.85617,848669
5.86428,590870
5.87240,455069
5.88053,374682
5.88865,331835
5.89677,328565
5.90490,361088
5.91302,456643
5.92115,605884
5.92927,753128
5.93738,764360
5.94552,670434
5.95363,556419
5.96177,517315
5.96988,627726
5.97800,843146
5.98613,945350
5.99425,854602
6.00238,651337
6.01050,457665
6.01862,365530
6.02675,302602
6.03487,286359
6.04298,254599
6.05112,246727
6.05923,236504
6.06737,222633
6.07548,219853
6.08360,212567
6.09173,214269
6.09985,221620
6.10798,206922
6.11610,222754
6.12422,261371
6.13235,336852
6.14047,440052
6.14858,492515
6.15672,462223
6.16483,379347
6.17297,313329
6.18108,302363
6.18920,287082
6.19733,288935
6.20545,298108
6.21358,283892
6.22170,256252
6.22982,238721
6.23795,238482
6.24607,232663
6.25420,244526
6.26232,246862
6.27043,246341
6.27857,243373
6.28668,234978
6.29480,230809
6.30293,234786
6.31105,233071
6.31918,241122
6.32730,254510
6.33542,271416
6.34355,275217
6.35167,274548
6.35980,276441
6.36792,266308
6.37603,259531
6.38417,258210
6.39228,250738
6.40040,257220
6.40853,252276
6.41665,258337
6.42478,255071
6.43290,249375
6.44102,266661
6.44915,255511
6.45727,263460
6.46540,262183
6.47352,263302
6.48163,270981
6.48977,279464
6.49788,283844
6.50602,280121
6.51413,289907
6.52225,279217
6.53038,296473
6.53850,316845
6.54662,311160
6.55475,306213
6.56287,323050
6.57100,361448
6.57912,390211
6.58723,399137
6.59537,363464
6.60348,337738
6.61162,323426
6.61973,315593
6.62785,315061
6.63598,308153
6.64410,362884
6.65223,531669
6.66035,868409
6.66847,1169885
6.67660,1216540
6.68472,996528
6.69283,771573
6.70097,652295
6.70908,527782
6.71722,440074
6.72533,375724
6.73345,328963
6.74158,260923
6.74970,228831
6.75783,223808
6.76595,215658
6.77407,229657
6.78220,303695
6.79032,492515
6.79845,786344
6.80657,1106000
6.81468,1238146
6.82282,1118677
6.83093,789684
6.83905,535643
6.84718,382142
6.85530,305941
6.86343,285590
6.87155,252735
6.87967,220326
6.88780,176998
6.89592,156731
6.90405,150935
6.91217,149786
6.92028,154011
6.92842,203424
6.93653,269287
6.94465,392280
6.95278,493669
6.96090,515873
6.96903,472701
6.97715,391589
6.98527,293050
6.99340,231519
7.00152,182817
7.00965,154684
7.01777,143749
7.02588,139993
7.03402,141227
7.04213,144256
7.05027,143931
7.05838,137492
7.06650,134887
7.07463,126681
7.08275,121642
7.09087,120229
7.09900,119462
7.10712,115378
7.11525,111381
7.12337,109168
7.13148,110864
7.13962,121242
7.14773,137505
7.15587,151593
7.16398,180952
7.17210,193651
7.18023,210705
7.18835,222532
7.19647,242783
7.20460,310029
7.21272,482708
7.22085,807821
7.22897,1119504
7.23708,1197080
7.24522,942863
7.25333,639428
7.26147,438429
7.26958,329690
7.27770,252543
7.28583,206560
7.29395,192543
7.30208,218924
7.31020,268259
7.31832,330083
7.32645,369757
7.33457,385096
7.34268,324657
7.35082,267366
7.35893,214493
7.36707,172355
7.37518,150378
7.38330,140690
7.39143,135379
7.39955,145223
7.40768,157272
7.41580,190658
7.42392,231488
7.43205,247156
7.44017,252894
7.44830,235547
7.45642,200094
7.46453,165087
7.47267,141928
7.48078,134853
7.48890,115777
7.49703,117483
7.50515,127350
7.51328,145093
7.52140,203802
7.52952,297586
7.53765,435653
7.54577,569314
7.55390,647664
7.56202,642801
7.57013,553351
7.57827,422511
7.58638,288582
7.59450,212776
7.60263,175268
7.61075,147411
7.61888,136397
7.62700,129841
7.63512,124417
7.64325,116271
7.65137,112564
7.65950,107242
7.66762,108482
7.67573,107030
7.68387,106757
7.69198,105746
7.70012,105457
7.70823,109743
7.71635,100352
7.72448,103810
7.73260,101535
7.74072,100967
7.74885,98795
7.75697,106927
7.76510,102724
7.77322,100661
7.78133,103334
7.78947,109059
7.79758,107627
7.80572,113724
7.81383,108397
7.82195,110409
7.83008,103810
7.83820,105161
7.84633,104864
7.85445,100627
7.86257,102965
7.87070,112023
7.87882,121168
7.88693,120909
7.89507,114647
7.90318,103700
7.91132,99821
7.91943,107100
7.92755,112013
7.93568,123849
7.94380,137246
7.95193,130897
7.96005,123018
7.96817,108270
7.97630,98172
7.98442,90834
7.99253,88264
8.00067,84094
8.00878,89345
8.01692,87509
8.02503,95363
8.03315,84671
8.04128,88243
8.04940,88444
8.05753,83007
8.06565,86630
8.07377,80688
8.08190,86230
8.09002,77275
8.09815,81537
8.10627,81901
8.11438,83594
8.12252,81031
8.13063,90029
8.13875,98221
8.14688,108910
8.15500,102189
8.16313,95555
8.17125,95589
8.17937,85056
8.18750,81920
8.19562,85466
8.20375,83998
8.21187,79865
8.21998,85832
8.22812,82939
8.23623,92851
8.24435,81617
8.25248,83511
8.26060,84467
8.26873,76107
8.27685,78948
8.28497,77139
8.29310,80573
8.30122,84536
8.30935,85947
8.31747,83498
8.32558,85126
8.33372,76345
8.34183,82196
8.34997,81198
8.35808,77501
8.36620,78043
8.37433,80907
8.38245,75493
8.39057,75101
8.39870,75093
8.40682,70828
8.41495,69740
8.42307,67756
8.43118,73888
8.43932,71891
8.44743,72459
8.45557,68956
8.46368,73422
8.47180,69551
8.47993,75303
8.48805,73893
8.49618,75279
8.50430,73809
8.51242,81825
8.52055,86803
8.52867,113571
8.53678,146362
8.54492,167181
8.55303,169082
8.56117,158826
8.56928,123847
8.57740,103792
8.58553,89682
8.59365,90976
8.60178,90611
8.60990,89547
8.61802,88852
8.62615,80325
8.63427,77548
8.64238,80717
8.65052,79705
8.65863,81561
8.66677,81671
8.67488,80709
8.68300,82975
8.69113,82414
8.69925,81315
8.70738,85897
8.71550,107696
8.72362,161477
8.73175,260505
8.73987,364479
8.74800,449915
8.75612,453709
8.76423,374676
8.77237,273170
8.78048,205270
8.78860,163535
8.79673,141786
8.80485,140096
8.81298,138587
8.82110,140081
8.82922,144746
8.83735,141144
8.84547,134586
8.85360,127578
8.86172,131710
8.86983,126456
8.87797,121703
8.88608,115526
8.89422,118092
8.90233,117664
8.91045,111993
8.91858,114124
8.92670,112756
8.93482,119711
8.94295,119649
8.95107,125943
8.95920,123038
8.96732,112683
8.97543,113616
8.98357,117355
8.99168,117352
8.99982,115025
9.00793,108726
9.01605,103491
9.02418,104779
9.03230,104949
9.04042,98955
9.04855,98782
9.05667,101268
9.06480,100018
9.07292,95560
9.08103,98181
9.08917,105515
9.09728,113914
9.10542,121009
9.11353,134717
9.12165,127538
9.12978,117106
9.13790,108354
9.14603,103950
9.15415,99147
9.16227,94517
9.17040,94027
9.17852,91408
9.18663,89611
9.19477,92580
9.20288,85079
9.21102,89408
9.21913,84379
9.22725,88368
9.23538,92141
9.24350,92563
9.25163,86101
9.25975,79156
9.26787,82100
9.27600,83343
9.28412,85681
9.29223,81390
9.30037,86118
9.30848,81358
9.31662,84485
9.32473,90677
9.33285,90776
9.34098,87129
9.34910,84189
9.35723,89419
9.36535,78211
9.37347,85269
9.38160,81587
9.38972,87819
9.39785,88085
9.40597,102886
9.41408,114904
9.42222,138702
9.43033,144649
9.43845,144130
9.44658,134398
9.45470,112175
9.46283,102281
9.47095,89406
9.47907,84691
9.48720,84828
9.49532,88410
9.50345,86900
9.51157,89610
9.51968,90476
9.52782,84171
9.53593,75485
9.54407,76373
9.55218,70019
9.56030,64242
9.56843,67952
9.57655,66791
9.58467,70602
9.59280,72685
9.60092,69373
9.60905,61611
9.61717,57644
9.62528,58890
9.63342,59528
9.64153,56271
9.64967,61235
9.65778,58752
9.66590,58199
9.67403,61485
9.68215,57959
9.69027,60842
9.69840,57700
9.70652,59729
9.71465,56373
9.72277,54475
9.73088,56160
9.73902,56071
9.74713,52889
9.75527,53432
9.76338,52314
9.77150,54010
9.77963,55281
9.78775,53857
9.79588,54667
9.80400,55031
9.81212,52910
9.82025,52908
9.82837,52305
9.83648,53332
9.84462,56571
9.85273,53140
9.86087,58459
9.86898,64060
9.87710,58903
9.88523,57926
9.89335,57503
9.90148,54576
9.90960,56299
9.91772,59316
9.92585,65727
9.93397,79642
9.94210,96679
9.95022,106110
9.95833,108439
9.96647,105059
9.97458,94942
9.98270,84476
9.99083,74909
9.99895,65961
10.00708,60272
10.01520,64344
10.02332,60111
10.03145,58297
10.03957,60840
10.04770,57833
10.05582,63068
10.06393,59890
10.07207,58105
10.08018,67891
10.08830,62190
10.09643,60721
10.10455,59053
10.11268,59697
10.12080,53646
10.12892,55597
10.13705,56731
10.14517,55169
10.15330,58611
10.16142,55231
10.16953,56171
10.17767,53696
10.18578,52357
10.19392,53289
10.20203,59918
10.21015,56942
10.21828,61971
10.22640,64184
10.23452,66178
10.24265,73807
10.25077,87653
10.25890,128826
10.26702,239969
10.27513,454186
10.28327,781106
10.29138,1155956
10.29952,1618215
10.30763,2301780
10.31575,3346038
10.32388,4226478
10.33200,4545828
10.34013,3939728
10.34825,2994147
10.35637,2192842
10.36450,1652212
10.37262,1243184
10.38073,873701
10.38887,584541
10.39698,389894
10.40512,280109
10.41323,223690
10.42135,205462
10.42948,199052
10.43760,192074
10.44573,183696
10.45385,180891
10.46197,168240
10.47010,155858
10.47822,155861
10.48633,153031
10.49447,137619
10.50258,141114
10.51072,141291
10.51883,122614
10.52695,123172
10.53508,118116
10.54320,108602
10.55133,108372
10.55945,104829
10.56757,101738
10.57570,103777
10.58382,94855
10.59195,97484
10.60007,95262
10.60818,90970
10.61632,88969
10.62443,85827
10.63255,90287
10.64068,96237
10.64880,81854
10.65693,82484
10.66505,84154
10.67317,87430
10.68130,90877
10.68942,89051
10.69755,91473
10.70567,88808
10.71378,85109
10.72192,80968
10.73003,83314
10.73815,75334
10.74628,72022
10.75440,77914
10.76253,71176
10.77065,75527
10.77877,70379
10.78690,74739
10.79502,74284
10.80315,78228
10.81127,80315
10.81938,71413
10.82752,68538
10.83563,71027
10.84377,70161
10.85188,66326
10.86000,63207
10.86813,61998
10.87625,66591
10.88437,66367
10.89250,65627
10.90062,62477
10.90875,65844
10.91687,66867
10.92498,64396
10.93312,63780
10.94123,58400
10.94937,61420
10.95748,62779
10.96560,64877
10.97373,70290
10.98185,72089
10.98998,72482
10.99810,65068
11.00622,63528
11.01435,63254
11.02247,63028
11.03058,59216
11.03872,62080
11.04683,61535
11.05497,68359
11.06308,66455
11.07120,75757
11.07933,84094
11.08745,81305
11.09558,85784
11.10370,85625
11.11182,93893
11.11995,84292
11.12807,81826
11.13618,78630
11.14432,82121
11.15243,75421
11.16057,76675
11.16868,80316
11.17680,82351
11.18493,84512
11.19305,88173
11.20118,81514
11.20930,80892
11.21742,71945
11.22555,74764
11.23367,75638
11.24180,83953
11.24992,104018
11.25803,134979
11.26617,172571
11.27428,211870
11.28240,248804
11.29053,278396
11.29865,322154
11.30678,428521
11.31490,611183
11.32302,860696
11.33115,1076149
11.33927,1133287
11.34740,984685
11.35552,763230
11.36363,551191
11.37177,376610
11.37988,280393
11.38802,239770
11.39613,215628
11.40425,190622
11.41238,192822
11.42050,169931
11.42862,155012
11.43675,140694
11.44487,137168
11.45300,126335
11.46112,125188
11.46923,129661
11.47737,133930
11.48548,142440
11.49362,157291
11.50173,160931
11.50985,162313
11.51798,159784
11.52610,154725
11.53422,154137
11.54235,139171
11.55047,137721
11.55860,119288
11.56672,111789
11.57483,111225
11.58297,106267
11.59108,110042
11.59922,116973
11.60733,123046
11.61545,123798
11.62358,122117
11.63170,114766
11.63983,109680
11.64795,100665
11.65607,101793
11.66420,97216
11.67232,98790
11.68043,103865
11.68857,111575
11.69668,110356
11.70482,121001
11.71293,128568
11.72105,136427
11.72918,129543
11.73730,120522
11.74543,116222
11.75355,105674
11.76167,95744
11.76980,90305
11.77792,89674
11.78603,93754
11.79417,88648
11.80228,95808
11.81042,89069
11.81853,84511
11.82665,85839
11.83478,83559
11.84290,76698
11.85103,71041
11.85915,71700
11.86727,72257
11.87540,71127
11.88352,71651
11.89165,75185
11.89977,76550
11.90788,90361
11.91602,100595
11.92413,113600
11.93225,112990
11.94038,102882
11.94850,100633
11.95663,90460
11.96475,77791
11.97287,73300
11.98100,70524
11.98912,78751
11.99725,84116
12.00537,87750
12.01348,89136
12.02162,81051
12.02973,81522
12.03787,70961
12.04598,72283
12.05410,75063
12.06223,74013
12.07035,80210
12.07847,84888
12.08660,83314
12.09472,78679
12.10285,78989
12.11097,80471
12.11908,79756
12.12722,81020
12.13533,76170
12.14347,77159
12.15158,74348
12.15970,64391
12.16783,66402
12.17595,63548
12.18408,64095
12.19220,61126
12.20032,64680
12.20845,65052
12.21657,59125
12.22468,63102
12.23282,63363
12.24093,61957
12.24907,64580
12.25718,62156
12.26530,65324
12.27343,67573
12.28155,70939
12.28968,72862
12.29780,77068
12.30592,78988
12.31405,73272
12.32217,69906
12.33028,67298
12.33842,68474
12.34653,60899
12.35467,60833
12.36278,61736
12.37090,61241
12.37903,61652
12.38715,71733
12.39528,83691
12.40340,106235
12.41152,121415
12.41965,135755
12.42777,125292
12.43590,108276
12.44402,103166
12.45213,89518
12.46027,78410
12.46838,80290
12.47650,75156
12.48463,68039
12.49275,67428
12.50088,63445
12.50900,64786
12.51712,68449
12.52525,64958
12.53337,71753
12.54150,82745
12.54962,90617
12.55773,107502
12.56587,107397
12.57398,109137
12.58210,93215
12.59023,84599
12.59835,74727
12.60648,73809
12.61460,64450
12.62272,68596
12.63085,65448
12.63897,60542
12.64710,67543
12.65522,60904
12.66333,63202
12.67147,56825
12.67958,62276
12.68772,61316
12.69583,62101
12.70395,55526
12.71208,60488
12.72020,62054
12.72832,69580
12.73645,68649
12.74457,60594
12.75270,63949
12.76082,66377
12.76893,69094
12.77707,75123
12.78518,79857
12.79332,79843
12.80143,78252
12.80955,69598
12.81768,68254
12.82580,62803
12.83393,63204
12.84205,59055
12.85017,58351
12.85830,63171
12.86642,60970
12.87453,55806
12.88267,59217
12.89078,59432
12.89892,56129
12.90703,59707
12.91515,61160
12.92328,76208
12.93140,95262
12.93953,125504
12.94765,157322
12.95577,176466
12.96390,191436
12.97202,189179
12.98013,162828
12.98827,138788
12.99638,120103
13.00452,112814
13.01263,102993
13.02075,105293
13.02888,99293
13.03700,95429
13.04513,86038
13.05325,85434
13.06137,86353
13.06950,72646
13.07762,68805
13.08575,72856
13.09387,64115
13.10198,66898
13.11012,65171
13.11823,63756
13.12635,60492
13.13448,60020
13.14260,58548
13.15073,59107
13.15885,59441
13.16697,65486
13.17510,63105
13.18322,62145
13.19135,58681
13.19947,60837
13.20758,62609
13.21572,64695
13.22383,73232
13.23197,78059
13.24008,83969
13.24820,86602
13.25633,90940
13.26445,84971
13.27257,82439
13.28070,82489
13.28882,78230
13.29695,83853
13.30507,87119
13.31318,92320
13.32132,84090
13.32943,85836
13.33757,78451
13.34568,74988
13.35380,68469
13.36193,67691
13.37005,67637
13.37817,66516
13.38630,61184
13.39442,65077
13.40255,63807
13.41067,64159
13.41878,62600
13.42692,58822
13.43503,60282
13.44317,64799
13.45128,64443
13.45940,57550
13.46753,62235
13.47565,60202
13.48378,57388
13.49190,59644
13.50002,62859
13.50815,59359
13.51627,63418
13.52438,66117
13.53252,73010
13.54063,77377
13.54877,80858
13.55688,78544
13.56500,80732
13.57313,78108
13.58125,86447
13.58938,95498
13.59750,105909
13.60562,125408
13.61375,147979
13.62187,159687
13.62998,150435
13.63812,133764
13.64623,110822
13.65437,94962
13.66248,86289
13.67060,80938
13.67873,77935
13.68685,80094
13.69498,73165
13.70310,77058
13.71122,74972
13.71935,72486
13.72747,67509
13.73560,68624
13.74372,75988
13.75183,84762
13.75997,99710
13.76808,116714
13.77620,128007
13.78433,132244
13.79245,147911
13.80058,164801
13.80870,198885
13.81682,225424
13.82495,237032
13.83307,244818
13.84120,216553
13.84932,177633
13.85743,150079
13.86557,133355
13.87368,123274
13.88182,112816
13.88993,105567
13.89805,107987
13.90618,101508
13.91430,94958
13.92242,90134
13.93055,82422
13.93867,82894
13.94680,80843
13.95492,78856
13.96303,78039
13.97117,84128
13.97928,85779
13.98742,75262
13.99553,77072
14.00365,73713
14.01178,73633
14.01990,71176
14.02802,71072
14.03615,70549
14.04427,65804
14.05240,67293
14.06052,66956
14.06863,72256
14.07677,63235
14.08488,63579
14.09302,58996
14.10113,60198
14.10925,59148
14.11738,68738
14.12550,80240
14.13363,103459
14.14175,144005
14.14987,182138
14.15800,220650
14.16612,216564
14.17423,188716
14.18237,166510
14.19048,140937
14.19862,131373
14.20673,121048
14.21485,111493
14.22298,106639
14.23110,102933
14.23923,105759
14.24735,103157
14.25547,99335
14.26360,88215
14.27172,89394
14.27985,76299
14.28797,80558
14.29608,70956
14.30422,65614
14.31233,57253
14.32045,55158
14.32858,54621
14.33670,46802
14.34483,44044
14.35295,44423
14.36107,45647
14.36920,44390
14.37732,51783
14.38545,58222
14.39357,78935
14.40168,104507
14.40982,127770
14.41793,149292
14.42605,148447
14.43418,118467
14.44230,102325
14.45043,82831
14.45855,74712
14.46667,73738
14.47480,72353
14.48292,64248
14.49105,64090
14.49917,59675
14.50728,57287
14.51542,57756
14.52353,52328
14.53167,52682
14.53978,51757
14.54790,51870
14.55603,50881
14.56415,53511
14.57227,51329
14.58040,49570
14.58852,53288
14.59665,47685
14.60477,47561
14.61288,45150
14.62102,42281
14.62913,44964
14.63727,48544
14.64538,44702
14.65350,43448
14.66163,43778
14.66975,44268
14.67788,42609
14.68600,46641
14.69412,43220
14.70225,43266
14.71037,45942
14.71848,43708
14.72662,47397
14.73473,44154
14.74287,45369
14.75098,47423
14.75910,44094
14.76723,46444
14.77535,51303
14.78348,67846
14.79160,125897
14.79972,253982
14.80785,455984
14.81597,703328
14.82408,885460
14.83222,875499
14.84033,729093
14.84847,493127
14.85658,318016
14.86470,207213
14.87283,161301
14.88095,124648
14.88908,110342
14.89720,102810
14.90532,98383
14.91345,92205
14.92157,89522
14.92970,84603
14.93782,76789
14.94593,68652
14.95407,70980
14.96218,66596
14.97030,65801
14.97843,64185
14.98655,62638
14.99468,60497
15.00280,65212
15.01092,61135
15.01905,58779
15.02717,57970
15.03530,61978
15.04342,61235
15.05153,57112
15.05967,54069
15.06778,53470
15.07590,55175
15.08403,55126
15.09215,49129
15.10028,53964
15.10840,48668
15.11652,53356
15.12465,52517
15.13277,56142
15.14090,52611
15.14902,51297
15.15713,52651
15.16527,46537
15.17338,44815
15.18152,44087
15.18963,43867
15.19775,42698
15.20588,41466
15.21400,40408
15.22212,41076
15.23025,46034
15.23837,45122
15.24650,44446
15.25462,41125
15.26273,41330
15.27087,41800
15.27898,43142
15.28712,44726
15.29523,42865
15.30335,39877
15.31148,42413
15.31960,37811
15.32773,39454
15.33585,40617
15.34397,36488
15.35210,36289
15.36022,39763
15.36833,40751
15.37647,39067
15.38458,42081
15.39272,38021
15.40083,40256
15.40895,40939
15.41708,39537
15.42520,38368
15.43333,38849
15.44145,42157
15.44957,47672
15.45770,63191
15.46582,89607
15.47393,129255
15.48207,162504
15.49018,201241
15.49832,204291
15.50643,184075
15.51455,155723
15.52268,131986
15.53080,113398
15.53893,95714
15.54705,85320
15.55517,74899
15.56330,64934
15.57142,64698
15.57955,61364
15.58767,56793
15.59578,54396
15.60392,53400
15.61203,48502
15.62015,47969
15.62828,45332
15.63640,47929
15.64453,45371
15.65265,46638
15.66077,48250
15.66890,45049
15.67702,47142
15.68515,42979
15.69327,42912
15.70138,44198
15.70952,43227
15.71763,43393
15.72577,42543
15.73388,46077
15.74200,42872
15.75013,49905
15.75825,62293
15.76637,77769
15.77450,96859
15.78262,99512
15.79075,103329
15.79887,91029
15.80698,72711
15.81512,60411
15.82323,57619
15.83137,52768
15.83948,53573
15.84760,52412
15.85573,45441
15.86385,48180
15.87197,47384
15.88010,51118
15.88822,41931
15.89635,44193
15.90447,43590
15.91258,43715
15.92072,43806
15.92883,42343
15.93697,41146
15.94508,45393
15.95320,48105
15.96133,45337
15.96945,45843
15.97758,45983
15.98570,51349
15.99382,53858
16.00195,59620
16.01007,63527
16.01818,62325
16.02632,60151
16.03443,55635
16.04257,55854
16.05068,48890
16.05880,49133
16.06693,46740
16.07505,47519
16.08318,45776
16.09130,45084
16.09942,46970
16.10755,45844
16.11567,44597
16.12378,46051
16.13192,50364
16.14003,50020
16.14817,46731
16.15628,45722
16.16440,45857
16.17253,43488
16.18065,45035
16.18878,46438
16.19690,44505
16.20502,47648
16.21315,42799
16.22127,45307
16.22940,46848
16.23752,42318
16.24563,42458
16.25377,40509
16.26188,42914
16.27000,45972
16.27813,45809
16.28625,49736
16.29438,52515
16.30250,48508
16.31062,47211
16.31875,44130
16.32687,46779
16.33500,46113
16.34312,47856
16.35123,46228
16.35937,51759
16.36748,42424
16.37562,46305
16.38373,46297
16.39185,46499
16.39998,45499
16.40810,45138
16.41622,43222
16.42435,47307
16.43247,42917
16.44060,52003
16.44872,64424
16.45683,88890
16.46497,117301
16.47308,129145
16.48122,135130
16.48933,118830
16.49745,100018
16.50558,76875
16.51370,61736
16.52183,57645
16.52995,58157
16.53807,52503
16.54620,50884
16.55432,48257
16.56243,48368
16.57057,49637
16.57868,51570
16.58682,50130
16.59493,49656
16.60305,50675
16.61118,50052
16.61930,49088
16.62743,44741
16.63555,43114
16.64367,45997
16.65180,41307
16.65992,44277
16.66803,47525
16.67617,44987
16.68428,44543
16.69242,41747
16.70053,43604
16.70865,43418
16.71678,42046
16.72490,40019
16.73303,41856
16.74115,42309
16.74927,45605
16.75740,45866
16.76552,42779
16.77365,43279
16.78177,40239
16.78988,39772
16.79802,40093
16.80613,43560
16.81425,44038
16.82238,40993
16.83050,41222
16.83863,44534
16.84675,39136
16.85487,40152
16.86300,45053
16.87112,43732
16.87925,47030
16.88737,41530
16.89548,42710
16.90362,41746
16.91173,40800
16.91985,42411
16.92798,39748
16.93610,44195
16.94423,41245
16.95235,39032
16.96047,42621
16.96860,41682
16.97672,41822
16.98485,47846
16.99297,42828
17.00108,44502
17.00922,45608
17.01733,43528
17.02547,44996
17.03358,47350
17.04170,42943
17.04983,47085
17.05795,48242
17.06607,45052
17.07420,43973
17.08232,44354
17.09045,43973
17.09857,48096
17.10668,46414
17.11482,45261
17.12293,45388
17.13107,47280
17.13918,46100
17.14730,48766
17.15543,45193
17.16355,45959
17.17168,45457
17.17980,46475
17.18792,44893
17.19605,44925
17.20417,41752
17.21228,43455
17.22042,41711
17.22853,38713
17.23667,40942
17.24478,40658
17.25290,42767
17.26103,45358
17.26915,43334
17.27728,39629
17.28540,48639
17.29352,43390
17.30165,46120
17.30977,45665
17.31788,51692
17.32602,52192
17.33413,56159
17.34227,55071
17.35038,56759
17.35850,58047
17.36663,55174
17.37475,56654
17.38288,58523
17.39100,58873
17.39912,59405
17.40725,60204
17.41537,61612
17.42350,60261
17.43162,62156
17.43973,55989
17.44787,59148
17.45598,52971
17.46410,47873
17.47223,48989
17.48035,52241
17.48848,49983
17.49660,51041
17.50472,56943
17.51285,61534
17.52097,65462
17.52910,72539
17.53722,77378
17.54533,76836
17.55347,85209
17.56158,93390
17.56972,110923
17.57783,135679
17.58595,160189
17.59408,176014
17.60220,177398
17.61032,161952
17.61845,142801
17.62657,115436
17.63470,95551
17.64282,83178
17.65093,72597
17.65907,71005
17.66718,71611
17.67532,67695
17.68343,67315
17.69155,68918
17.69968,66079
17.70780,66707
17.71592,62491
17.72405,64119
17.73217,57952
17.74030,59590
17.74842,59253
17.75653,58323
17.76467,56428
17.77278,51389
17.78092,58594
17.78903,57532
17.79715,56410
17.80528,62375
17.81340,68949
17.82153,74197
17.82965,77518
17.83777,73466
17.84590,75846
17.85402,77735
17.86213,70708
17.87027,69430
17.87838,61659
17.88652,56783
17.89463,55363
17.90275,55358
17.91088,50664
17.91900,52026
17.92713,56310
17.93525,50884
17.94337,51533
17.95150,48927
17.95962,50844
17.96773,47223
17.97587,48630
17.98398,49441
17.99212,55278
18.00023,53646
18.00835,56480
18.01648,61370
18.02460,69937
18.03273,74445
18.04085,78560
18.04897,91889
18.05710,130505
18.06522,222620
18.07335,358556
18.08147,533615
18.08958,654349
18.09772,683855
18.10583,571476
18.11395,419793
18.12208,304022
18.13020,221731
18.13833,178354
18.14645,163178
18.15457,144356
18.16270,123549
18.17082,114979
18.17895,105905
18.18707,100793
18.19518,101231
18.20332,96634
18.21143,98244
18.21957,117140
18.22768,125645
18.23580,145097
18.24393,158808
18.25205,159851
18.26017,167787
18.26830,171944
18.27642,162327
18.28455,162472
18.29267,164496
18.30078,161519
18.30892,156032
18.31703,154799
18.32517,152530
18.33328,151632
18.34140,154752
18.34953,153851
18.35765,150235
18.36577,155299
18.37390,151438
18.38202,144423
18.39015,145155
18.39827,141998
18.40638,149676
18.41452,146428
18.42263,156299
18.43077,162506
18.43888,167867
18.44700,164218
18.45513,165837
18.46325,177907
18.47138,177650
18.47950,179295
18.48762,162633
18.49575,156353
18.50387,144387
18.51198,135250
18.52012,127161
18.52823,126783
18.53637,116537
18.54448,114288
18.55260,111461
18.56073,111589
18.56885,111971
18.57698,117539
18.58510,116107
18.59322,117697
18.60135,117099
18.60947,122465
18.61760,128758
18.62572,123720
18.63383,118714
18.64197,111020
18.65008,105561
18.65820,106729
18.66633,104824
18.67445,97003
18.68258,99941
18.69070,94794
18.69882,93500
18.70695,95768
18.71507,92630
18.72320,95762
18.73132,85220
18.73943,83582
18.74757,84414
18.75568,78821
18.76380,76863
18.77193,84455
18.78005,75790
18.78818,78008
18.79630,77095
18.80442,80235
18.81255,81081
18.82067,78827
18.82880,73171
18.83692,73999
18.84503,76961
18.85317,77435
18.86128,81185
18.86942,85544
18.87753,89000
18.88565,93937
18.89378,98241
18.90190,104183
18.91002,101830
18.91815,107394
18.92627,104956
18.93440,110304
18.94252,109907
18.95063,112133
18.95877,113667
18.96688,106900
18.97502,106036
18.98313,105617
18.99125,110050
18.99938,104364
19.00750,105430
19.01562,106208
19.02375,106455
19.03187,106030
19.04000,103753
19.04812,102276
19.05623,108813
19.06437,110772
19.07248,108539
19.08062,116332
19.08873,122072
19.09685,131193
19.10498,127619
19.11310,129662
19.12123,135598
19.12935,127665
19.13747,134362
19.14560,144640
19.15372,138851
19.16183,133062
19.16997,139804
19.17808,126124
19.18622,123133
19.19433,118510
19.20245,114908
19.21058,112409
19.21870,112383
19.22683,110158
19.23495,110870
19.24307,107532
19.25120,104176
19.25932,107767
19.26745,114980
19.27557,123734
19.28368,121993
19.29182,119351
19.29993,123719
19.30805,115874
19.31618,114803
19.32430,118764
19.33243,116646
19.34055,113325
19.34867,119854
19.35680,126906
19.36492,128063
19.37305,127845
19.38117,122801
19.38928,124796
19.39742,117080
19.40553,116223
19.41365,117160
19.42178,118091
19.42990,133112
19.43803,159043
19.44615,178516
19.45427,202987
19.46240,198255
19.47052,175464
19.47865,144014
19.48677,118410
19.49488,100781
19.50302,91797
19.51113,86102
19.51927,85851
19.52738,90813
19.53550,85021
19.54363,86280
19.55175,87175
19.55987,76178
19.56800,72044
19.57612,70610
19.58425,68724
19.59237,73608
19.60048,69814
19.60862,70131
19.61673,80361
19.62487,99476
19.63298,117589
19.64110,152921
19.64923,172493
19.65735,190948
19.66548,185915
19.67360,170422
19.68172,156359
19.68985,138364
19.69797,125319
19.70608,114914
19.71422,104869
19.72233,99298
19.73047,95870
19.73858,89812
19.74670,89410
19.75483,83605
19.76295,87197
19.77108,94361
19.77920,95382
19.78732,104175
19.79545,104050
19.80357,97375
19.81168,92321
19.81982,85114
19.82793,84019
19.83607,80154
19.84418,89245
19.85230,108971
19.86043,167960
19.86855,262082
19.87668,412704
19.88480,573146
19.89292,689837
19.90105,721415
19.90917,633516
19.91730,498868
19.92542,360554
19.93353,263194
19.94167,211120
19.94978,186015
19.95790,165553
19.96603,161029
19.97415,148117
19.98228,143528
19.99040,136465
19.99852,134084
20.00665,126621
20.01477,127288
20.02290,124676
20.03102,118211
20.03913,118530
20.04727,114418
20.05538,119819
20.06352,124899
20.07163,129323
20.07975,131726
20.08788,124782
20.09600,116260
20.10412,109736
20.11225,98285
20.12037,99360
20.12850,104670
20.13662,122327
20.14473,159345
20.15287,213477
20.16098,286814
20.16912,370376
20.17723,423293
20.18535,444938
20.19348,414118
20.20160,387212
20.20972,329297
20.21785,274308
20.22597,260706
20.23410,278959
20.24222,310150
20.25033,351736
20.25847,377700
20.26658,369879
20.27472,344837
20.28283,304648
20.29095,244225
20.29908,189375
20.30720,151859
20.31533,130366
20.32345,106699
20.33157,95039
20.33970,79894
20.34782,76994
20.35593,76520
20.36407,71632
20.37218,73417
20.38032,84735
20.38843,74890
20.39655,78840
20.40468,80336
20.41280,77489
20.42093,84407
20.42905,82494
20.43717,85278
20.44530,70064
20.45342,69689
20.46153,70479
20.46967,69970
20.47778,62355
20.48592,61611
20.49403,60830
20.50215,56892
20.51028,58823
20.51840,60017
20.52653,58007
20.53465,52636
20.54277,59477
20.55090,54413
20.55902,54779
20.56715,55531
20.57527,56169
20.58338,54472
20.59152,54943
20.59963,53568
20.60775,57315
20.61588,60288
20.62400,55730
20.63213,59273
20.64025,55175
20.64837,58660
20.65650,63975
20.66462,55734
20.67275,57171
20.68087,53851
20.68898,54545
20.69712,49746
20.70523,51113
20.71337,51968
20.72148,56744
20.72960,52522
20.73773,53725
20.74585,54748
20.75397,53635
20.76210,58120
20.77022,62766
20.77835,79862
20.78647,101089
20.79458,118601
20.80272,156866
20.81083,159506
20.81897,150969
20.82708,133513
20.83520,106882
20.84333,88764
20.85145,75324
20.85957,71472
20.86770,67490
20.87582,64269
20.88395,65552
20.89207,66755
20.90018,64272
20.90832,71448
20.91643,72421
20.92457,72663
20.93268,69978
20.94080,70315
20.94893,64329
20.95705,62749
20.96518,51757
20.97330,54479
20.98142,57110
20.98955,51256
20.99767,54319
21.00578,53252
21.01392,53352
21.02203,57884
21.03017,59338
21.03828,55778
21.04640,56944
21.05453,53418
21.06265,52570
21.07078,53925
21.07890,51184
21.08702,54603
21.09515,52127
21.10327,48735
21.11140,56943
21.11952,57263
21.12763,62967
21.13577,71990
21.14388,78651
21.15200,89617
21.16013,86998
21.16825,83393
21.17638,82393
21.18450,77358
21.19262,75573
21.20075,72578
21.20887,74280
21.21700,69673
21.22512,74097
21.23323,70092
21.24137,73633
21.24948,74336
21.25760,68652
21.26573,70315
21.27385,69053
21.28198,69628
21.29010,72893
21.29822,68052
21.30635,64681
21.31447,67134
21.32260,65356
21.33072,70105
21.33883,72972
21.34697,72437
21.35508,78725
21.36322,68553
21.37133,74252
21.37945,85568
21.38758,78047
21.39570,76254
21.40382,84350
21.41195,88159
21.42007,89006
21.42820,83509
21.43632,78502
21.44443,76363
21.45257,78485
21.46068,73296
21.46882,71703
21.47693,74351
21.48505,72696
21.49318,78405
21.50130,71110
21.50942,73667
21.51755,70908
21.52567,73591
21.53380,69953
21.54192,73242
21.55003,72937
21.55817,72580
21.56628,71379
21.57442,78358
21.58253,88457
21.59065,94958
21.59878,100140
21.60690,90086
21.61503,90504
21.62315,88246
21.63127,82605
21.63940,78998
21.64752,74276
21.65563,76658
21.66377,78247
21.67188,69002
21.68002,70621
21.68813,74553
21.69625,68101
21.70438,67150
21.71250,66682
21.72063,66751
21.72875,67726
21.73687,65807
21.74500,71798
21.75312,65031
21.76125,71900
21.76937,69584
21.77748,72734
21.78562,80519
21.79373,76761
21.80185,85766
21.80998,77391
21.81810,70031
21.82623,66169
21.83435,60600
21.84247,63800
21.85060,55682
21.85872,57976
21.86685,55939
21.87497,60645
21.88308,56914
21.89122,60306
21.89933,67032
21.90745,77806
21.91558,88986
21.92370,92081
21.93183,99780
21.93995,109103
21.94807,102950
21.95620,101488
21.96432,105697
21.97245,113350
21.98057,108903
21.98868,105995
21.99682,103787
22.00493,103522
22.01307,107122
22.02118,106916
22.02930,98897
22.03743,101939
22.04555,99999
22.05367,100758
22.06180,101142
22.06992,95891
22.07805,98890
22.08617,97882
22.09428,91963
22.10242,93587
22.11053,90937
22.11867,88002
22.12678,84891
22.13490,86536
22.14303,90082
22.15115,82758
22.15928,80388
22.16740,80557
22.17552,80730
22.18365,77542
22.19177,82129
22.19988,76390
22.20802,77464
22.21613,75252
22.22427,74187
22.23238,65797
22.24050,65842
22.24863,65929
22.25675,71015
22.26488,69901
22.27300,79013
22.28112,71551
22.28925,72099
22.29737,73478
22.30548,65473
22.31362,68756
22.32173,62690
22.32987,67280
22.33798,65519
22.34610,64529
22.35423,65826
22.36235,63185
22.37048,63430
22.37860,68369
22.38672,70041
22.39485,78679
22.40297,87562
22.41110,86044
22.41922,85354
22.42733,82041
22.43547,72073
22.44358,72177
22.45170,70280
22.45983,63819
22.46795,71576
22.47608,70827
22.48420,77682
22.49232,76592
22.50045,76940
22.50857,81442
22.51670,78014
22.52482,75801
22.53293,74047
22.54107,66453
22.54918,66880
22.55730,61839
22.56543,61093
22.57355,58686
22.58168,56525
22.58980,57064
22.59792,56249
22.60605,57741
22.61417,56136
22.62230,51451
22.63042,54118
22.63853,52696
22.64667,58927
22.65478,51168
22.66292,56220
22.67103,55018
22.67915,61907
22.68728,63524
22.69540,65799
22.70352,68221
22.71165,70168
22.71977,71029
22.72790,62448
22.73602,60453
22.74413,64927
22.75227,61304
22.76038,61615
22.76852,59932
22.77663,58427
22.78475,67422
22.79288,70872
22.80100,67774
22.80913,71586
22.81725,67483
22.82537,65708
22.83350,62198
22.84162,65889
22.84973,67632
22.85787,71321
22.86598,77069
22.87412,85816
22.88223,91264
22.89035,97197
22.89848,101605
22.90660,113271
22.91473,127848
22.92285,135844
22.93097,135979
22.93910,128821
22.94722,120749
22.95535,113587
22.96347,103003
22.97158,102279
22.97972,97347
22.98783,101882
22.99595,99239
23.00408,94371
23.01220,86877
23.02033,82314
23.02845,84227
23.03657,88122
23.04470,86525
23.05282,84573
23.06095,84967
23.06907,90516
23.07718,86975
23.08532,81226
23.09343,82737
23.10155,79771
23.10968,87483
23.11780,89012
23.12593,87202
23.13405,87717
23.14217,87956
23.15030,88886
23.15842,92253
23.16655,85411
23.17467,84381
23.18278,88940
23.19092,88806
23.19903,89229
23.20717,86764
23.21528,88694
23.22340,88235
23.23153,93277
23.23965,93021
23.24777,92652
23.25590,95877
23.26402,87059
23.27215,89039
23.28027,89633
23.28838,93131
23.29652,92033
23.30463,91960
23.31277,94286
23.32088,96129
23.32900,100013
23.33713,106303
23.34525,116037
23.35337,123302
23.36150,136388
23.36962,133820
23.37775,145273
23.38587,146538
23.39398,150383
23.40212,140147
23.41023,139379
23.41837,134569
23.42648,131093
23.43460,135555
23.44273,126955
23.45085,125627
23.45898,120149
23.46710,118509
23.47522,113362
23.48335,115597
23.49147,118966
23.49958,116042
23.50772,112208
23.51583,113244
23.52397,112545
23.53208,112000
23.54020,120596
23.54833,125875
23.55645,128307
23.56458,140434
23.57270,149760
23.58082,160118
23.58895,173373
23.59707,182331
23.60520,168499
23.61332,156014
23.62143,139471
23.62957,137943
23.63768,123796
23.64580,124571
23.65393,127934
23.66205,128614
23.67018,133031
23.67830,143300
23.68642,142482
23.69455,158037
23.70267,167244
23.71080,170054
23.71892,193610
23.72703,229511
23.73517,371909
23.74328,751301
23.75140,1494330
23.75953,2807518
23.76765,4414221
23.77578,5288222
23.78390,5541439
23.79202,4958539
23.80015,3852966
23.80827,2850089
23.81640,2056761
23.82452,1506736
23.83263,1100632
23.84077,873522
23.84888,705920
23.85702,596067
23.86513,504079
23.87325,445895
23.88138,396481
23.88950,366372
23.89762,344263
23.90575,313759
23.91387,291276
23.92200,274068
23.93012,254357
23.93823,244112
23.94637,231033
23.95448,226781
23.96262,208046
23.97073,197931
23.97885,205737
23.98698,195269
23.99510,185102
24.00323,185667
24.01135,190215
24.01947,188831
24.02760,178735
24.03572,178676
24.04383,169796
24.05197,173810
24.06008,165336
24.06822,163624
24.07633,153586
24.08445,154779
24.09258,157143
24.10070,143773
24.10883,139561
24.11695,139877
24.12507,140386
24.13320,138530
24.14132,135001
24.14943,139671
24.15757,139139
24.16568,137139
24.17382,132372
24.18193,141644
24.19005,135906
24.19818,138827
24.20630,129181
24.21443,124747
24.22255,123272
24.23067,115697
24.23880,114809
24.24692,126771
24.25505,142861
24.26317,172212
24.27128,203215
24.27942,228625
24.28753,247446
24.29565,267506
24.30378,275503
24.31190,284806
24.32003,283193
24.32815,296157
24.33627,295405
24.34440,263924
24.35252,219825
24.36065,178698
24.36877,140671
24.37688,113084
24.38502,107169
24.39313,95629
24.40125,96437
24.40938,96878
24.41750,93164
24.42563,97876
24.43375,101053
24.44187,98667
24.45000,107108
24.45812,108569
24.46625,105176
24.47437,109638
24.48248,98821
24.49062,97546
24.49873,91134
24.50687,90054
24.51498,91291
24.52310,104012
24.53123,113671
24.53935,116526
24.54747,119726
24.55560,120247
24.56372,112286
24.57185,102959
24.57997,92069
24.58808,85485
24.59622,80441
24.60433,79152
24.61247,74595
24.62058,74123
24.62870,70292
24.63683,74093
24.64495,74822
24.65308,79976
24.66120,73844
24.66932,70200
24.67745,75422
24.68557,67750
24.69368,68587
24.70182,68332
24.70993,68992
24.71807,64939
24.72618,65956
24.73430,71211
24.74243,68432
24.75055,66095
24.75868,69381
24.76680,70686
24.77492,66439
24.78305,62709
24.79117,70806
24.79928,71421
24.80742,67545
24.81553,73223
24.82367,75883
24.83178,80048
24.83990,88980
24.84803,101837
24.85615,115216
24.86428,139767
24.87240,155661
24.88052,175386
24.88865,171897
24.89677,154489
24.90490,148182
24.91302,137418
24.92113,130980
24.92927,127867
24.93738,119321
24.94550,119973
24.95363,120338
24.96175,126344
24.96988,122984
24.97800,119008
24.98612,118363
24.99425,120043
25.00237,115913
25.01050,117503
25.01862,111198
25.02673,113565
25.03487,109170
25.04298,110591
25.05112,109162
25.05923,107538
25.06735,105760
25.07548,102312
25.08360,110408
25.09172,125386
25.09985,164497
25.10797,236392
25.11610,354407
25.12422,511243
25.13233,647745
25.14047,731900
25.14858,690743
25.15672,549287
25.16483,396710
25.17295,281958
25.18108,197215
25.18920,157436
25.19732,132007
25.20545,122899
25.21357,108205
25.22170,108119
25.22982,107327
25.23793,118463
25.24607,127663
25.25418,139792
25.26232,140903
25.27043,141110
25.27855,135371
25.28668,122473
25.29480,107277
25.30293,100347
25.31105,97811
25.31917,90290
25.32730,83069
25.33542,83861
25.34353,79620
25.35167,80319
25.35978,75250
25.36792,73204
25.37603,75071
25.38415,76319
25.39228,75212
25.40040,76375
25.40853,72208
25.41665,73274
25.42477,68222
25.43290,71671
25.44102,71012
25.44915,67986
25.45727,66314
25.46538,67601
25.47352,64856
25.48163,67691
25.48975,70074
25.49788,68681
25.50600,61078
25.51413,63035
25.52225,64480
25.53037,66288
25.53850,63588
25.54662,58393
25.55475,64882
25.56287,61090
25.57098,58991
25.57912,58586
25.58723,60598
25.59535,58281
25.60348,60047
25.61160,57529
25.61973,56281
25.62785,57935
25.63597,57541
25.64410,64770
25.65222,60715
25.66035,58679
25.66847,59710
25.67658,63303
25.68472,61443
25.69283,60685
25.70097,57422
25.70908,57110
25.71720,59765
25.72533,60646
25.73345,59710
25.74157,61772
25.74970,59648
25.75782,58751
25.76595,60083
25.77407,59829
25.78218,61580
25.79032,58600
25.79843,58099
25.80657,61539
25.81468,57355
25.82280,61801
25.83093,62194
25.83905,61221
25.84717,63458
25.85530,63325
25.86342,57759
25.87155,57899
25.87967,53268
25.88778,53128
25.89592,54111
25.90403,56512
25.91217,53843
25.92028,54438
25.92840,57017
25.93653,52572
25.94465,57813
25.95278,55834
25.96090,56128
25.96902,58238
25.97715,59792
25.98527,55230
25.99338,53647
26.00152,54773
26.00963,55289
26.01777,50414
26.02588,50229
26.03400,54700
26.04213,52321
26.05025,53509
26.05838,52641
26.06650,50767
26.07462,54633
26.08275,57376
26.09087,58342
26.09900,55132
26.10712,53764
26.11523,55289
26.12337,54278
26.13148,57801
26.13960,59383
26.14773,65629
26.15585,64863
26.16398,65570
26.17210,67014
26.18022,66129
26.18835,62086
26.19647,60531
26.20460,57503
26.21272,52849
26.22083,56518
26.22897,54019
26.23708,51170
26.24520,54550
26.25333,54232
26.26145,54179
26.26958,51475
26.27770,53020
26.28582,49151
26.29395,48722
26.30207,52238
26.31020,48867
26.31832,52638
26.32643,51977
26.33457,54996
26.34268,61116
26.35082,78032
26.35893,94324
26.36705,113329
26.37518,127710
26.38330,146421
26.39142,147967
26.39955,141849
26.40767,126501
26.41580,101883
26.42392,84688
26.43203,70966
26.44017,66595
26.44828,57596
26.45642,57549
26.46453,57243
26.47265,57124
26.48078,54420
26.48890,52015
26.49703,51141
26.50515,54956
26.51327,56361
26.52140,50841
26.52952,51969
26.53763,54935
26.54577,50553
26.55388,54246
26.56202,53966
26.57013,48838
26.57825,48559
26.58638,48796
26.59450,50597
26.60263,50661
26.61075,50253
26.61887,51962
26.62700,47745
26.63512,48639
26.64323,49752
26.65137,54905
26.65948,57177
26.66762,55544
26.67573,56054
26.68385,56551
26.69198,55360
26.70010,61652
26.70823,55689
26.71635,57657
26.72447,61194
26.73260,57726
26.74072,59084
26.74885,58246
26.75697,56994
26.76508,59016
26.77322,59980
26.78133,62484
26.78945,67082
26.79758,71486
26.80570,68351
26.81383,68351
26.82195,70653
26.83007,68913
26.83820,71374
26.84632,72103
26.85445,68103
26.86257,69446
26.87068,72850
26.87882,72185
26.88693,75707
26.89505,73794
26.90318,76931
26.91130,76497
26.91943,77543
26.92755,84009
26.93567,100004
26.94380,134504
26.95192,217208
26.96005,361737
26.96817,641009
26.97628,1042651
26.98442,1512834
26.99253,1937387
27.00067,2193159
27.00878,2107917
27.01690,1793470
27.02503,1379919
27.03315,988539
27.04127,730254
27.04940,554276
27.05752,422563
27.06565,345399
27.07377,266632
27.08188,237652
27.09002,210094
27.09813,185691
27.10627,174538
27.11438,157708
27.12250,150187
27.13063,141059
27.13875,131763
27.14688,136888
27.15500,127239
27.16312,126171
27.17125,124871
27.17937,124103
27.18748,115840
27.19562,111255
27.20373,102484
27.21187,95753
27.21998,97374
27.22810,90406
27.23623,86247
27.24435,88132
27.25248,84067
27.26060,77147
27.26872,79421
27.27685,81105
27.28497,75525
27.29308,78924
27.30122,75429
27.30933,72565
27.31747,75182
27.32558,72703
27.33370,72943
27.34183,71051
27.34995,73453
27.35808,73805
27.36620,67074
27.37432,69249
27.38245,66424
27.39057,69388
27.39870,67412
27.40682,68273
27.41493,72353
27.42307,64582
27.43118,68787
27.43930,66995
27.44743,69888
27.45555,69980
27.46368,67776
27.47180,71691
27.47992,66592
27.48805,64586
27.49617,65166
27.50430,63117
27.51242,63281
27.52053,66441
27.52867,61270
27.53678,59793
27.54492,68481
27.55303,66512
27.56115,62425
27.56928,67266
27.57740,61837
27.58552,67741
27.59365,68347
27.60177,66342
27.60990,63671
27.61802,62882
27.62613,60200
27.63427,59605
27.64238,61252
27.65052,61924
27.65863,64837
27.66675,64863
27.67488,70410
27.68300,75761
27.69112,72711
27.69925,62559
27.70737,62428
27.71550,65811
27.72362,65113
27.73173,63778
27.73987,64708
27.74798,65189
27.75612,66921
27.76423,64719
27.77235,59290
27.78048,57179
27.78860,56595
27.79673,54950
27.80485,57286
27.81297,58949
27.82110,58829
27.82922,53782
27.83733,58650
27.84547,52913
27.85358,52146
27.86172,58297
27.86983,54094
27.87795,52790
27.88608,53223
27.89420,49387
27.90233,53797
27.91045,49201
27.91857,51808
27.92670,53975
27.93482,54578
27.94295,46835
27.95107,50590
27.95918,54651
27.96732,55687
27.97543,63410
27.98355,58315
27.99168,63128
27.99980,65755
28.00793,72305
28.01605,78315
28.02417,85116
28.03230,90432
28.04042,93993
28.04855,98287
28.05667,85505
28.06478,77142
28.07292,70437
28.08103,69286
28.08915,67078
28.09728,72074
28.10540,75565
28.11353,79101
28.12165,73728
28.12977,74443
28.13790,73597
28.14602,74830
28.15415,71524
28.16227,62037
28.17038,62574
28.17852,62833
28.18663,60252
28.19477,59877
28.20288,63758
28.21100,63838
28.21913,66349
28.22725,61742
28.23537,62283
28.24350,73220
28.25162,86047
28.25975,116702
28.26787,156950
28.27598,207091
28.28412,269502
28.29223,317516
28.30037,359029
28.30848,401274
28.31660,414358
28.32473,423995
28.33285,406960
28.34098,380308
28.34910,337524
28.35722,303036
28.36535,271516
28.37347,237920
28.38158,212459
28.38972,172046
28.39783,162592
28.40597,146852
28.41408,135955
28.42220,127015
28.43033,107143
28.43845,107142
28.44658,99963
28.45470,95065
28.46282,92562
28.47095,88754
28.47907,86029
28.48718,89323
28.49532,87310
28.50343,83462
28.51157,77342
28.51968,80093
28.52780,73207
28.53593,76362
28.54405,70246
28.55218,68979
28.56030,65208
28.56842,68430
28.57655,68423
28.58467,63604
28.59280,64956
28.60092,62904
28.60903,68327
28.61717,65722
28.62528,69617
28.63340,66598
28.64153,67154
28.64965,72516
28.65778,72324
28.66590,83868
28.67402,102116
28.68215,143479
28.69027,187081
28.69840,220155
28.70652,231160
28.71463,211156
28.72277,170990
28.73088,117342
28.73900,90081
28.74713,74210
28.75525,68759
28.76338,62280
28.77150,61347
28.77962,61878
28.78775,65260
28.79587,62418
28.80400,64326
28.81212,65161
28.82023,66374
28.82837,58838
28.83648,60990
28.84462,62421
28.85273,60099
28.86085,63197
28.86898,60709
28.87710,67716
28.88522,66991
28.89335,65984
28.90147,63963
28.90960,65513
28.91772,62778
28.92583,64470
28.93397,64938
28.94208,58843
28.95022,63032
28.95833,61141
28.96645,58975
28.97458,60862
28.98270,61094
28.99083,62832
28.99895,56365
29.00707,60200
29.01520,61202
29.02332,60327
29.03143,58567
29.03957,55852
29.04768,58451
29.05582,61815
29.06393,63037
29.07205,66530
29.08018,58953
29.08830,59838
29.09643,54247
29.10455,59066
29.11267,53655
29.12080,55653
29.12892,54755
29.13703,53388
29.14517,56759
29.15328,61662
29.16142,57398
29.16953,57766
29.17765,63094
29.18578,60140
29.19390,61782
29.20203,65485
29.21015,69224
29.21827,68596
29.22640,72480
29.23452,70740
29.24265,69847
29.25077,72149
29.25888,76608
29.26702,76331
29.27513,66203
29.28325,65015
29.29138,59577
29.29950,57555
29.30763,54945
29.31575,57634
29.32387,50847
29.33200,54905
29.34012,53878
29.34825,52522
29.35637,54378
29.36448,53659
29.37262,50442
29.38073,46617
29.38887,52993
29.39698,53894
29.40510,53282
29.41323,58978
29.42135,58344
29.42947,55659
29.43760,51084
29.44572,54655
29.45385,56151
29.46197,50655
29.47008,52827
29.47822,48551
29.48633,50597
29.49447,50813
29.50258,53483
29.51070,57540
29.51883,55728
29.52695,52500
29.53507,53209
29.54320,49201
29.55132,55283
29.55945,50507
29.56757,51444
29.57568,53143
29.58382,55981
29.59193,59725
29.60007,59962
29.60818,56702
29.61630,50621
29.62443,52678
29.63255,51057
29.64068,50750
29.64880,52479
29.65692,49796
29.66505,51633
29.67317,53406
29.68128,50323
29.68942,53758
29.69753,48853
29.70567,54799
29.71378,51080
29.72190,51034
29.73003,47909
29.73815,48503
29.74628,50530
29.75440,47376
29.76252,46998
29.77065,48368
29.77877,47520
29.78688,50497
29.79502,45261
29.80313,46435
29.81127,50471
29.81938,47322
29.82750,46205
29.83563,49433
29.84375,48289
29.85188,48212
29.86000,51005
29.86812,57862
29.87625,69453
29.88437,83178
29.89250,98851
29.90062,117675
29.90873,141662
29.91687,154426
29.92498,163964
29.93310,171719
29.94123,181197
29.94935,179551
29.95748,195136
29.96560,190771
29.97372,179271
29.98185,170496
29.98997,169518
29.99810,158218
30.00622,147555
30.01433,138248
30.02247,123220
30.03058,118885
30.03872,118087
30.04683,112698
30.05495,99466
30.06308,99318
30.07120,95182
30.07932,91858
30.08745,85279
30.09557,84967
30.10370,83134
30.11182,80497
30.11993,77840
30.12807,79652
30.13618,72713
30.14432,74875
30.15243,69715
30.16055,66141
30.16868,71254
30.17680,76266
30.18492,72844
30.19305,67357
30.20117,63885
30.20930,66628
30.21742,64209
30.22553,62620
30.23367,57230
30.24178,58680
30.24992,55124
30.25803,60768
30.26615,54910
30.27428,58470
30.28240,56458
30.29053,51508
30.29865,54595
30.30677,57302
30.31490,55962
30.32302,56315
30.33113,58943
30.33927,58292
30.34738,57271
30.35552,54995
30.36363,55597
30.37175,54233
30.37988,54202
30.38800,57602
30.39613,49786
30.40425,52970
30.41237,56458
30.42050,50499
30.42862,52472
30.43675,52162
30.44487,55491
30.45298,46549
30.46112,58579
30.46923,52838
30.47735,55664
30.48548,52170
30.49360,50445
30.50173,58773
30.50985,53253
30.51797,51197
30.52610,53817
30.53422,48673
30.54235,52963
30.55047,52896
30.55858,55041
30.56672,52633
30.57483,51615
30.58295,56426
30.59108,56449
30.59920,54544
30.60733,54944
30.61545,52487
30.62357,52543
30.63170,50053
30.63982,52971
30.64795,49831
30.65607,47013
30.66418,49485
30.67232,47981
30.68043,48812
30.68857,52155
30.69668,53791
30.70480,52713
30.71293,53108
30.72105,52330
30.72917,52581
30.73730,51123
30.74542,55366
30.75355,52291
30.76167,55657
30.76978,57522
30.77792,67601
30.78603,66396
30.79417,67065
30.80228,76085
30.81040,68627
30.81853,69112
30.82665,65143
30.83478,61892
30.84290,61812
30.85102,58868
30.85915,60653
30.86727,60183
30.87538,62090
30.88352,61829
30.89163,62074
30.89977,59734
30.90788,54948
30.91600,56714
30.92413,58483
30.93225,61851
30.94038,61637
30.94850,55667
30.95662,58746
30.96475,60447
30.97287,59712
30.98098,59114
30.98912,59883
30.99723,59974
31.00537,60884
31.01348,58026
31.02160,59754
31.02973,60764
31.03785,59942
31.04598,60242
31.05410,59003
31.06222,60971
31.07035,60309
31.07847,64753
31.08660,68845
31.09472,73864
31.10283,70649
31.11097,69735
31.11908,66635
31.12720,65797
31.13533,64984
31.14345,65032
31.15158,68342
31.15970,69726
31.16782,76733
31.17595,95238
31.18407,116301
31.19220,133376
31.20032,147247
31.20843,157200
31.21657,147333
31.22468,128148
31.23280,110486
31.24093,89301
31.24905,73287
31.25718,71891
31.26530,58401
31.27342,62157
31.28155,58740
31.28967,59601
31.29780,53891
31.30592,57875
31.31403,52838
31.32217,57613
31.33028,56177
31.33842,60630
31.34653,58007
31.35465,67343
31.36278,61039
31.37090,59405
31.37902,62454
31.38715,54420
31.39527,54853
31.40340,52259
31.41152,54299
31.41963,55360
31.42777,54731
31.43588,50590
31.44402,49221
31.45213,50967
31.46025,58268
31.46838,54271
31.47650,51530
31.48463,52567
31.49275,51738
31.50087,54693
31.50900,59023
31.51712,55985
31.52523,55422
31.53337,56548
31.54148,56319
31.54962,54078
31.55773,53396
31.56585,54088
31.57398,55369
31.58210,50888
31.59023,49911
31.59835,53273
31.60647,52679
31.61460,49958
31.62272,52292
31.63083,52461
31.63897,47069
31.64708,54380
31.65522,57212
31.66333,56014
31.67145,59406
31.67958,58727
31.68770,58969
31.69583,56723
31.70395,58715
31.71207,58609
31.72020,54250
31.72832,56944
31.73645,51886
31.74457,52470
31.75268,48302
31.76082,48933
31.76893,50705
31.77705,49437
31.78518,51699
31.79330,55448
31.80143,53676
31.80955,60425
31.81767,57548
31.82580,67107
31.83392,69838
31.84205,84962
31.85017,92677
31.85828,107025
31.86642,114182
31.87453,123891
31.88267,126997
31.89078,135277
31.89890,129728
31.90703,123039
31.91515,121262
31.92327,116960
31.93140,104824
31.93952,97943
31.94765,97140
31.95577,90965
31.96388,80935
31.97202,84872
31.98013,87128
31.98827,88606
31.99638,86834
32.00450,86770
32.01263,79327
32.02075,74004
32.02887,69777
32.03700,69628
32.04512,66549
32.05325,63958
32.06137,64467
32.06948,58578
32.07762,59976
32.08573,61430
32.09387,59646
32.10198,58988
32.11010,61013
32.11823,59705
32.12635,55655
32.13448,61947
32.14260,54847
32.15072,61840
32.15885,57447
32.16697,58899
32.17508,57101
32.18322,59759
32.19133,55871
32.19947,59738
32.20758,59397
32.21570,58861
32.22383,57652
32.23195,58313
32.24008,59822
32.24820,62270
32.25632,59693
32.26445,60657
32.27257,62151
32.28068,59585
32.28882,58664
32.29693,58991
32.30507,60651
32.31318,61179
32.32130,61274
32.32943,59651
32.33755,59517
32.34568,58300
32.35380,60458
32.36192,58982
32.37005,59187
32.37817,57491
32.38630,59419
32.39442,57186
32.40253,56611
32.41067,55292
32.41878,59078
32.42690,58120
32.43503,57041
32.44315,55075
32.45128,56488
32.45940,54439
32.46752,53573
32.47565,55821
32.48377,61294
32.49190,56339
32.50002,54440
32.50813,61777
32.51627,61667
32.52438,55649
32.53252,58978
32.54063,53282
32.54875,59008
32.55688,69381
32.56500,72364
32.57312,96016
32.58125,125593
32.58937,153646
32.59750,165261
32.60562,165312
32.61373,134634
32.62187,109636
32.62998,82280
32.63812,69750
32.64623,62932
32.65435,58567
32.66248,55234
32.67060,52336
32.67873,55501
32.68685,59524
32.69497,60658
32.70310,54678
32.71122,53772
32.71933,54568
32.72747,56914
32.73558,55081
32.74372,55498
32.75183,55393
32.75995,51925
32.76808,55350
32.77620,53164
32.78433,56073
32.79245,54983
32.80057,54573
32.80870,53805
32.81682,52278
32.82493,56984
32.83307,53848
32.84118,55562
32.84932,56719
32.85743,53789
32.86555,60257
32.87368,63664
32.88180,64806
32.88993,63314
32.89805,67101
32.90617,67510
32.91430,65349
32.92242,61537
32.93055,57763
32.93867,52279
32.94678,55861
32.95492,57339
32.96303,57854
32.97115,57004
32.97928,57384
32.98740,61552
32.99553,62429
33.00365,67752
33.01177,61058
33.01990,63513
33.02802,62679
33.03615,61958
33.04427,65328
33.05238,63456
33.06052,64146
33.06863,66828
33.07675,69175
33.08488,69712
33.09300,79644
33.10113,80598
33.10925,86128
33.11737,83575
33.12550,81151
33.13362,72458
33.14175,70168
33.14987,66536
33.15798,61522
33.16612,57151
33.17423,58591
33.18237,56929
33.19048,61975
33.19860,57097
33.20673,58178
33.21485,55027
33.22297,52876
33.23110,54844
33.23922,53161
33.24735,54254
33.25547,52473
33.26358,53666
33.27172,58125
33.27983,61257
33.28797,57035
33.29608,59324
33.30420,58010
33.31233,57134
33.32045,55246
33.32857,56281
33.33670,61966
33.34482,61816
33.35295,65236
33.36107,70350
33.36918,71263
33.37732,81790
33.38543,86306
33.39357,92664
33.40168,104987
33.40980,107856
33.41793,120811
33.42605,129996
33.43418,143469
33.44230,171705
33.45042,183175
33.45855,216014
33.46667,220532
33.47478,240966
33.48292,251900
33.49103,261757
33.49917,260651
33.50728,265252
33.51540,273558
33.52353,278280
33.53165,276572
33.53978,279182
33.54790,280460
33.55602,264304
33.56415,265822
33.57227,258866
33.58040,254667
33.58852,258817
33.59663,267846
33.60477,262839
33.61288,252314
33.62100,250147
33.62913,252895
33.63725,247412
33.64538,249381
33.65350,251880
33.66162,252721
33.66975,254048
33.67787,250909
33.68600,259713
33.69412,260733
33.70223,259290
33.71037,262346
33.71848,261791
33.72662,247706
33.73473,241352
33.74285,243471
33.75098,258025
33.75910,249062
33.76722,236150
33.77535,223328
33.78347,217274
33.79160,212973
33.79972,201728
33.80783,201427
33.81597,200163
33.82408,190694
33.83222,188386
33.84033,186146
33.84845,179379
33.85658,185751
33.86470,180846
33.87282,185848
33.88095,186222
33.88907,181466
33.89720,191995
33.90532,184644
33.91343,184518
33.92157,181926
33.92968,171296
33.93782,160706
33.94593,166413
33.95405,154523
33.96218,154400
33.97030,151721
33.97843,144600
33.98655,143723
33.99467,132423
34.00280,130958
34.01092,126661
34.01903,131450
34.02717,129442
34.03528,124931
34.04342,122416
34.05153,118128
34.05965,122400
34.06778,119679
34.07590,115265
34.08403,117752
34.09215,113293
34.10027,114770
34.10840,121406
34.11652,113822
34.12463,112899
34.13277,107881
34.14088,110191
34.14902,109830
34.15713,109243
34.16525,107533
34.17338,105266
34.18150,103587
34.18963,99508
34.19775,100319
34.20587,100036
34.21400,101382
34.22212,98891
34.23025,98283
34.23837,105746
34.24648,102146
34.25462,101800
34.26273,104623
34.27085,106609
34.27898,107143
34.28710,115001
34.29523,120153
34.30335,119296
34.31147,124275
34.31960,125180
34.32772,133528
34.33585,143664
34.34397,142782
34.35208,154593
34.36022,163543
34.36833,168769
34.37647,175601
34.38458,185984
34.39270,200775
34.40083,214084
34.40895,225563
34.41707,243254
34.42520,250091
34.43332,251355
34.44145,261230
34.44957,271987
34.45768,291511
34.46582,295027
34.47393,315260
34.48207,327137
34.49018,322872
34.49830,302649
34.50643,289028
34.51455,266938
34.52267,250397
34.53080,234308
34.53892,216053
34.54705,219028
34.55517,203009
34.56328,184937
34.57142,181751
34.57953,172192
34.58767,171200
34.59578,172271
34.60390,164811
34.61203,151490
34.62015,147898
34.62828,148000
34.63640,136847
34.64452,133920
34.65265,129367
34.66077,123398
34.66888,119426
34.67702,108716
34.68513,115645
34.69327,107514
34.70138,103221
34.70950,101029
34.71763,101105
34.72575,101023
34.73388,100634
34.74200,96745
34.75012,94996
34.75825,96246
34.76637,95692
34.77450,93850
34.78262,97302
34.79073,89828
34.79887,90885
34.80698,91182
34.81510,90958
34.82323,90390
34.83135,93163
34.83948,88669
34.84760,90375
34.85572,93092
34.86385,91856
34.87197,87421
34.88010,95351
34.88822,92601
34.89633,92482
34.90447,91481
34.91258,91322
34.92070,90270
34.92883,90308
34.93695,91537
34.94508,86669
34.95320,91122
34.96132,93192
34.96945,90391
34.97757,89947
34.98570,87230
34.99382,85944
35.00193,86246
35.01007,91462
35.01818,85354
35.02632,87276
35.03443,87046
35.04255,81611
35.05068,81481
35.05880,81199
35.06692,86931
35.07505,87266
35.08317,90746
35.09130,88851
35.09942,87538
35.10753,90096
35.11567,84413
35.12378,84696
35.13192,82248
35.14003,77856
35.14815,86186
35.15628,87542
35.16440,81105
35.17252,85856
35.18065,82537
35.18877,82474
35.19690,87771
35.20502,78709
35.21313,80137
35.22127,83952
35.22938,81864
35.23752,78205
35.24563,85419
35.25375,86290
35.26188,85260
35.27000,91993
35.27813,85879
35.28625,88270
35.29437,86825
35.30250,90263
35.31062,80883
35.31873,87394
35.32687,81594
35.33498,91996
35.34312,83258
35.35123,86737
35.35935,85545
35.36748,94572
35.37560,90461
35.38373,102989
35.39185,107481
35.39997,109052
35.40810,112030
35.41622,109824
35.42435,110513
35.43247,111592
35.44058,108601
35.44872,102436
35.45683,101118
35.46495,94538
35.47308,94721
35.48120,88312
35.48933,91167
35.49745,90489
35.50557,87329
35.51370,92307
35.52182,86983
35.52995,87094
35.53807,84662
35.54618,83367
35.55432,85036
35.56243,89544
35.57055,86884
35.57868,89723
35.58680,92390
35.59493,88423
35.60305,92576
35.61117,89426
35.61930,88912
35.62742,88183
35.63555,87595
35.64367,84879
35.65178,87566
35.65992,81675
35.66803,82085
35.67617,80785
35.68428,82753
35.69240,83596
35.70053,85598
35.70865,85868
35.71677,83590
35.72490,88136
35.73302,84792
35.74115,91388
35.74927,90913
35.75738,90589
35.76552,88619
35.77363,89137
35.78177,86350
35.78988,91745
35.79800,85753
35.80613,87580
35.81425,89311
35.82238,84575
35.83050,85461
35.83862,77414
35.84675,78122
35.85487,88178
35.86298,81410
35.87112,85827
35.87923,82880
35.88737,79930
35.89548,85036
35.90360,80083
35.91173,82877
35.91985,80166
35.92798,86003
35.93610,79775
35.94422,82566
35.95235,83717
35.96047,85923
35.96858,83844
35.97672,84147
35.98483,87119
35.99297,86270
36.00108,84573
36.00920,86422
36.01733,87370
36.02545,85110
36.03358,87453
36.04170,84548
36.04982,85076
36.05795,87428
36.06607,87162
36.07420,82640
36.08232,88340
36.09043,82904
36.09857,78557
36.10668,80805
36.11480,77869
36.12293,86387
36.13105,85262
36.13918,82291
36.14730,90682
36.15542,86729
36.16355,84127
36.17167,85887
36.17980,86311
36.18792,85815
36.19603,86649
36.20417,91789
36.21228,107466
36.22042,125649
36.22853,163832
36.23665,193114
36.24478,201113
36.25290,191908
36.26102,160656
36.26915,124857
36.27727,112340
36.28540,100166
36.29352,91454
36.30163,88725
36.30977,86065
36.31788,87292
36.32602,85102
36.33413,86520
36.34225,84339
36.35038,83203
36.35850,85061
36.36662,83291
36.37475,86852
36.38287,89660
36.39100,92534
36.39912,84669
36.40723,88932
36.41537,81839
36.42348,82359
36.43162,85250
36.43973,88369
36.44785,88222
36.45598,85218
36.46410,75037
36.47223,83539
36.48035,78932
36.48847,80176
36.49660,78456
36.50472,81305
36.51283,84257
36.52097,80425
36.52908,82279
36.53722,82565
36.54533,82899
36.55345,82683
36.56158,87733
36.56970,87878
36.57783,90164
36.58595,85736
36.59407,88695
36.60220,84177
36.61032,85794
36.61843,88773
36.62657,81707
36.63468,87696
36.64282,87099
36.65093,86478
36.65905,85844
36.66718,88228
36.67530,85080
36.68343,81310
36.69155,86723
36.69967,88621
36.70780,86634
36.71592,90290
36.72405,87992
36.73217,85880
36.74028,88785
36.74842,85404
36.75653,88527
36.76465,83679
36.77278,82401
36.78090,86374
36.78903,84400
36.79715,83129
36.80527,84320
36.81340,86754
36.82152,82756
36.82965,85421
36.83777,83942
36.84588,84541
36.85402,82866
36.86213,92471
36.87027,86614
36.87838,87781
36.88650,85833
36.89463,87630
36.90275,82873
36.91087,83448
36.91900,89963
36.92712,83773
36.93525,89968
36.94337,88318
36.95148,94163
36.95962,93216
36.96773,90891
36.97587,89768
36.98398,96287
36.99210,93230
37.00023,95932
37.00835,105048
37.01647,97739
37.02460,104145
37.03272,101091
37.04085,100592
37.04897,99004
37.05708,95033
37.06522,96174
37.07333,92272
37.08147,91090
37.08958,89537
37.09770,95086
37.10583,95692
37.11395,92259
37.12208,92574
37.13020,88837
37.13832,88037
37.14645,88281
37.15457,90422
37.16268,93666
37.17082,91705
37.17893,91658
37.18707,91063
37.19518,87798
37.20330,93005
37.21143,91761
37.21955,91322
37.22768,93737
37.23580,92259
37.24392,103422
37.25205,123125
37.26017,133894
37.26830,147118
37.27642,158698
37.28453,166521
37.29267,156942
37.30078,158329
37.30890,145242
37.31703,143127
37.32515,128771
37.33328,116902
37.34140,116566
37.34952,114469
37.35765,104494
37.36577,108539
37.37390,106471
37.38202,102679
37.39013,105373
37.39827,103412
37.40638,106200
37.41450,104303
37.42263,107022
37.43075,99391
37.43888,100166
37.44700,102113
37.45512,96377
37.46325,99758
37.47137,104631
37.47950,96131
37.48762,99285
