C:\MassHunter\GCMS\1\data\JTB-E02\BACandBLUE\JTB-E18-018-04.D Thu Jul 04 08:48:14 2019
Start of data points
2.09525,30371
2.10337,31352
2.11148,31405
2.11962,34464
2.12773,36751
2.13585,34185
2.14398,40225
2.15210,40222
2.16023,41535
2.16835,43084
2.17647,41256
2.18460,43206
2.19272,37658
2.20085,43197
2.20897,40524
2.21708,39854
2.22522,43017
2.23333,38657
2.24147,38112
2.24958,38498
2.25770,37970
2.26583,43305
2.27395,438955
2.28207,2540283
2.29020,3016520
2.29832,1232174
2.30645,536402
2.31457,370503
2.32268,310219
2.33082,281276
2.33893,237308
2.34707,211466
2.35518,187461
2.36330,172638
2.37143,153490
2.37955,148469
2.38767,143402
2.39580,138885
2.40392,124538
2.41205,123683
2.42017,123322
2.42828,121924
2.43642,110600
2.44453,110670
2.45267,115333
2.46078,113759
2.46890,105164
2.47703,95080
2.48515,97438
2.49328,99662
2.50140,111063
2.50952,106234
2.51765,94890
2.52577,93536
2.53388,89813
2.54202,93290
2.55013,91226
2.55827,93940
2.56638,91191
2.57450,84765
2.58263,80805
2.59075,77111
2.59888,78561
2.60700,78400
2.61512,81458
2.62325,94684
2.63137,85509
2.63950,81743
2.64762,76318
2.65573,74995
2.66387,71217
2.67198,71523
2.68010,69012
2.68823,71486
2.69635,66061
2.70448,67699
2.71260,69680
2.72072,65437
2.72885,64347
2.73697,64615
2.74510,63705
2.75322,66795
2.76133,59762
2.76947,63404
2.77758,62259
2.78570,62678
2.79383,62633
2.80195,61086
2.81008,63524
2.81820,62751
2.82632,64043
2.83445,63609
2.84257,63260
2.85070,61508
2.85882,59267
2.86693,63048
2.87507,62391
2.88318,60886
2.89132,59867
2.89943,57595
2.90755,62843
2.91568,65338
2.92380,59599
2.93192,57565
2.94005,55727
2.94817,56958
2.95630,57908
2.96442,59962
2.97253,61287
2.98067,61807
2.98878,53107
2.99692,58348
3.00503,55783
3.01315,53830
3.02128,55674
3.02940,57499
3.03752,55678
3.04565,56491
3.05377,57074
3.06190,57445
3.07002,54672
3.07813,55658
3.08627,55463
3.09438,55200
3.10252,57252
3.11063,70265
3.11875,83005
3.12688,79587
3.13500,73403
3.14313,69894
3.15125,65658
3.15937,61832
3.16750,62333
3.17562,62781
3.18373,60418
3.19187,62057
3.19998,57142
3.20812,57979
3.21623,52090
3.22435,55743
3.23248,53891
3.24060,54029
3.24873,53861
3.25685,56073
3.26497,52763
3.27310,53005
3.28122,56806
3.28935,171637
3.29747,932359
3.30558,3617115
3.31372,7936744
3.32183,1.008324E+07
3.32995,8729462
3.33808,6320691
3.34620,4502501
3.35433,3452663
3.36245,2824700
3.37057,2351065
3.37870,1965603
3.38682,1706883
3.39495,1498754
3.40307,1336086
3.41118,1203878
3.41932,1101052
3.42743,988764
3.43557,935385
3.44368,851144
3.45180,796786
3.45993,760129
3.46805,719960
3.47617,678281
3.48430,668416
3.49242,635785
3.50055,599016
3.50867,587921
3.51678,561156
3.52492,535751
3.53303,525126
3.54117,507500
3.54928,484431
3.55740,473062
3.56553,459501
3.57365,453302
3.58177,426934
3.58990,435627
3.59802,425427
3.60615,396706
3.61427,397812
3.62238,394828
3.63052,386319
3.63863,376015
3.64677,373263
3.65488,367320
3.66300,354275
3.67113,350709
3.67925,347006
3.68738,337569
3.69550,332015
3.70362,336873
3.71175,316825
3.71987,315081
3.72798,320967
3.73612,306169
3.74423,299022
3.75237,303151
3.76048,295442
3.76860,289481
3.77673,289032
3.78485,289496
3.79298,283743
3.80110,281867
3.80922,278136
3.81735,279488
3.82547,283836
3.83358,271556
3.84172,270598
3.84983,270187
3.85797,263634
3.86608,253306
3.87420,254619
3.88233,249007
3.89045,253555
3.89858,255887
3.90670,245666
3.91482,243901
3.92295,243116
3.93107,237456
3.93920,236443
3.94732,237527
3.95543,224978
3.96357,234918
3.97168,236890
3.97980,230866
3.98793,230887
3.99605,230897
4.00418,229343
4.01230,227829
4.02042,233246
4.02855,228818
4.03667,234324
4.04480,220973
4.05292,221091
4.06103,212581
4.06917,211432
4.07728,209958
4.08542,213478
4.09353,213443
4.10165,207139
4.10978,211833
4.11790,203491
4.12602,200141
4.13415,203854
4.14227,216964
4.15040,228088
4.15852,241953
4.16663,234663
4.17477,215831
4.18288,212059
4.19102,208417
4.19913,200576
4.20725,205323
4.21538,198262
4.22350,189813
4.23162,210707
4.23975,224754
4.24787,217172
4.25600,218434
4.26412,204648
4.27223,199684
4.28037,193824
4.28848,192810
4.29662,198315
4.30473,186076
4.31285,186503
4.32098,188867
4.32910,190362
4.33723,190394
4.34535,191730
4.35347,185216
4.36160,183260
4.36972,177464
4.37783,181073
4.38597,181035
4.39408,173247
4.40222,184035
4.41033,178648
4.41845,170326
4.42658,172669
4.43470,175892
4.44283,169079
4.45095,173372
4.45907,172623
4.46720,169104
4.47532,171089
4.48345,167858
4.49157,168162
4.49968,159908
4.50782,163492
4.51593,160669
4.52405,158028
4.53218,155417
4.54030,163373
4.54843,155977
4.55655,160522
4.56467,158137
4.57280,166348
4.58092,155653
4.58905,161202
4.59717,159038
4.60528,154829
4.61342,150082
4.62153,163939
4.62965,154682
4.63778,155703
4.64590,151947
4.65403,156272
4.66215,154384
4.67027,152741
4.67840,152605
4.68652,151355
4.69465,152315
4.70277,150073
4.71088,154548
4.71902,147895
4.72713,146819
4.73527,154698
4.74338,146384
4.75150,149281
4.75963,148060
4.76775,143523
4.77587,143130
4.78400,140761
4.79212,149053
4.80025,138507
4.80837,141898
4.81648,143058
4.82462,140441
4.83273,146870
4.84087,140025
4.84898,139589
4.85710,141441
4.86523,138084
4.87335,140172
4.88147,137996
4.88960,139572
4.89772,144217
4.90585,135064
4.91397,143820
4.92208,145684
4.93022,186434
4.93833,370298
4.94647,1005663
4.95458,2365955
4.96270,4211064
4.97083,5503087
4.97895,5212369
4.98708,4104633
4.99520,2970253
5.00332,2137388
5.01145,1625591
5.01957,1321935
5.02768,1105544
5.03582,962394
5.04393,844682
5.05207,767694
5.06018,693379
5.06830,646648
5.07643,609313
5.08455,562915
5.09268,517121
5.10080,503473
5.10892,468338
5.11705,460751
5.12517,439439
5.13330,425744
5.14142,415133
5.14953,407088
5.15767,401011
5.16578,381759
5.17390,388956
5.18203,361380
5.19015,359562
5.19828,359966
5.20640,354316
5.21452,343140
5.22265,339367
5.23077,334509
5.23890,347447
5.24702,363594
5.25513,357660
5.26327,342476
5.27138,315633
5.27950,315264
5.28763,296815
5.29575,299837
5.30388,282270
5.31200,276407
5.32012,274150
5.32825,279017
5.33637,272355
5.34450,263232
5.35262,257479
5.36073,260907
5.36887,253010
5.37698,263134
5.38512,255736
5.39323,258599
5.40135,253635
5.40948,248551
5.41760,240465
5.42572,240584
5.43385,242519
5.44197,246944
5.45010,230555
5.45822,231024
5.46633,237603
5.47447,239931
5.48258,225347
5.49072,234415
5.49883,221027
5.50695,227213
5.51508,227393
5.52320,213768
5.53133,221943
5.53945,207252
5.54757,213524
5.55570,211852
5.56382,216832
5.57193,210067
5.58007,207167
5.58818,207846
5.59632,204933
5.60443,205073
5.61255,213357
5.62068,206715
5.62880,210810
5.63693,218789
5.64505,232181
5.65317,235000
5.66130,224284
5.66942,223237
5.67753,218498
5.68567,236598
5.69378,253832
5.70192,254340
5.71003,249912
5.71815,236159
5.72628,216641
5.73440,208303
5.74253,209452
5.75065,193476
5.75877,200277
5.76690,202146
5.77502,182344
5.78315,192050
5.79127,194380
5.79938,185152
5.80752,190088
5.81563,182092
5.82375,182409
5.83188,181117
5.84000,182550
5.84813,177528
5.85625,187390
5.86437,187865
5.87250,181515
5.88062,172988
5.88875,185908
5.89687,183178
5.90498,170682
5.91312,154520
5.92123,127722
5.92935,122497
5.93748,117526
5.94560,116437
5.95373,122367
5.96185,121932
5.96997,120135
5.97810,121029
5.98622,127217
5.99435,125381
6.00247,127151
6.01058,126475
6.01872,124176
6.02683,119439
6.03497,114080
6.04308,120112
6.05120,114338
6.05933,117203
6.06745,115967
6.07557,113408
6.08370,111566
6.09182,112704
6.09995,113825
6.10807,106988
6.11618,111066
6.12432,119982
6.13243,114372
6.14057,122565
6.14868,117437
6.15680,120128
6.16493,118401
6.17305,126595
6.18118,126230
6.18930,121895
6.19742,122260
6.20555,128090
6.21367,128187
6.22178,126924
6.22992,123432
6.23803,126748
6.24617,134158
6.25428,135540
6.26240,127606
6.27053,132327
6.27865,132717
6.28678,128912
6.29490,136367
6.30302,143167
6.31115,139791
6.31927,137282
6.32738,148035
6.33552,146096
6.34363,145195
6.35177,146274
6.35988,144132
6.36800,146287
6.37613,153204
6.38425,147066
6.39238,145302
6.40050,151693
6.40862,155062
6.41675,159429
6.42487,159470
6.43300,159919
6.44112,159148
6.44923,161987
6.45737,164113
6.46548,162399
6.47360,166951
6.48173,162712
6.48985,168209
6.49798,166540
6.50610,170436
6.51422,166532
6.52235,170295
6.53047,163269
6.53860,151060
6.54672,142301
6.55483,132354
6.56297,129917
6.57108,124420
6.57922,126610
6.58733,119632
6.59545,120893
6.60358,119208
6.61170,115252
6.61982,113381
6.62795,114201
6.63607,115831
6.64420,118371
6.65232,116304
6.66043,111831
6.66857,112582
6.67668,117504
6.68482,110175
6.69293,112081
6.70105,112382
6.70918,107065
6.71730,105008
6.72542,109759
6.73355,104683
6.74167,102819
6.74980,105011
6.75792,107899
6.76603,106600
6.77417,104462
6.78228,107424
6.79042,98486
6.79853,99023
6.80665,105063
6.81478,97948
6.82290,98477
6.83103,94878
6.83915,101280
6.84727,101611
6.85540,89073
6.86352,76349
6.87163,71546
6.87977,61672
6.88788,59670
6.89602,62887
6.90413,58151
6.91225,56354
6.92038,58321
6.92850,55528
6.93663,54311
6.94475,58530
6.95287,54687
6.96100,55424
6.96912,53232
6.97725,54520
6.98537,56392
6.99348,56952
7.00162,56952
7.00973,53420
7.01785,53077
7.02598,56315
7.03410,59328
7.04223,58513
7.05035,53025
7.05847,57434
7.06660,53830
7.07472,55164
7.08285,58139
7.09097,52771
7.09908,56574
7.10722,53147
7.11533,53979
7.12345,55679
7.13158,56477
7.13970,53363
7.14783,59739
7.15595,54159
7.16407,54281
7.17220,55850
7.18032,52978
7.18845,55280
7.19657,61131
7.20468,55257
7.21282,56700
7.22093,59350
7.22907,58750
7.23718,57605
7.24530,57357
7.25343,55298
7.26155,53270
7.26967,55590
7.27780,54099
7.28592,50848
7.29405,54422
7.30217,54372
7.31028,58656
7.31842,54402
7.32653,54308
7.33467,51743
7.34278,54474
7.35090,52078
7.35903,55145
7.36715,58329
7.37527,52595
7.38340,54592
7.39152,55317
7.39965,57506
7.40777,55898
7.41588,55109
7.42402,55540
7.43213,53686
7.44027,55598
7.44838,56514
7.45650,62475
7.46463,63218
7.47275,63045
7.48088,56846
7.48900,59533
7.49712,56159
7.50525,53379
7.51337,55701
7.52148,51257
7.52962,51031
7.53773,54024
7.54587,48877
7.55398,54882
7.56210,51568
7.57023,49350
7.57835,56559
7.58648,52183
7.59460,56245
7.60272,55925
7.61085,53402
7.61897,50842
7.62710,53175
7.63522,49898
7.64333,52320
7.65147,53285
7.65958,52801
7.66770,51041
7.67583,50347
7.68395,52003
7.69208,48511
7.70020,54730
7.70832,51847
7.71645,55423
7.72457,52140
7.73270,50704
7.74082,48976
7.74893,49531
7.75707,55346
7.76518,53301
7.77330,50933
7.78143,51046
7.78955,51678
7.79768,47789
7.80580,47451
7.81392,53853
7.82205,48396
7.83017,49210
7.83830,48948
7.84642,49826
7.85453,51399
7.86267,48087
7.87078,55289
7.87892,45695
7.88703,49052
7.89515,44069
7.90328,48046
7.91140,44232
7.91952,45971
7.92765,45281
7.93577,46487
7.94390,45895
7.95202,49111
7.96013,43353
7.96827,45359
7.97638,49102
7.98452,45960
7.99263,47500
8.00075,47218
8.00888,48697
8.01700,41709
8.02513,46396
8.03325,46183
8.04137,45304
8.04950,44277
8.05762,43158
8.06573,47645
8.07387,46633
8.08198,48884
8.09012,45466
8.09823,42862
8.10635,48855
8.11448,47492
8.12260,48605
8.13073,47791
8.13885,50330
8.14697,41755
8.15510,42406
8.16322,45942
8.17133,50845
8.17947,47058
8.18758,50994
8.19572,46202
8.20383,47334
8.21195,47782
8.22008,49162
8.22820,42836
8.23633,43615
8.24445,45471
8.25257,45946
8.26070,49608
8.26882,44545
8.27695,43018
8.28507,44548
8.29318,42795
8.30132,44537
8.30943,44690
8.31755,41256
8.32568,43185
8.33380,47639
8.34193,45537
8.35005,48407
8.35817,48950
8.36630,48592
8.37442,51777
8.38255,47826
8.39067,48597
8.39878,46551
8.40692,44954
8.41503,41297
8.42315,43830
8.43128,44760
8.43940,45155
8.44753,46149
8.45565,39031
8.46377,42557
8.47190,44368
8.48002,42961
8.48815,42786
8.49627,49708
8.50438,45294
8.51252,46154
8.52063,47805
8.52877,52643
8.53688,52459
8.54500,49719
8.55313,45826
8.56125,44109
8.56937,51371
8.57750,43456
8.58562,47304
8.59375,45159
8.60187,45425
8.60998,41458
8.61812,42728
8.62623,44197
8.63437,42212
8.64248,45524
8.65060,45454
8.65873,46986
8.66685,43373
8.67498,41287
8.68310,46879
8.69122,43303
8.69935,44378
8.70747,48720
8.71558,42292
8.72372,44384
8.73183,46250
8.73997,42380
8.74808,47754
8.75620,77847
8.76433,170874
8.77245,387324
8.78058,812718
8.78870,1680732
8.79682,2198769
8.80495,1756637
8.81307,1249305
8.82120,885663
8.82932,654884
8.83743,523629
8.84557,420955
8.85368,359893
8.86180,317972
8.86993,280809
8.87805,266342
8.88618,232120
8.89430,220945
8.90242,216797
8.91055,213282
8.91867,194892
8.92680,200684
8.93492,180599
8.94303,179366
8.95117,170980
8.95928,165804
8.96740,170043
8.97553,159758
8.98365,157483
8.99178,153065
8.99990,147167
9.00802,147378
9.01615,147238
9.02427,137086
9.03240,138190
9.04052,133580
9.04863,134856
9.05677,129431
9.06488,130797
9.07302,135159
9.08113,123114
9.08925,119835
9.09738,119812
9.10550,114014
9.11362,120812
9.12175,115424
9.12987,117358
9.13800,118175
9.14612,113593
9.15423,106451
9.16237,115297
9.17048,194284
9.17862,1322392
9.18673,3632084
9.19485,3075010
9.20298,1673837
9.21110,1085595
9.21922,804313
9.22735,640727
9.23547,529317
9.24360,446632
9.25172,387525
9.25983,343213
9.26797,308772
9.27608,286486
9.28422,257948
9.29233,244394
9.30045,228425
9.30858,212912
9.31670,202093
9.32483,189338
9.33295,184594
9.34107,170673
9.34920,169527
9.35732,163880
9.36543,161636
9.37357,155145
9.38168,147919
9.38982,146132
9.39793,144997
9.40605,139709
9.41418,134807
9.42230,135753
9.43043,128599
9.43855,131358
9.44667,123147
9.45480,125550
9.46292,119182
9.47105,120329
9.47917,115265
9.48728,110949
9.49542,109609
9.50353,110098
9.51165,108447
9.51978,114187
9.52790,110922
9.53603,105690
9.54415,109212
9.55227,109939
9.56040,99895
9.56852,94692
9.57665,88375
9.58477,88841
9.59288,100546
9.60102,103386
9.60913,88955
9.61725,83760
9.62538,77488
9.63350,80194
9.64163,116543
9.64975,493617
9.65787,1581540
9.66600,2123294
9.67412,1531581
9.68225,951013
9.69037,651429
9.69848,505638
9.70662,396447
9.71473,345694
9.72287,293660
9.73098,262619
9.73910,227077
9.74723,204883
9.75535,185766
9.76347,175246
9.77160,146866
9.77972,143119
9.78785,141045
9.79597,128489
9.80408,122952
9.81222,113970
9.82033,113350
9.82847,108106
9.83658,106076
9.84470,105014
9.85283,99021
9.86095,99357
9.86908,91299
9.87720,96191
9.88532,90685
9.89345,87452
9.90157,83435
9.90968,85694
9.91782,84510
9.92593,83534
9.93407,80564
9.94218,82351
9.95030,78701
9.95843,83827
9.96655,72751
9.97468,71154
9.98280,75369
9.99092,76651
9.99905,80655
10.00717,78413
10.01528,86255
10.02342,83710
10.03153,85265
10.03967,84976
10.04778,83015
10.05590,82542
10.06403,80513
10.07215,78475
10.08028,80242
10.08840,79516
10.09652,80022
10.10465,76832
10.11277,71754
10.12090,73071
10.12902,68872
10.13713,69310
10.14527,75150
10.15338,82550
10.16150,80926
10.16963,73413
10.17775,76396
10.18588,71405
10.19400,65516
10.20212,67792
10.21025,65556
10.21837,69559
10.22650,72845
10.23462,72573
10.24273,67611
10.25087,70469
10.25898,71055
10.26710,69391
10.27523,68579
10.28335,71075
10.29148,69620
10.29960,70264
10.30772,73873
10.31585,76916
10.32397,82874
10.33210,92914
10.34022,86258
10.34833,93954
10.35647,100358
10.36458,107393
10.37272,114433
10.38083,113172
10.38895,119978
10.39708,113119
10.40520,101585
10.41332,92585
10.42145,89105
10.42957,85438
10.43770,81814
10.44582,78912
10.45393,81876
10.46207,80043
10.47018,79675
10.47832,76578
10.48643,75912
10.49455,80252
10.50268,74787
10.51080,75832
10.51893,75026
10.52705,73256
10.53517,70367
10.54330,70264
10.55142,70704
10.55953,73941
10.56767,71604
10.57578,69128
10.58392,69731
10.59203,66524
10.60015,72264
10.60828,70587
10.61640,68550
10.62453,67895
10.63265,69393
10.64077,69061
10.64890,70429
10.65702,62691
10.66513,68628
10.67327,64992
10.68138,64441
10.68952,66618
10.69763,68232
10.70575,68450
10.71388,71011
10.72200,64274
10.73013,63934
10.73825,64589
10.74637,62958
10.75450,64651
10.76262,62816
10.77075,64524
10.77887,60627
10.78698,68192
10.79512,65694
10.80323,64285
10.81135,62370
10.81948,62752
10.82760,58384
10.83573,65380
10.84385,61972
10.85197,63894
10.86010,60619
10.86822,58434
10.87635,57170
10.88447,58410
10.89258,62242
10.90072,59371
10.90883,58773
10.91697,60288
10.92508,60517
10.93320,60450
10.94133,61010
10.94945,62516
10.95757,59215
10.96570,60746
10.97382,61444
10.98195,58678
10.99007,57521
10.99818,57719
11.00632,55213
11.01443,55663
11.02257,59098
11.03068,58768
11.03880,56396
11.04693,56029
11.05505,57946
11.06317,54109
11.07130,56098
11.07942,57645
11.08755,53452
11.09567,53998
11.10378,55071
11.11192,55308
11.12003,56353
11.12817,52859
11.13628,54067
11.14440,55154
11.15253,54804
11.16065,56677
11.16878,76508
11.17690,153510
11.18502,332908
11.19315,519115
11.20127,548694
11.20938,458535
11.21752,339619
11.22563,270199
11.23377,198377
11.24188,166031
11.25000,144329
11.25813,123712
11.26625,111202
11.27438,97869
11.28250,92959
11.29062,84489
11.29875,85287
11.30687,82540
11.31500,78887
11.32312,73941
11.33123,75279
11.33937,70207
11.34748,71844
11.35560,66980
11.36373,68805
11.37185,66933
11.37998,65810
11.38810,63530
11.39622,58267
11.40435,63361
11.41247,63271
11.42060,63767
11.42872,61714
11.43683,60773
11.44497,58380
11.45308,60211
11.46120,61052
11.46933,60562
11.47745,57285
11.48558,57724
11.49370,53621
11.50182,57851
11.50995,61398
11.51807,57648
11.52620,57528
11.53432,56921
11.54243,55877
11.55057,56513
11.55868,53937
11.56682,55446
11.57493,53389
11.58305,53457
11.59118,53831
11.59930,52326
11.60742,53782
11.61555,54715
11.62367,55508
11.63180,53963
11.63992,54681
11.64803,56313
11.65617,54935
11.66428,50839
11.67242,54662
11.68053,53971
11.68865,51266
11.69678,54509
11.70490,54843
11.71302,59572
11.72115,56680
11.72927,57034
11.73740,62402
11.74552,55750
11.75363,60839
11.76177,60105
11.76988,59617
11.77802,58739
11.78613,53170
11.79425,54826
11.80238,59943
11.81050,57649
11.81863,56011
11.82675,54874
11.83487,52994
11.84300,56464
11.85112,58296
11.85923,54124
11.86737,55757
11.87548,54670
11.88362,56976
11.89173,53046
11.89985,53611
11.90798,55157
11.91610,52164
11.92423,49921
11.93235,50274
11.94047,53604
11.94860,51548
11.95672,51527
11.96485,56016
11.97297,53925
11.98108,52503
11.98922,57567
11.99733,51032
12.00545,52612
12.01358,56903
12.02170,55903
12.02983,55224
12.03795,56887
12.04607,57674
12.05420,53519
12.06232,53686
12.07045,59686
12.07857,55992
12.08668,56347
12.09482,61229
12.10293,58485
12.11105,56007
12.11918,56132
12.12730,59463
12.13543,54111
12.14355,57957
12.15167,56575
12.15980,60549
12.16792,61393
12.17605,60165
12.18417,52572
12.19228,58517
12.20042,51664
12.20853,50701
12.21667,58862
12.22478,56512
12.23290,56380
12.24103,55024
12.24915,55238
12.25727,55835
12.26540,54732
12.27352,54663
12.28165,55960
12.28977,53851
12.29788,55507
12.30602,57558
12.31413,54801
12.32227,57317
12.33038,53738
12.33850,53126
12.34663,54319
12.35475,55786
12.36288,53064
12.37100,54383
12.37912,56181
12.38725,54389
12.39537,54512
12.40348,52772
12.41162,53541
12.41973,53390
12.42787,59527
12.43598,53243
12.44410,55894
12.45223,54722
12.46035,57563
12.46848,53440
12.47660,57195
12.48472,54641
12.49285,54964
12.50097,53999
12.50908,54832
12.51722,51663
12.52533,52591
12.53347,52676
12.54158,55176
12.54970,52936
12.55783,52986
12.56595,52944
12.57408,54967
12.58220,50710
12.59032,47667
12.59845,55335
12.60657,51945
12.61470,53489
12.62282,49603
12.63093,52299
12.63907,54770
12.64718,52422
12.65530,54406
12.66343,57666
12.67155,50010
12.67968,54132
12.68780,47723
12.69592,54768
12.70405,53599
12.71217,51611
12.72030,49249
12.72842,47142
12.73653,55922
12.74467,52895
12.75278,53982
12.76090,53846
12.76903,53729
12.77715,51268
12.78528,54214
12.79340,53348
12.80152,52669
12.80965,49924
12.81777,50958
12.82590,49879
12.83402,50838
12.84213,51561
12.85027,49287
12.85838,52383
12.86652,52556
12.87463,49940
12.88275,50932
12.89088,52646
12.89900,48947
12.90712,46346
12.91525,48833
12.92337,52134
12.93150,47576
12.93962,48001
12.94773,50023
12.95587,49081
12.96398,45113
12.97212,45682
12.98023,50150
12.98835,49041
12.99648,50119
13.00460,48923
13.01273,54065
13.02085,47715
13.02897,50446
13.03710,50173
13.04522,48758
13.05333,47914
13.06147,45821
13.06958,46147
13.07772,47826
13.08583,47060
13.09395,48940
13.10208,50045
13.11020,47983
13.11833,49361
13.12645,48851
13.13457,47248
13.14270,50068
13.15082,47951
13.15893,50825
13.16707,51152
13.17518,54996
13.18332,48251
13.19143,54681
13.19955,61016
13.20768,58781
13.21580,57868
13.22393,56062
13.23205,51431
13.24017,50760
13.24830,49272
13.25642,48322
13.26455,50274
13.27267,49609
13.28078,48185
13.28892,47828
13.29703,49856
13.30515,47031
13.31328,47858
13.32140,48920
13.32953,48241
13.33765,47830
13.34577,45923
13.35390,45093
13.36202,46156
13.37015,47992
13.37827,46960
13.38638,46398
13.39452,47380
13.40263,44007
13.41077,45929
13.41888,50110
13.42700,47295
13.43513,46961
13.44325,46688
13.45137,49186
13.45950,48539
13.46762,43633
13.47575,46214
13.48387,48756
13.49198,48238
13.50012,45640
13.50823,46017
13.51637,47372
13.52448,52147
13.53260,44361
13.54073,47606
13.54885,46495
13.55697,46987
13.56510,49083
13.57322,46659
13.58135,47100
13.58947,46446
13.59758,47134
13.60572,47677
13.61383,46330
13.62197,47113
13.63008,43759
13.63820,43800
13.64633,44882
13.65445,44711
13.66258,44176
13.67070,46589
13.67882,48138
13.68695,47509
13.69507,45126
13.70318,43757
13.71132,44537
13.71943,46588
13.72757,48515
13.73568,48067
13.74380,47660
13.75193,49244
13.76005,57211
13.76818,65047
13.77630,70479
13.78442,73788
13.79255,78491
13.80067,85597
13.80878,84262
13.81692,88534
13.82503,86028
13.83317,86874
13.84128,88564
13.84940,88630
13.85753,86344
13.86565,90773
13.87378,87293
13.88190,84018
13.89002,85458
13.89815,82434
13.90627,80478
13.91440,85600
13.92252,86129
13.93063,85094
13.93877,88518
13.94688,83325
13.95500,87057
13.96313,77125
13.97125,83021
13.97938,81105
13.98750,85175
13.99562,87329
14.00375,76878
14.01187,80281
14.02000,84367
14.02812,80425
14.03623,84154
14.04437,84865
14.05248,84623
14.06062,86619
14.06873,80879
14.07685,78549
14.08498,80805
14.09310,79132
14.10122,81161
14.10935,89264
14.11747,81494
14.12560,85364
14.13372,82399
14.14183,79821
14.14997,82804
14.15808,85974
14.16622,98945
14.17433,136992
14.18245,226388
14.19058,352538
14.19870,474377
14.20683,534173
14.21495,515197
14.22307,404332
14.23120,320741
14.23932,243688
14.24743,207456
14.25557,179972
14.26368,166260
14.27182,152913
14.27993,141873
14.28805,142477
14.29618,128846
14.30430,123611
14.31243,123603
14.32055,114733
14.32867,115672
14.33680,111589
14.34492,98663
14.35303,88404
14.36117,82393
14.36928,82755
14.37742,72689
14.38553,69577
14.39365,67432
14.40178,70753
14.40990,71655
14.41803,64568
14.42615,70306
14.43427,63186
14.44240,65443
14.45052,63927
14.45865,65219
14.46677,61604
14.47488,63498
14.48302,61357
14.49113,63676
14.49925,58837
14.50738,63176
14.51550,61919
14.52363,61474
14.53175,57851
14.53987,61541
14.54800,65649
14.55612,60758
14.56425,61852
14.57237,57742
14.58048,62427
14.58862,62529
14.59673,62769
14.60485,61950
14.61298,59447
14.62110,63685
14.62923,59868
14.63735,57873
14.64547,55316
14.65360,58323
14.66172,56492
14.66985,57487
14.67797,57390
14.68608,57484
14.69422,55192
14.70233,58705
14.71047,56764
14.71858,60616
14.72670,58323
14.73483,59142
14.74295,58769
14.75107,56877
14.75920,53759
14.76732,54929
14.77545,58790
14.78357,52692
14.79168,54824
14.79982,51905
14.80793,63274
14.81607,69552
14.82418,97533
14.83230,135193
14.84043,173620
14.84855,187764
14.85668,171968
14.86480,142522
14.87292,116379
14.88105,94212
14.88917,85670
14.89728,81605
14.90542,76024
14.91353,73977
14.92167,73677
14.92978,69029
14.93790,66828
14.94603,71681
14.95415,66471
14.96228,68024
14.97040,67074
14.97852,64511
14.98665,64094
14.99477,58408
15.00288,66051
15.01102,60906
15.01913,63788
15.02727,60471
15.03538,56284
15.04350,58623
15.05163,58213
15.05975,58375
15.06788,107288
15.07600,434482
15.08412,551170
15.09225,271180
15.10037,138635
15.10850,109449
15.11662,95228
15.12473,89704
15.13287,83358
15.14098,83177
15.14910,82347
15.15723,77737
15.16535,73222
15.17348,70410
15.18160,71815
15.18972,69897
15.19785,65507
15.20597,65429
15.21410,62445
15.22222,68982
15.23033,61969
15.23847,62670
15.24658,97181
15.25472,1670398
15.26283,4739993
15.27095,3106654
15.27908,1407169
15.28720,884359
15.29532,652268
15.30345,485518
15.31157,410755
15.31970,341591
15.32782,295351
15.33593,264828
15.34407,234603
15.35218,211261
15.36032,190105
15.36843,180426
15.37655,173000
15.38468,158128
15.39280,186553
15.40092,1162468
15.40905,3351876
15.41717,2560245
15.42530,1277388
15.43342,776317
15.44153,570735
15.44967,453241
15.45778,374447
15.46592,325228
15.47403,285500
15.48215,251608
15.49028,227488
15.49840,210712
15.50653,189950
15.51465,175465
15.52277,167966
15.53090,153657
15.53902,149876
15.54713,143102
15.55527,141484
15.56338,140400
15.57152,131034
15.57963,125873
15.58775,117544
15.59588,116148
15.60400,122013
15.61213,117843
15.62025,113053
15.62837,113865
15.63650,106666
15.64462,105622
15.65273,100148
15.66087,105089
15.66898,110567
15.67712,110883
15.68523,98991
15.69335,96578
15.70148,95061
15.70960,97563
15.71773,104084
15.72585,99904
15.73397,107256
15.74210,122312
15.75022,141343
15.75835,145731
15.76647,137328
15.77458,127603
15.78272,116628
15.79083,108285
15.79895,107974
15.80708,104234
15.81520,103724
15.82333,101890
15.83145,102605
15.83957,101405
15.84770,98702
15.85582,101089
15.86395,121817
15.87207,375563
15.88018,846030
15.88832,918568
15.89643,618593
15.90457,411255
15.91268,297879
15.92080,231399
15.92893,204522
15.93705,178612
15.94517,159340
15.95330,147921
15.96142,133352
15.96955,124025
15.97767,116610
15.98578,119220
15.99392,111836
16.00203,113555
16.01017,114099
16.01828,113462
16.02640,116421
16.03453,113956
16.04265,115423
16.05077,112396
16.05890,106252
16.06702,99640
16.07515,98561
16.08327,96157
16.09138,89345
16.09952,90855
16.10763,90998
16.11577,89081
16.12388,84114
16.13200,88564
16.14013,83234
16.14825,87641
16.15638,82087
16.16450,84830
16.17262,78985
16.18075,84159
16.18887,81876
16.19698,84189
16.20512,81073
16.21323,79681
16.22137,77830
16.22948,81839
16.23760,78692
16.24573,79469
16.25385,78345
16.26198,79424
16.27010,76731
16.27822,73263
16.28635,76729
16.29447,76206
16.30260,77202
16.31072,74584
16.31883,76445
16.32697,73369
16.33508,76514
16.34320,73854
16.35133,76550
16.35945,76061
16.36758,74726
16.37570,73395
16.38382,71549
16.39195,77553
16.40007,73123
16.40820,72307
16.41632,72084
16.42443,75376
16.43257,71165
16.44068,70746
16.44880,72139
16.45693,73251
16.46505,73109
16.47318,69561
16.48130,72481
16.48942,74233
16.49755,70335
16.50567,72613
16.51380,72756
16.52192,71115
16.53003,73396
16.53817,72794
16.54628,74849
16.55442,75697
16.56253,76663
16.57065,68900
16.57878,70677
16.58690,72363
16.59502,68283
16.60315,69066
16.61127,72719
16.61940,73459
16.62752,66322
16.63563,72874
16.64377,71061
16.65188,69677
16.66002,68520
16.66813,68985
16.67625,64718
16.68438,64244
16.69250,71270
16.70063,68762
16.70875,71611
16.71687,66144
16.72500,63017
16.73312,68000
16.74123,67022
16.74937,66020
16.75748,63464
16.76562,64367
16.77373,65985
16.78185,67694
16.78998,62517
16.79810,63392
16.80623,64507
16.81435,65779
16.82247,65468
16.83060,69409
16.83872,66143
16.84683,65666
16.85497,63943
16.86308,64315
16.87122,62358
16.87933,64810
16.88745,64111
16.89558,63791
16.90370,60474
16.91183,59364
16.91995,60960
16.92807,62376
16.93620,62823
16.94432,64400
16.95245,61219
16.96057,60510
16.96868,63146
16.97682,64328
16.98493,62649
16.99305,65044
17.00118,64952
17.00930,60594
17.01743,64620
17.02555,59507
17.03367,60755
17.04180,63066
17.04992,64445
17.05805,61791
17.06617,60903
17.07428,61954
17.08242,63377
17.09053,63145
17.09865,66852
17.10678,65820
17.11490,63374
17.12303,60425
17.13115,62823
17.13927,58197
17.14740,60989
17.15552,66463
17.16365,63664
17.17177,62119
17.17988,60446
17.18802,59884
17.19613,60911
17.20427,59963
17.21238,62059
17.22050,57040
17.22863,61545
17.23675,61270
17.24487,60528
17.25300,57248
17.26112,57231
17.26925,59472
17.27737,57527
17.28548,59138
17.29362,60856
17.30173,55868
17.30987,58049
17.31798,55967
17.32610,60320
17.33423,55052
17.34235,59529
17.35048,66817
17.35860,75502
17.36672,106882
17.37485,176011
17.38297,238251
17.39108,218036
17.39922,169681
17.40733,133698
17.41547,110533
17.42358,100751
17.43170,93124
17.43983,87603
17.44795,81163
17.45608,80302
17.46420,76684
17.47232,69842
17.48045,71818
17.48857,71350
17.49668,65996
17.50482,65361
17.51293,65602
17.52107,62654
17.52918,63504
17.53730,64796
17.54543,65314
17.55355,63611
17.56168,61088
17.56980,60136
17.57792,61385
17.58605,59045
17.59417,58827
17.60230,58714
17.61042,57411
17.61853,57791
17.62667,61800
17.63478,60158
17.64290,59056
17.65103,55522
17.65915,55791
17.66728,60345
17.67540,62135
17.68352,62958
17.69165,68609
17.69977,62590
17.70790,63200
17.71602,65432
17.72413,61896
17.73227,59693
17.74038,62018
17.74852,57284
17.75663,61280
17.76475,61217
17.77288,60086
17.78100,57643
17.78912,54811
17.79725,56163
17.80537,56596
17.81350,55089
17.82162,65278
17.82973,60649
17.83787,60234
17.84598,61172
17.85412,58671
17.86223,60547
17.87035,59050
17.87848,58990
17.88660,57125
17.89472,55700
17.90285,55435
17.91097,54520
17.91910,56933
17.92722,54380
17.93533,54725
17.94347,53508
17.95158,53094
17.95972,51328
17.96783,56001
17.97595,50907
17.98408,51596
17.99220,50134
18.00033,51263
18.00845,52040
18.01657,46410
18.02470,49660
18.03282,53549
18.04093,54684
18.04907,49652
18.05718,51981
18.06532,58796
18.07343,53835
18.08155,57777
18.08968,66311
18.09780,71552
18.10593,79841
18.11405,82107
18.12217,85372
18.13030,83036
18.13842,84448
18.14653,78695
18.15467,76062
18.16278,80217
18.17092,77445
18.17903,74021
18.18715,73704
18.19528,72526
18.20340,73247
18.21153,71833
18.21965,72389
18.22777,67228
18.23590,74527
18.24402,70239
18.25215,64391
18.26027,67860
18.26838,67880
18.27652,66249
18.28463,59745
18.29275,60145
18.30088,58509
18.30900,56231
18.31713,52936
18.32525,53471
18.33337,54910
18.34150,53065
18.34962,54185
18.35775,57200
18.36587,50124
18.37398,54568
18.38212,53495
18.39023,52600
18.39837,54617
18.40648,51831
18.41460,51364
18.42273,53228
18.43085,52727
18.43897,53571
18.44710,54495
18.45522,52558
18.46335,51159
18.47147,52694
18.47958,58875
18.48772,49990
18.49583,51352
18.50397,54670
18.51208,55963
18.52020,53257
18.52833,51288
18.53645,50792
18.54457,55189
18.55270,51282
18.56082,50032
18.56895,49597
18.57707,50157
18.58518,53677
18.59332,55485
18.60143,48069
18.60957,51788
18.61768,57095
18.62580,51288
18.63393,48556
18.64205,52328
18.65018,51181
18.65830,48080
18.66642,51288
18.67455,45826
18.68267,49757
18.69078,49999
18.69892,48075
18.70703,48003
18.71517,49908
18.72328,48212
18.73140,50713
18.73953,49107
18.74765,50776
18.75578,52252
18.76390,52798
18.77202,50406
18.78015,48438
18.78827,49474
18.79640,49147
18.80452,51116
18.81263,52886
18.82077,49550
18.82888,47853
18.83700,48534
18.84513,49669
18.85325,49416
18.86138,54934
18.86950,46937
18.87762,50864
18.88575,51387
18.89387,52056
18.90200,51708
18.91012,51277
18.91823,51113
18.92637,50457
18.93448,52705
18.94260,48650
18.95073,51285
18.95885,50982
18.96698,50139
18.97510,49304
18.98322,49683
18.99135,52741
18.99947,50181
19.00760,47044
19.01572,46379
19.02383,53444
19.03197,62447
19.04008,70621
19.04822,69324
19.05633,78524
19.06445,79124
19.07258,84995
19.08070,85035
19.08882,89464
19.09695,92178
19.10507,90141
19.11320,93951
19.12132,96640
19.12943,99655
19.13757,100804
19.14568,99895
19.15382,95367
19.16193,100497
19.17005,105135
19.17818,102215
19.18630,103942
19.19442,101368
19.20255,101717
19.21067,102288
19.21880,99103
19.22692,102908
19.23503,99255
19.24317,99883
19.25128,102948
19.25942,100006
19.26753,101660
19.27565,102787
19.28378,111875
19.29190,115325
19.30003,121551
19.30815,115012
19.31627,120116
19.32440,113920
19.33252,105894
19.34063,108077
19.34877,105923
19.35688,103529
19.36502,101487
19.37313,100640
19.38125,100063
19.38938,103804
19.39750,102669
19.40563,101713
19.41375,98769
19.42187,97687
19.43000,93749
19.43812,97764
19.44625,95355
19.45437,94809
19.46248,99780
19.47062,112565
19.47873,141981
19.48685,196281
19.49498,271167
19.50310,307605
19.51123,322303
19.51935,286594
19.52747,231680
19.53560,179305
19.54372,136079
19.55185,113495
19.55997,96394
19.56808,98062
19.57622,95560
19.58433,96996
19.59247,98767
19.60058,103221
19.60870,113381
19.61683,132192
19.62495,148175
19.63307,161744
19.64120,179701
19.64932,201028
19.65745,248426
19.66557,298259
19.67368,327728
19.68182,337338
19.68993,315461
19.69807,264795
19.70618,216137
19.71430,177644
19.72243,155592
19.73055,138689
19.73867,131398
19.74680,113645
19.75492,108288
19.76305,105066
19.77117,104141
19.77928,93917
19.78742,88150
19.79553,92633
19.80367,86884
19.81178,96314
19.81990,89888
19.82803,85725
19.83615,88777
19.84428,83418
19.85240,89961
19.86052,82608
19.86865,88631
19.87677,98983
19.88488,116306
19.89302,147540
19.90113,198397
19.90927,246386
19.91738,289951
19.92550,314971
19.93363,343357
19.94175,339501
19.94988,338262
19.95800,351434
19.96612,337310
19.97425,330774
19.98237,313073
19.99048,306759
19.99862,288047
20.00673,284980
20.01487,271625
20.02298,254247
20.03110,250186
20.03923,226789
20.04735,207550
20.05548,192342
20.06360,159615
20.07172,141055
20.07985,130375
20.08797,120429
20.09610,115899
20.10422,107804
20.11233,114126
20.12047,106680
20.12858,110145
20.13670,101239
20.14483,104416
20.15295,101768
20.16108,105457
20.16920,99602
20.17732,97601
20.18545,103775
20.19357,95784
20.20170,101565
20.20982,102057
20.21793,102972
20.22607,98527
20.23418,103265
20.24232,110378
20.25043,134078
20.25855,164690
20.26668,196826
20.27480,240193
20.28292,268177
20.29105,278278
20.29917,254641
20.30730,214902
20.31542,179067
20.32353,157087
20.33167,141850
20.33978,124707
20.34792,117235
20.35603,104782
20.36415,108564
20.37228,100361
20.38040,99095
20.38852,95549
20.39665,98129
20.40477,96722
20.41290,103935
20.42102,114430
20.42913,121287
20.43727,133631
20.44538,134638
20.45352,147931
20.46163,158136
20.46975,165561
20.47788,179538
20.48600,166933
20.49413,159024
20.50225,132944
20.51037,120830
20.51850,113266
20.52662,98631
20.53473,97325
20.54287,96777
20.55098,94942
20.55912,86977
20.56723,91064
20.57535,86800
20.58348,87198
20.59160,82529
20.59973,85407
20.60785,83823
20.61597,83501
20.62410,87036
20.63222,81652
20.64035,83312
20.64847,83683
20.65658,84232
20.66472,77665
20.67283,83949
20.68095,79447
20.68908,80397
20.69720,78134
20.70533,81540
20.71345,80125
20.72157,76689
20.72970,74612
20.73782,79272
20.74595,73982
20.75407,70310
20.76218,77953
20.77032,75357
20.77843,74199
20.78655,71876
20.79468,78501
20.80280,75032
20.81093,72299
20.81905,71479
20.82717,75130
20.83530,76001
20.84342,74247
20.85155,73302
20.85967,72598
20.86778,71800
20.87592,68358
20.88403,71704
20.89217,66550
20.90028,67849
20.90840,68975
20.91653,68887
20.92465,66045
20.93277,69018
20.94090,70131
20.94902,65580
20.95715,69381
20.96527,66343
20.97338,66924
20.98152,70270
20.98963,69393
20.99777,64553
21.00588,67173
21.01400,64804
21.02213,62173
21.03025,60252
21.03837,68188
21.04650,66665
21.05462,66390
21.06275,62529
21.07087,59323
21.07898,64384
21.08712,61772
21.09523,65159
21.10337,62458
21.11148,63875
21.11960,65098
21.12773,63365
21.13585,65074
21.14398,65097
21.15210,73063
21.16022,76319
21.16835,75791
21.17647,76259
21.18458,74371
21.19272,78174
21.20083,71956
21.20897,66944
21.21708,63962
21.22520,65312
21.23333,62496
21.24145,68687
21.24958,69572
21.25770,61163
21.26582,64814
21.27395,65892
21.28207,67112
21.29020,61177
21.29832,59757
21.30643,55191
21.31457,53292
21.32268,58626
21.33080,60043
21.33893,63508
21.34705,55908
21.35518,56078
21.36330,53186
21.37142,53645
21.37955,55788
21.38767,52730
21.39580,59555
21.40392,53072
21.41203,58007
21.42017,62476
21.42828,68981
21.43640,65061
21.44453,64986
21.45265,62544
21.46078,59587
21.46890,55396
21.47702,52284
21.48515,54923
21.49327,51852
21.50140,51844
21.50952,53329
21.51763,54244
21.52577,50557
21.53388,50702
21.54202,60317
21.55013,52548
21.55825,54262
21.56638,52719
21.57450,58077
21.58262,57791
21.59075,57429
21.59887,59714
21.60700,68541
21.61512,72529
21.62323,87294
21.63137,94748
21.63948,100979
21.64762,99703
21.65573,94564
21.66385,86409
21.67198,79000
21.68010,74582
21.68823,69700
21.69635,66206
21.70447,61453
21.71260,65539
21.72072,67685
21.72883,68982
21.73697,66491
21.74508,68847
21.75322,63468
21.76133,64211
21.76945,67223
21.77758,65504
21.78570,66593
21.79383,68092
21.80195,68117
21.81007,78828
21.81820,84205
21.82632,97433
21.83443,99501
21.84257,98229
21.85068,88492
21.85882,85552
21.86693,73476
21.87505,69485
21.88318,67345
21.89130,58333
21.89943,54043
21.90755,64281
21.91567,62661
21.92380,66368
21.93192,63037
21.94005,63575
21.94817,66060
21.95628,65274
21.96442,63513
21.97253,63184
21.98065,60127
21.98878,59780
21.99690,60239
22.00503,59177
22.01315,52358
22.02127,55354
22.02940,56931
22.03752,55107
22.04565,52547
22.05377,55246
22.06188,56587
22.07002,52380
22.07813,55313
22.08627,54858
22.09438,54220
22.10250,51035
22.11063,53785
22.11875,55810
22.12687,51798
22.13500,58838
22.14312,56577
22.15125,56820
22.15937,57022
22.16748,56325
22.17562,59221
22.18373,54743
22.19187,58056
22.19998,54251
22.20810,55529
22.21623,60528
22.22435,60017
22.23247,56524
22.24060,53868
22.24872,55882
22.25685,54665
22.26497,51257
22.27308,54100
22.28122,52929
22.28933,50698
22.29747,49931
22.30558,48705
22.31370,57569
22.32183,53316
22.32995,49653
22.33808,54246
22.34620,55693
22.35432,53944
22.36245,49803
22.37057,51737
22.37868,53417
22.38682,51777
22.39493,50512
22.40307,50595
22.41118,51429
22.41930,50888
22.42743,51814
22.43555,49887
22.44368,49964
22.45180,46630
22.45992,48619
22.46805,52364
22.47617,49781
22.48428,50067
22.49242,50322
22.50053,47894
22.50867,50766
22.51678,49091
22.52490,48531
22.53303,48666
22.54115,52746
22.54928,50265
22.55740,50387
22.56552,46941
22.57365,47113
22.58177,50041
22.58990,46239
22.59802,46627
22.60613,43353
22.61427,44543
22.62238,43162
22.63050,43956
22.63863,45904
22.64675,42509
22.65488,44328
22.66300,45622
22.67112,42283
22.67925,48906
22.68737,42544
22.69550,48295
22.70362,45477
22.71173,42346
22.71987,46377
22.72798,45154
22.73612,46534
22.74423,49267
22.75235,44342
22.76048,41945
22.76860,43329
22.77672,45047
22.78485,44588
22.79297,42917
22.80110,44825
22.80922,43016
22.81733,46869
22.82547,43486
22.83358,43732
22.84172,39045
22.84983,41801
22.85795,50574
22.86608,50773
22.87420,44801
22.88232,45179
22.89045,47582
22.89857,49846
22.90670,52766
22.91482,61960
22.92293,63332
22.93107,74035
22.93918,72994
22.94732,76655
22.95543,67616
22.96355,72296
22.97168,69472
22.97980,60638
22.98793,58001
22.99605,57153
23.00417,57844
23.01230,49818
23.02042,48153
23.02853,46680
23.03667,47791
23.04478,49016
23.05292,44625
23.06103,47151
23.06915,40410
23.07728,44098
23.08540,38111
23.09353,40249
23.10165,41285
23.10977,43299
23.11790,42909
23.12602,43799
23.13415,41034
23.14227,42184
23.15038,41189
23.15852,42624
23.16663,40266
23.17475,43624
23.18288,45792
23.19100,45425
23.19913,44161
23.20725,40792
23.21537,39380
23.22350,45828
23.23162,40183
23.23975,38318
23.24787,41391
23.25598,41076
23.26412,41103
23.27223,41608
23.28035,41053
23.28848,40889
23.29660,39558
23.30473,39200
23.31285,41053
23.32097,38276
23.32910,38549
23.33722,40768
23.34535,39631
23.35347,42056
23.36158,41643
23.36972,45152
23.37783,44881
23.38597,41810
23.39408,41137
23.40220,41793
23.41033,40952
23.41845,44747
23.42657,41380
23.43470,40430
23.44282,41953
23.45095,42099
23.45907,42110
23.46718,43191
23.47532,42716
23.48343,40204
23.49157,41342
23.49968,41610
23.50780,41098
23.51593,39818
23.52405,40245
23.53217,41205
23.54030,43509
23.54842,42356
23.55655,43644
23.56467,39131
23.57278,41885
23.58092,45862
23.58903,45042
23.59717,46762
23.60528,43648
23.61340,48480
23.62153,49351
23.62965,48902
23.63778,51627
23.64590,49062
23.65402,51389
23.66215,55450
23.67027,53949
23.67838,55141
23.68652,56295
23.69463,53417
23.70277,53164
23.71088,51464
23.71900,53598
23.72713,55497
23.73525,81352
23.74338,154530
23.75150,365665
23.75962,913173
23.76775,1997449
23.77587,3399690
23.78400,4718243
23.79212,5294818
23.80023,5089735
23.80837,4214305
23.81648,3186821
23.82460,2390572
23.83273,1739204
23.84085,1266274
23.84898,940099
23.85710,733259
23.86522,660425
23.87335,634034
23.88147,680831
23.88960,808491
23.89772,984125
23.90583,1103945
23.91397,1140697
23.92208,1055897
23.93020,932733
23.93833,795952
23.94645,642283
23.95458,527007
23.96270,424824
23.97082,369375
23.97895,323157
23.98707,284621
23.99520,260779
24.00332,238383
24.01143,226827
24.01957,218032
24.02768,210229
24.03582,194765
24.04393,193402
24.05205,188456
24.06018,178115
24.06830,166780
24.07642,158766
24.08455,152618
24.09267,148031
24.10080,141365
24.10892,138673
24.11703,140258
24.12517,140644
24.13328,135609
24.14142,140951
24.14953,133979
24.15765,128124
24.16578,123269
24.17390,118927
24.18203,116676
24.19015,122905
24.19827,124791
24.20640,116207
24.21452,121891
24.22263,120114
24.23077,109880
24.23888,110790
24.24702,107212
24.25513,103146
24.26325,100860
24.27138,101626
24.27950,94723
24.28763,94645
24.29575,90076
24.30387,90772
24.31200,94360
24.32012,91474
24.32823,90010
24.33637,82626
24.34448,86610
24.35262,89837
24.36073,91197
24.36885,107699
24.37698,129466
24.38510,158970
24.39323,189313
24.40135,180682
24.40947,170086
24.41760,151398
24.42572,129844
24.43385,125730
24.44197,149357
24.45008,230996
24.45822,405558
24.46633,630929
24.47445,839853
24.48258,962508
24.49070,986693
24.49883,840081
24.50695,722292
24.51507,594858
24.52320,463332
24.53132,374832
24.53945,293719
24.54757,259954
24.55568,223184
24.56382,199274
24.57193,178986
24.58005,164113
24.58818,152985
24.59630,149109
24.60443,144703
24.61255,139581
24.62067,145409
24.62880,145623
24.63692,143611
24.64505,134698
24.65317,126187
24.66128,120624
24.66942,115021
24.67753,108395
24.68567,101862
24.69378,97862
24.70190,94428
24.71003,92611
24.71815,95557
24.72627,89718
24.73440,85039
24.74252,83000
24.75065,83964
24.75877,83826
24.76688,79836
24.77502,81039
24.78313,78043
24.79127,77263
24.79938,74684
24.80750,78661
24.81563,75350
24.82375,80632
24.83188,72333
24.84000,72849
24.84812,79195
24.85625,78007
24.86437,75915
24.87248,78222
24.88062,72150
24.88873,76083
24.89687,71259
24.90498,75143
24.91310,73129
24.92123,69110
24.92935,68837
24.93748,66486
24.94560,64725
24.95372,64776
24.96185,59893
24.96997,62993
24.97810,63675
24.98622,57456
24.99433,59496
25.00247,62400
25.01058,58556
25.01870,57419
25.02683,56853
25.03495,61124
25.04308,56112
25.05120,57527
25.05932,56910
25.06745,60526
25.07557,60340
25.08370,56465
25.09182,57881
25.09993,60760
25.10807,63805
25.11618,63290
25.12430,74637
25.13243,86449
25.14055,96455
25.14868,113751
25.15680,122864
25.16492,120763
25.17305,114090
25.18117,102665
25.18930,94962
25.19742,81524
25.20553,73776
25.21367,70268
25.22178,70780
25.22992,68472
25.23803,65689
25.24615,65587
25.25428,62266
25.26240,69248
25.27052,65961
25.27865,65044
25.28677,67834
25.29490,65705
25.30302,68066
25.31113,69901
25.31927,67971
25.32738,68429
25.33552,66645
25.34363,63741
25.35175,60913
25.35988,63463
25.36800,58709
25.37612,60269
25.38425,56438
25.39237,54364
25.40050,56430
25.40862,56103
25.41673,56440
25.42487,51553
25.43298,55832
25.44112,56271
25.44923,57449
25.45735,60632
25.46548,55985
25.47360,60595
25.48173,57032
25.48985,59751
25.49797,64935
25.50610,57607
25.51422,56561
25.52233,54137
25.53047,57372
25.53858,49778
25.54672,50563
25.55483,57423
25.56295,52347
25.57108,49172
25.57920,48103
25.58733,48966
25.59545,48830
25.60357,49805
25.61170,51461
25.61982,50088
25.62795,45994
25.63607,52575
25.64418,50807
25.65232,50633
25.66043,47293
25.66855,48169
25.67668,48021
25.68480,50010
25.69293,46530
25.70105,46262
25.70917,46248
25.71730,44972
25.72542,48641
25.73355,49262
25.74167,48898
25.74978,45132
25.75792,46815
25.76603,47039
25.77415,47453
25.78228,48839
25.79040,44260
25.79853,42183
25.80665,47312
25.81477,48092
25.82290,48114
25.83102,45736
25.83915,47114
25.84727,49572
25.85538,49679
25.86352,47028
25.87163,46990
25.87977,50211
25.88788,48509
25.89600,50447
25.90413,47608
25.91225,48071
25.92037,50798
25.92850,46731
25.93662,44462
25.94475,43514
25.95287,41953
25.96098,44087
25.96912,44940
25.97723,47365
25.98537,44688
25.99348,41129
26.00160,43523
26.00973,42019
26.01785,41507
26.02598,42380
26.03410,43949
26.04222,44344
26.05035,41140
26.05847,42926
26.06658,45913
26.07472,43631
26.08283,45348
26.09097,45719
26.09908,44325
26.10720,43201
26.11533,49709
26.12345,46268
26.13158,52716
26.13970,54173
26.14782,53439
26.15595,55394
26.16407,53265
26.17218,49874
26.18032,51967
26.18843,52860
26.19657,50801
26.20468,51867
26.21280,48762
26.22093,49669
26.22905,47701
26.23718,49936
26.24530,47615
26.25342,49872
26.26155,53244
26.26967,48340
26.27780,49106
26.28592,50368
26.29403,46833
26.30217,50021
26.31028,43136
26.31840,47805
26.32653,51833
26.33465,48719
26.34278,44232
26.35090,47758
26.35902,46961
26.36715,47260
26.37527,45859
26.38340,47458
26.39152,47894
26.39963,56571
26.40777,53673
26.41588,56982
26.42400,56487
26.43213,53524
26.44025,52158
26.44838,51357
26.45650,47388
26.46462,49399
26.47275,45090
26.48087,44084
26.48900,44168
26.49712,47452
26.50523,44513
26.51337,43410
26.52148,45439
26.52962,41665
26.53773,42870
26.54585,48035
26.55398,43874
26.56210,44344
26.57022,45800
26.57835,42693
26.58647,44237
26.59460,41355
26.60272,41764
26.61083,42504
26.61897,46577
26.62708,42840
26.63522,40431
26.64333,42043
26.65145,41961
26.65958,40504
26.66770,44652
26.67583,43001
26.68395,40996
26.69207,44629
26.70020,40982
26.70832,43543
26.71643,45061
26.72457,42338
26.73268,43380
26.74082,43962
26.74893,42757
26.75705,45706
26.76518,39796
26.77330,43126
26.78143,41862
26.78955,46474
26.79767,43163
26.80580,43806
26.81392,46899
26.82203,46874
26.83017,45012
26.83828,48172
26.84642,47339
26.85453,50289
26.86265,45999
26.87078,47106
26.87890,43442
26.88703,43790
26.89515,46152
26.90327,50379
26.91140,46296
26.91952,49318
26.92765,45167
26.93577,48165
26.94388,50863
26.95202,63460
26.96013,95837
26.96825,155608
26.97638,290659
26.98450,553903
26.99263,990603
27.00075,1746256
27.00887,2703070
27.01700,3538013
27.02512,4100006
27.03325,4045453
27.04137,3676544
27.04948,3219394
27.05762,2713679
27.06573,2215727
27.07387,1775396
27.08198,1398239
27.09010,1111906
27.09823,886873
27.10635,730490
27.11447,589845
27.12260,493805
27.13072,422562
27.13885,371795
27.14697,330125
27.15508,291485
27.16322,274301
27.17133,251382
27.17947,241541
27.18758,221720
27.19570,211276
27.20383,202121
27.21195,187744
27.22007,179490
27.22820,173127
27.23632,173980
27.24445,183053
27.25257,202357
27.26068,254775
27.26882,326743
27.27693,427422
27.28507,481976
27.29318,551536
27.30130,574367
27.30943,561953
27.31755,538779
27.32568,488667
27.33380,432029
27.34192,360478
27.35005,308344
27.35817,286309
27.36628,247270
27.37442,211376
27.38253,198970
27.39067,174791
27.39878,161704
27.40690,158402
27.41503,141839
27.42315,142059
27.43128,133165
27.43940,127198
27.44752,123413
27.45565,117414
27.46377,115917
27.47188,115272
27.48002,108470
27.48813,105879
27.49627,104091
27.50438,106801
27.51250,99100
27.52063,100858
27.52875,103696
27.53688,98470
27.54500,103153
27.55312,90446
27.56125,94207
27.56937,95030
27.57750,81890
27.58562,85587
27.59373,87339
27.60187,91634
27.60998,88078
27.61810,84372
27.62623,82766
27.63435,84732
27.64248,77728
27.65060,77125
27.65872,72570
27.66685,75088
27.67497,73961
27.68310,75993
27.69122,74001
27.69933,75202
27.70747,74263
27.71558,73130
27.72372,72496
27.73183,70770
27.73995,69178
27.74808,73182
27.75620,66519
27.76432,66298
27.77245,67123
27.78057,68866
27.78870,66620
27.79682,63086
27.80493,66025
27.81307,63642
27.82118,61451
27.82932,68144
27.83743,65789
27.84555,60698
27.85368,74824
27.86180,65083
27.86992,59505
27.87805,64866
27.88617,65211
27.89430,60402
27.90242,62681
27.91053,59238
27.91867,57518
27.92678,59098
27.93492,58189
27.94303,55865
27.95115,59311
27.95928,56717
27.96740,54813
27.97553,56574
27.98365,64676
27.99177,55062
27.99990,54223
28.00802,54438
28.01613,57027
28.02427,59271
28.03238,62424
28.04052,62963
28.04863,66204
28.05675,63131
28.06488,64585
28.07300,64944
28.08113,63024
28.08925,61012
28.09737,61550
28.10550,54214
28.11362,58050
28.12175,52974
28.12987,56595
28.13798,59300
28.14612,55642
28.15423,52999
28.16235,51919
28.17048,56092
28.17860,63013
28.18673,61313
28.19485,63329
28.20297,65183
28.21110,62356
28.21922,61749
28.22735,65886
28.23547,56312
28.24358,58723
28.25172,52145
28.25983,61297
28.26795,63610
28.27608,72989
28.28420,88197
28.29233,123165
28.30045,187928
28.30857,293597
28.31670,422919
28.32482,583135
28.33295,771833
28.34107,967229
28.34918,1192659
28.35732,1330042
28.36543,1447474
28.37357,1545513
28.38168,1546325
28.38980,1551418
28.39793,1464378
28.40605,1379864
28.41417,1262726
28.42230,1152768
28.43042,1014478
28.43855,910160
28.44667,786953
28.45478,672034
28.46292,620169
28.47103,543182
28.47917,489018
28.48728,443080
28.49540,421770
28.50353,413657
28.51165,395661
28.51978,379592
28.52790,385458
28.53602,383650
28.54415,400957
28.55227,386043
28.56038,380870
28.56852,374609
28.57663,357401
28.58477,341881
28.59288,335694
28.60100,315282
28.60913,299220
28.61725,282214
28.62538,276427
28.63350,245390
28.64162,251985
28.64975,236222
28.65787,226032
28.66598,214913
28.67412,208545
28.68223,199658
28.69037,178703
28.69848,171801
28.70660,165232
28.71473,154840
28.72285,150180
28.73098,151512
28.73910,153443
28.74722,161458
28.75535,177512
28.76347,183762
28.77160,179535
28.77972,168068
28.78783,159332
28.79597,147745
28.80408,133430
28.81220,132663
28.82033,128607
28.82845,121978
28.83658,119646
28.84470,110988
28.85282,113757
28.86095,101980
28.86907,99245
28.87720,104831
28.88532,101244
28.89343,106400
28.90157,97563
28.90968,93079
28.91780,95002
28.92593,95924
28.93405,93887
28.94218,93186
28.95030,89582
28.95842,93767
28.96655,90637
28.97467,94419
28.98280,90441
28.99092,88871
28.99903,85178
29.00717,85601
29.01528,82851
29.02342,80299
29.03153,82358
29.03965,86122
29.04778,76572
29.05590,81451
29.06402,80674
29.07215,78198
29.08027,82234
29.08840,82245
29.09652,81885
29.10463,76642
29.11277,80477
29.12088,71178
29.12902,72185
29.13713,71293
29.14525,76699
29.15338,75408
29.16150,78847
29.16963,73841
29.17775,76889
29.18587,74649
29.19400,73904
29.20212,70354
29.21023,73798
29.21837,76431
29.22648,71956
29.23462,73594
29.24273,83693
29.25085,84720
29.25898,97065
29.26710,99143
29.27523,106665
29.28335,106822
29.29147,102682
29.29960,96172
29.30772,86730
29.31583,80514
29.32397,79116
29.33208,74562
29.34022,69168
29.34833,71989
29.35645,70680
29.36458,70435
29.37270,69216
29.38083,69560
29.38895,68814
29.39707,67701
29.40520,67661
29.41332,71928
29.42145,70717
29.42957,69839
29.43768,66567
29.44582,66797
29.45393,70234
29.46205,67954
29.47018,75052
29.47830,72460
29.48643,74025
29.49455,73208
29.50267,73347
29.51080,71631
29.51892,69763
29.52705,67943
29.53517,68585
29.54328,65622
29.55142,65575
29.55953,59612
29.56767,64434
29.57578,58552
29.58390,63522
29.59203,60048
29.60015,59572
29.60827,57784
29.61640,62962
29.62452,62650
29.63265,59204
29.64077,57255
29.64888,61185
29.65702,57454
29.66513,58370
29.67327,56871
29.68138,58622
29.68950,54711
29.69763,54836
29.70575,57154
29.71387,57982
29.72200,56593
29.73012,52669
29.73825,50607
29.74637,54526
29.75448,58219
29.76262,55119
29.77073,55278
29.77887,52010
29.78698,53899
29.79510,54145
29.80323,50502
29.81135,51798
29.81948,52630
29.82760,54341
29.83572,52015
29.84385,49657
29.85197,52107
29.86008,50272
29.86822,52168
29.87633,52812
29.88447,58007
29.89258,57826
29.90070,62248
29.90883,61871
29.91695,77874
29.92508,85931
29.93320,106123
29.94132,129409
29.94945,159932
29.95757,198406
29.96568,238191
29.97382,300307
29.98193,344906
29.99007,407549
29.99818,431230
30.00630,490891
30.01443,522453
30.02255,543180
30.03068,555296
30.03880,558156
30.04692,578335
30.05505,580356
30.06317,572609
30.07130,537823
30.07942,537740
30.08753,530544
30.09567,496565
30.10378,466236
30.11190,455582
30.12003,436496
30.12815,406740
30.13628,384307
30.14440,363742
30.15252,344431
30.16065,308688
30.16877,297191
30.17690,290519
30.18502,267676
30.19313,255983
30.20127,239808
30.20938,228459
30.21752,214482
30.22563,208177
30.23375,187951
30.24188,177160
30.25000,173862
30.25812,165544
30.26625,156464
30.27437,146635
30.28250,145709
30.29062,134853
30.29873,123993
30.30687,128679
30.31498,120943
30.32312,115325
30.33123,113598
30.33935,111027
30.34748,109855
30.35560,109439
30.36373,104175
30.37185,105317
30.37997,100636
30.38810,98381
30.39622,92409
30.40433,92840
30.41247,88126
30.42058,91203
30.42872,89475
30.43683,86915
30.44495,87717
30.45308,82535
30.46120,79183
30.46933,78717
30.47745,80628
30.48557,76533
30.49370,72915
30.50182,75972
30.50993,77782
30.51807,78273
30.52618,70660
30.53432,73451
30.54243,74436
30.55055,67862
30.55868,71823
30.56680,71383
30.57493,72354
30.58305,70948
30.59117,69105
30.59930,72468
30.60742,71675
30.61555,67440
30.62367,66826
30.63178,65735
30.63992,62109
30.64803,62485
30.65615,64883
30.66428,62994
30.67240,63604
30.68053,64922
30.68865,62476
30.69677,61034
30.70490,61150
30.71302,64610
30.72115,60854
30.72927,62653
30.73738,61561
30.74552,62913
30.75363,61674
30.76175,60383
30.76988,62276
30.77800,60023
30.78613,58392
30.79425,64192
30.80237,65213
30.81050,62472
30.81862,66530
30.82675,66723
30.83487,59183
30.84298,60288
30.85112,58709
30.85923,60936
30.86737,60194
30.87548,57229
30.88360,59428
30.89173,58090
30.89985,59295
30.90797,58154
30.91610,54573
30.92422,50084
30.93235,54352
30.94047,56269
30.94858,56492
30.95672,54610
30.96483,55431
30.97297,57649
30.98108,52212
30.98920,52855
30.99733,52104
31.00545,57498
31.01358,52581
31.02170,53056
31.02982,58489
31.03795,58636
31.04607,57805
31.05418,59001
31.06232,55332
31.07043,55952
31.07857,57822
31.08668,64193
31.09480,67495
31.10293,66804
31.11105,72258
31.11918,65490
31.12730,63375
31.13542,60594
31.14355,62381
31.15167,61582
31.15978,60680
31.16792,60220
31.17603,66282
31.18417,76870
31.19228,86462
31.20040,100428
31.20853,115727
31.21665,135958
31.22478,145335
31.23290,145517
31.24102,140304
31.24915,121576
31.25727,109882
31.26540,90217
31.27352,75656
31.28163,70059
31.28977,66587
31.29788,61907
31.30600,64617
31.31413,58496
31.32225,57470
31.33038,56923
31.33850,57785
31.34662,57520
31.35475,57659
31.36287,62760
31.37100,64717
31.37912,64640
31.38723,71055
31.39537,77480
31.40348,70477
31.41162,74206
31.41973,65321
31.42785,62306
31.43598,62963
31.44410,59187
31.45222,57629
31.46035,58612
31.46847,54428
31.47660,54240
31.48472,52734
31.49283,55311
31.50097,52649
31.50908,49452
31.51722,51006
31.52533,51138
31.53345,53225
31.54158,61148
31.54970,54819
31.55782,50921
31.56595,53466
31.57407,50597
31.58220,50402
31.59032,51218
31.59843,51555
31.60657,51454
31.61468,52770
31.62282,47980
31.63093,50509
31.63905,49862
31.64718,49805
31.65530,54071
31.66343,51583
31.67155,49571
31.67967,50711
31.68780,48281
31.69592,52676
31.70403,46975
31.71217,55443
31.72028,48590
31.72842,45263
31.73653,48060
31.74465,49467
31.75278,45548
31.76090,49652
31.76903,48867
31.77715,50471
31.78527,47494
31.79340,53223
31.80152,51411
31.80963,52162
31.81777,52859
31.82588,46779
31.83402,54213
31.84213,53596
31.85025,56157
31.85838,58722
31.86650,65351
31.87463,71457
31.88275,86716
31.89087,96261
31.89900,118410
31.90712,143683
31.91525,169787
31.92337,205353
31.93148,233701
31.93962,262859
31.94773,290544
31.95585,323069
31.96398,332392
31.97210,351713
31.98023,350210
31.98835,340926
31.99647,345236
32.00460,338288
32.01272,319515
32.02085,308888
32.02897,288637
32.03708,275798
32.04522,262862
32.05333,244486
32.06147,234501
32.06958,223076
32.07770,207425
32.08583,193139
32.09395,176594
32.10207,165292
32.11020,156785
32.11832,140970
32.12645,137639
32.13457,132617
32.14268,123621
32.15082,122025
32.15893,111174
32.16707,113732
32.17518,99890
32.18330,103376
32.19143,95655
32.19955,94252
32.20767,87030
32.21580,88086
32.22392,88768
32.23205,86804
32.24017,85573
32.24828,84094
32.25642,74992
32.26453,76910
32.27267,79315
32.28078,78808
32.28890,80453
32.29703,76676
32.30515,76977
32.31328,75021
32.32140,69725
32.32952,72840
32.33765,77293
32.34577,73028
32.35388,69969
32.36202,75445
32.37013,65957
32.37827,67759
32.38638,66616
32.39450,70671
32.40263,67918
32.41075,65998
32.41888,63021
32.42700,58188
32.43512,61238
32.44325,63279
32.45137,60265
32.45950,62100
32.46762,62170
32.47573,57467
32.48387,65204
32.49198,63892
32.50010,61913
32.50823,61787
32.51635,58822
32.52448,59900
32.53260,58950
32.54072,58718
32.54885,59557
32.55697,61133
32.56510,59511
32.57322,58683
32.58133,56651
32.58947,54368
32.59758,57947
32.60570,54083
32.61383,56948
32.62195,57568
32.63008,70114
32.63820,73722
32.64632,85391
32.65445,93823
32.66257,97178
32.67070,92922
32.67882,86030
32.68693,74150
32.69507,71282
32.70318,67280
32.71132,64885
32.71943,63105
32.72755,66537
32.73568,58573
32.74380,59255
32.75192,60031
32.76005,57187
32.76817,56048
32.77630,53138
32.78442,54367
32.79253,53142
32.80067,53157
32.80878,61177
32.81692,55500
32.82503,49599
32.83315,51191
32.84128,55953
32.84940,53551
32.85753,54203
32.86565,51635
32.87377,51505
32.88190,53988
32.89002,62060
32.89813,57027
32.90627,60825
32.91438,54910
32.92252,51888
32.93063,54395
32.93875,55309
32.94688,52280
32.95500,51770
32.96313,54268
32.97125,51695
32.97937,51839
32.98750,49840
32.99562,59550
33.00373,52334
33.01187,53643
33.01998,54183
33.02812,54497
33.03623,52928
33.04435,50558
33.05248,50006
33.06060,52531
33.06873,60980
33.07685,48800
33.08497,52202
33.09310,53843
33.10122,56135
33.10935,61884
33.11747,61972
33.12558,57813
33.13372,62925
33.14183,59476
33.14995,60357
33.15808,60615
33.16620,59238
33.17433,56058
33.18245,53306
33.19057,54380
33.19870,54446
33.20682,52590
33.21495,51561
33.22307,56264
33.23118,54073
33.23932,52918
33.24743,52684
33.25555,51702
33.26368,53300
33.27180,49798
33.27993,54025
33.28805,49693
33.29617,50348
33.30430,53306
33.31242,54075
33.32055,52453
33.32867,51309
33.33678,49294
33.34492,51577
33.35303,51408
33.36117,49251
33.36928,43888
33.37740,50143
33.38553,50774
33.39365,51265
33.40177,48922
33.40990,47900
33.41802,51661
33.42615,50624
33.43427,52751
33.44238,49645
33.45052,48876
33.45863,49849
33.46677,49989
33.47488,50873
33.48300,49404
33.49113,44820
33.49925,50380
33.50738,48544
33.51550,51428
33.52362,48184
33.53175,48972
33.53987,46293
33.54798,49325
33.55612,49916
33.56423,49418
33.57237,48337
33.58048,50707
33.58860,46442
33.59673,46912
33.60485,49127
33.61298,48492
33.62110,48012
33.62922,47870
33.63735,49425
33.64547,46620
33.65358,49937
33.66172,49442
33.66983,47517
33.67797,46396
33.68608,46017
33.69420,45725
33.70233,47269
33.71045,44032
33.71858,47407
33.72670,49302
33.73482,43626
33.74295,44995
33.75107,46307
33.75920,44835
33.76732,48928
33.77543,53823
33.78357,48348
33.79168,45648
33.79980,44289
33.80793,45596
33.81605,43582
33.82418,45140
33.83230,49210
33.84042,46336
33.84855,50901
33.85667,50886
33.86480,44982
33.87292,48642
33.88103,47526
33.88917,48893
33.89728,49543
33.90542,49549
33.91353,50900
33.92165,51625
33.92978,53438
33.93790,53124
33.94602,49557
33.95415,48317
33.96227,45717
33.97040,46651
33.97852,48038
33.98663,48915
33.99477,44119
34.00288,48043
34.01102,46594
34.01913,47092
34.02725,46531
34.03538,47653
34.04350,47918
34.05162,48280
34.05975,46935
34.06787,52390
34.07600,48542
34.08412,46070
34.09223,50973
34.10037,52520
34.10848,53904
34.11662,45166
34.12473,50300
34.13285,51811
34.14098,50702
34.14910,49976
34.15723,49948
34.16535,48135
34.17347,54200
34.18160,49789
34.18972,48182
34.19783,50884
34.20597,46994
34.21408,50049
34.22222,51432
34.23033,46342
34.23845,49085
34.24658,49570
34.25470,49951
34.26283,50593
34.27095,48782
34.27907,44485
34.28720,50825
34.29532,48273
34.30343,50331
34.31157,45828
34.31968,47505
34.32782,50421
34.33593,48120
34.34405,45794
34.35218,47065
34.36030,48824
34.36843,49913
34.37655,50145
34.38467,45778
34.39280,47161
34.40092,54731
34.40905,46995
34.41717,47192
34.42528,46705
34.43342,45966
34.44153,48939
34.44965,46951
34.45778,42970
34.46590,51040
34.47403,49868
34.48215,62396
34.49027,72404
34.49840,91240
34.50652,123442
34.51465,170743
34.52277,209520
34.53088,256498
34.53902,298975
34.54713,314830
34.55527,311375
34.56338,307487
34.57150,282821
34.57963,262352
34.58775,240467
34.59587,216483
34.60400,196506
34.61212,175073
34.62025,156384
34.62837,138147
34.63648,130866
34.64462,119876
34.65273,117109
34.66087,110322
34.66898,108826
34.67710,99324
34.68523,99658
34.69335,93691
34.70148,95273
34.70960,96177
34.71772,92589
34.72585,85070
34.73397,80773
34.74208,78977
34.75022,81224
34.75833,78437
34.76647,78934
34.77458,76207
34.78270,78788
34.79083,73563
34.79895,75142
34.80708,72651
34.81520,74469
34.82332,74711
34.83145,76744
34.83957,71860
34.84768,73216
34.85582,70591
34.86393,68738
34.87207,66057
34.88018,67956
34.88830,71313
34.89643,70918
34.90455,71245
34.91268,68533
34.92080,75600
34.92892,70668
34.93705,71405
34.94517,70774
34.95330,66319
34.96142,70073
34.96953,67384
34.97767,70784
34.98578,65486
34.99390,65300
35.00203,63683
35.01015,59837
35.01828,58557
35.02640,62272
35.03452,61291
35.04265,60074
35.05077,61430
35.05890,62735
35.06702,64015
35.07513,60506
35.08327,62941
35.09138,62935
35.09950,61756
35.10763,60175
35.11575,57654
35.12388,60064
35.13200,57532
35.14012,68272
35.14825,62919
35.15637,61007
35.16450,63895
35.17262,65095
35.18073,61792
35.18887,57068
35.19698,58933
35.20512,61455
35.21323,58963
35.22135,59842
35.22948,56919
35.23760,57823
35.24572,58188
35.25385,57011
35.26197,57342
35.27010,57948
35.27822,61796
35.28633,58601
35.29447,58138
35.30258,52752
35.31072,57108
35.31883,57565
35.32695,56456
35.33508,55530
35.34320,54919
35.35133,57649
35.35945,54636
35.36757,56194
35.37570,57674
35.38382,55623
35.39193,60677
35.40007,60651
35.40818,56800
35.41632,63279
35.42443,64596
35.43255,65065
35.44068,65365
35.44880,63087
35.45693,62700
35.46505,61587
35.47317,59907
35.48130,60138
35.48942,62950
35.49753,56497
35.50567,58529
35.51378,59875
35.52192,53459
35.53003,55681
35.53815,55315
35.54628,57175
35.55440,58726
35.56253,54659
35.57065,58135
35.57877,58786
35.58690,57120
35.59502,56254
35.60315,55456
35.61127,56469
35.61938,57752
35.62752,59292
35.63563,57653
35.64375,60274
35.65188,65222
35.66000,60881
35.66813,65380
35.67625,64458
35.68437,60872
35.69250,66573
35.70062,59169
35.70875,59000
35.71687,55837
35.72498,57955
35.73312,51439
35.74123,58012
35.74937,55136
35.75748,58283
35.76560,57467
35.77373,58979
35.78185,60578
35.78997,62058
35.79810,54755
35.80622,53988
35.81435,57352
35.82247,59514
35.83058,58189
35.83872,54250
35.84683,53957
35.85497,56500
35.86308,55910
35.87120,53997
35.87933,57241
35.88745,53529
35.89557,52910
35.90370,57731
35.91182,53924
35.91995,51249
35.92807,49300
35.93618,53113
35.94432,53697
35.95243,51453
35.96057,52821
35.96868,50075
35.97680,57437
35.98493,55439
35.99305,57255
36.00118,58412
36.00930,57413
36.01742,57678
36.02555,59064
36.03367,63888
36.04178,59231
36.04992,55038
36.05803,55339
36.06617,58134
36.07428,55450
36.08240,59126
36.09053,57216
36.09865,58137
36.10678,51993
36.11490,57172
36.12302,58997
36.13115,59249
36.13927,56831
36.14738,55571
36.15552,54462
36.16363,56426
36.17177,61808
36.17988,58164
36.18800,55393
36.19613,57167
36.20425,55644
36.21238,55172
36.22050,54425
36.22862,56082
36.23675,54357
36.24487,60224
36.25300,57165
36.26112,61805
36.26923,60780
36.27737,65307
36.28548,70521
36.29360,90705
36.30173,98759
36.30985,97766
36.31798,93642
36.32610,82489
36.33422,74839
36.34235,68553
36.35047,61289
36.35860,62111
36.36672,63346
36.37483,61800
36.38297,60655
36.39108,64825
36.39922,61611
36.40733,62158
36.41545,62053
36.42358,56818
36.43170,58231
36.43982,54092
36.44795,56506
36.45607,52547
36.46420,54836
36.47232,56500
36.48043,61781
36.48857,52322
36.49668,55689
36.50482,57606
36.51293,54524
36.52105,56391
36.52918,56908
36.53730,60898
36.54542,59059
36.55355,58808
36.56167,58923
36.56980,60645
36.57792,60395
36.58603,59443
36.59417,62659
36.60228,56611
36.61042,62467
36.61853,60612
36.62665,62491
36.63478,61564
36.64290,61776
36.65103,65101
36.65915,67575
36.66727,67303
36.67540,65851
36.68352,70221
36.69163,70515
36.69977,70737
36.70788,72240
36.71602,76945
36.72413,83019
36.73225,82025
36.74038,86078
36.74850,90523
36.75663,89777
36.76475,98169
36.77287,100949
36.78100,95844
36.78912,94272
36.79725,99888
36.80537,96425
36.81348,99890
36.82162,93719
36.82973,89720
36.83785,92877
36.84598,88947
36.85410,78684
36.86223,80759
36.87035,80192
36.87847,73768
36.88660,74581
36.89472,66791
36.90285,60604
36.91097,65429
36.91908,65294
36.92722,62025
36.93533,61092
36.94345,63870
36.95158,63922
36.95970,63713
36.96783,60568
36.97595,60693
36.98407,63100
36.99220,64963
37.00032,62016
37.00845,62350
37.01657,60807
37.02468,61392
37.03282,57781
37.04093,58846
37.04907,62874
37.05718,60773
37.06530,62596
37.07343,60726
37.08155,60744
37.08967,60967
37.09780,57673
37.10592,57952
37.11405,67259
37.12217,61000
37.13028,59451
37.13842,57324
37.14653,61920
37.15467,63746
37.16278,60795
37.17090,62022
37.17903,66462
37.18715,60497
37.19527,60646
37.20340,62096
37.21152,59184
37.21965,61745
37.22777,59379
37.23588,61129
37.24402,59857
37.25213,62477
37.26027,57400
37.26838,58901
37.27650,63635
37.28463,62115
37.29275,74497
37.30088,81782
37.30900,113164
37.31712,145944
37.32525,184775
37.33337,204024
37.34148,229439
37.34962,241251
37.35773,231519
37.36587,218138
37.37398,195795
37.38210,179655
37.39023,154766
37.39835,136841
37.40648,138658
37.41460,125547
37.42272,122227
37.43085,113600
37.43897,114533
37.44710,111506
37.45522,105709
37.46333,99987
37.47147,98950
37.47958,100882
37.48770,92751
