C:\MassHunter\GCMS\1\data\JTB-E18\JTB-E18-024-06.D Wed Sep 11 11:27:27 2019
Start of data points
2.09527,126222
2.10338,129940
2.11152,137377
2.11963,130393
2.12775,120667
2.13588,132389
2.14400,132165
2.15213,118646
2.16025,119354
2.16837,114591
2.17650,114351
2.18462,111375
2.19275,103585
2.20087,101073
2.20898,107574
2.21712,105342
2.22523,103527
2.23335,95827
2.24148,96627
2.24960,90209
2.25773,95193
2.26585,95623
2.27397,237890
2.28210,1019764
2.29022,1220493
2.29835,625093
2.30647,377549
2.31458,309896
2.32272,269033
2.33083,251937
2.33897,224647
2.34708,216177
2.35520,183606
2.36333,183682
2.37145,180607
2.37957,181363
2.38770,285319
2.39582,288338
2.40395,202082
2.41207,173612
2.42018,172139
2.42832,179086
2.43643,179193
2.44457,168448
2.45268,173246
2.46080,161339
2.46893,158427
2.47705,154211
2.48518,147856
2.49330,155814
2.50142,173277
2.50955,164771
2.51767,151542
2.52578,148381
2.53392,142173
2.54203,143084
2.55017,143182
2.55828,152832
2.56640,174533
2.57453,166842
2.58265,148953
2.59078,154489
2.59890,154201
2.60702,195661
2.61515,536632
2.62327,746516
2.63138,498317
2.63952,322759
2.64763,246841
2.65577,208975
2.66388,194002
2.67200,182990
2.68013,219899
2.68825,237204
2.69638,189896
2.70450,164262
2.71262,152848
2.72075,146410
2.72887,144403
2.73700,137729
2.74512,143202
2.75323,140105
2.76137,138790
2.76948,133348
2.77760,144751
2.78573,170450
2.79385,211402
2.80198,186111
2.81010,165810
2.81822,177616
2.82635,291360
2.83447,710127
2.84260,945279
2.85072,576409
2.85883,331302
2.86697,306931
2.87508,278749
2.88320,226462
2.89133,190067
2.89945,168513
2.90758,162194
2.91570,160204
2.92382,149231
2.93195,140617
2.94007,141971
2.94820,136547
2.95632,139587
2.96443,143091
2.97257,143661
2.98068,137599
2.98882,140154
2.99693,150111
3.00505,159174
3.01318,176674
3.02130,198253
3.02942,327810
3.03755,697113
3.04567,1021059
3.05380,2218515
3.06192,6839367
3.07003,1.013375E+07
3.07817,7237103
3.08628,3641117
3.09442,2618967
3.10253,2717659
3.11065,3329835
3.11878,3843543
3.12690,2909979
3.13503,1876861
3.14315,1423545
3.15127,1122781
3.15940,935787
3.16752,835394
3.17563,788475
3.18377,756489
3.19188,964492
3.20002,1419668
3.20813,1377248
3.21625,992707
3.22438,785511
3.23250,694904
3.24063,613135
3.24875,539372
3.25687,485643
3.26500,447072
3.27312,402299
3.28123,438351
3.28937,937914
3.29748,2904153
3.30562,6558913
3.31373,8850598
3.32185,7418060
3.32998,4737453
3.33810,2969168
3.34623,2068471
3.35435,1599336
3.36247,1303591
3.37060,1188843
3.37872,1373195
3.38685,1547246
3.39497,1395942
3.40308,1352239
3.41122,2489550
3.41933,4596113
3.42745,5004274
3.43558,3272243
3.44370,1828842
3.45183,1213920
3.45995,950430
3.46807,830078
3.47620,765226
3.48432,666784
3.49245,610181
3.50057,564325
3.50868,517187
3.51682,496257
3.52493,467835
3.53307,466203
3.54118,460213
3.54930,445887
3.55743,437337
3.56555,414136
3.57367,460889
3.58180,503292
3.58992,494848
3.59805,430297
3.60617,395098
3.61428,426859
3.62242,709317
3.63053,1572786
3.63867,2640643
3.64678,2742888
3.65490,1875517
3.66303,1220900
3.67115,1694079
3.67927,3883941
3.68740,5625576
3.69552,4489670
3.70365,2573730
3.71177,1683416
3.71988,1279105
3.72802,1108800
3.73613,986557
3.74427,885371
3.75238,810906
3.76050,766711
3.76863,727457
3.77675,658285
3.78488,626988
3.79300,595967
3.80112,615441
3.80925,944741
3.81737,1672830
3.82548,2098984
3.83362,1665497
3.84173,1137679
3.84987,867742
3.85798,745945
3.86610,676345
3.87423,604894
3.88235,580654
3.89048,544601
3.89860,521510
3.90672,492918
3.91485,507112
3.92297,568710
3.93110,683101
3.93922,702257
3.94733,692972
3.95547,988910
3.96358,1888245
3.97170,2686054
3.97983,2405507
3.98795,1610513
3.99608,1705678
4.00420,4731625
4.01232,1.185801E+07
4.02045,1.749413E+07
4.02857,1.551436E+07
4.03670,9056621
4.04482,4555254
4.05293,2781154
4.06107,2012714
4.06918,1565198
4.07730,1277834
4.08543,1072448
4.09355,948541
4.10168,836189
4.10980,752016
4.11792,686181
4.12605,630844
4.13417,611513
4.14230,626226
4.15042,700643
4.15853,762278
4.16667,711938
4.17478,609919
4.18292,551581
4.19103,512238
4.19915,461726
4.20728,477856
4.21540,847946
4.22352,2721848
4.23165,6917375
4.23977,1.119158E+07
4.24790,1.205067E+07
4.25602,8853372
4.26413,5448774
4.27227,3553918
4.28038,2573512
4.28852,1981051
4.29663,1554967
4.30475,1311933
4.31288,1101127
4.32100,991747
4.32912,883297
4.33725,819645
4.34537,778686
4.35350,754620
4.36162,740951
4.36973,706284
4.37787,666451
4.38598,601214
4.39412,560509
4.40223,509430
4.41035,500995
4.41848,483670
4.42660,456896
4.43473,451574
4.44285,441013
4.45097,448721
4.45910,437843
4.46722,453643
4.47533,436088
4.48347,410974
4.49158,386544
4.49972,374659
4.50783,366166
4.51595,351520
4.52408,345095
4.53220,338057
4.54033,339975
4.54845,339285
4.55657,334223
4.56470,325206
4.57282,308830
4.58095,314034
4.58907,296887
4.59718,298324
4.60532,291171
4.61343,288278
4.62155,315169
4.62968,411090
4.63780,567343
4.64593,700295
4.65405,640805
4.66217,508367
4.67030,405073
4.67842,360683
4.68655,334534
4.69467,319176
4.70278,295489
4.71092,290951
4.71903,277918
4.72715,265529
4.73528,261051
4.74340,268133
4.75153,255429
4.75965,253597
4.76777,255035
4.77590,246073
4.78402,242472
4.79215,256911
4.80027,302567
4.80838,341974
4.81652,352156
4.82463,332574
4.83277,296142
4.84088,289304
4.84900,301704
4.85713,302364
4.86525,303092
4.87337,293138
4.88150,281586
4.88962,248564
4.89775,253927
4.90587,246041
4.91398,259338
4.92212,325833
4.93023,588972
4.93837,1213031
4.94648,2116325
4.95460,2798045
4.96273,2766699
4.97085,2232696
4.97898,1587115
4.98710,1149027
4.99522,874590
5.00335,723889
5.01147,613347
5.01958,558329
5.02772,609801
5.03583,806861
5.04397,1028029
5.05208,1067951
5.06020,905009
5.06833,714032
5.07645,592749
5.08458,538167
5.09270,498223
5.10082,514139
5.10895,567739
5.11707,630197
5.12518,629394
5.13332,568140
5.14143,512452
5.14957,463575
5.15768,454970
5.16580,505307
5.17393,561766
5.18205,612584
5.19018,644861
5.19830,637424
5.20642,597573
5.21455,536234
5.22267,486433
5.23080,439927
5.23892,404534
5.24703,382960
5.25517,355365
5.26328,348478
5.27140,315487
5.27953,320133
5.28765,312947
5.29578,318659
5.30390,312550
5.31202,315223
5.32015,288811
5.32827,297430
5.33640,321345
5.34452,323429
5.35263,320845
5.36077,301778
5.36888,282378
5.37700,278224
5.38513,275703
5.39325,274004
5.40138,275433
5.40950,272944
5.41762,266842
5.42575,246615
5.43387,245002
5.44200,249695
5.45012,244114
5.45823,251858
5.46637,244830
5.47448,252580
5.48262,233510
5.49073,225959
5.49885,238874
5.50698,241894
5.51510,236979
5.52322,243408
5.53135,240429
5.53947,245022
5.54760,231624
5.55572,237202
5.56383,269163
5.57197,286428
5.58008,312187
5.58822,289336
5.59633,273852
5.60445,247591
5.61258,246552
5.62070,246081
5.62883,257844
5.63695,260935
5.64507,273191
5.65320,260521
5.66132,251758
5.66943,250150
5.67757,249816
5.68568,283868
5.69382,314521
5.70193,333483
5.71005,338914
5.71818,331910
5.72630,338102
5.73443,333883
5.74255,332940
5.75067,307466
5.75880,309143
5.76692,326524
5.77505,347044
5.78317,336063
5.79128,317517
5.79942,318633
5.80753,424889
5.81565,710799
5.82378,1157035
5.83190,1636878
5.84003,1816053
5.84815,1577404
5.85627,1163083
5.86440,777849
5.87252,541580
5.88065,422790
5.88877,355670
5.89688,325446
5.90502,334815
5.91313,411535
5.92125,570125
5.92938,766830
5.93750,872379
5.94563,822538
5.95375,660082
5.96187,497605
5.97000,390201
5.97812,358765
5.98625,357721
5.99437,357520
6.00248,323816
6.01062,293703
6.01873,253141
6.02687,228582
6.03498,210922
6.04310,201435
6.05123,184893
6.05935,184138
6.06747,176124
6.07560,172724
6.08372,174229
6.09185,167024
6.09997,158936
6.10808,168622
6.11622,167498
6.12433,191829
6.13247,252338
6.14058,369341
6.14870,445166
6.15683,455158
6.16495,392853
6.17307,307594
6.18120,259017
6.18932,244974
6.19745,262594
6.20557,269480
6.21368,282539
6.22182,243308
6.22993,223633
6.23807,203327
6.24618,199137
6.25430,202770
6.26243,206409
6.27055,207331
6.27868,202535
6.28680,198771
6.29492,198035
6.30305,203622
6.31117,199332
6.31928,203535
6.32742,211168
6.33553,209759
6.34367,213524
6.35178,217062
6.35990,224421
6.36803,226982
6.37615,231830
6.38428,227081
6.39240,221340
6.40052,217493
6.40865,226065
6.41677,219729
6.42490,220531
6.43302,229182
6.44113,232232
6.44927,233119
6.45738,231870
6.46550,245879
6.47363,240759
6.48175,234172
6.48988,241545
6.49800,253067
6.50612,244700
6.51425,254399
6.52237,251981
6.53050,252815
6.53862,253968
6.54673,268359
6.55487,269759
6.56298,277576
6.57110,290177
6.57923,309420
6.58735,327453
6.59548,317275
6.60360,304429
6.61172,293773
6.61985,277705
6.62797,279130
6.63610,270844
6.64422,279201
6.65233,299510
6.66047,349819
6.66858,424560
6.67672,476673
6.68483,491433
6.69295,492726
6.70108,444798
6.70920,408721
6.71732,350944
6.72545,285496
6.73357,216639
6.74170,189652
6.74982,177090
6.75793,176138
6.76607,176974
6.77418,172326
6.78232,168614
6.79043,198280
6.79855,294589
6.80668,500437
6.81480,809461
6.82293,1127555
6.83105,1260525
6.83917,1157880
6.84730,865498
6.85542,599481
6.86353,434634
6.87167,336764
6.87978,270144
6.88792,221236
6.89603,172383
6.90415,151576
6.91228,131434
6.92040,131529
6.92853,116967
6.93665,128542
6.94477,151331
6.95290,222990
6.96102,320641
6.96913,464161
6.97727,559397
6.98538,577211
6.99352,503588
7.00163,374914
7.00975,260142
7.01788,188275
7.02600,157593
7.03413,132059
7.04225,123885
7.05037,124509
7.05850,125470
7.06662,130213
7.07475,131478
7.08287,119037
7.09098,108999
7.09912,100755
7.10723,96019
7.11535,99512
7.12348,97549
7.13160,96269
7.13973,108507
7.14785,140112
7.15597,163253
7.16410,201166
7.17222,212100
7.18035,195850
7.18847,209137
7.19658,277243
7.20472,511980
7.21283,897401
7.22095,1202894
7.22908,1211521
7.23720,952928
7.24533,609340
7.25345,390447
7.26157,286389
7.26970,236474
7.27782,211956
7.28595,191212
7.29407,180873
7.30218,160182
7.31032,151348
7.31843,174710
7.32657,228992
7.33468,322234
7.34280,399442
7.35093,435587
7.35905,415956
7.36717,344020
7.37530,263698
7.38342,195794
7.39155,162528
7.39967,141976
7.40778,139063
7.41592,135115
7.42403,150303
7.43217,178901
7.44028,218651
7.44840,264092
7.45653,286723
7.46465,283571
7.47278,247125
7.48090,196975
7.48902,153212
7.49715,127709
7.50527,117388
7.51338,108926
7.52152,110997
7.52963,131156
7.53777,172496
7.54588,227631
7.55400,316235
7.56213,392922
7.57025,411669
7.57838,382595
7.58650,314613
7.59462,248273
7.60275,187181
7.61087,149852
7.61898,130892
7.62712,118407
7.63523,109405
7.64337,103842
7.65148,99446
7.65960,96822
7.66773,96465
7.67585,97175
7.68398,97817
7.69210,91101
7.70022,91926
7.70835,97667
7.71647,94518
7.72460,93524
7.73272,99821
7.74083,97137
7.74897,94828
7.75708,93974
7.76520,98059
7.77333,96293
7.78145,92309
7.78958,99483
7.79770,97647
7.80582,99488
7.81395,99266
7.82207,94832
7.83020,99128
7.83832,102392
7.84643,92023
7.85457,93964
7.86268,95109
7.87082,97046
7.87893,107178
7.88705,107268
7.89518,109101
7.90330,106619
7.91142,101009
7.91955,105365
7.92767,110311
7.93580,127397
7.94392,154684
7.95203,158343
7.96017,149798
7.96828,127296
7.97642,117349
7.98453,98712
7.99265,94270
8.00078,83939
8.00890,83418
8.01702,79309
8.02515,80707
8.03327,79506
8.04140,77482
8.04952,76094
8.05763,78170
8.06577,80887
8.07388,77820
8.08202,78021
8.09013,76515
8.09825,73982
8.10638,75413
8.11450,76393
8.12263,76908
8.13075,80890
8.13887,86267
8.14700,95520
8.15512,99734
8.16323,97416
8.17137,87148
8.17948,82085
8.18762,82884
8.19573,72728
8.20385,71315
8.21198,71235
8.22010,71726
8.22823,76034
8.23635,80725
8.24447,71101
8.25260,74251
8.26072,72503
8.26883,70921
8.27697,68076
8.28508,68906
8.29322,69806
8.30133,72306
8.30945,76931
8.31758,81294
8.32570,88000
8.33383,89159
8.34195,87803
8.35007,79267
8.35820,73099
8.36632,71380
8.37445,72745
8.38257,70603
8.39068,69905
8.39882,67452
8.40693,61429
8.41505,67652
8.42318,67931
8.43130,65642
8.43943,65643
8.44755,65933
8.45567,64116
8.46380,71678
8.47192,64970
8.48005,65247
8.48817,62078
8.49628,63727
8.50442,70744
8.51253,82609
8.52067,102888
8.52878,148925
8.53690,203297
8.54503,239296
8.55315,226583
8.56127,170445
8.56940,120455
8.57752,93496
8.58565,80468
8.59377,71295
8.60188,72240
8.61002,71374
8.61813,73217
8.62627,71079
8.63438,75439
8.64250,69797
8.65063,74701
8.65875,66895
8.66687,66488
8.67500,69921
8.68312,69595
8.69125,76331
8.69937,78207
8.70748,76966
8.71562,76142
8.72373,79153
8.73187,126382
8.73998,245562
8.74810,485787
8.75623,826340
8.76435,1067551
8.77248,1121761
8.78060,926109
8.78872,645079
8.79685,417713
8.80497,268007
8.81308,207427
8.82122,189311
8.82933,184591
8.83747,179887
8.84558,163218
8.85370,160247
8.86183,148390
8.86995,148764
8.87808,139201
8.88620,132875
8.89432,133553
8.90245,126304
8.91057,121773
8.91870,123155
8.92682,126864
8.93493,131365
8.94307,130642
8.95118,141218
8.95930,128472
8.96743,126025
8.97555,120626
8.98368,126432
8.99180,124706
8.99992,120281
9.00805,115262
9.01617,111444
9.02430,103952
9.03242,102593
9.04053,102193
9.04867,104373
9.05678,100028
9.06490,102912
9.07303,100107
9.08115,100606
9.08928,102452
9.09740,107423
9.10552,116583
9.11365,123746
9.12177,126589
9.12990,131124
9.13802,116498
9.14613,111417
9.15427,106080
9.16238,102195
9.17052,95646
9.17863,93241
9.18675,92785
9.19488,90095
9.20300,88108
9.21112,88762
9.21925,87489
9.22737,88823
9.23550,88974
9.24362,89003
9.25173,86660
9.25987,90374
9.26798,95466
9.27612,104066
9.28423,103614
9.29235,100931
9.30048,97043
9.30860,93532
9.31673,92107
9.32485,87228
9.33297,91906
9.34110,93244
9.34922,94992
9.35733,91200
9.36547,83738
9.37358,87470
9.38172,86771
9.38983,82086
9.39795,89395
9.40608,87545
9.41420,96112
9.42233,104505
9.43045,120368
9.43857,118711
9.44670,118283
9.45482,113290
9.46293,102254
9.47107,91632
9.47918,83530
9.48732,82642
9.49543,83131
9.50355,86641
9.51168,91274
9.51980,93431
9.52793,100575
9.53605,98078
9.54417,85757
9.55230,74281
9.56042,71918
9.56855,65080
9.57667,68733
9.58478,70945
9.59292,72984
9.60103,71605
9.60915,68113
9.61728,62053
9.62540,61897
9.63353,63225
9.64165,64915
9.64977,63005
9.65790,62847
9.66602,65930
9.67415,60803
9.68227,53656
9.69038,51726
9.69852,53353
9.70663,52155
9.71475,52780
9.72288,51767
9.73100,52563
9.73913,54686
9.74725,54954
9.75537,45785
9.76350,45510
9.77162,47544
9.77975,53018
9.78787,49139
9.79598,45242
9.80412,50315
9.81223,49022
9.82037,47841
9.82848,52414
9.83660,49733
9.84473,50523
9.85285,50801
9.86097,54200
9.86910,54006
9.87722,54873
9.88535,55081
9.89347,50955
9.90158,51032
9.90972,47894
9.91783,53417
9.92597,56118
9.93408,59100
9.94220,70943
9.95033,83280
9.95845,93402
9.96658,94249
9.97470,95262
9.98282,80007
9.99095,71026
9.99907,68800
10.00718,62777
10.01532,56034
10.02343,52200
10.03157,50686
10.03968,50921
10.04780,53276
10.05593,52653
10.06405,51336
10.07218,54075
10.08030,52919
10.08842,52317
10.09655,53116
10.10467,51741
10.11278,48858
10.12092,53426
10.12903,50913
10.13717,50805
10.14528,53463
10.15340,53969
10.16153,52565
10.16965,48341
10.17778,50404
10.18590,51304
10.19402,49212
10.20215,50925
10.21027,48853
10.21840,51994
10.22652,53424
10.23463,57316
10.24277,58992
10.25088,70892
10.25900,109944
10.26713,203357
10.27525,395250
10.28338,689158
10.29150,1046845
10.29962,1440105
10.30775,2064702
10.31587,2943954
10.32400,3959189
10.33212,4450109
10.34023,4086096
10.34837,2958369
10.35648,1903277
10.36462,1275685
10.37273,927093
10.38085,708322
10.38898,553970
10.39710,391480
10.40522,285117
10.41335,214152
10.42147,181659
10.42960,164549
10.43772,156485
10.44583,148219
10.45397,145529
10.46208,129032
10.47022,124024
10.47833,116447
10.48645,114945
10.49458,108110
10.50270,110167
10.51082,103854
10.51895,115183
10.52707,109113
10.53520,102464
10.54332,97193
10.55143,93745
10.55957,90659
10.56768,87935
10.57582,88170
10.58393,87989
10.59205,83318
10.60018,83161
10.60830,81017
10.61643,80058
10.62455,77247
10.63267,82180
10.64080,77328
10.64892,74450
10.65703,79558
10.66517,75694
10.67328,73994
10.68142,74884
10.68953,73601
10.69765,81229
10.70578,82052
10.71390,84374
10.72203,83012
10.73015,73842
10.73827,73567
10.74640,68130
10.75452,75043
10.76263,71224
10.77077,70751
10.77888,64645
10.78702,62589
10.79513,66739
10.80325,63326
10.81138,67348
10.81950,67463
10.82763,67662
10.83575,65471
10.84387,57410
10.85200,54449
10.86012,60149
10.86825,52118
10.87637,57287
10.88448,55563
10.89262,61270
10.90073,53891
10.90885,55479
10.91698,57677
10.92510,57848
10.93323,56222
10.94135,56888
10.94947,54115
10.95760,57979
10.96572,62761
10.97385,58377
10.98197,57618
10.99008,59918
10.99822,57387
11.00633,57904
11.01447,52561
11.02258,54712
11.03070,52109
11.03883,55605
11.04695,53773
11.05507,48391
11.06320,48560
11.07132,55998
11.07945,56431
11.08757,57359
11.09568,60947
11.10382,62120
11.11193,62599
11.12007,60342
11.12818,64205
11.13630,60145
11.14443,60369
11.15255,60979
11.16068,56707
11.16880,61731
11.17692,56838
11.18505,59591
11.19317,64307
11.20128,66176
11.20942,61351
11.21753,58736
11.22567,56525
11.23378,51837
11.24190,58962
11.25003,55402
11.25815,59148
11.26628,81883
11.27440,109025
11.28252,146061
11.29065,188288
11.29877,235176
11.30688,251493
11.31502,295064
11.32313,354593
11.33127,450181
11.33938,514046
11.34750,519518
11.35563,466286
11.36375,372587
11.37188,285590
11.38000,219461
11.38812,174640
11.39625,150461
11.40437,130464
11.41250,123914
11.42062,106435
11.42873,100596
11.43687,92838
11.44498,90281
11.45310,81379
11.46123,81704
11.46935,75226
11.47748,86817
11.48560,95072
11.49372,111255
11.50185,117539
11.50997,117958
11.51810,110544
11.52622,114758
11.53433,112712
11.54247,112357
11.55058,108632
11.55870,103441
11.56683,92758
11.57495,87171
11.58308,84761
11.59120,85427
11.59932,91763
11.60745,105092
11.61557,112784
11.62370,112747
11.63182,98940
11.63993,89449
11.64807,77770
11.65618,71496
11.66432,70338
11.67243,68501
11.68055,74106
11.68868,82707
11.69680,91305
11.70492,107448
11.71305,105605
11.72117,116777
11.72930,108817
11.73742,105022
11.74553,98278
11.75367,93031
11.76178,86560
11.76992,80595
11.77803,76019
11.78615,70464
11.79428,67509
11.80240,65059
11.81053,71502
11.81865,63347
11.82677,62516
11.83490,68239
11.84302,66407
11.85113,71002
11.85927,70601
11.86738,68355
11.87552,66294
11.88363,61789
11.89175,53382
11.89988,59655
11.90800,59536
11.91613,67491
11.92425,81328
11.93237,85651
11.94050,97782
11.94862,98896
11.95673,95753
11.96487,78906
11.97298,74910
11.98112,74112
11.98923,79250
11.99735,97456
12.00548,109547
12.01360,112663
12.02173,112300
12.02985,94741
12.03797,79466
12.04610,68450
12.05422,64390
12.06235,60649
12.07047,60320
12.07858,58542
12.08672,63846
12.09483,60953
12.10295,60444
12.11108,57944
12.11920,59393
12.12733,63188
12.13545,65348
12.14357,62176
12.15170,59843
12.15982,58726
12.16795,54083
12.17607,52436
12.18418,50778
12.19232,52484
12.20043,51453
12.20857,50851
12.21668,50999
12.22480,50846
12.23293,49401
12.24105,52730
12.24917,50145
12.25730,49844
12.26542,49767
12.27355,45636
12.28167,45623
12.28978,45316
12.29792,44352
12.30603,48246
12.31417,45692
12.32228,47540
12.33040,48628
12.33853,49190
12.34665,46946
12.35477,50137
12.36290,46425
12.37102,43477
12.37915,47003
12.38727,48383
12.39538,57366
12.40352,68530
12.41163,85882
12.41977,99530
12.42788,105504
12.43600,103444
12.44413,85673
12.45225,74908
12.46038,72887
12.46850,64251
12.47662,56457
12.48475,54962
12.49287,56718
12.50098,49919
12.50912,53933
12.51723,49984
12.52537,48801
12.53348,60059
12.54160,66982
12.54973,77185
12.55785,90592
12.56598,99991
12.57410,101452
12.58222,87734
12.59035,73779
12.59847,63215
12.60658,60634
12.61472,55934
12.62283,53936
12.63097,51517
12.63908,48932
12.64720,47035
12.65533,53280
12.66345,49164
12.67158,46502
12.67970,48686
12.68782,44010
12.69595,45510
12.70407,45540
12.71220,50403
12.72032,54228
12.72843,54106
12.73657,59929
12.74468,55178
12.75280,56226
12.76093,54706
12.76905,50276
12.77718,51972
12.78530,56069
12.79342,62417
12.80155,62624
12.80967,62190
12.81780,61497
12.82592,52972
12.83403,53023
12.84217,48464
12.85028,50584
12.85842,53091
12.86653,50164
12.87465,51669
12.88278,48076
12.89090,47573
12.89902,43421
12.90715,45102
12.91527,45423
12.92340,46149
12.93152,53733
12.93963,68741
12.94777,91704
12.95588,119040
12.96402,158310
12.97213,169174
12.98025,181710
12.98838,161975
12.99650,145679
13.00462,119422
13.01275,110022
13.02087,103035
13.02900,95687
13.03712,94021
13.04523,85283
13.05337,78441
13.06148,72459
13.06962,69740
13.07773,62716
13.08585,60090
13.09398,58345
13.10210,54533
13.11023,57530
13.11835,53623
13.12647,54462
13.13460,50195
13.14272,46131
13.15083,49976
13.15897,51902
13.16708,49047
13.17522,55583
13.18333,47805
13.19145,54397
13.19958,51561
13.20770,51789
13.21583,53687
13.22395,53659
13.23207,56568
13.24020,55021
13.24832,65156
13.25645,71788
13.26457,78534
13.27268,82430
13.28082,78627
13.28893,76685
13.29705,72992
13.30518,76331
13.31330,76147
13.32143,81198
13.32955,80169
13.33767,81339
13.34580,81309
13.35392,72547
13.36205,67098
13.37017,64151
13.37828,59908
13.38642,62730
13.39453,60382
13.40265,56358
13.41078,57856
13.41890,57147
13.42703,51715
13.43515,48059
13.44327,50086
13.45140,52360
13.45952,48484
13.46765,48641
13.47577,49169
13.48388,49226
13.49202,47393
13.50013,46594
13.50827,46512
13.51638,47559
13.52450,51003
13.53263,50393
13.54075,54001
13.54887,60880
13.55700,68911
13.56512,72134
13.57325,72985
13.58137,76690
13.58948,81046
13.59762,87296
13.60573,108397
13.61387,132037
13.62198,153790
13.63010,154045
13.63823,145163
13.64635,124397
13.65448,100060
13.66260,87232
13.67072,76697
13.67885,69213
13.68697,69420
13.69508,64958
13.70322,67027
13.71133,64774
13.71947,67055
13.72758,68913
13.73570,79751
13.74383,120501
13.75195,211598
13.76008,340106
13.76820,512669
13.77632,654202
13.78445,708562
13.79257,634155
13.80068,458948
13.80882,348647
13.81693,291530
13.82507,272094
13.83318,261520
13.84130,245829
13.84943,225747
13.85755,181271
13.86568,158276
13.87380,137295
13.88192,123533
13.89005,115397
13.89817,115457
13.90630,116493
13.91442,114708
13.92253,109398
13.93067,102160
13.93878,96378
13.94690,96227
13.95503,90369
13.96315,95867
13.97128,85635
13.97940,87698
13.98752,91193
13.99565,89958
14.00377,85140
14.01190,86361
14.02002,81396
14.02813,80289
14.03627,73497
14.04438,72366
14.05250,75270
14.06063,76881
14.06875,70429
14.07688,66779
14.08500,63581
14.09312,64616
14.10125,65499
14.10937,58632
14.11750,59042
14.12562,64275
14.13373,68768
14.14187,97296
14.14998,152538
14.15812,250853
14.16623,375282
14.17435,464967
14.18248,483176
14.19060,419366
14.19872,325433
14.20685,240298
14.21497,183332
14.22310,162124
14.23122,154467
14.23933,144587
14.24747,139912
14.25558,133377
14.26372,120156
14.27183,115170
14.27995,103293
14.28808,97794
14.29620,91518
14.30433,97571
14.31245,85946
14.32057,76175
14.32870,71385
14.33682,70268
14.34493,58903
14.35307,55366
14.36118,55339
14.36932,51797
14.37743,54198
14.38555,59723
14.39368,73374
14.40180,101122
14.40993,144652
14.41805,190848
14.42617,203397
14.43430,181071
14.44242,147324
14.45053,110430
14.45867,87807
14.46678,80331
14.47492,70655
14.48303,69338
14.49115,67336
14.49928,62972
14.50740,62770
14.51553,58881
14.52365,59023
14.53177,57920
14.53990,61016
14.54802,55143
14.55615,51098
14.56427,55094
14.57238,51027
14.58052,52554
14.58863,49342
14.59675,47865
14.60488,46939
14.61300,48901
14.62113,48980
14.62925,47698
14.63737,46743
14.64550,48440
14.65362,46511
14.66175,45614
14.66987,47240
14.67798,44973
14.68612,46804
14.69423,46200
14.70237,42835
14.71048,42979
14.71860,47738
14.72673,46476
14.73485,49273
14.74297,53973
14.75110,40286
14.75922,45432
14.76735,45333
14.77547,47539
14.78358,60774
14.79172,97814
14.79983,197440
14.80797,398427
14.81608,677678
14.82420,952252
14.83233,1087169
14.84045,992911
14.84857,759917
14.85670,501131
14.86482,322426
14.87295,214483
14.88107,161949
14.88918,129199
14.89732,109870
14.90543,97922
14.91357,94875
14.92168,84503
14.92980,79328
14.93793,78045
14.94605,77289
14.95418,74211
14.96230,72018
14.97042,66180
14.97855,62449
14.98667,66246
14.99478,68689
15.00292,62933
15.01103,64063
15.01917,64014
15.02728,59587
15.03540,63401
15.04353,55994
15.05165,60090
15.05978,54480
15.06790,52153
15.07602,58216
15.08415,51802
15.09227,52487
15.10038,49338
15.10852,53484
15.11663,51914
15.12477,53963
15.13288,55309
15.14100,55565
15.14913,57318
15.15725,60737
15.16538,52499
15.17350,53954
15.18162,47715
15.18975,50730
15.19787,45370
15.20600,47253
15.21412,49211
15.22223,49874
15.23037,45877
15.23848,46554
15.24660,42316
15.25473,41859
15.26285,45170
15.27098,40665
15.27910,43539
15.28722,43652
15.29535,43119
15.30347,41677
15.31160,37269
15.31972,41328
15.32783,42207
15.33597,40276
15.34408,41786
15.35222,40882
15.36033,40617
15.36845,40018
15.37658,41914
15.38470,41188
15.39282,45461
15.40095,43595
15.40907,38997
15.41720,42526
15.42532,42019
15.43343,40705
15.44157,42901
15.44968,43526
15.45782,43692
15.46593,52772
15.47405,63739
15.48218,79855
15.49030,102929
15.49842,111580
15.50655,107720
15.51467,105301
15.52280,90747
15.53092,87321
15.53903,78607
15.54717,71674
15.55528,68073
15.56342,58816
15.57153,53771
15.57965,53605
15.58778,52053
15.59590,46014
15.60403,47086
15.61215,44504
15.62027,46534
15.62840,43616
15.63652,43695
15.64463,45224
15.65277,42872
15.66088,42117
15.66902,43398
15.67713,40982
15.68525,41479
15.69338,43184
15.70150,43351
15.70963,44738
15.71775,41613
15.72587,39280
15.73400,44585
15.74212,49372
15.75025,55069
15.75837,66362
15.76648,85116
15.77462,115445
15.78273,137956
15.79085,146333
15.79898,136387
15.80710,112094
15.81523,82560
15.82335,71637
15.83147,59886
15.83960,55557
15.84772,55319
15.85585,53631
15.86397,51226
15.87208,50652
15.88022,49072
15.88833,47218
15.89645,48679
15.90458,46735
15.91270,48012
15.92083,49838
15.92895,45112
15.93707,52183
15.94520,50265
15.95332,57431
15.96145,62837
15.96957,70511
15.97768,71557
15.98582,73681
15.99393,67298
16.00207,71284
16.01018,68929
16.01830,71274
16.02643,70359
16.03455,70761
16.04267,64359
16.05080,62659
16.05892,57853
16.06705,54629
16.07517,45199
16.08328,49649
16.09142,49441
16.09953,49363
16.10767,49911
16.11578,50285
16.12390,50227
16.13203,47386
16.14015,56135
16.14827,50939
16.15640,52373
16.16452,46320
16.17265,47730
16.18077,48034
16.18888,47386
16.19702,44728
16.20513,45721
16.21327,47881
16.22138,50188
16.22950,43860
16.23763,46207
16.24575,47260
16.25388,46892
16.26200,49034
16.27012,46883
16.27825,52969
16.28637,49835
16.29448,53185
16.30262,51795
16.31073,50917
16.31887,49964
16.32698,53596
16.33510,52190
16.34323,49529
16.35135,51442
16.35948,51265
16.36760,58456
16.37572,57796
16.38385,59292
16.39197,56405
16.40010,54103
16.40822,50193
16.41633,48957
16.42447,49881
16.43258,48236
16.44070,53982
16.44883,62978
16.45695,87889
16.46508,116141
16.47320,162500
16.48132,192512
16.48945,175839
16.49757,143125
16.50570,118385
16.51382,84916
16.52193,66890
16.53007,60443
16.53818,61244
16.54632,57248
16.55443,49943
16.56255,50734
16.57068,54655
16.57880,53631
16.58692,57503
16.59505,65659
16.60317,66079
16.61130,66479
16.61942,66391
16.62753,60736
16.63567,57830
16.64378,53829
16.65192,51344
16.66003,50671
16.66815,48879
16.67628,49372
16.68440,47421
16.69252,48669
16.70065,46599
16.70877,47780
16.71690,46529
16.72502,46814
16.73313,45446
16.74127,47191
16.74938,45343
16.75752,45214
16.76563,44240
16.77375,44829
16.78188,46600
16.79000,46002
16.79813,46671
16.80625,43394
16.81437,45925
16.82250,43081
16.83062,45285
16.83873,44301
16.84687,45125
16.85498,45512
16.86312,47086
16.87123,43870
16.87935,48360
16.88748,49559
16.89560,42650
16.90373,45377
16.91185,44095
16.91997,44837
16.92810,44179
16.93622,48182
16.94433,41950
16.95247,46333
16.96058,46662
16.96872,46905
16.97683,41870
16.98495,41926
16.99308,44311
17.00120,43636
17.00933,44237
17.01745,41733
17.02557,43344
17.03370,46827
17.04182,45332
17.04995,49158
17.05807,50992
17.06618,48882
17.07432,45562
17.08243,47212
17.09055,44925
17.09868,43538
17.10680,43747
17.11493,46054
17.12305,44694
17.13117,47470
17.13930,51654
17.14742,48145
17.15555,47252
17.16367,50806
17.17178,47922
17.17992,44219
17.18803,41597
17.19617,42556
17.20428,42916
17.21240,44608
17.22053,48644
17.22865,43524
17.23677,42792
17.24490,44203
17.25302,41385
17.26115,42700
17.26927,44157
17.27738,42981
17.28552,42670
17.29363,41969
17.30177,43986
17.30988,41722
17.31800,47984
17.32613,46769
17.33425,49941
17.34237,56908
17.35050,57930
17.35862,56203
17.36675,60072
17.37487,59359
17.38298,61823
17.39112,56710
17.39923,60052
17.40737,58368
17.41548,57279
17.42360,61982
17.43173,58012
17.43985,56860
17.44798,54656
17.45610,51796
17.46422,50360
17.47235,50189
17.48047,46400
17.48858,50947
17.49672,52487
17.50483,57274
17.51297,53757
17.52108,60392
17.52920,67030
17.53733,73687
17.54545,82747
17.55358,96142
17.56170,105348
17.56982,125855
17.57795,151668
17.58607,185204
17.59420,228320
17.60232,258712
17.61043,253368
17.61857,221670
17.62668,187674
17.63480,143447
17.64293,120145
17.65105,103307
17.65918,89737
17.66730,85794
17.67542,82059
17.68355,79858
17.69167,70681
17.69980,73500
17.70792,68468
17.71603,70395
17.72417,62491
17.73228,64876
17.74040,62113
17.74853,58819
17.75665,54559
17.76478,52024
17.77290,56211
17.78102,55238
17.78915,56462
17.79727,58286
17.80540,64246
17.81352,73543
17.82163,77014
17.82977,83198
17.83788,85912
17.84602,87807
17.85413,85381
17.86225,84111
17.87038,76145
17.87850,73212
17.88662,69132
17.89475,60579
17.90287,55034
17.91100,49729
17.91912,51436
17.92723,49531
17.93537,53297
17.94348,51855
17.95162,48291
17.95973,48180
17.96785,48956
17.97598,54799
17.98410,50263
17.99222,56995
18.00035,74511
18.00847,135609
18.01660,206611
18.02472,295776
18.03283,346737
18.04097,362939
18.04908,380251
18.05722,424336
18.06533,500653
18.07345,666064
18.08158,875855
18.08970,1074537
18.09783,1176817
18.10595,1078020
18.11407,914324
18.12220,686322
18.13032,545833
18.13843,456118
18.14657,409898
18.15468,374638
18.16282,350252
18.17093,320382
18.17905,304522
18.18718,301113
18.19530,281629
18.20343,271826
18.21155,260555
18.21967,245956
18.22780,234871
18.23592,232856
18.24405,224981
18.25217,219670
18.26028,208524
18.26842,196353
18.27653,182015
18.28465,177469
18.29278,167762
18.30090,161202
18.30903,157381
18.31715,157377
18.32527,146769
18.33340,144468
18.34152,145279
18.34965,136452
18.35777,135863
18.36588,131541
18.37402,130248
18.38213,133824
18.39025,122622
18.39838,121679
18.40650,130174
18.41463,117251
18.42275,122774
18.43087,124749
18.43900,125463
18.44712,133106
18.45525,142795
18.46337,149159
18.47148,164807
18.47962,175154
18.48773,161966
18.49587,150155
18.50398,139180
18.51210,122491
18.52023,113199
18.52835,100886
18.53647,93656
18.54460,98216
18.55272,90460
18.56085,90753
18.56897,93347
18.57708,89187
18.58522,92716
18.59333,90627
18.60147,91226
18.60958,95339
18.61770,95559
18.62583,96566
18.63395,96546
18.64208,89122
18.65020,85843
18.65832,85949
18.66645,72547
18.67457,74482
18.68268,74066
18.69082,71115
18.69893,75626
18.70707,73199
18.71518,70496
18.72330,74723
18.73143,72561
18.73955,68431
18.74768,67536
18.75580,61974
18.76392,63685
18.77205,66127
18.78017,65173
18.78828,66110
18.79642,66441
18.80453,65309
18.81267,63978
18.82078,57974
18.82890,60440
18.83703,64960
18.84515,63429
18.85328,64162
18.86140,65585
18.86952,69725
18.87765,66253
18.88577,63679
18.89390,65620
18.90202,64987
18.91013,69122
18.91827,66572
18.92638,68001
18.93450,66919
18.94263,66093
18.95075,65880
18.95888,66370
18.96700,66547
18.97512,66655
18.98325,58077
18.99137,61068
18.99950,63485
19.00762,61955
19.01573,59904
19.02387,65647
19.03198,63491
19.04012,63338
19.04823,62209
19.05635,61591
19.06448,66327
19.07260,85386
19.08072,107892
19.08885,132432
19.09697,158943
19.10510,177603
19.11322,158106
19.12133,144070
19.12947,118777
19.13758,109597
19.14572,103483
19.15383,108891
19.16195,97333
19.17008,101578
19.17820,91305
19.18632,90844
19.19445,81899
19.20257,75790
19.21070,71667
19.21882,64497
19.22693,64133
19.23507,61029
19.24318,59088
19.25132,60009
19.25943,59934
19.26755,58537
19.27568,58172
19.28380,63499
19.29193,64103
19.30005,64815
19.30817,63255
19.31630,62753
19.32442,59154
19.33253,59285
19.34067,60539
19.34878,63439
19.35692,70509
19.36503,81379
19.37315,83781
19.38128,86280
19.38940,80722
19.39753,72828
19.40565,70278
19.41377,56786
19.42190,59981
19.43002,57720
19.43813,68424
19.44627,91204
19.45438,123310
19.46252,176432
19.47063,232434
19.47875,259167
19.48688,259825
19.49500,219808
19.50313,164538
19.51125,118119
19.51937,89259
19.52750,77552
19.53562,71265
19.54375,70511
19.55187,65531
19.55998,61570
19.56812,64758
19.57623,61380
19.58435,53816
19.59248,55230
19.60060,58673
19.60873,57399
19.61685,54393
19.62497,62263
19.63310,70124
19.64122,85769
19.64935,105871
19.65747,127666
19.66558,140075
19.67372,152734
19.68183,132478
19.68997,126797
19.69808,110081
19.70620,101680
19.71433,90063
19.72245,82817
19.73057,76886
19.73870,73680
19.74682,71950
19.75495,70608
19.76307,67822
19.77118,73262
19.77932,72393
19.78743,81108
19.79557,83274
19.80368,85006
19.81180,82617
19.81993,78538
19.82805,72577
19.83617,74799
19.84430,102264
19.85242,209551
19.86055,516285
19.86867,1245581
19.87678,2535047
19.88492,4407568
19.89303,6166800
19.90117,7187226
19.90928,7015632
19.91740,5890415
19.92553,4165805
19.93365,2708771
19.94178,1674497
19.94990,1118854
19.95802,877239
19.96615,713263
19.97427,623458
19.98238,564214
19.99052,525765
19.99863,474490
20.00677,447119
20.01488,414010
20.02300,377546
20.03113,347801
20.03925,314229
20.04738,278493
20.05550,236921
20.06362,203567
20.07175,176428
20.07987,155402
20.08800,146877
20.09612,134064
20.10423,127161
20.11237,120508
20.12048,112043
20.12860,103222
20.13673,101593
20.14485,105171
20.15298,107126
20.16110,121701
20.16922,134119
20.17735,141379
20.18547,154222
20.19360,153206
20.20172,147682
20.20983,141527
20.21797,127789
20.22608,124812
20.23420,122610
20.24233,136440
20.25045,153421
20.25858,173795
20.26670,182606
20.27482,189403
20.28295,181758
20.29107,164318
20.29920,146076
20.30732,120428
20.31543,109242
20.32357,100874
20.33168,92125
20.33982,82675
20.34793,82462
20.35605,75158
20.36418,68197
20.37230,70172
20.38042,67471
20.38855,64530
20.39667,68281
20.40480,65354
20.41292,70681
20.42103,73150
20.42917,70778
20.43728,75399
20.44542,73982
20.45353,77871
20.46165,66406
20.46978,73207
20.47790,68245
20.48602,66939
20.49415,63324
20.50227,60256
20.51040,59508
20.51852,57912
20.52663,61490
20.53477,58541
20.54288,59756
20.55102,62411
20.55913,58092
20.56725,56899
20.57538,58016
20.58350,56964
20.59163,55890
20.59975,55689
20.60787,51694
20.61600,56815
20.62412,55899
20.63223,55781
20.64037,53759
20.64848,60203
20.65662,57546
20.66473,61371
20.67285,61849
20.68098,55813
20.68910,62653
20.69723,58639
20.70535,52413
20.71347,55213
20.72160,54612
20.72972,60997
20.73785,56573
20.74597,60272
20.75408,59960
20.76222,62029
20.77033,65191
20.77845,71755
20.78658,89091
20.79470,112232
20.80283,139494
20.81095,168417
20.81907,179191
20.82720,166780
20.83532,137903
20.84345,115264
20.85157,89767
20.85968,74898
20.86782,72971
20.87593,69297
20.88407,68636
20.89218,71579
20.90030,77325
20.90843,80168
20.91655,88973
20.92467,88952
20.93280,90151
20.94092,90215
20.94905,94541
20.95717,86964
20.96528,90650
20.97342,83338
20.98153,84780
20.98967,81937
20.99778,84493
21.00590,80682
21.01403,77276
21.02215,77557
21.03027,79808
21.03840,81480
21.04652,79363
21.05465,81010
21.06277,76277
21.07088,72681
21.07902,79435
21.08713,70970
21.09527,71823
21.10338,72875
21.11150,72788
21.11963,71356
21.12775,77003
21.13588,81569
21.14400,88421
21.15212,96584
21.16025,97940
21.16837,97777
21.17648,88086
21.18462,80771
21.19273,76891
21.20087,79618
21.20898,69985
21.21710,70868
21.22523,68364
21.23335,72191
21.24148,70819
21.24960,70096
21.25772,69339
21.26585,71729
21.27397,71088
21.28208,68509
21.29022,62712
21.29833,65973
21.30647,62854
21.31458,63376
21.32270,62814
21.33083,62907
21.33895,60578
21.34708,60141
21.35520,62081
21.36332,65469
21.37145,62818
21.37957,64608
21.38770,63261
21.39582,72724
21.40393,72078
21.41207,79431
21.42018,81704
21.42830,80610
21.43643,78053
21.44455,69615
21.45268,65553
21.46080,64605
21.46892,61280
21.47705,63435
21.48517,61894
21.49330,58405
21.50142,59867
21.50953,62187
21.51767,59790
21.52578,61989
21.53392,59442
21.54203,59034
21.55015,61880
21.55828,58936
21.56640,60464
21.57452,62152
21.58265,66657
21.59077,71047
21.59890,79962
21.60702,85252
21.61513,86340
21.62327,86839
21.63138,86416
21.63952,81569
21.64763,80723
21.65575,72292
21.66388,74925
21.67200,84808
21.68012,109648
21.68825,139532
21.69637,189730
21.70450,217405
21.71262,249247
21.72073,252245
21.72887,271020
21.73698,263698
21.74512,252089
21.75323,257118
21.76135,241862
21.76948,246948
21.77760,236259
21.78573,243947
21.79385,237434
21.80197,237444
21.81010,231429
21.81822,225004
21.82633,215653
21.83447,202052
21.84258,187477
21.85072,186169
21.85883,165491
21.86695,164076
21.87508,155624
21.88320,146022
21.89133,144989
21.89945,139854
21.90757,129584
21.91570,122901
21.92382,118293
21.93195,115394
21.94007,109949
21.94818,109067
21.95632,108983
21.96443,97294
21.97255,97745
21.98068,94458
21.98880,90035
21.99693,91287
22.00505,87379
22.01317,90840
22.02130,85833
22.02942,79724
22.03755,84195
22.04567,82425
22.05378,77680
22.06192,81762
22.07003,73200
22.07815,74458
22.08628,77279
22.09440,71271
22.10253,72250
22.11065,77737
22.11877,70671
22.12690,69965
22.13502,73442
22.14315,67235
22.15127,66602
22.15938,66581
22.16752,65014
22.17563,66683
22.18377,63023
22.19188,68266
22.20000,67151
22.20813,65633
22.21625,66573
22.22437,63542
22.23250,62908
22.24062,65015
22.24875,64353
22.25687,60712
22.26498,65938
22.27312,68504
22.28123,67199
22.28937,69142
22.29748,67271
22.30560,66835
22.31373,67246
22.32185,69539
22.32997,71201
22.33810,69822
22.34622,66544
22.35435,68898
22.36247,63744
22.37058,66393
22.37872,67229
22.38683,72084
22.39497,82171
22.40308,79796
22.41120,93461
22.41933,92616
22.42745,93730
22.43558,89715
22.44370,79749
22.45182,74152
22.45995,69315
22.46807,66513
22.47618,75066
22.48432,80851
22.49243,85757
22.50057,89622
22.50868,82556
22.51680,84442
22.52493,73521
22.53305,68822
22.54118,72282
22.54930,68416
22.55742,66256
22.56555,59885
22.57367,57007
22.58180,59295
22.58992,56147
22.59803,55795
22.60617,56948
22.61428,55708
22.62240,54086
22.63053,56399
22.63865,56399
22.64678,52622
22.65490,55042
22.66302,56053
22.67115,58537
22.67927,56436
22.68740,58423
22.69552,59708
22.70363,59608
22.71177,64753
22.71988,67907
22.72800,61423
22.73613,60302
22.74425,59289
22.75238,58012
22.76050,57146
22.76862,58144
22.77675,58494
22.78487,65126
22.79300,63265
22.80112,69662
22.80923,73819
22.81737,71011
22.82548,67800
22.83362,64971
22.84173,64070
22.84985,66221
22.85798,64975
22.86610,70816
22.87422,68094
22.88235,71318
22.89047,75349
22.89860,91739
22.90672,93555
22.91483,116441
22.92297,125660
22.93108,120483
22.93922,126635
22.94733,112762
22.95545,96583
22.96358,94029
22.97170,79115
22.97983,72380
22.98795,67389
22.99607,71463
23.00420,65824
23.01232,62303
23.02043,58802
23.02857,63467
23.03668,62483
23.04482,59377
23.05293,55969
23.06105,58606
23.06918,63588
23.07730,57310
23.08543,59786
23.09355,57818
23.10167,61250
23.10980,56409
23.11792,53172
23.12603,56606
23.13417,50549
23.14228,55322
23.15042,51698
23.15853,50455
23.16665,55370
23.17478,58734
23.18290,59784
23.19103,56788
23.19915,55663
23.20727,56733
23.21540,56575
23.22352,53583
23.23165,55367
23.23977,56115
23.24788,54983
23.25602,59288
23.26413,55416
23.27225,60733
23.28038,62922
23.28850,59939
23.29663,57999
23.30475,60519
23.31287,57155
23.32100,58552
23.32912,65531
23.33725,75647
23.34537,78144
23.35348,93870
23.36162,110599
23.36973,130074
23.37787,142969
23.38598,146319
23.39410,152676
23.40223,149938
23.41035,141747
23.41847,147075
23.42660,136203
23.43472,140229
23.44285,146394
23.45097,169167
23.45908,214376
23.46722,247589
23.47533,274583
23.48347,287007
23.49158,302716
23.49970,296944
23.50783,289752
23.51595,292884
23.52407,283445
23.53220,268252
23.54032,262658
23.54845,253417
23.55657,258004
23.56468,252976
23.57282,260333
23.58093,266057
23.58907,288496
23.59718,293195
23.60530,292585
23.61343,279894
23.62155,261097
23.62968,238625
23.63780,228462
23.64592,212249
23.65405,212556
23.66217,206197
23.67028,206887
23.67842,198981
23.68653,183904
23.69467,169720
23.70278,163527
23.71090,164661
23.71903,150940
23.72715,148138
23.73528,166093
23.74340,228563
23.75152,396513
23.75965,763155
23.76777,1302565
23.77588,1943835
23.78402,2474027
23.79213,2612378
23.80027,2287833
23.80838,1902623
23.81650,1461885
23.82463,1098111
23.83275,852144
23.84088,640852
23.84900,514796
23.85712,435019
23.86525,368234
23.87337,334190
23.88150,281385
23.88962,269649
23.89773,243716
23.90587,235150
23.91398,213115
23.92210,201296
23.93023,194270
23.93835,185674
23.94648,179614
23.95460,161796
23.96272,158649
23.97085,151469
23.97897,142700
23.98710,146498
23.99522,136947
24.00333,131698
24.01147,131148
24.01958,134639
24.02772,136701
24.03583,131754
24.04395,121757
24.05208,124463
24.06020,119005
24.06832,111134
24.07645,110867
24.08457,108197
24.09270,111750
24.10082,113270
24.10893,116455
24.11707,107790
24.12518,107468
24.13332,107576
24.14143,106152
24.14955,105225
24.15768,112355
24.16580,114341
24.17392,115121
24.18205,122426
24.19017,119384
24.19830,116900
24.20642,113409
24.21453,108035
24.22267,97692
24.23078,94678
24.23892,85639
24.24703,91833
24.25515,83749
24.26328,80247
24.27140,78583
24.27953,78443
24.28765,81773
24.29577,78294
24.30390,80706
24.31202,77740
24.32013,80645
24.32827,85195
24.33638,97591
24.34452,115199
24.35263,148945
24.36075,174099
24.36888,191174
24.37700,175078
24.38513,143727
24.39325,117415
24.40137,104404
24.40950,100723
24.41762,104392
24.42575,107573
24.43387,109073
24.44198,109797
24.45012,107606
24.45823,107068
24.46635,111442
24.47448,106801
24.48260,113621
24.49073,112174
24.49885,105571
24.50697,97335
24.51510,92985
24.52322,92632
24.53135,94950
24.53947,103643
24.54758,110687
24.55572,115842
24.56383,118544
24.57195,103297
24.58008,97419
24.58820,86952
24.59633,79957
24.60445,75752
24.61257,75225
24.62070,67199
24.62882,68697
24.63695,73630
24.64507,67007
24.65318,77529
24.66132,92289
24.66943,128741
24.67757,173676
24.68568,228685
24.69380,277049
24.70193,323432
24.71005,349969
24.71817,355669
24.72630,350073
24.73442,352168
24.74255,350381
24.75067,351907
24.75878,339587
24.76692,326925
24.77503,313404
24.78317,306540
24.79128,298218
24.79940,280680
24.80753,266801
24.81565,267233
24.82377,263507
24.83190,262450
24.84002,251776
24.84815,259900
24.85627,274665
24.86438,289173
24.87252,321907
24.88063,352011
24.88877,348166
24.89688,334914
24.90500,295521
24.91313,245112
24.92125,201618
24.92938,174002
24.93750,157330
24.94562,143082
24.95375,135986
24.96187,128142
24.96998,127036
24.97812,116839
24.98623,115536
24.99437,109432
25.00248,113680
25.01060,107502
25.01873,106183
25.02685,97478
25.03498,97654
25.04310,93951
25.05122,97346
25.05935,93932
25.06747,89979
25.07560,91400
25.08372,95919
25.09183,107782
25.09997,132485
25.10808,204286
25.11620,309764
25.12433,481850
25.13245,701915
25.14058,862609
25.14870,881911
25.15682,782338
25.16495,598708
25.17307,407981
25.18120,265596
25.18932,183825
25.19743,144896
25.20557,115854
25.21368,106033
25.22182,98693
25.22993,100017
25.23805,106308
25.24618,113195
25.25430,122079
25.26242,147748
25.27055,147332
25.27867,146711
25.28680,132397
25.29492,125042
25.30303,113069
25.31117,108821
25.31928,101897
25.32742,94596
25.33553,87943
25.34365,82661
25.35178,82771
25.35990,76222
25.36802,75213
25.37615,69778
25.38427,72217
25.39240,66162
25.40052,71341
25.40863,71922
25.41677,66249
25.42488,64709
25.43302,68943
25.44113,67576
25.44925,68684
25.45738,69039
25.46550,64276
25.47363,62903
25.48175,64829
25.48987,63540
25.49800,61020
25.50612,63776
25.51423,60927
25.52237,64442
25.53048,60913
25.53862,64895
25.54673,60904
25.55485,60766
25.56298,68185
25.57110,61717
25.57923,60992
25.58735,63569
25.59547,58034
25.60360,60159
25.61172,56285
25.61983,59580
25.62797,57341
25.63608,58501
25.64422,55322
25.65233,56880
25.66045,57304
25.66858,55787
25.67670,55762
25.68483,56513
25.69295,60151
25.70107,57680
25.70920,61642
25.71732,56478
25.72545,56434
25.73357,54761
25.74168,55588
25.74982,57351
25.75793,56071
25.76605,58187
25.77418,55933
25.78230,53107
25.79043,55987
25.79855,54650
25.80667,54379
25.81480,60208
25.82292,57731
25.83105,63965
25.83917,63859
25.84728,55936
25.85542,60852
25.86353,59025
25.87167,55134
25.87978,55703
25.88790,57562
25.89603,56349
25.90415,51673
25.91227,51564
25.92040,51088
25.92852,51304
25.93665,51416
25.94477,54599
25.95288,53361
25.96102,53594
25.96913,52687
25.97727,52438
25.98538,47969
25.99350,51565
26.00163,51172
26.00975,52836
26.01787,50666
26.02600,51695
26.03412,48731
26.04225,49013
26.05037,50156
26.05848,53916
26.06662,59481
26.07473,48942
26.08287,54930
26.09098,52901
26.09910,55145
26.10723,54537
26.11535,56867
26.12348,60187
26.13160,65020
26.13972,66128
26.14785,68269
26.15597,74123
26.16408,69090
26.17222,64681
26.18033,59921
26.18847,54964
26.19658,58909
26.20470,59736
26.21283,54743
26.22095,55182
26.22908,53686
26.23720,52417
26.24532,53664
26.25345,52159
26.26157,52048
26.26970,53593
26.27782,50816
26.28593,48759
26.29407,49128
26.30218,50128
26.31030,52895
26.31843,43776
26.32655,44580
26.33468,46625
26.34280,48144
26.35092,48389
26.35905,54231
26.36717,59023
26.37530,60518
26.38342,67434
26.39153,64569
26.39967,65706
26.40778,61180
26.41590,60164
26.42403,57061
26.43215,53626
26.44028,51081
26.44840,51459
26.45652,49350
26.46465,51246
26.47277,47579
26.48090,51144
26.48902,50261
26.49713,47602
26.50527,49486
26.51338,48571
26.52152,47584
26.52963,45509
26.53775,44680
26.54588,50592
26.55400,46587
26.56212,48768
26.57025,51086
26.57837,48923
26.58650,44289
26.59462,50881
26.60273,50145
26.61087,44791
26.61898,45731
26.62712,48427
26.63523,50140
26.64335,49114
26.65148,47995
26.65960,52341
26.66772,52686
26.67585,53556
26.68397,53057
26.69210,47843
26.70022,47840
26.70833,53482
26.71647,55074
26.72458,52168
26.73272,53741
26.74083,51940
26.74895,49247
26.75708,49160
26.76520,46527
26.77333,51891
26.78145,52425
26.78957,50450
26.79770,51913
26.80582,57288
26.81393,53780
26.82207,56917
26.83018,56384
26.83832,55149
26.84643,52311
26.85455,54077
26.86268,54994
26.87080,51693
26.87893,53420
26.88705,53951
26.89517,52995
26.90330,51770
26.91142,51356
26.91955,51450
26.92767,52932
26.93578,53725
26.94392,63733
26.95203,76110
26.96015,101480
26.96828,157226
26.97640,253906
26.98453,381238
26.99265,539994
27.00077,700555
27.00890,789944
27.01702,772855
27.02515,666555
27.03327,576215
27.04138,460705
27.04952,351061
27.05763,281752
27.06575,226417
27.07388,187973
27.08200,167127
27.09013,145072
27.09825,132456
27.10637,128046
27.11450,122563
27.12262,117056
27.13075,110089
27.13887,103348
27.14698,106082
27.15512,100157
27.16323,103955
27.17137,102798
27.17948,99220
27.18760,92048
27.19573,88117
27.20385,86460
27.21197,80674
27.22010,83584
27.22822,79822
27.23635,68903
27.24447,74489
27.25258,72763
27.26072,67307
27.26883,67991
27.27697,70510
27.28508,67367
27.29320,67717
27.30133,65539
27.30945,64926
27.31758,64322
27.32570,68399
27.33382,65822
27.34195,64442
27.35007,65072
27.35818,64344
27.36632,60444
27.37443,63553
27.38257,59158
27.39068,63771
27.39880,61529
27.40693,62900
27.41505,59585
27.42318,58188
27.43130,62867
27.43942,54844
27.44755,56540
27.45567,60875
27.46378,59582
27.47192,55760
27.48003,59379
27.48817,59726
27.49628,62018
27.50440,60400
27.51253,58777
27.52065,56036
27.52878,57751
27.53690,56691
27.54502,56232
27.55315,55466
27.56127,60679
27.56940,61016
27.57752,62459
27.58563,64845
27.59377,66408
27.60188,68985
27.61000,63925
27.61813,66820
27.62625,57663
27.63438,60591
27.64250,55283
27.65062,55866
27.65875,56182
27.66687,58372
27.67500,61236
27.68312,62172
27.69123,62651
27.69937,63643
27.70748,65811
27.71560,63229
27.72373,60251
27.73185,61005
27.73998,63936
27.74810,66489
27.75622,64093
27.76435,63813
27.77247,60979
27.78060,57029
27.78872,58062
27.79683,53204
27.80497,58047
27.81308,55293
27.82122,53130
27.82933,53365
27.83745,56069
27.84558,50657
27.85370,52736
27.86182,53873
27.86995,59360
27.87807,51483
27.88620,52737
27.89432,50245
27.90243,51559
27.91057,50928
27.91868,53630
27.92682,50384
27.93493,50069
27.94305,53368
27.95118,53419
27.95930,47105
27.96743,56491
27.97555,56116
27.98367,58522
27.99180,55081
27.99992,61518
28.00803,60280
28.01617,68122
28.02428,75155
28.03242,76778
28.04053,82457
28.04865,89023
28.05678,85388
28.06490,81250
28.07303,78045
28.08115,79427
28.08927,86772
28.09740,91630
28.10552,99666
28.11363,101492
28.12177,99522
28.12988,95838
28.13802,76699
28.14613,75789
28.15425,64149
28.16238,63848
28.17050,63103
28.17863,63945
28.18675,64105
28.19487,62939
28.20300,65262
28.21112,65017
28.21925,66082
28.22737,67295
28.23548,59729
28.24362,60930
28.25173,60992
28.25985,63649
28.26798,77051
28.27610,93399
28.28423,132497
28.29235,156076
28.30047,202554
28.30860,241940
28.31672,269568
28.32485,291393
28.33297,294388
28.34108,282920
28.34922,281039
28.35733,257427
28.36547,226828
28.37358,204149
28.38170,185117
28.38983,161720
28.39795,157877
28.40607,137288
28.41420,125962
28.42232,116006
28.43045,114742
28.43857,105360
28.44668,95209
28.45482,87324
28.46293,86304
28.47107,87853
28.47918,83334
28.48730,87629
28.49543,77886
28.50355,77920
28.51167,80317
28.51980,76764
28.52792,76069
28.53605,76061
28.54417,71575
28.55228,71849
28.56042,70950
28.56853,68239
28.57667,67204
28.58478,66200
28.59290,67141
28.60103,68289
28.60915,67130
28.61728,67673
28.62540,71716
28.63352,72421
28.64165,73596
28.64977,78158
28.65788,75156
28.66602,81586
28.67413,74857
28.68227,74511
28.69038,71869
28.69850,72025
28.70663,73498
28.71475,83047
28.72288,94987
28.73100,103535
28.73912,109918
28.74725,102515
28.75537,89553
28.76350,76844
28.77162,71258
28.77973,69269
28.78787,64247
28.79598,62815
28.80410,63164
28.81223,58982
28.82035,61195
28.82848,59323
28.83660,60694
28.84472,58585
28.85285,58950
28.86097,59052
28.86910,61165
28.87722,64082
28.88533,64995
28.89347,66090
28.90158,64459
28.90970,66217
28.91783,63391
28.92595,59462
28.93408,63340
28.94220,58484
28.95032,57998
28.95845,59466
28.96657,60789
28.97470,61225
28.98282,59350
28.99093,56833
28.99907,56909
29.00718,53449
29.01532,56052
29.02343,55806
29.03155,52446
29.03968,54843
29.04780,53413
29.05592,55448
29.06405,55580
29.07217,54916
29.08030,56135
29.08842,50127
29.09653,56242
29.10467,56904
29.11278,57717
29.12092,58961
29.12903,55423
29.13715,59676
29.14528,56426
29.15340,59484
29.16152,51109
29.16965,55813
29.17777,56061
29.18590,61086
29.19402,64607
29.20213,65821
29.21027,75503
29.21838,71884
29.22652,69643
29.23463,75284
29.24275,71660
29.25088,75572
29.25900,75718
29.26713,74485
29.27525,73292
29.28337,69697
29.29150,67979
29.29962,63435
29.30773,55567
29.31587,59088
29.32398,56051
29.33212,59485
29.34023,52772
29.34835,56473
29.35648,56146
29.36460,54736
29.37273,54212
29.38085,53169
29.38897,56201
29.39710,56902
29.40522,56331
29.41335,51892
29.42147,52835
29.42958,53643
29.43772,57897
29.44583,57809
29.45395,55325
29.46208,54707
29.47020,52068
29.47833,55799
29.48645,55576
29.49457,57726
29.50270,61337
29.51082,65028
29.51895,55570
29.52707,57559
29.53518,60328
29.54332,58795
29.55143,60535
29.55955,62651
29.56768,64791
29.57580,70924
29.58393,77700
29.59205,84413
29.60017,85085
29.60830,84068
29.61642,76108
29.62455,71396
29.63267,64409
29.64078,60534
29.64892,59572
29.65703,62818
29.66517,67440
29.67328,73731
29.68140,79890
29.68953,84101
29.69765,80027
29.70577,86919
29.71390,82823
29.72202,80855
29.73015,82298
29.73827,82637
29.74638,78027
29.75452,71564
29.76263,79361
29.77077,75118
29.77888,70968
29.78700,68051
29.79513,72283
29.80325,67462
29.81138,68734
29.81950,66736
29.82762,65351
29.83575,65553
29.84387,65040
29.85198,66276
29.86012,64899
29.86823,70990
29.87637,76943
29.88448,87177
29.89260,92255
29.90073,104100
29.90885,111453
29.91698,117834
29.92510,123713
29.93322,136613
29.94135,144855
29.94947,164080
29.95758,162426
29.96572,170891
29.97383,169170
29.98197,171499
29.99008,167037
29.99820,154439
30.00633,149934
30.01445,143270
30.02258,132472
30.03070,121638
30.03882,116146
30.04695,115427
30.05507,103286
30.06320,101904
30.07132,98777
30.07943,91527
30.08757,90565
30.09568,90131
30.10380,89532
30.11193,84124
30.12005,82521
30.12818,78057
30.13630,77727
30.14442,75759
30.15255,75090
30.16067,74102
30.16880,74156
30.17692,79479
30.18503,72396
30.19317,71905
30.20128,77166
30.20940,74773
30.21753,71017
30.22565,69442
30.23378,64080
30.24190,65163
30.25002,65093
30.25815,69665
30.26627,68504
30.27440,62717
30.28252,66244
30.29063,61447
30.29877,60957
30.30688,62907
30.31502,62298
30.32313,61476
30.33125,67469
30.33938,63029
30.34750,60665
30.35562,59790
30.36375,61999
30.37187,62854
30.38000,59248
30.38812,59263
30.39623,58036
30.40437,61959
30.41248,60940
30.42062,60635
30.42873,60367
30.43685,60611
30.44498,56910
30.45310,63403
30.46123,61294
30.46935,62939
30.47747,59892
30.48560,58388
30.49372,58260
30.50183,59467
30.50997,59521
30.51808,56888
30.52622,58712
30.53433,58766
30.54245,58936
30.55058,56925
30.55870,63329
30.56683,58368
30.57495,59172
30.58307,54618
30.59120,58110
30.59932,56159
30.60745,57080
30.61557,59049
30.62368,56871
30.63182,54247
30.63993,56892
30.64805,56893
30.65618,57383
30.66430,61269
30.67243,58179
30.68055,63762
30.68867,59859
30.69680,55234
30.70492,58484
30.71305,58763
30.72117,56884
30.72928,59751
30.73742,55005
30.74553,55779
30.75365,56608
30.76178,56398
30.76990,60613
30.77803,61288
30.78615,67835
30.79427,69951
30.80240,79559
30.81052,79018
30.81865,75621
30.82677,73508
30.83488,70283
30.84302,65884
30.85113,62673
30.85927,63652
30.86738,60076
30.87550,57484
30.88363,57909
30.89175,60868
30.89987,55442
30.90800,60506
30.91612,57283
30.92425,59167
30.93237,58856
30.94048,63666
30.94862,56021
30.95673,59656
30.96487,64724
30.97298,59163
30.98110,53835
30.98923,53860
30.99735,53476
31.00547,58068
31.01360,57856
31.02172,57952
31.02985,54861
31.03797,59187
31.04608,55933
31.05422,57442
31.06233,59657
31.07047,55348
31.07858,65914
31.08670,71257
31.09483,72542
31.10295,78710
31.11108,77621
31.11920,72239
31.12732,70733
31.13545,66149
31.14357,65368
31.15168,61943
31.15982,66783
31.16793,78611
31.17607,87242
31.18418,104782
31.19230,138620
31.20043,165828
31.20855,189412
31.21668,193723
31.22480,181878
31.23292,163970
31.24105,121561
31.24917,99134
31.25730,85201
31.26542,74583
31.27353,64503
31.28167,64463
31.28978,60660
31.29790,56472
31.30603,61702
31.31415,60447
31.32228,59081
31.33040,61077
31.33852,59865
31.34665,60286
31.35477,59973
31.36290,65777
31.37102,65021
31.37913,59323
31.38727,63876
31.39538,62674
31.40350,59935
31.41163,60945
31.41975,64017
31.42788,56180
31.43600,59649
31.44412,62633
31.45225,55375
31.46037,57820
31.46850,53738
31.47662,57911
31.48473,59637
31.49287,61572
31.50098,60472
31.50912,58317
31.51723,62600
31.52535,60613
31.53348,63132
31.54160,61852
31.54972,60802
31.55785,61309
31.56597,60713
31.57410,61926
31.58222,58084
31.59033,60051
31.59847,55025
31.60658,63505
31.61472,62250
31.62283,54782
31.63095,59899
31.63908,58466
31.64720,63970
31.65533,64023
31.66345,65499
31.67157,69254
31.67970,73360
31.68782,80787
31.69593,81296
31.70407,76290
31.71218,75054
31.72032,73714
31.72843,65262
31.73655,64141
31.74468,59963
31.75280,62378
31.76093,61837
31.76905,60162
31.77717,61908
31.78530,63456
31.79342,66597
31.80153,66717
31.80967,66803
31.81778,64993
31.82592,65432
31.83403,64605
31.84215,75435
31.85028,75332
31.85840,79709
31.86653,93953
31.87465,97299
31.88277,104276
31.89090,123385
31.89902,125305
31.90715,125096
31.91527,125356
31.92338,124589
31.93152,122298
31.93963,121122
31.94775,110790
31.95588,105225
31.96400,103224
31.97213,99460
31.98025,96072
31.98837,97227
31.99650,92135
32.00462,90332
32.01275,82969
32.02087,82042
32.02898,80479
32.03712,80455
32.04523,78497
32.05335,80519
32.06148,82405
32.06960,76676
32.07773,72042
32.08585,70615
32.09397,69815
32.10210,72101
32.11022,72979
32.11835,72130
32.12647,67239
32.13458,65873
32.14272,69641
32.15083,66957
32.15897,70862
32.16708,63328
32.17520,68316
32.18333,73105
32.19145,68007
32.19957,67353
32.20770,69197
32.21582,62397
32.22395,69995
32.23207,65777
32.24018,65287
32.24832,66448
32.25643,65797
32.26457,69727
32.27268,68081
32.28080,67132
32.28893,67483
32.29705,68295
32.30518,66627
32.31330,64610
32.32142,64938
32.32955,69672
32.33767,63210
32.34578,63033
32.35392,69368
32.36203,68789
32.37017,65340
32.37828,62292
32.38640,62342
32.39453,67858
32.40265,64424
32.41078,64907
32.41890,63636
32.42702,64604
32.43515,65204
32.44327,64566
32.45138,60923
32.45952,63641
32.46763,63170
32.47577,64159
32.48388,63325
32.49200,63934
32.50013,66077
32.50825,62625
32.51638,59151
32.52450,63773
32.53262,61655
32.54075,65136
32.54887,65971
32.55700,65507
32.56512,64206
32.57323,65474
32.58137,68187
32.58948,66103
32.59760,73308
32.60573,80166
32.61385,89799
32.62198,99236
32.63010,96885
32.63822,91406
32.64635,86626
32.65447,73682
32.66260,67959
32.67072,71288
32.67883,69246
32.68697,65350
32.69508,67513
32.70322,69914
32.71133,69827
32.71945,66456
32.72758,63093
32.73570,68853
32.74382,65356
32.75195,62229
32.76007,66184
32.76820,60583
32.77632,61794
32.78443,68447
32.79257,66646
32.80068,65110
32.80882,63032
32.81693,67020
32.82505,65638
32.83318,61457
32.84130,64028
32.84942,61379
32.85755,63795
32.86567,61685
32.87380,67732
32.88192,67275
32.89003,70982
32.89817,71797
32.90628,75851
32.91442,69277
32.92253,70088
32.93065,70937
32.93878,64924
32.94690,70526
32.95503,76098
32.96315,68922
32.97127,68642
32.97940,75018
32.98752,73676
32.99563,76422
33.00377,73709
33.01188,72464
33.02002,72248
33.02813,69247
33.03625,66380
33.04438,69772
33.05250,69632
33.06063,71275
33.06875,68233
33.07687,67456
33.08500,74149
33.09312,75779
33.10125,77595
33.10937,82977
33.11748,77500
33.12562,79296
33.13373,78660
33.14185,79313
33.14998,78078
33.15810,74980
33.16623,72452
33.17435,69219
33.18247,70561
33.19060,68234
33.19872,69172
33.20685,69533
33.21497,63730
33.22308,69579
33.23122,66523
33.23933,66876
33.24745,68238
33.25558,70813
33.26370,71593
33.27183,67922
33.27995,70738
33.28807,72069
33.29620,71634
33.30432,67969
33.31245,68389
33.32057,65619
33.32868,69232
33.33682,66188
33.34493,66367
33.35307,74285
33.36118,65921
33.36930,67870
33.37743,67098
33.38555,74253
33.39367,68369
33.40180,70131
33.40992,65402
33.41805,67404
33.42617,64801
33.43428,69548
33.44242,66962
33.45053,65053
33.45867,65076
33.46678,68679
33.47490,70248
33.48303,70181
33.49115,71564
33.49927,71436
33.50740,69307
33.51552,64883
33.52365,73653
33.53177,70181
33.53988,74466
33.54802,70963
33.55613,75618
33.56427,74071
33.57238,73348
33.58050,66802
33.58863,72616
33.59675,70634
33.60488,69900
33.61300,68499
33.62112,71482
33.62925,67133
33.63737,74858
33.64548,72389
33.65362,66970
33.66173,71957
33.66987,69011
33.67798,72247
33.68610,68685
33.69423,64236
33.70235,67740
33.71048,70489
33.71860,66467
33.72672,70513
33.73485,64095
33.74297,64757
33.75110,69524
33.75922,75056
33.76733,73881
33.77547,71388
33.78358,69325
33.79170,70060
33.79983,71584
33.80795,70809
33.81608,71876
33.82420,70993
33.83232,75366
33.84045,72845
33.84857,74115
33.85670,72866
33.86482,74596
33.87293,77987
33.88107,79043
33.88918,76444
33.89730,84134
33.90543,80250
33.91355,80415
33.92168,89275
33.92980,80606
33.93792,85773
33.94605,86396
33.95417,86212
33.96230,83445
33.97042,83387
33.97853,83780
33.98667,91730
33.99478,87609
34.00292,87047
34.01103,85012
34.01915,87086
34.02728,87164
34.03540,87292
34.04352,81732
34.05165,84497
34.05977,85194
34.06790,82087
34.07602,88989
34.08413,86212
34.09227,78920
34.10038,79548
34.10852,79088
34.11663,79003
34.12475,88949
34.13288,79514
34.14100,75846
34.14913,82530
34.15725,79433
34.16537,80201
34.17350,76893
34.18162,76232
34.18973,82866
34.19787,79728
34.20598,78593
34.21412,77209
34.22223,76391
34.23035,78858
34.23848,80667
34.24660,78016
34.25473,76097
34.26285,78243
34.27097,79026
34.27910,81302
34.28722,83388
34.29533,79846
34.30347,77107
34.31158,80434
34.31972,76157
34.32783,82732
34.33595,82509
34.34408,78136
34.35220,76434
34.36033,82306
34.36845,80227
34.37657,77744
34.38470,77810
34.39282,77257
34.40095,79699
34.40907,77548
34.41718,83622
34.42532,80762
34.43343,81040
34.44155,82960
34.44968,84833
34.45780,84851
34.46593,90295
34.47405,105427
34.48217,120393
34.49030,125442
34.49842,131131
34.50655,132932
34.51467,138968
34.52278,140350
34.53092,136705
34.53903,129479
34.54715,119710
34.55528,111933
34.56340,109179
34.57153,104868
34.57965,106772
34.58777,105947
34.59590,95561
34.60402,95740
34.61215,97333
34.62027,99083
34.62838,87985
34.63652,96461
34.64463,99349
34.65277,100373
34.66088,96284
34.66900,92984
34.67713,90434
34.68525,94519
34.69337,94411
34.70150,100330
34.70962,99052
34.71775,96178
34.72587,97888
34.73398,95694
34.74212,94830
34.75023,96128
34.75837,95274
34.76648,94851
34.77460,99724
34.78273,96506
34.79085,94779
34.79898,92092
34.80710,92717
34.81522,95429
34.82335,93911
34.83147,96898
34.83958,97474
34.84772,95571
34.85583,96947
34.86397,91636
34.87208,95408
34.88020,96435
34.88833,96570
34.89645,92928
34.90458,97820
34.91270,99462
34.92082,96359
34.92895,98618
34.93707,97502
34.94520,96080
34.95332,101447
34.96143,100452
34.96957,96236
34.97768,101623
34.98580,101686
34.99393,96844
35.00205,94638
35.01018,92428
35.01830,92214
35.02642,100809
35.03455,92606
35.04267,92025
35.05080,94172
35.05892,98240
35.06703,97075
35.07517,97337
35.08328,91039
35.09140,91400
35.09953,97937
35.10765,101360
35.11578,98630
35.12390,102923
35.13202,104258
35.14015,104484
35.14827,100719
35.15640,102058
35.16452,105599
35.17263,105631
35.18077,106259
35.18888,102604
35.19702,100074
35.20513,101732
35.21325,97168
35.22138,103965
35.22950,99073
35.23762,102181
35.24575,101889
35.25387,104571
35.26200,97926
35.27012,104137
35.27823,105628
35.28637,98432
35.29448,96757
35.30262,102588
35.31073,99810
35.31885,100822
35.32698,99692
35.33510,95077
35.34322,95981
35.35135,97808
35.35947,96531
35.36760,101749
35.37572,103713
35.38383,106007
35.39197,102425
35.40008,109785
35.40822,112170
35.41633,111628
35.42445,119840
35.43258,118829
35.44070,113222
35.44883,116825
35.45695,112390
35.46507,113108
35.47320,108233
35.48132,111231
35.48943,109403
35.49757,104188
35.50568,107355
35.51382,106615
35.52193,105477
35.53005,106323
35.53818,108451
35.54630,112900
35.55443,110005
35.56255,112418
35.57067,115115
35.57880,114450
35.58692,111427
35.59505,107772
35.60317,112561
35.61128,112422
35.61942,112520
35.62753,119746
35.63565,111238
35.64378,113714
35.65190,111196
35.66003,116324
35.66815,114835
35.67627,111787
35.68440,112520
35.69252,109486
35.70065,109886
35.70877,115054
35.71688,109027
35.72502,112371
35.73313,116275
35.74125,119111
35.74938,108393
35.75750,122058
35.76563,120235
35.77375,119761
35.78187,114617
35.79000,114616
35.79812,113904
35.80625,113866
35.81437,116629
35.82248,116875
35.83062,109951
35.83873,116046
35.84687,116203
35.85498,111271
35.86310,116575
35.87123,113487
35.87935,109096
35.88747,112427
35.89560,113701
35.90372,115522
35.91185,112037
35.91997,108216
35.92808,115477
35.93622,116909
35.94433,110145
35.95247,113299
35.96058,112248
35.96870,115030
35.97683,117106
35.98495,117303
35.99308,114889
36.00120,125065
36.00932,124665
36.01745,125592
36.02557,122975
36.03368,121300
36.04182,124265
36.04993,128275
36.05807,123953
36.06618,125764
36.07430,121921
36.08243,121612
36.09055,124531
36.09868,123705
36.10680,120467
36.11492,119649
36.12305,124160
36.13117,122193
36.13928,124259
36.14742,130581
36.15553,127210
36.16367,133010
36.17178,124096
36.17990,126617
36.18803,125413
36.19615,121037
36.20428,120899
36.21240,130506
36.22052,119523
36.22865,122077
36.23677,133050
36.24490,140405
36.25302,152758
36.26113,157471
36.26927,165920
36.27738,164453
36.28550,162585
36.29363,149306
36.30175,144022
36.30988,130821
36.31800,127418
36.32612,132474
36.33425,124544
36.34237,119815
36.35050,126409
36.35862,123738
36.36673,125506
36.37487,126969
36.38298,122733
36.39110,125905
36.39923,124203
36.40735,128914
36.41548,127072
36.42360,128652
36.43172,126359
36.43985,124891
36.44797,122842
36.45610,123029
36.46422,125132
36.47233,117380
36.48047,114840
36.48858,118922
36.49672,124685
36.50483,120498
36.51295,122819
36.52108,126866
36.52920,119982
36.53732,120652
36.54545,118412
36.55357,119494
36.56170,124022
36.56982,126387
36.57793,122409
36.58607,122029
36.59418,120891
36.60232,122216
36.61043,126610
36.61855,128895
36.62668,123297
36.63480,126516
36.64293,125841
36.65105,128702
36.65917,126777
36.66730,126686
36.67542,127671
36.68353,129962
36.69167,121912
36.69978,125815
36.70792,135123
36.71603,128273
36.72415,125087
36.73228,129609
36.74040,129042
36.74853,125313
36.75665,127121
36.76477,124747
36.77290,128907
36.78102,123864
36.78913,134853
36.79727,131419
36.80538,133923
36.81352,134598
36.82163,133654
36.82975,129786
36.83788,127706
36.84600,133173
36.85413,131621
36.86225,135023
36.87037,134498
36.87850,128834
36.88662,136594
36.89475,133462
36.90287,133426
36.91098,132046
36.91912,131992
36.92723,138196
36.93535,143380
36.94348,144171
36.95160,146067
36.95973,144369
36.96785,145440
36.97597,147739
36.98410,140998
36.99222,158732
37.00035,166242
37.00847,185941
37.01658,212410
37.02472,230651
37.03283,230231
37.04097,225745
37.04908,201851
37.05720,185149
37.06533,171373
37.07345,153320
37.08157,149188
37.08970,141016
37.09782,145256
37.10595,146549
37.11407,144644
37.12218,144538
37.13032,142415
37.13843,145997
37.14657,144014
37.15468,149343
37.16280,146383
37.17093,156090
37.17905,149767
37.18717,155908
37.19530,157045
37.20342,151476
37.21155,152976
37.21967,149413
37.22778,148010
37.23592,152810
37.24403,151151
37.25217,155776
37.26028,154553
37.26840,160367
37.27653,170002
37.28465,188486
37.29278,196409
37.30090,203932
37.30902,200533
37.31715,201953
37.32527,202719
37.33338,188713
37.34152,188677
37.34963,187018
37.35777,178714
37.36588,170595
37.37400,169531
37.38213,158358
37.39025,174626
37.39838,175159
37.40650,171090
37.41462,170325
37.42275,169284
37.43087,170031
37.43898,164824
37.44712,163903
37.45523,160341
37.46337,160897
37.47148,167844
37.47960,160405
37.48773,161930
