Z:\data\JTB-E02\BACandBLUE\JTB-E02-206-17.D Wed Mar 13 17:57:53 2019
Start of data points
2.09537,60250
2.10348,62720
2.11160,60636
2.11973,56201
2.12785,63862
2.13597,61995
2.14410,62081
2.15222,59872
2.16035,62717
2.16847,56309
2.17658,53458
2.18472,54476
2.19283,55463
2.20097,50828
2.20908,52863
2.21720,50805
2.22533,53151
2.23345,47875
2.24158,51393
2.24970,49732
2.25782,50704
2.26595,71889
2.27407,452497
2.28218,1572238
2.29032,1417394
2.29843,696023
2.30657,468807
2.31468,391575
2.32280,351979
2.33093,299281
2.33905,282242
2.34718,251052
2.35530,226404
2.36342,203221
2.37155,192441
2.37967,183413
2.38780,180523
2.39592,164957
2.40403,158686
2.41217,166004
2.42028,186546
2.42840,198440
2.43653,168236
2.44465,153033
2.45278,147634
2.46090,144270
2.46902,140735
2.47715,136279
2.48527,134698
2.49340,142738
2.50152,151156
2.50963,135952
2.51777,130530
2.52588,132412
2.53400,132269
2.54213,122193
2.55025,153415
2.55838,490458
2.56650,1184028
2.57462,924191
2.58275,480735
2.59087,341936
2.59900,302397
2.60712,453771
2.61523,1285745
2.62337,1617248
2.63148,991957
2.63962,620970
2.64773,459089
2.65585,358845
2.66398,304350
2.67210,260507
2.68022,237925
2.68835,215066
2.69647,192216
2.70460,190675
2.71272,183221
2.72083,173677
2.72897,164137
2.73708,158923
2.74522,161601
2.75333,155848
2.76145,143104
2.76958,147607
2.77770,138554
2.78582,141667
2.79395,142994
2.80207,152325
2.81020,144213
2.81832,141457
2.82643,143663
2.83457,173632
2.84268,190857
2.85082,165071
2.85893,144999
2.86705,138025
2.87518,143671
2.88330,133695
2.89143,123147
2.89955,128669
2.90767,121188
2.91580,117044
2.92392,126136
2.93203,118037
2.94017,120701
2.94828,115039
2.95642,118557
2.96453,122817
2.97265,127246
2.98078,116334
2.98890,117631
2.99703,117212
3.00515,134227
3.01327,127556
3.02140,133215
3.02952,123648
3.03765,116983
3.04577,111041
3.05388,115467
3.06202,115720
3.07013,116496
3.07825,128849
3.08638,207099
3.09450,589862
3.10263,1386322
3.11075,2967199
3.11887,4163659
3.12700,3236817
3.13512,2044976
3.14325,1511809
3.15137,1206968
3.15948,978810
3.16762,808632
3.17573,689854
3.18385,576256
3.19198,520391
3.20010,452333
3.20823,412252
3.21635,378913
3.22447,356904
3.23260,315594
3.24072,281729
3.24885,270835
3.25697,245810
3.26508,234991
3.27322,219304
3.28133,217350
3.28947,268488
3.29758,614354
3.30570,1728180
3.31383,3363186
3.32195,3930385
3.33007,3122416
3.33820,2082200
3.34632,1417979
3.35445,1101000
3.36257,917078
3.37068,776057
3.37882,683392
3.38693,596266
3.39507,533667
3.40318,494592
3.41130,466497
3.41943,423204
3.42755,403315
3.43568,379244
3.44380,365707
3.45192,345800
3.46005,319780
3.46817,325148
3.47628,354193
3.48442,363632
3.49253,335439
3.50067,312971
3.50878,293634
3.51690,287366
3.52503,272270
3.53315,259307
3.54128,260753
3.54940,244624
3.55752,234149
3.56565,225136
3.57377,222210
3.58188,227212
3.59002,230623
3.59813,219683
3.60627,218326
3.61438,207699
3.62250,208053
3.63063,217760
3.63875,256471
3.64688,262739
3.65500,242521
3.66312,219386
3.67125,198902
3.67937,200668
3.68750,210806
3.69562,204264
3.70373,192256
3.71187,196876
3.71998,185952
3.72810,177446
3.73623,172307
3.74435,175134
3.75248,177934
3.76060,177117
3.76872,175274
3.77685,167004
3.78497,164608
3.79310,177107
3.80122,263759
3.80933,809949
3.81747,2217706
3.82558,3319824
3.83372,2799904
3.84183,1758425
3.84995,1202998
3.85808,928312
3.86620,787248
3.87432,683652
3.88245,607512
3.89057,543336
3.89870,494401
3.90682,465381
3.91493,431608
3.92307,397620
3.93118,376929
3.93932,353449
3.94743,370749
3.95555,559694
3.96368,1127082
3.97180,1796896
3.97992,1855455
3.98805,1310146
3.99617,889542
4.00430,991047
4.01242,1805567
4.02053,2748891
4.02867,2713646
4.03678,1860964
4.04492,1114340
4.05303,752530
4.06115,590371
4.06928,490787
4.07740,433047
4.08553,392938
4.09365,360154
4.10177,334473
4.10990,300458
4.11802,286415
4.12613,277350
4.13427,265369
4.14238,262809
4.15052,271886
4.15863,280374
4.16675,285978
4.17488,297926
4.18300,310759
4.19113,308710
4.19925,260394
4.20737,259669
4.21550,465412
4.22362,1469795
4.23173,3825321
4.23987,6120629
4.24798,6146380
4.25612,4347557
4.26423,2819793
4.27235,1938491
4.28048,1436828
4.28860,1123855
4.29673,880474
4.30485,726422
4.31297,604516
4.32110,540793
4.32922,473036
4.33735,419790
4.34547,392981
4.35358,354468
4.36172,328929
4.36983,300713
4.37795,280906
4.38608,271890
4.39420,264197
4.40233,248712
4.41045,236571
4.41857,222231
4.42670,218143
4.43482,209617
4.44295,203751
4.45107,207381
4.45918,194883
4.46732,188399
4.47543,186296
4.48357,182624
4.49168,188011
4.49980,183751
4.50793,186221
4.51605,178379
4.52417,172107
4.53230,168796
4.54042,169862
4.54855,167793
4.55667,163971
4.56478,162853
4.57292,154729
4.58103,159789
4.58917,153799
4.59728,146520
4.60540,156658
4.61353,154592
4.62165,151038
4.62977,150784
4.63790,139549
4.64602,145777
4.65415,139975
4.66227,137437
4.67038,144395
4.67852,136786
4.68663,136849
4.69477,137976
4.70288,135355
4.71100,135426
4.71913,136661
4.72725,136635
4.73538,133725
4.74350,131479
4.75162,128968
4.75975,122609
4.76787,122924
4.77598,127169
4.78412,128956
4.79223,131008
4.80037,135895
4.80848,142957
4.81660,142421
4.82473,144543
4.83285,154542
4.84098,169371
4.84910,191501
4.85722,191411
4.86535,166336
4.87347,147476
4.88160,140991
4.88972,131687
4.89783,129973
4.90597,128666
4.91408,126566
4.92220,125367
4.93033,126990
4.93845,134476
4.94658,187815
4.95470,320793
4.96282,565859
4.97095,820057
4.97907,937479
4.98720,857750
4.99532,701955
5.00343,560764
5.01157,460751
5.01968,400446
5.02780,359806
5.03593,326128
5.04405,297003
5.05218,285041
5.06030,267889
5.06842,254039
5.07655,247922
5.08467,237994
5.09280,223552
5.10092,216054
5.10903,219221
5.11717,211855
5.12528,211355
5.13342,202507
5.14153,202108
5.14965,198425
5.15778,185049
5.16590,190713
5.17402,192560
5.18215,196454
5.19027,197439
5.19840,186555
5.20652,187630
5.21463,186265
5.22277,178528
5.23088,184379
5.23902,188123
5.24713,196438
5.25525,190557
5.26338,188423
5.27150,166936
5.27962,157387
5.28775,151719
5.29587,137782
5.30400,141109
5.31212,144821
5.32023,145318
5.32837,163651
5.33648,185612
5.34462,231213
5.35273,243550
5.36085,221544
5.36898,194784
5.37710,166545
5.38523,156760
5.39335,149115
5.40147,144609
5.40960,138054
5.41772,148425
5.42583,143226
5.43397,134349
5.44208,137159
5.45022,136959
5.45833,137434
5.46645,130407
5.47458,138888
5.48270,125885
5.49083,124202
5.49895,122308
5.50707,133076
5.51520,135277
5.52332,145396
5.53145,148707
5.53957,146276
5.54768,139901
5.55582,129003
5.56393,119692
5.57205,126881
5.58018,142357
5.58830,177848
5.59643,207554
5.60455,217838
5.61267,203450
5.62080,174053
5.62892,160321
5.63705,159252
5.64517,150550
5.65328,151463
5.66142,139488
5.66953,141558
5.67767,137531
5.68578,158241
5.69390,189633
5.70203,217361
5.71015,214807
5.71827,190843
5.72640,166679
5.73452,142321
5.74265,135813
5.75077,129139
5.75888,125655
5.76702,123257
5.77513,119374
5.78327,111411
5.79138,123094
5.79950,112030
5.80763,111840
5.81575,109732
5.82387,116722
5.83200,111282
5.84012,116342
5.84825,112912
5.85637,109910
5.86448,108756
5.87262,109185
5.88073,108956
5.88887,107752
5.89698,106167
5.90510,98292
5.91323,95205
5.92135,90934
5.92948,82158
5.93760,84900
5.94572,91916
5.95385,103181
5.96197,130811
5.97008,182359
5.97822,280771
5.98633,381963
5.99447,450464
6.00258,414743
6.01070,316912
6.01883,216527
6.02695,179301
6.03508,154360
6.04320,137776
6.05132,139903
6.05945,123556
6.06757,110477
6.07568,111474
6.08382,107159
6.09193,107447
6.10007,104449
6.10818,108654
6.11630,101135
6.12443,96780
6.13255,103466
6.14068,100359
6.14880,105065
6.15692,113627
6.16505,111188
6.17317,119102
6.18130,115092
6.18942,114843
6.19753,115573
6.20567,111530
6.21378,115905
6.22190,124271
6.23003,129672
6.23815,133060
6.24628,129527
6.25440,123958
6.26252,127416
6.27065,127556
6.27877,132055
6.28690,138362
6.29502,131465
6.30313,133397
6.31127,137045
6.31938,127822
6.32750,140470
6.33563,141376
6.34375,150367
6.35188,141286
6.36000,145902
6.36812,143461
6.37625,141108
6.38437,151799
6.39250,149780
6.40062,140770
6.40873,149556
6.41687,150379
6.42498,150793
6.43312,155839
6.44123,160921
6.44935,163381
6.45748,168116
6.46560,162656
6.47372,154383
6.48185,170785
6.48997,169455
6.49810,163886
6.50622,171861
6.51433,166933
6.52247,179883
6.53058,175177
6.53872,175067
6.54683,175272
6.55495,175134
6.56308,178755
6.57120,177750
6.57933,183484
6.58745,182921
6.59557,184321
6.60370,180397
6.61182,190605
6.61993,198558
6.62807,196569
6.63618,206786
6.64432,278229
6.65243,701838
6.66055,2318461
6.66868,5827860
6.67680,9607651
6.68493,1.067492E+07
6.69305,8545254
6.70117,5322192
6.70930,3143787
6.71742,2090504
6.72555,1565603
6.73367,1296229
6.74178,1214216
6.74992,1011257
6.75803,883265
6.76615,764209
6.77428,682501
6.78240,621127
6.79053,574724
6.79865,534133
6.80677,497682
6.81490,464768
6.82302,431180
6.83115,397142
6.83927,387706
6.84738,371964
6.85552,358491
6.86363,346390
6.87175,319592
6.87988,295907
6.88800,260032
6.89613,254354
6.90425,242087
6.91237,225300
6.92050,208016
6.92862,207998
6.93675,193533
6.94487,196958
6.95298,175282
6.96112,175067
6.96923,181545
6.97737,202948
6.98548,222083
6.99360,226454
7.00173,200856
7.00985,166563
7.01797,165946
7.02610,186612
7.03422,214388
7.04235,220023
7.05047,218070
7.05858,209101
7.06672,205206
7.07483,199744
7.08297,202910
7.09108,197445
7.09920,200418
7.10733,191560
7.11545,180835
7.12357,171036
7.13170,171289
7.13982,169102
7.14795,162278
7.15607,162480
7.16418,165942
7.17232,163142
7.18043,161267
7.18857,162731
7.19668,158815
7.20480,149585
7.21293,144042
7.22105,185444
7.22918,251554
7.23730,349908
7.24542,416147
7.25355,385059
7.26167,301594
7.26978,226467
7.27792,188235
7.28603,170281
7.29417,140731
7.30228,125327
7.31040,123901
7.31853,117860
7.32665,117675
7.33478,119480
7.34290,109168
7.35102,120759
7.35915,117157
7.36727,108640
7.37540,109630
7.38352,106537
7.39163,108784
7.39977,108302
7.40788,110459
7.41600,106878
7.42413,102370
7.43225,103960
7.44038,105367
7.44850,106479
7.45662,100697
7.46475,106120
7.47287,94861
7.48100,97044
7.48912,91311
7.49723,99154
7.50537,90198
7.51348,88738
7.52160,91448
7.52973,89492
7.53785,94062
7.54598,91676
7.55410,85992
7.56222,83696
7.57035,79392
7.57847,87723
7.58660,77730
7.59472,81949
7.60283,84298
7.61097,87005
7.61908,83422
7.62722,81037
7.63533,78258
7.64345,76319
7.65158,82195
7.65970,79962
7.66782,79318
7.67595,75779
7.68407,75993
7.69220,75871
7.70032,77547
7.70843,79791
7.71657,74280
7.72468,76197
7.73282,76323
7.74093,71247
7.74905,78453
7.75718,73707
7.76530,79225
7.77343,77875
7.78155,82152
7.78967,82808
7.79780,80353
7.80592,80238
7.81403,82696
7.82217,79655
7.83028,74934
7.83842,77572
7.84653,71525
7.85465,67099
7.86278,70581
7.87090,71049
7.87903,72997
7.88715,74852
7.89527,76012
7.90340,86537
7.91152,77810
7.91963,80945
7.92777,111167
7.93588,180858
7.94402,302720
7.95213,388943
7.96025,432526
7.96838,379836
7.97650,269387
7.98463,179146
7.99275,128957
8.00087,104878
8.00900,89769
8.01712,85931
8.02525,84797
8.03337,72639
8.04148,72928
8.04962,73452
8.05773,67477
8.06585,70761
8.07398,74662
8.08210,67261
8.09023,66783
8.09835,64948
8.10647,63512
8.11460,61191
8.12272,67301
8.13085,70364
8.13897,74869
8.14708,79198
8.15522,80405
8.16333,79522
8.17145,77169
8.17958,70412
8.18770,67459
8.19583,62654
8.20395,62445
8.21207,64017
8.22020,67071
8.22832,72307
8.23645,71006
8.24457,68998
8.25268,63412
8.26082,59974
8.26893,60468
8.27707,60206
8.28518,57947
8.29330,53074
8.30143,58270
8.30955,61169
8.31767,60034
8.32580,64657
8.33392,67775
8.34205,63625
8.35017,59687
8.35828,58986
8.36642,61182
8.37453,71735
8.38267,75041
8.39078,80335
8.39890,77407
8.40703,68212
8.41515,65466
8.42328,55706
8.43140,52321
8.43952,49924
8.44765,52689
8.45577,54590
8.46388,55182
8.47202,66949
8.48013,62689
8.48827,64791
8.49638,55248
8.50450,55274
8.51263,63788
8.52075,113463
8.52888,324998
8.53700,888204
8.54512,2119580
8.55325,3519262
8.56137,4436856
8.56948,4093559
8.57762,2778995
8.58573,1540098
8.59387,740849
8.60198,390601
8.61010,269435
8.61823,227776
8.62635,195680
8.63448,184836
8.64260,167595
8.65072,154194
8.65885,142957
8.66697,141414
8.67510,132635
8.68322,128253
8.69133,119397
8.69947,114756
8.70758,120153
8.71570,115722
8.72383,109545
8.73195,104175
8.74008,95160
8.74820,92862
8.75632,94213
8.76445,119540
8.77257,187114
8.78070,337504
8.78882,544638
8.79693,751749
8.80507,837777
8.81318,723062
8.82132,522933
8.82943,357520
8.83755,249368
8.84568,191758
8.85380,173976
8.86192,160890
8.87005,169626
8.87817,158212
8.88630,140431
8.89442,145366
8.90253,132565
8.91067,126270
8.91878,127247
8.92692,115481
8.93503,108014
8.94315,102577
8.95128,109569
8.95940,103094
8.96752,107300
8.97565,100467
8.98377,101394
8.99190,94449
9.00002,92460
9.00813,96426
9.01627,91378
9.02438,91281
9.03252,84289
9.04063,84616
9.04875,87748
9.05688,94318
9.06500,81393
9.07313,79880
9.08125,86779
9.08937,82227
9.09750,78016
9.10562,81719
9.11373,79380
9.12187,83419
9.12998,75368
9.13812,78847
9.14623,73345
9.15435,77015
9.16248,75561
9.17060,77611
9.17873,71962
9.18685,75179
9.19497,72342
9.20310,66961
9.21122,66885
9.21935,66303
9.22747,69453
9.23558,71873
9.24372,77349
9.25183,66815
9.25995,72132
9.26808,68930
9.27620,75688
9.28433,72936
9.29245,72690
9.30057,63639
9.30870,69833
9.31682,66121
9.32495,67982
9.33307,60419
9.34118,64724
9.34932,60647
9.35743,67544
9.36555,61207
9.37368,64969
9.38180,57996
9.38993,61376
9.39805,62173
9.40617,52976
9.41430,58424
9.42242,62149
9.43055,58960
9.43867,57754
9.44678,66628
9.45492,63340
9.46303,58162
9.47117,64542
9.47928,58367
9.48740,60677
9.49553,60038
9.50365,60738
9.51177,67852
9.51990,79141
9.52802,92974
9.53615,99657
9.54427,103373
9.55238,100326
9.56052,102370
9.56863,100224
9.57677,90746
9.58488,78005
9.59300,71361
9.60113,67430
9.60925,55768
9.61737,52928
9.62550,50336
9.63362,46766
9.64175,51250
9.64987,46005
9.65798,45472
9.66612,41709
9.67423,42406
9.68237,42044
9.69048,47593
9.69860,41709
9.70673,44760
9.71485,47561
9.72298,38004
9.73110,38557
9.73922,39547
9.74735,37873
9.75547,41400
9.76358,38843
9.77172,38167
9.77983,42061
9.78797,37251
9.79608,38554
9.80420,39674
9.81233,39462
9.82045,44539
9.82858,42043
9.83670,40546
9.84482,40110
9.85295,39669
9.86107,43674
9.86920,43990
9.87732,43591
9.88543,41148
9.89357,42468
9.90168,40431
9.90980,39295
9.91793,41436
9.92605,39895
9.93418,43830
9.94230,50312
9.95042,45337
9.95855,52826
9.96667,52887
9.97480,55058
9.98292,49302
9.99103,57266
9.99917,47027
10.00728,49967
10.01540,48562
10.02353,46492
10.03165,47502
10.03978,50851
10.04790,49052
10.05602,46235
10.06415,43402
10.07227,41604
10.08040,45008
10.08852,40114
10.09663,40167
10.10477,39593
10.11288,38085
10.12102,41179
10.12913,43061
10.13725,39728
10.14538,36863
10.15350,41132
10.16162,38445
10.16975,35888
10.17787,40087
10.18600,40904
10.19412,37274
10.20223,38584
10.21037,37003
10.21848,42077
10.22662,38371
10.23473,46914
10.24285,50859
10.25098,58576
10.25910,66878
10.26723,108520
10.27535,229018
10.28347,574383
10.29160,1262638
10.29972,2356474
10.30783,3865021
10.31597,6184871
10.32408,1.008853E+07
10.33222,1.635036E+07
10.34033,2.456407E+07
10.34845,3.231622E+07
10.35658,3.618285E+07
10.36470,3.260096E+07
10.37283,2.158955E+07
10.38095,1.024856E+07
10.38907,4018341
10.39720,1895530
10.40532,1201452
10.41343,902191
10.42157,741055
10.42968,650810
10.43782,568157
10.44593,505039
10.45405,471541
10.46218,415807
10.47030,381618
10.47843,352234
10.48655,328919
10.49467,292269
10.50280,292863
10.51092,269273
10.51905,258177
10.52717,238998
10.53528,235198
10.54342,205831
10.55153,198179
10.55965,189742
10.56778,187397
10.57590,179928
10.58403,179987
10.59215,169129
10.60027,165865
10.60840,153547
10.61652,158185
10.62465,154047
10.63277,140498
10.64088,142786
10.64902,133538
10.65713,124606
10.66525,123798
10.67338,122176
10.68150,119486
10.68963,118983
10.69775,115453
10.70587,112690
10.71400,109742
10.72212,102875
10.73025,103007
10.73837,103649
10.74648,97926
10.75462,107105
10.76273,106337
10.77087,97899
10.77898,95927
10.78710,89765
10.79523,95945
10.80335,86453
10.81147,80954
10.81960,84453
10.82772,78852
10.83585,80046
10.84397,78462
10.85208,78082
10.86022,78003
10.86833,78687
10.87647,73339
10.88458,72076
10.89270,69394
10.90083,72621
10.90895,71954
10.91708,72335
10.92520,68348
10.93332,67768
10.94145,65676
10.94957,64840
10.95768,62565
10.96582,66088
10.97393,66694
10.98207,68208
10.99018,65116
10.99830,63523
11.00643,60358
11.01455,61771
11.02268,64121
11.03080,58451
11.03892,60309
11.04705,59601
11.05517,57124
11.06328,58565
11.07142,55712
11.07953,53792
11.08767,53937
11.09578,56123
11.10390,56704
11.11203,55338
11.12015,57217
11.12828,50296
11.13640,53885
11.14452,43548
11.15265,48955
11.16077,57871
11.16890,59331
11.17702,68810
11.18513,63560
11.19327,63603
11.20138,54552
11.20950,55977
11.21763,52677
11.22575,46580
11.23388,44668
11.24200,43205
11.25012,43764
11.25825,41584
11.26637,37771
11.27450,36348
11.28262,36547
11.29073,38179
11.29887,41485
11.30698,41163
11.31512,40809
11.32323,43000
11.33135,43196
11.33948,45166
11.34760,42429
11.35572,38813
11.36385,41047
11.37197,42504
11.38010,38551
11.38822,40499
11.39633,39347
11.40447,36753
11.41258,34253
11.42072,36392
11.42883,35663
11.43695,36480
11.44508,38294
11.45320,34254
11.46132,35073
11.46945,37609
11.47757,41444
11.48570,64418
11.49382,83627
11.50193,102538
11.51007,122748
11.51818,119896
11.52632,106543
11.53443,89474
11.54255,82113
11.55068,84389
11.55880,77868
11.56693,72538
11.57505,63650
11.58317,53156
11.59130,50345
11.59942,46389
11.60753,45834
11.61567,47661
11.62378,46354
11.63192,49521
11.64003,43698
11.64815,48534
11.65628,41889
11.66440,44594
11.67253,40747
11.68065,47934
11.68877,50536
11.69690,59994
11.70502,66168
11.71313,72479
11.72127,68086
11.72938,65235
11.73752,53905
11.74563,48460
11.75375,46564
11.76188,45617
11.77000,41835
11.77813,45232
11.78625,41939
11.79437,38551
11.80250,41060
11.81062,42054
11.81875,39074
11.82687,41532
11.83498,43214
11.84312,39542
11.85123,39752
11.85935,39110
11.86748,42115
11.87560,38901
11.88373,38922
11.89185,39883
11.89997,45349
11.90810,36421
11.91622,39262
11.92435,40957
11.93247,41408
11.94058,45014
11.94872,50591
11.95683,43078
11.96497,38779
11.97308,43636
11.98120,40274
11.98933,39698
11.99745,45816
12.00557,64128
12.01370,71069
12.02182,79092
12.02995,76692
12.03807,71812
12.04618,65379
12.05432,52330
12.06243,44800
12.07057,45478
12.07868,44331
12.08680,38029
12.09493,38338
12.10305,42763
12.11118,41238
12.11930,39200
12.12742,37868
12.13555,43029
12.14367,44163
12.15178,41611
12.15992,39615
12.16803,39760
12.17617,42006
12.18428,33985
12.19240,37856
12.20053,40063
12.20865,40903
12.21678,37596
12.22490,35112
12.23302,36834
12.24115,34356
12.24927,37424
12.25738,36087
12.26552,37179
12.27363,34489
12.28177,37349
12.28988,35639
12.29800,34922
12.30613,35374
12.31425,36499
12.32238,37202
12.33050,35769
12.33862,38748
12.34675,34847
12.35487,34717
12.36300,33136
12.37112,35416
12.37923,33073
12.38737,35315
12.39548,35464
12.40360,36898
12.41173,39126
12.41985,42029
12.42798,50165
12.43610,56963
12.44422,52598
12.45235,55724
12.46047,51540
12.46860,47907
12.47672,46863
12.48483,45064
12.49297,40673
12.50108,37191
12.50920,35567
12.51733,40161
12.52545,39052
12.53358,35499
12.54170,48649
12.54982,48793
12.55795,63310
12.56607,90329
12.57420,114390
12.58232,115681
12.59043,104363
12.59857,80829
12.60668,67043
12.61482,58060
12.62293,53554
12.63105,51898
12.63918,49022
12.64730,48345
12.65542,46390
12.66355,40915
12.67167,39514
12.67980,39190
12.68792,35492
12.69603,35094
12.70417,37236
12.71228,37476
12.72042,43248
12.72853,40255
12.73665,45214
12.74478,45132
12.75290,44260
12.76103,40535
12.76915,41233
12.77727,38599
12.78540,36532
12.79352,32128
12.80163,34309
12.80977,36082
12.81788,33520
12.82602,34227
12.83413,36568
12.84225,32442
12.85038,32538
12.85850,31846
12.86663,33973
12.87475,33856
12.88287,35277
12.89100,39103
12.89912,33499
12.90723,36393
12.91537,32003
12.92348,31816
12.93162,35464
12.93973,32643
12.94785,36807
12.95598,27266
12.96410,35242
12.97223,37316
12.98035,37594
12.98847,40691
12.99660,41752
13.00472,41797
13.01285,44577
13.02097,38955
13.02908,32915
13.03722,33836
13.04533,32192
13.05345,34616
13.06158,37221
13.06970,29886
13.07783,34411
13.08595,36032
13.09407,35880
13.10220,39010
13.11032,40308
13.11845,37716
13.12657,34724
13.13468,40458
13.14282,32457
13.15093,34081
13.15907,32820
13.16718,33982
13.17530,34977
13.18343,38923
13.19155,37665
13.19967,38898
13.20780,38923
13.21592,36240
13.22405,37865
13.23217,36438
13.24028,37945
13.24842,35028
13.25653,35251
13.26467,33582
13.27278,29116
13.28090,35585
13.28903,32205
13.29715,31059
13.30527,31399
13.31340,32667
13.32152,31665
13.32965,30305
13.33777,29300
13.34588,31817
13.35402,31773
13.36213,34430
13.37027,31822
13.37838,31021
13.38650,33162
13.39463,32311
13.40275,28357
13.41088,29938
13.41900,36191
13.42712,30919
13.43525,33781
13.44337,29688
13.45148,30408
13.45962,29773
13.46773,29365
13.47587,29315
13.48398,30986
13.49210,29549
13.50023,28392
13.50835,27393
13.51648,32839
13.52460,29691
13.53272,28967
13.54085,30730
13.54897,31874
13.55708,33768
13.56522,35596
13.57333,40569
13.58147,36358
13.58958,37404
13.59770,35029
13.60583,36753
13.61395,33218
13.62208,32951
13.63020,32601
13.63832,29968
13.64645,33313
13.65457,32147
13.66270,29524
13.67082,31063
13.67893,29069
13.68707,30836
13.69518,29994
13.70330,27957
13.71143,30980
13.71955,34103
13.72768,30075
13.73580,30245
13.74392,35069
13.75205,35351
13.76017,51458
13.76830,85279
13.77642,110804
13.78453,151811
13.79267,165017
13.80078,160580
13.80892,131120
13.81703,104291
13.82515,89718
13.83328,61174
13.84140,57090
13.84952,53495
13.85765,46183
13.86577,51787
13.87390,46936
13.88202,40089
13.89013,42089
13.89827,41514
13.90638,39167
13.91452,38203
13.92263,38647
13.93075,39654
13.93888,42722
13.94700,43673
13.95512,49168
13.96325,57625
13.97137,84731
13.97950,126339
13.98762,155114
13.99573,180098
14.00387,165269
14.01198,154883
14.02012,129781
14.02823,96564
14.03635,78640
14.04448,79132
14.05260,62137
14.06073,60309
14.06885,58914
14.07697,57784
14.08510,56554
14.09322,55427
14.10133,58777
14.10947,45320
14.11758,47769
14.12572,48174
14.13383,47692
14.14195,43162
14.15008,46532
14.15820,51353
14.16633,47653
14.17445,47778
14.18257,45845
14.19070,47545
14.19882,54769
14.20695,63481
14.21507,81001
14.22318,98193
14.23132,109331
14.23943,115102
14.24755,106723
14.25568,102223
14.26380,93388
14.27193,88603
14.28005,79952
14.28817,76161
14.29630,68657
14.30442,65143
14.31255,61281
14.32067,59075
14.32878,59345
14.33692,57723
14.34503,56977
14.35315,55132
14.36128,52305
14.36940,53204
14.37753,48149
14.38565,45281
14.39377,42802
14.40190,46683
14.41002,45174
14.41815,35740
14.42627,39161
14.43438,38005
14.44252,36250
14.45063,35402
14.45877,40004
14.46688,35500
14.47500,35991
14.48313,39467
14.49125,36549
14.49937,33965
14.50750,35035
14.51562,37317
14.52375,39801
14.53187,42081
14.53998,42311
14.54812,37726
14.55623,40509
14.56437,37057
14.57248,34433
14.58060,32844
14.58873,33166
14.59685,32894
14.60498,39126
14.61310,33458
14.62122,33583
14.62935,30805
14.63747,26600
14.64558,34613
14.65372,36296
14.66183,32621
14.66997,35177
14.67808,29495
14.68620,32399
14.69433,31719
14.70245,34285
14.71058,33149
14.71870,31216
14.72682,35013
14.73495,33307
14.74307,30555
14.75118,38373
14.75932,39380
14.76743,35283
14.77557,33224
14.78368,36278
14.79180,34493
14.79993,36708
14.80805,39585
14.81618,46727
14.82430,61617
14.83242,86021
14.84055,95219
14.84867,100094
14.85680,89348
14.86492,82791
14.87303,69885
14.88117,60259
14.88928,52764
14.89740,47673
14.90553,47589
14.91365,43265
14.92178,42735
14.92990,39383
14.93802,40668
14.94615,47648
14.95427,45117
14.96240,44716
14.97052,43701
14.97863,40416
14.98677,39729
14.99488,40795
15.00300,38654
15.01113,38491
15.01925,38703
15.02738,38054
15.03550,33181
15.04362,36702
15.05175,40132
15.05987,39162
15.06800,38309
15.07612,34821
15.08423,35746
15.09237,38568
15.10048,36127
15.10862,39035
15.11673,36660
15.12485,33270
15.13298,31791
15.14110,31961
15.14922,34363
15.15735,35263
15.16547,33484
15.17360,32595
15.18172,34279
15.18983,35498
15.19797,39558
15.20608,33427
15.21422,31726
15.22233,32176
15.23045,33205
15.23858,36520
15.24670,33080
15.25483,31694
15.26295,30284
15.27107,30196
15.27920,30640
15.28732,29303
15.29543,30468
15.30357,29759
15.31168,31571
15.31982,32323
15.32793,35387
15.33605,27948
15.34418,29853
15.35230,29394
15.36043,28373
15.36855,28288
15.37667,29295
15.38480,29678
15.39292,29899
15.40103,31285
15.40917,28181
15.41728,36136
15.42542,31312
15.43353,33992
15.44165,31336
15.44978,30994
15.45790,27892
15.46603,27626
15.47415,29088
15.48227,29066
15.49040,30065
15.49852,29707
15.50665,30647
15.51477,35967
15.52288,50084
15.53102,74961
15.53913,104799
15.54725,143144
15.55538,179117
15.56350,178428
15.57163,162538
15.57975,126237
15.58787,85003
15.59600,64680
15.60412,52192
15.61225,44474
15.62037,41491
15.62848,37507
15.63662,39822
15.64473,33378
15.65287,37238
15.66098,35714
15.66910,34725
15.67723,32585
15.68535,34683
15.69347,35303
15.70160,33213
15.70972,31420
15.71785,28163
15.72597,27132
15.73408,33024
15.74222,33728
15.75033,38462
15.75847,33933
15.76658,32642
15.77470,35775
15.78283,42490
15.79095,52912
15.79907,48732
15.80720,50920
15.81532,50920
15.82345,50420
15.83157,43379
15.83968,41275
15.84782,35011
15.85593,38293
15.86407,35758
15.87218,35325
15.88030,37351
15.88843,41147
15.89655,44668
15.90468,45389
15.91280,42685
15.92092,36921
15.92905,41258
15.93717,42899
15.94528,36949
15.95342,35116
15.96153,39599
15.96967,51055
15.97778,57290
15.98590,67205
15.99403,70678
16.00215,70065
16.01028,63038
16.01840,60851
16.02652,59239
16.03465,56438
16.04277,50759
16.05088,50120
16.05902,48018
16.06713,45347
16.07527,41736
16.08338,40237
16.09150,41489
16.09963,37452
16.10775,34382
16.11588,33792
16.12400,35097
16.13212,40765
16.14025,34918
16.14837,39128
16.15650,33346
16.16462,36473
16.17273,34332
16.18087,34431
16.18898,38167
16.19710,32010
16.20523,34773
16.21335,33302
16.22148,32536
16.22960,36394
16.23772,33631
16.24585,33826
16.25397,34979
16.26210,34524
16.27022,33299
16.27833,35784
16.28647,35329
16.29458,37298
16.30272,32571
16.31083,32607
16.31895,33506
16.32708,32778
16.33520,33727
16.34332,36029
16.35145,39277
16.35957,41522
16.36770,53403
16.37582,69031
16.38393,86673
16.39207,90856
16.40018,87662
16.40832,74312
16.41643,66197
16.42455,50897
16.43268,46198
16.44080,42116
16.44893,44790
16.45705,41398
16.46517,35839
16.47330,36071
16.48142,37823
16.48953,38335
16.49767,36816
16.50578,36947
16.51392,35157
16.52203,36715
16.53015,35318
16.53828,35556
16.54640,34857
16.55453,35476
16.56265,35050
16.57077,36604
16.57890,37067
16.58702,34742
16.59513,36551
16.60327,43795
16.61138,50681
16.61952,61253
16.62763,56769
16.63575,56380
16.64388,52802
16.65200,49349
16.66013,43234
16.66825,43597
16.67637,36162
16.68450,36533
16.69262,36232
16.70075,35815
16.70887,35307
16.71698,32679
16.72512,32195
16.73323,33863
16.74135,35299
16.74948,32436
16.75760,31002
16.76573,31622
16.77385,29224
16.78197,32946
16.79010,33592
16.79822,32417
16.80635,31373
16.81447,33479
16.82258,31038
16.83072,32811
16.83883,30201
16.84695,27254
16.85508,30721
16.86320,30432
16.87133,29115
16.87945,31070
16.88757,30697
16.89570,30683
16.90382,30391
16.91195,29017
16.92007,30870
16.92818,30306
16.93632,29727
16.94443,30852
16.95257,31341
16.96068,30684
16.96880,30254
16.97693,29501
16.98505,27486
16.99317,27307
17.00130,34597
17.00942,29862
17.01755,29785
17.02567,28389
17.03378,28187
17.04192,28134
17.05003,26328
17.05817,27777
17.06628,34283
17.07440,27593
17.08253,32148
17.09065,32588
17.09878,34980
17.10690,38523
17.11502,39839
17.12315,46604
17.13127,44391
17.13938,46411
17.14752,46751
17.15563,41324
17.16377,40472
17.17188,35901
17.18000,34455
17.18813,36095
17.19625,32285
17.20438,32046
17.21250,32387
17.22062,31940
17.22875,29864
17.23687,29480
17.24498,30600
17.25312,32128
17.26123,33220
17.26937,33188
17.27748,30148
17.28560,29317
17.29373,31283
17.30185,33293
17.30998,27327
17.31810,30919
17.32622,34434
17.33435,32066
17.34247,36076
17.35060,32641
17.35872,35965
17.36683,38794
17.37497,39731
17.38308,38507
17.39120,38496
17.39933,41402
17.40745,35168
17.41558,33476
17.42370,35493
17.43182,32246
17.43995,33675
17.44807,38292
17.45620,33673
17.46432,37199
17.47243,32234
17.48057,39329
17.48868,36416
17.49682,32737
17.50493,29853
17.51305,34324
17.52118,33740
17.52930,33720
17.53742,35024
17.54555,36397
17.55367,38299
17.56180,33440
17.56992,34391
17.57803,32854
17.58617,35015
17.59428,33735
17.60242,28610
17.61053,32015
17.61865,38697
17.62678,31491
17.63490,41437
17.64302,59307
17.65115,79528
17.65927,122125
17.66740,162862
17.67552,217359
17.68363,240613
17.69177,233629
17.69988,184060
17.70802,146385
17.71613,110922
17.72425,88102
17.73238,74077
17.74050,67566
17.74863,61979
17.75675,57679
17.76487,57601
17.77300,50220
17.78112,54377
17.78923,52288
17.79737,45691
17.80548,50352
17.81362,45617
17.82173,39691
17.82985,42414
17.83798,43843
17.84610,43368
17.85423,41036
17.86235,39729
17.87047,42340
17.87860,41523
17.88672,38280
17.89483,40497
17.90297,33892
17.91108,33856
17.91922,35464
17.92733,36600
17.93545,33247
17.94358,33614
17.95170,34886
17.95983,36080
17.96795,34835
17.97607,33018
17.98420,37872
17.99232,34846
18.00045,30260
18.00857,30277
18.01668,30023
18.02482,39437
18.03293,37059
18.04105,43162
18.04918,44849
18.05730,43399
18.06543,41460
18.07355,39988
18.08167,44997
18.08980,37485
18.09792,38737
18.10605,38513
18.11417,36401
18.12228,46714
18.13042,40443
18.13853,39551
18.14667,43079
18.15478,44034
18.16290,41874
18.17103,44182
18.17915,46218
18.18727,54695
18.19540,52446
18.20352,50187
18.21165,48901
18.21977,45996
18.22788,46521
18.23602,40667
18.24413,42907
18.25227,38976
18.26038,37765
18.26850,37888
18.27663,35198
18.28475,38462
18.29287,36592
18.30100,35942
18.30912,38674
18.31725,37957
18.32537,32394
18.33348,32497
18.34162,31418
18.34973,33795
18.35787,34553
18.36598,31293
18.37410,34522
18.38223,33684
18.39035,33121
18.39848,35444
18.40660,33581
18.41472,30141
18.42285,31416
18.43097,29651
18.43908,28769
18.44722,27656
18.45533,30941
18.46347,29418
18.47158,33350
18.47970,29358
18.48783,27523
18.49595,28448
18.50408,32026
18.51220,32690
18.52032,29534
18.52845,29429
18.53657,32312
18.54470,29393
18.55282,28926
18.56093,34724
18.56907,31383
18.57718,30990
18.58530,28794
18.59343,31641
18.60155,34499
18.60968,34074
18.61780,33689
18.62592,36302
18.63405,38954
18.64217,36895
18.65030,37107
18.65842,33178
18.66653,38620
18.67467,36230
18.68278,32749
18.69090,31009
18.69903,38145
18.70715,34066
18.71528,33358
18.72340,30868
18.73152,27701
18.73965,29345
18.74777,30622
18.75590,28482
18.76402,29988
18.77213,31009
18.78027,28914
18.78838,31295
18.79652,30960
18.80463,31130
18.81275,28020
18.82088,30343
18.82900,29935
18.83712,29932
18.84525,30958
18.85337,35017
18.86150,29726
18.86962,34553
18.87773,29413
18.88587,30820
18.89398,31716
18.90212,32445
18.91023,34177
18.91835,30395
18.92648,34039
18.93460,38467
18.94273,35944
18.95085,43031
18.95897,45432
18.96710,49739
18.97522,53274
18.98333,50839
18.99147,44823
18.99958,46723
19.00772,44744
19.01583,43733
19.02395,39883
19.03208,38545
19.04020,40849
19.04833,41693
19.05645,40442
19.06457,34030
19.07270,39836
19.08082,44630
19.08893,45160
19.09707,55045
19.10518,63823
19.11332,71388
19.12143,78304
19.12955,74279
19.13768,69708
19.14580,69291
19.15393,75615
19.16205,63469
19.17017,69323
19.17830,73562
19.18642,76627
19.19455,75419
19.20267,81436
19.21078,80777
19.21892,71744
19.22703,63947
19.23515,54259
19.24328,49192
19.25140,47792
19.25953,44196
19.26765,44262
19.27577,44109
19.28390,46420
19.29202,49753
19.30015,51257
19.30827,48461
19.31638,51606
19.32452,58561
19.33263,58763
19.34075,66349
19.34888,63407
19.35700,61383
19.36513,54985
19.37325,58378
19.38137,50586
19.38950,48123
19.39762,46709
19.40575,49404
19.41387,43822
19.42198,44458
19.43012,41835
19.43823,40620
19.44637,37693
19.45448,36265
19.46260,35055
19.47073,36866
19.47885,36298
19.48697,39669
19.49510,40549
19.50322,42829
19.51135,53756
19.51947,68779
19.52758,80155
19.53572,83245
19.54383,80244
19.55197,72921
19.56008,54875
19.56820,50172
19.57633,44126
19.58445,40426
19.59258,35065
19.60070,37682
19.60882,34727
19.61695,38852
19.62507,35624
19.63318,36863
19.64132,40764
19.64943,47174
19.65757,62188
19.66568,86914
19.67380,109502
19.68193,122290
19.69005,133229
19.69818,133698
19.70630,114577
19.71442,93013
19.72255,79914
19.73067,63854
19.73878,57395
19.74692,58035
19.75503,51809
19.76317,49059
19.77128,55837
19.77940,47032
19.78753,40453
19.79565,43687
19.80378,49025
19.81190,50572
19.82002,45926
19.82815,43839
19.83627,47272
19.84440,43705
19.85252,44377
19.86063,40874
19.86877,47051
19.87688,61005
19.88500,85284
19.89313,142150
19.90125,231862
19.90938,371971
19.91750,506136
19.92562,650199
19.93375,750957
19.94187,802029
19.95000,786990
19.95812,779180
19.96623,748520
19.97437,739369
19.98248,708536
19.99062,666782
19.99873,650744
20.00685,616413
20.01498,591852
20.02310,562340
20.03122,533410
20.03935,510022
20.04747,462239
20.05560,402764
20.06372,334442
20.07183,265025
20.07997,205452
20.08808,164815
20.09622,138102
20.10433,122620
20.11245,119336
20.12058,111350
20.12870,110079
20.13682,103691
20.14495,103764
20.15307,101163
20.16120,107724
20.16932,112752
20.17743,115928
20.18557,110629
20.19368,109673
20.20182,100568
20.20993,100250
20.21805,89924
20.22618,88646
20.23430,88799
20.24243,86383
20.25055,82351
20.25867,87527
20.26680,93920
20.27492,107397
20.28303,113889
20.29117,125556
20.29928,129481
20.30742,136384
20.31553,135105
20.32365,121029
20.33178,108116
20.33990,90852
20.34803,79704
20.35615,68272
20.36427,57980
20.37240,49743
20.38052,47831
20.38863,43246
20.39677,42518
20.40488,40949
20.41302,39059
20.42113,46210
20.42925,43886
20.43738,47055
20.44550,49546
20.45363,60744
20.46175,63672
20.46987,64202
20.47800,74650
20.48612,76349
20.49425,68762
20.50237,57440
20.51048,53013
20.51862,50978
20.52673,49899
20.53485,46004
20.54298,43676
20.55110,43873
20.55923,45873
20.56735,43872
20.57547,45292
20.58360,45139
20.59172,46500
20.59985,44010
20.60797,41470
20.61608,41376
20.62422,41328
20.63233,42019
20.64047,40493
20.64858,41245
20.65670,43050
20.66483,43363
20.67295,39262
20.68107,38124
20.68920,43633
20.69732,45231
20.70545,38647
20.71357,38764
20.72168,41107
20.72982,42011
20.73793,40293
20.74607,43235
20.75418,39863
20.76230,41861
20.77043,37780
20.77855,43714
20.78667,44439
20.79480,43125
20.80292,38827
20.81105,39451
20.81917,44824
20.82728,44250
20.83542,41964
20.84353,41949
20.85167,44165
20.85978,42996
20.86790,40037
20.87603,40729
20.88415,36882
20.89228,40436
20.90040,40641
20.90852,39095
20.91665,38934
20.92477,35669
20.93288,40596
20.94102,41341
20.94913,42608
20.95727,36171
20.96538,38001
20.97350,38146
20.98163,38417
20.98975,40793
20.99788,36071
21.00600,36184
21.01412,33280
21.02225,37647
21.03037,33603
21.03850,39282
21.04662,37889
21.05473,41715
21.06287,34496
21.07098,39084
21.07910,36497
21.08723,35605
21.09535,35322
21.10348,36238
21.11160,36079
21.11972,39423
21.12785,46314
21.13597,70238
21.14410,107070
21.15222,180036
21.16033,285194
21.16847,396138
21.17658,469289
21.18470,453491
21.19283,362362
21.20095,273332
21.20908,188046
21.21720,141076
21.22532,111104
21.23345,84243
21.24157,85244
21.24970,70886
21.25782,67292
21.26593,61334
21.27407,58624
21.28218,61378
21.29032,52597
21.29843,52872
21.30655,51199
21.31468,52076
21.32280,50017
21.33092,53917
21.33905,49496
21.34717,44675
21.35530,45723
21.36342,44945
21.37153,41629
21.37967,43499
21.38778,47215
21.39592,44646
21.40403,45851
21.41215,42061
21.42028,46123
21.42840,46465
21.43652,47066
21.44465,40712
21.45277,44607
21.46090,42257
21.46902,42681
21.47713,46221
21.48527,37715
21.49338,37613
21.50152,38771
21.50963,42420
21.51775,40186
21.52588,42452
21.53400,38887
21.54213,40328
21.55025,41798
21.55837,38533
21.56650,41314
21.57462,41800
21.58273,42544
21.59087,39411
21.59898,39820
21.60712,42591
21.61523,39925
21.62335,40427
21.63148,43097
21.63960,47939
21.64773,48879
21.65585,56185
21.66397,55823
21.67210,59367
21.68022,55559
21.68835,46598
21.69647,46717
21.70458,41628
21.71272,43911
21.72083,39122
21.72895,41405
21.73708,39345
21.74520,38858
21.75333,39843
21.76145,49920
21.76957,40643
21.77770,40718
21.78582,42564
21.79395,37550
21.80207,40117
21.81018,36900
21.81832,42843
21.82643,43396
21.83457,43283
21.84268,51388
21.85080,57892
21.85893,58265
21.86705,64621
21.87517,61252
21.88330,58375
21.89142,51841
21.89955,50195
21.90767,45664
21.91578,42686
21.92392,44556
21.93203,38376
21.94017,37960
21.94828,37455
21.95640,38618
21.96453,35097
21.97265,33960
21.98077,35728
21.98890,37016
21.99702,38679
22.00515,36349
22.01327,36325
22.02138,36781
22.02952,38731
22.03763,35108
22.04577,36074
22.05388,35674
22.06200,37689
22.07013,33402
22.07825,31492
22.08638,36060
22.09450,37850
22.10262,37902
22.11075,31312
22.11887,33020
22.12698,33386
22.13512,33171
22.14323,38516
22.15137,35154
22.15948,30040
22.16760,34025
22.17573,36442
22.18385,38505
22.19198,36089
22.20010,37906
22.20822,38000
22.21635,33924
22.22447,35153
22.23258,36627
22.24072,38337
22.24883,37272
22.25697,39865
22.26508,35369
22.27320,36738
22.28133,36240
22.28945,38829
22.29758,42506
22.30570,52089
22.31382,66884
22.32195,86335
22.33007,114292
22.33820,146436
22.34632,164661
22.35443,175500
22.36257,159077
22.37068,136550
22.37880,112550
22.38693,88855
22.39505,74097
22.40318,66276
22.41130,55988
22.41942,56024
22.42755,55243
22.43567,49399
22.44380,47094
22.45192,43067
22.46003,41808
22.46817,40634
22.47628,38463
22.48442,39620
22.49253,38806
22.50065,36625
22.50878,36414
22.51690,34517
22.52502,36310
22.53315,37938
22.54127,37878
22.54940,36736
22.55752,39655
22.56563,35067
22.57377,33067
22.58188,35247
22.59002,41661
22.59813,34910
22.60625,35335
22.61438,34498
22.62250,33373
22.63062,36245
22.63875,28826
22.64687,32691
22.65500,31532
22.66312,36045
22.67123,42805
22.67937,47010
22.68748,50107
22.69562,60201
22.70373,60085
22.71185,59974
22.71998,57686
22.72810,52145
22.73623,51272
22.74435,46169
22.75247,40518
22.76060,43473
22.76872,42283
22.77683,38373
22.78497,36561
22.79308,34548
22.80122,35016
22.80933,36973
22.81745,34649
22.82558,34721
22.83370,33750
22.84183,33198
22.84995,34758
22.85807,34014
22.86620,33081
22.87432,34936
22.88245,37949
22.89057,39228
22.89868,38974
22.90682,38476
22.91493,43278
22.92305,44579
22.93118,54672
22.93930,53800
22.94743,61792
22.95555,65131
22.96367,58799
22.97180,58231
22.97992,60953
22.98805,55306
22.99617,53529
23.00428,52667
23.01242,49588
23.02053,45010
23.02865,43790
23.03678,45015
23.04490,41047
23.05303,38782
23.06115,38526
23.06927,38515
23.07740,37009
23.08552,40045
23.09365,40536
23.10177,38906
23.10988,41309
23.11802,36584
23.12613,40978
23.13427,38901
23.14238,32829
23.15050,34818
23.15863,30569
23.16675,30941
23.17487,35653
23.18300,34779
23.19112,33741
23.19925,37838
23.20737,39082
23.21548,33517
23.22362,36847
23.23173,36947
23.23987,36765
23.24798,38779
23.25610,46380
23.26423,52034
23.27235,53896
23.28047,48915
23.28860,52963
23.29672,43114
23.30485,45540
23.31297,39135
23.32108,36255
23.32922,38618
23.33733,35172
23.34547,36463
23.35358,32100
23.36170,40085
23.36983,45570
23.37795,44036
23.38608,46110
23.39420,46300
23.40232,46596
23.41045,40068
23.41857,44501
23.42668,39470
23.43482,44804
23.44293,42063
23.45107,41508
23.45918,43668
23.46730,37720
23.47543,41111
23.48355,37944
23.49168,36144
23.49980,37650
23.50792,40804
23.51605,40073
23.52417,41532
23.53230,38875
23.54042,41202
23.54853,42805
23.55667,42354
23.56478,39967
23.57290,43805
23.58103,50015
23.58915,51305
23.59728,60541
23.60540,76933
23.61352,86481
23.62165,89997
23.62977,96470
23.63790,121135
23.64602,171651
23.65413,280289
23.66227,429908
23.67038,592752
23.67850,701125
23.68663,695245
23.69475,618816
23.70288,476544
23.71100,351832
23.71912,258741
23.72725,189480
23.73537,148987
23.74350,120253
23.75162,102272
23.75973,112069
23.76787,157360
23.77598,284461
23.78412,534329
23.79223,956208
23.80035,1427444
23.80848,1718400
23.81660,1831672
23.82472,1544912
23.83285,1205112
23.84097,933102
23.84910,697497
23.85722,523559
23.86533,429180
23.87347,353061
23.88158,289808
23.88972,252390
23.89783,226091
23.90595,199212
23.91408,181949
23.92220,168089
23.93033,157145
23.93845,144534
23.94657,142562
23.95470,129811
23.96282,123439
23.97093,116970
23.97907,117722
23.98718,110492
23.99532,105103
24.00343,104554
24.01155,101996
24.01968,102459
24.02780,105408
24.03593,117355
24.04405,130103
24.05217,136130
24.06030,138365
24.06842,146173
24.07653,133364
24.08467,127741
24.09278,118767
24.10092,101612
24.10903,89180
24.11715,90795
24.12528,87154
24.13340,83929
24.14153,92298
24.14965,103129
24.15777,110781
24.16590,117172
24.17402,112681
24.18215,101426
24.19027,89308
24.19838,82810
24.20652,73797
24.21463,72389
24.22275,78590
24.23088,72378
24.23900,71981
24.24713,64300
24.25525,66228
24.26337,66969
24.27150,62280
24.27962,65809
24.28775,56917
24.29587,56300
24.30398,52537
24.31212,54240
24.32023,57269
24.32835,53569
24.33648,54574
24.34460,54040
24.35273,52033
24.36085,51958
24.36897,55775
24.37710,54644
24.38522,53560
24.39335,60366
24.40147,61407
24.40958,70900
24.41772,78494
24.42583,84385
24.43397,79466
24.44208,73591
24.45020,61432
24.45833,54992
24.46645,54333
24.47457,51085
24.48270,48477
24.49082,48511
24.49895,50441
24.50707,50121
24.51518,56413
24.52332,55334
24.53143,59273
24.53957,54413
24.54768,56144
24.55580,57682
24.56393,53453
24.57205,52665
24.58018,50617
24.58830,46617
24.59642,47400
24.60455,47843
24.61267,43667
24.62078,47222
24.62892,50484
24.63703,52659
24.64517,52992
24.65328,50265
24.66140,50922
24.66953,45084
24.67765,42676
24.68578,52017
24.69390,45463
24.70202,45560
24.71015,46404
24.71827,45501
24.72638,40630
24.73452,43665
24.74263,45452
24.75077,41802
24.75888,39483
24.76700,40800
24.77513,39936
24.78325,45372
24.79138,41596
24.79950,37635
24.80762,40121
24.81575,38052
24.82387,39622
24.83200,36860
24.84012,38417
24.84823,39207
24.85637,36781
24.86448,40858
24.87260,42260
24.88073,41881
24.88885,38238
24.89698,39782
24.90510,38951
24.91322,41699
24.92135,42487
24.92947,41277
24.93760,41536
24.94572,39275
24.95383,39891
24.96197,37032
24.97008,42594
24.97822,33982
24.98633,37678
24.99445,37110
25.00258,31947
25.01070,35172
25.01882,33957
25.02695,36319
25.03507,36175
25.04320,36705
25.05132,36694
25.05943,35622
25.06757,32339
25.07568,41174
25.08382,36942
25.09193,37224
25.10005,37643
25.10818,35340
25.11630,35509
25.12442,38971
25.13255,39441
25.14067,43313
25.14880,43558
25.15692,47803
25.16503,51123
25.17317,52161
25.18128,53481
25.18942,47628
25.19753,50881
25.20565,44360
25.21378,42684
25.22190,43663
25.23003,44234
25.23815,37894
25.24627,37808
25.25440,42690
25.26252,42123
25.27063,38396
25.27877,38249
25.28688,38283
25.29502,38312
25.30313,42140
25.31125,49182
25.31938,49004
25.32750,47377
25.33563,46685
25.34375,47216
25.35187,43440
25.36000,41752
25.36812,42917
25.37625,39696
25.38437,36832
25.39248,38687
25.40062,34467
25.40873,35501
25.41685,34853
25.42498,37552
25.43310,33944
25.44123,38784
25.44935,36496
25.45747,34800
25.46560,31624
25.47372,31234
25.48185,35939
25.48997,36893
25.49808,39653
25.50622,39440
25.51433,40690
25.52245,41912
25.53058,41279
25.53870,39093
25.54683,36805
25.55495,38344
25.56307,35095
25.57120,35504
25.57932,39314
25.58745,34704
25.59557,34785
25.60368,32457
25.61182,35127
25.61993,34463
25.62807,33583
25.63618,41346
25.64430,41847
25.65243,44275
25.66055,49607
25.66867,50322
25.67680,45395
25.68492,44132
25.69305,45447
25.70117,35294
25.70928,40389
25.71742,40536
25.72553,35610
25.73367,39332
25.74178,43247
25.74990,50731
25.75803,48318
25.76615,48818
25.77427,52706
25.78240,46097
25.79052,43750
25.79865,42139
25.80677,42990
25.81488,38906
25.82302,41107
25.83113,48681
25.83927,54127
25.84738,50565
25.85550,54443
25.86363,50309
25.87175,46639
25.87988,43036
25.88800,38425
25.89612,35971
25.90425,36149
25.91237,36153
25.92048,35936
25.92862,33151
25.93673,35258
25.94487,35170
25.95298,37965
25.96110,35070
25.96923,35171
25.97735,34601
25.98548,32634
25.99360,34616
26.00172,33545
26.00985,34808
26.01797,30966
26.02610,31866
26.03422,31144
26.04233,34386
26.05047,32102
26.05858,30578
26.06670,28346
26.07483,30004
26.08295,30429
26.09108,32556
26.09920,37691
26.10732,32607
26.11545,33271
26.12357,32588
26.13170,41179
26.13982,39788
26.14793,44858
26.15607,44252
26.16418,48709
26.17230,48506
26.18043,45559
26.18855,45656
26.19668,39194
26.20480,42295
26.21292,37848
26.22105,36107
26.22917,37520
26.23730,33600
26.24542,35355
26.25353,32639
26.26167,33298
26.26978,32637
26.27792,32375
26.28603,33358
26.29415,34227
26.30228,34927
26.31040,32102
26.31852,31248
26.32665,34665
26.33477,32985
26.34290,33010
26.35102,31612
26.35913,32581
26.36727,29734
26.37538,31669
26.38352,30451
26.39163,29359
26.39975,32805
26.40788,33981
26.41600,34731
26.42413,33532
26.43225,32330
26.44037,31462
26.44850,32291
26.45662,32139
26.46473,30812
26.47287,31115
26.48098,32859
26.48912,32540
26.49723,31581
26.50535,31772
26.51348,29623
26.52160,28526
26.52973,30853
26.53785,30535
26.54597,30440
26.55410,27224
26.56222,30179
26.57033,31990
26.57847,30704
26.58658,30691
26.59472,31222
26.60283,30409
26.61095,28750
26.61908,28660
26.62720,30465
26.63533,27059
26.64345,32683
26.65157,29370
26.65970,36392
26.66782,32375
26.67595,34354
26.68407,35203
26.69218,37563
26.70032,40178
26.70843,34295
26.71655,37695
26.72468,33808
26.73280,31190
26.74093,33728
26.74905,33395
26.75717,33983
26.76530,38578
26.77342,33835
26.78155,31526
26.78967,32022
26.79778,32901
26.80592,33994
26.81403,35473
26.82215,35908
26.83028,36597
26.83840,36750
26.84653,35170
26.85465,37158
26.86277,40066
26.87090,32309
26.87902,37437
26.88715,35891
26.89527,34510
26.90338,32805
26.91152,31757
26.91963,33953
26.92777,36243
26.93588,36803
26.94400,31886
26.95213,31543
26.96025,34567
26.96837,58067
26.97650,94425
26.98462,213173
26.99275,528589
27.00087,1254017
27.00898,2590117
27.01712,4277583
27.02523,5494626
27.03337,5523900
27.04148,4596710
27.04960,3250730
27.05773,2074587
27.06585,1202559
27.07398,748310
27.08210,489487
27.09022,369138
27.09835,282773
27.10647,230887
27.11458,201744
27.12272,176903
27.13083,161942
27.13897,149456
27.14708,140527
27.15520,135559
27.16333,124894
27.17145,116317
27.17958,115039
27.18770,110541
27.19582,105156
27.20395,99865
27.21207,94185
27.22020,95295
27.22832,88245
27.23643,81416
27.24457,87266
27.25268,78487
27.26080,80510
27.26893,79148
27.27705,73200
27.28518,76314
27.29330,68102
27.30142,69777
27.30955,67900
27.31767,66606
27.32580,62952
27.33392,63352
27.34203,67794
27.35017,62374
27.35828,64945
27.36640,62048
27.37453,58433
27.38265,62715
27.39078,61491
27.39890,56445
27.40702,59408
27.41515,59445
27.42327,57233
27.43140,55505
27.43952,62300
27.44763,54719
27.45577,55347
27.46388,52020
27.47202,54045
27.48013,53355
27.48825,52056
27.49638,50740
27.50450,46783
27.51262,52295
27.52075,55266
27.52887,51831
27.53700,49209
27.54512,46765
27.55323,50885
27.56137,50663
27.56948,50263
27.57762,49774
27.58573,44786
27.59385,52238
27.60198,51012
27.61010,47728
27.61822,48941
27.62635,51211
27.63447,47515
27.64260,48923
27.65072,46734
27.65883,45648
27.66697,45456
27.67508,46661
27.68322,48146
27.69133,43668
27.69945,42801
27.70758,45916
27.71570,48018
27.72383,46506
27.73195,45672
27.74007,44179
27.74820,45167
27.75632,41859
27.76443,43349
27.77257,41650
27.78068,42359
27.78882,39801
27.79693,44193
27.80505,42447
27.81318,44443
27.82130,44811
27.82943,43635
27.83755,48016
27.84567,49709
27.85380,46936
27.86192,48999
27.87003,46523
27.87817,43749
27.88628,50787
27.89442,40833
27.90253,41393
27.91065,43069
27.91878,41041
27.92690,35879
27.93503,39593
27.94315,39270
27.95127,42666
27.95940,42136
27.96752,42737
27.97565,41444
27.98377,40498
27.99188,38571
28.00002,41379
28.00813,41690
28.01625,47072
28.02438,44522
28.03250,44116
28.04063,41002
28.04875,40958
28.05687,38491
28.06500,40507
28.07312,42088
28.08125,39879
28.08937,44197
28.09748,40577
28.10562,39528
28.11373,42818
28.12187,42882
28.12998,40754
28.13810,48394
28.14623,44930
28.15435,39681
28.16247,39406
28.17060,38353
28.17872,36444
28.18685,39657
28.19497,45176
28.20308,42070
28.21122,42101
28.21933,47526
28.22747,52826
28.23558,55741
28.24370,50937
28.25183,52567
28.25995,46479
28.26808,50257
28.27620,44732
28.28432,39223
28.29245,44655
28.30057,46565
28.30868,39925
28.31682,44440
28.32493,44453
28.33307,46075
28.34118,49552
28.34930,51400
28.35743,56903
28.36555,64225
28.37368,73535
28.38180,76612
28.38992,79742
28.39805,78925
28.40617,84533
28.41428,92383
28.42242,95395
28.43053,97000
28.43867,110402
28.44678,121611
28.45490,127561
28.46303,123926
28.47115,118611
28.47928,92220
28.48740,89007
28.49552,76413
28.50365,67177
28.51177,63964
28.51990,63548
28.52802,59421
28.53613,57062
28.54427,53795
28.55238,54576
28.56050,48035
28.56863,49512
28.57675,50798
28.58488,50440
28.59300,46499
28.60112,51560
28.60925,48279
28.61737,48292
28.62550,49167
28.63362,50561
28.64173,50825
28.64987,50454
28.65798,52108
28.66610,58867
28.67423,59622
28.68235,57602
28.69048,56729
28.69860,54361
28.70672,51579
28.71485,51885
28.72297,49179
28.73110,43467
28.73922,48518
28.74733,42723
28.75547,43151
28.76358,45236
28.77172,47587
28.77983,48007
28.78795,60425
28.79608,58403
28.80420,59305
28.81232,50360
28.82045,51566
28.82857,46618
28.83670,42868
28.84482,48222
28.85293,40117
28.86107,41325
28.86918,40077
28.87732,40096
28.88543,43868
28.89355,38457
28.90168,38001
28.90980,42588
28.91793,43029
28.92605,41729
28.93417,41681
28.94230,44280
28.95042,41545
28.95853,45192
28.96667,51461
28.97478,48254
28.98292,50297
28.99103,48299
28.99915,45077
29.00728,42259
29.01540,39048
29.02353,40051
29.03165,40397
29.03977,40138
29.04790,35947
29.05602,39164
29.06413,39104
29.07227,38267
29.08038,39048
29.08852,40252
29.09663,41279
29.10475,40001
29.11288,36600
29.12100,34913
29.12913,36905
29.13725,39869
29.14537,37023
29.15350,38113
29.16162,42352
29.16975,42826
29.17787,38290
29.18598,42811
29.19412,45869
29.20223,44208
29.21035,38804
29.21848,46015
29.22660,46154
29.23473,39577
29.24285,41929
29.25097,44518
29.25910,49419
29.26722,47729
29.27535,48520
29.28347,49814
29.29158,46524
29.29972,47229
29.30783,41546
29.31597,42154
29.32408,44849
29.33220,43197
29.34033,37366
29.34845,35230
29.35657,44845
29.36470,36633
29.37282,37377
29.38095,39957
29.38907,44607
29.39718,44248
29.40532,40611
29.41343,45959
29.42157,47776
29.42968,47890
29.43780,52857
29.44593,52355
29.45405,52079
29.46217,45145
29.47030,41212
29.47842,40239
29.48655,36280
29.49467,40397
29.50278,39189
29.51092,43244
29.51903,50435
29.52717,41872
29.53528,41698
29.54340,41791
29.55153,43937
29.55965,39766
29.56778,38599
29.57590,39723
29.58402,38476
29.59215,40323
29.60027,38170
29.60838,31613
29.61652,38258
29.62463,36667
29.63277,40339
29.64088,31451
29.64900,34165
29.65713,41738
29.66525,37836
29.67338,38857
29.68150,36122
29.68962,35464
29.69775,36599
29.70587,36696
29.71398,42501
29.72212,48420
29.73023,58040
29.73837,67362
29.74648,74774
29.75460,77527
29.76273,73650
29.77085,78179
29.77898,65426
29.78710,56879
29.79522,48992
29.80335,41368
29.81147,36334
29.81960,39177
29.82772,40203
29.83583,39521
29.84397,39163
29.85208,43516
29.86020,48385
29.86833,67412
29.87645,123624
29.88458,230027
29.89270,403815
29.90082,651104
29.90895,877973
29.91707,938805
29.92520,815914
29.93332,597488
29.94143,377633
29.94957,213703
29.95768,129846
29.96582,88021
29.97393,76109
29.98205,70587
29.99018,74114
29.99830,70575
30.00642,81735
30.01455,86274
30.02267,86202
30.03080,88393
30.03892,83781
30.04703,81620
30.05517,79333
30.06328,73013
30.07142,80430
30.07953,69514
30.08765,71495
30.09578,72330
30.10390,73628
30.11202,69957
30.12015,67749
30.12827,66518
30.13640,63156
30.14452,65628
30.15263,56481
30.16077,57087
30.16888,56148
30.17702,55418
30.18513,53171
30.19325,52899
30.20138,47973
30.20950,49176
30.21763,52503
30.22575,49210
30.23387,49330
30.24200,48541
30.25012,45595
30.25823,48253
30.26637,47653
30.27448,45734
30.28262,47535
30.29073,47997
30.29885,44491
30.30698,44356
30.31510,40715
30.32323,42997
30.33135,42405
30.33947,41281
30.34760,44060
30.35572,46263
30.36385,41643
30.37197,43502
30.38008,43630
30.38822,39914
30.39633,49226
30.40445,40550
30.41258,39901
30.42070,41833
30.42883,40231
30.43695,37842
30.44507,37588
30.45320,39221
30.46132,39791
30.46945,39030
30.47757,39533
30.48568,37200
30.49382,40508
30.50193,38019
30.51005,38807
30.51818,37883
30.52630,37542
30.53443,37106
30.54255,36680
30.55067,38999
30.55880,37937
30.56692,37911
30.57505,39016
30.58317,37870
30.59128,38351
30.59942,37230
30.60753,37462
30.61567,42363
30.62378,40404
30.63190,39558
30.64003,39268
30.64815,35792
30.65627,37001
30.66440,37087
30.67252,37304
30.68065,35305
30.68877,42563
30.69688,37733
30.70502,36314
30.71313,35037
30.72127,35623
30.72938,34585
30.73750,38899
30.74563,37606
30.75375,37408
30.76188,37744
30.77000,41447
30.77812,42479
30.78625,46097
30.79437,54454
30.80248,61982
30.81062,77089
30.81873,84072
30.82687,84945
30.83498,80784
30.84310,73905
30.85123,57668
30.85935,51857
30.86748,46278
30.87560,42763
30.88372,39595
30.89185,50188
30.89997,40344
30.90808,38510
30.91622,39649
30.92433,38273
30.93247,41001
30.94058,37917
30.94870,40905
30.95683,39423
30.96495,36531
30.97308,38618
30.98120,39192
30.98932,40909
30.99745,40956
31.00557,39845
31.01370,46659
31.02182,52381
31.02993,57450
31.03807,67564
31.04618,71495
31.05430,74795
31.06243,69455
31.07055,66265
31.07868,61815
31.08680,70051
31.09492,90987
31.10305,130116
31.11117,174897
31.11930,199285
31.12742,210874
31.13553,183971
31.14367,139738
31.15178,103125
31.15990,73450
31.16803,61831
31.17615,56311
31.18428,51449
31.19240,55348
31.20052,61715
31.20865,77136
31.21677,88040
31.22490,103293
31.23302,113014
31.24113,111649
31.24927,105717
31.25738,88001
31.26552,70603
31.27363,61219
31.28175,46242
31.28988,42662
31.29800,44421
31.30612,39463
31.31425,37698
31.32237,42537
31.33050,41494
31.33862,41332
31.34673,38023
31.35487,39323
31.36298,41745
31.37112,44436
31.37923,47591
31.38735,52786
31.39548,55397
31.40360,59289
31.41173,57269
31.41985,50481
31.42797,50078
31.43610,42965
31.44422,43661
31.45233,44294
31.46047,44310
31.46858,39431
31.47672,41481
31.48483,41570
31.49295,41584
31.50108,44629
31.50920,35869
31.51733,42099
31.52545,39278
31.53357,38828
31.54170,38391
31.54982,36413
31.55793,36034
31.56607,37161
31.57418,38889
31.58232,37234
31.59043,36530
31.59855,36959
31.60668,37875
31.61480,39532
31.62293,37831
31.63105,34495
31.63917,36476
31.64730,37273
31.65542,42633
31.66355,39341
31.67167,39808
31.67978,37852
31.68792,34306
31.69603,41026
31.70415,43251
31.71228,38203
31.72040,37509
31.72853,38477
31.73665,39330
31.74477,36421
31.75290,38494
31.76102,39495
31.76915,44533
31.77727,35666
31.78538,39487
31.79352,38974
31.80163,42913
31.80977,42667
31.81788,47240
31.82600,46748
31.83413,45198
31.84225,44433
31.85037,40548
31.85850,42715
31.86662,45698
31.87475,46544
31.88287,46000
31.89098,48436
31.89912,43686
31.90723,48807
31.91537,49565
31.92348,53424
31.93160,52342
31.93973,60775
31.94785,56852
31.95597,56763
31.96410,50423
31.97222,52596
31.98035,58868
31.98847,58389
31.99658,55197
32.00472,57761
32.01283,53534
32.02097,58720
32.02908,54144
32.03720,50476
32.04533,54598
32.05345,48447
32.06158,52994
32.06970,49589
32.07782,56248
32.08595,48844
32.09407,55391
32.10218,51089
32.11032,46212
32.11843,43830
32.12657,47248
32.13468,42145
32.14280,43518
32.15093,38499
32.15905,45677
32.16718,43749
32.17530,41337
32.18342,37018
32.19155,43605
32.19967,41365
32.20778,44120
32.21592,42616
32.22403,42520
32.23217,42403
32.24028,41457
32.24840,37753
32.25653,40379
32.26465,42054
32.27278,44583
32.28090,48417
32.28902,46802
32.29715,48627
32.30527,50476
32.31340,60009
32.32152,93132
32.32963,174932
32.33777,318459
32.34588,632740
32.35400,1184299
32.36213,1896680
32.37025,2437956
32.37838,2431527
32.38650,1990011
32.39462,1449682
32.40275,910855
32.41087,566223
32.41900,360499
32.42712,241766
32.43523,188823
32.44337,156744
32.45148,134979
32.45962,121858
32.46773,111611
32.47585,103751
32.48398,101500
32.49210,87702
32.50022,87762
32.50835,85978
32.51647,86276
32.52460,77918
32.53272,72604
32.54083,69165
32.54897,74332
32.55708,76844
32.56522,77705
32.57333,66630
32.58145,66049
32.58958,63334
32.59770,65508
32.60582,65454
32.61395,62046
32.62207,57969
32.63020,62465
32.63832,54652
32.64643,58747
32.65457,56792
32.66268,60259
32.67082,62692
32.67893,63864
32.68705,64485
32.69518,66887
32.70330,70083
32.71143,71752
32.71955,69359
32.72767,61905
32.73580,55868
32.74392,60598
32.75203,59305
32.76017,53382
32.76828,53884
32.77642,54119
32.78453,59128
32.79265,50641
32.80078,49879
32.80890,48949
32.81703,52808
32.82515,52973
32.83327,50555
32.84140,51231
32.84952,49399
32.85765,49491
32.86577,51265
32.87388,49021
32.88202,46851
32.89013,47519
32.89825,50138
32.90638,45635
32.91450,45930
32.92263,48657
32.93075,46550
32.93887,46013
32.94700,48215
32.95512,50303
32.96325,50581
32.97137,48675
32.97948,48855
32.98762,50771
32.99573,42274
33.00385,47853
33.01198,48344
33.02010,51592
33.02823,52494
33.03635,47896
33.04447,48308
33.05260,46305
33.06072,45298
33.06885,48173
33.07697,48127
33.08508,54097
33.09322,63236
33.10133,91916
33.10947,123717
33.11758,188211
33.12570,247698
33.13383,282437
33.14195,267270
33.15007,215439
33.15820,149183
33.16632,107124
33.17445,77249
33.18257,63148
33.19068,58396
33.19882,56942
33.20693,57741
33.21507,55861
33.22318,58184
33.23130,56547
33.23943,51749
33.24755,55381
33.25567,53889
33.26380,52978
33.27192,54537
33.28005,55647
33.28817,55977
33.29628,57269
33.30442,56727
33.31253,57493
33.32067,58306
33.32878,52362
33.33690,52230
33.34503,60565
33.35315,54604
33.36128,52810
33.36940,56803
33.37752,57615
33.38565,53666
33.39377,57176
33.40188,50722
33.41002,53509
33.41813,55386
33.42627,58519
33.43438,56313
33.44250,54489
33.45063,54538
33.45875,56477
33.46688,52651
33.47500,50749
33.48312,50754
33.49125,55409
33.49937,48187
33.50750,46642
33.51562,49075
33.52373,44114
33.53187,47753
33.53998,48464
33.54810,49521
33.55623,48872
33.56435,42610
33.57248,45170
33.58060,45993
33.58872,45647
33.59685,46024
33.60497,46381
33.61310,50001
33.62122,46944
33.62933,48060
33.63747,48997
33.64558,49386
33.65372,51718
33.66183,52496
33.66995,48352
33.67808,48945
33.68620,53556
33.69432,54732
33.70245,61951
33.71057,60793
33.71870,62716
33.72682,64098
33.73493,57802
33.74307,56966
33.75118,49993
33.75932,48083
33.76743,48549
33.77555,44623
33.78368,44594
33.79180,49127
33.79992,47029
33.80805,46679
33.81617,46933
33.82430,41611
33.83242,43732
33.84053,45560
33.84867,50685
33.85678,47213
33.86492,47908
33.87303,42392
33.88115,48552
33.88928,45743
33.89740,44874
33.90553,46487
33.91365,52934
33.92177,48739
33.92990,48708
33.93802,47389
33.94613,47354
33.95427,46380
33.96238,48145
33.97052,45980
33.97863,47231
33.98675,46585
33.99488,45664
34.00300,45089
34.01113,40855
34.01925,43610
34.02737,51299
34.03550,47418
34.04362,46339
34.05173,48891
34.05987,47571
34.06798,44942
34.07612,45694
34.08423,47028
34.09235,54635
34.10048,46290
34.10860,45327
34.11673,43593
34.12485,46436
34.13297,44429
34.14110,45793
34.14922,46729
34.15735,44727
34.16547,41207
34.17358,44629
34.18172,44894
34.18983,43107
34.19795,49353
34.20608,43057
34.21420,48375
34.22233,43012
34.23045,44386
34.23857,44402
34.24670,44306
34.25482,42886
34.26295,44176
34.27107,44570
34.27918,46515
34.28732,45136
34.29543,46602
34.30357,43984
34.31168,47162
34.31980,45890
34.32793,47322
34.33605,46176
34.34417,47377
34.35230,46210
34.36042,47928
34.36855,46139
34.37667,42670
34.38478,44448
34.39292,42871
34.40103,43158
34.40917,43147
34.41728,47980
34.42540,44962
34.43353,42130
34.44165,42689
34.44977,41117
34.45790,43901
34.46602,42977
34.47415,42389
34.48227,43995
34.49038,42343
34.49852,46025
34.50663,46871
34.51477,49564
34.52288,49669
34.53100,48454
34.53913,49977
34.54725,52878
34.55538,58028
34.56350,62290
34.57162,63133
34.57975,64672
34.58787,59749
34.59598,58115
34.60412,56765
34.61223,53907
34.62037,51349
34.62848,51705
34.63660,50930
34.64473,55008
34.65285,48827
34.66098,50688
34.66910,47840
34.67722,46534
34.68535,48226
34.69347,46539
34.70160,45285
34.70972,45412
34.71783,47386
34.72597,43948
34.73408,50140
34.74220,46166
34.75033,47333
34.75845,46383
34.76658,43019
34.77470,46151
34.78282,48233
34.79095,47424
34.79907,49691
34.80720,45960
34.81532,42073
34.82343,48456
34.83157,45827
34.83968,43936
34.84780,45222
34.85593,44862
34.86405,48972
34.87218,48832
34.88030,48878
34.88842,49988
34.89655,45488
34.90467,44151
34.91280,42896
34.92092,46853
34.92903,52289
34.93717,48284
34.94528,59828
34.95342,83730
34.96153,120255
34.96965,191714
34.97778,286351
34.98590,369676
34.99402,410707
35.00215,349380
35.01027,265849
35.01840,171641
35.02652,113028
35.03463,83835
35.04277,67175
35.05088,64977
35.05902,57135
35.06713,56750
35.07525,63270
35.08338,62186
35.09150,57458
35.09962,55167
35.10775,56378
35.11587,56004
35.12400,52368
35.13212,54369
35.14023,50140
35.14837,56285
35.15648,51148
35.16462,54180
35.17273,54220
35.18085,51701
35.18898,52804
35.19710,49815
35.20523,44748
35.21335,47334
35.22147,48943
35.22960,47293
35.23772,50129
35.24583,51474
35.25397,51447
35.26208,48643
35.27022,49862
35.27833,47871
35.28645,50477
35.29458,47827
35.30270,47304
35.31083,44959
35.31895,49767
35.32707,51046
35.33520,48012
35.34332,48884
35.35145,47593
35.35957,53689
35.36768,47860
35.37582,49417
35.38393,45990
35.39205,44898
35.40018,42729
35.40830,49755
35.41643,45097
35.42455,49342
35.43267,47305
35.44080,51581
35.44892,50710
35.45705,50769
35.46517,50127
35.47328,52012
35.48142,47890
35.48953,52585
35.49765,56808
35.50578,52830
35.51390,51036
35.52203,52043
35.53015,48210
35.53827,53370
35.54640,52958
35.55452,53185
35.56265,48886
35.57077,50741
35.57888,48692
35.58702,51709
35.59513,49760
35.60327,49112
35.61138,53806
35.61950,53759
35.62763,53996
35.63575,59063
35.64387,57879
35.65200,47798
35.66012,51750
35.66825,48922
35.67637,49426
35.68448,48273
35.69262,49337
35.70073,49014
35.70887,52516
35.71698,48736
35.72510,50254
35.73323,52904
35.74135,50739
35.74948,48712
35.75760,47854
35.76572,48232
35.77385,47082
35.78197,55731
35.79008,47017
35.79822,50988
35.80633,45976
35.81447,46893
35.82258,50332
35.83070,50063
35.83883,49339
35.84695,49346
35.85508,51537
35.86320,49416
35.87132,50639
35.87945,51709
35.88757,47524
35.89568,46397
35.90382,51771
35.91193,43725
35.92007,48913
35.92818,47770
35.93630,48613
35.94443,50942
35.95255,54165
35.96068,50739
35.96880,50915
35.97692,49209
35.98505,48546
35.99317,51899
36.00130,52594
36.00942,53880
36.01753,47013
36.02567,56623
36.03378,53189
36.04190,50721
36.05003,52128
36.05815,50190
36.06628,51299
36.07440,50690
36.08252,49863
36.09065,53481
36.09877,50531
36.10690,57116
36.11502,51169
36.12313,50192
36.13127,52998
36.13938,52432
36.14752,50810
36.15563,53367
36.16375,56551
36.17188,55363
36.18000,56485
36.18812,51947
36.19625,50295
36.20437,51474
36.21250,53675
36.22062,53403
36.22873,43935
36.23687,47198
36.24498,47958
36.25312,45913
36.26123,48475
36.26935,46619
36.27748,44824
36.28560,51082
36.29372,46625
36.30185,47372
36.30997,49690
36.31810,53189
36.32622,53938
36.33433,53546
36.34247,55341
36.35058,54700
36.35872,50632
36.36683,47842
36.37495,48407
36.38308,52678
36.39120,49931
36.39933,52442
36.40745,52534
36.41557,48306
36.42370,52901
36.43182,51742
36.43993,50643
36.44807,49374
36.45618,55184
36.46432,52769
36.47243,49590
36.48055,47923
36.48868,47321
36.49680,48758
36.50493,46933
36.51305,48148
36.52117,51252
36.52930,45094
36.53742,43244
36.54553,48919
36.55367,48734
36.56178,48968
36.56992,48206
36.57803,51707
36.58615,51916
36.59428,53959
36.60240,49668
36.61053,46852
36.61865,50309
36.62677,46229
36.63490,49107
36.64302,49062
36.65115,47504
36.65927,48442
36.66738,51882
36.67552,46614
36.68363,48852
36.69175,50324
36.69988,51030
36.70800,47210
36.71613,50559
36.72425,48745
36.73237,50639
36.74050,51791
36.74862,51579
36.75675,47027
36.76487,50444
36.77298,53331
36.78112,47443
36.78923,50695
36.79737,52515
36.80548,51193
36.81360,51699
36.82173,53069
36.82985,52776
36.83797,50497
36.84610,48427
36.85422,50358
36.86235,53000
36.87047,51680
36.87858,51079
36.88672,53263
36.89483,48244
36.90297,50509
36.91108,46476
36.91920,51011
36.92733,46788
36.93545,52983
36.94357,46869
36.95170,50469
36.95982,54394
36.96795,48733
36.97607,52718
36.98418,55916
36.99232,50600
37.00043,51835
37.00857,56235
37.01668,56013
37.02480,55344
37.03293,52931
37.04105,54826
37.04918,51562
37.05730,53497
37.06542,48678
37.07355,47387
37.08167,55832
37.08978,52202
37.09792,58175
37.10603,50849
37.11417,50169
37.12228,52481
37.13040,55551
37.13853,54373
37.14665,57262
37.15478,55544
37.16290,55145
37.17102,52180
37.17915,53177
37.18727,54825
37.19540,54824
37.20352,57062
37.21163,53831
37.21977,54380
37.22788,57709
37.23600,54283
37.24413,59119
37.25225,61384
37.26038,63502
37.26850,57407
37.27662,60880
37.28475,59375
37.29287,54720
37.30100,57396
37.30912,55438
37.31723,58149
37.32537,50836
37.33348,54773
37.34160,55231
37.34973,57760
37.35785,59806
37.36598,59964
37.37410,60608
37.38222,63225
37.39035,61206
37.39847,62792
37.40660,57575
37.41472,63583
37.42283,58113
37.43097,61376
37.43908,60809
37.44722,54510
37.45533,57380
37.46345,58039
37.47158,60432
37.47970,54836
37.48782,59376
