C:\MassHunter\GCMS\1\data\JTB-E02\BACandBLUE\JTB-E18-011-09.D Tue Jun 18 12:30:20 2019
Start of data points
2.09515	76672
2.10327	76464
2.11140	79111
2.11952	75634
2.12763	76523
2.13577	68906
2.14388	72382
2.15200	69164
2.16013	72990
2.16825	70393
2.17638	73160
2.18450	67264
2.19262	64866
2.20075	64392
2.20887	66060
2.21700	58774
2.22512	59089
2.23323	62210
2.24137	62994
2.24948	60444
2.25760	62487
2.26573	66593
2.27385	247776
2.28198	1088936
2.29010	1141175
2.29822	538987
2.30635	323487
2.31447	263166
2.32260	223753
2.33072	199663
2.33883	191127
2.34697	171510
2.35508	155399
2.36322	142668
2.37133	141055
2.37945	134637
2.38758	133323
2.39570	127013
2.40382	127475
2.41195	129430
2.42007	126163
2.42820	128577
2.43632	124342
2.44443	121414
2.45257	118886
2.46068	114192
2.46882	111745
2.47693	112839
2.48505	104030
2.49318	129708
2.50130	147507
2.50943	131419
2.51755	121131
2.52567	116335
2.53380	114578
2.54192	109853
2.55003	118636
2.55817	158324
2.56628	268531
2.57442	245828
2.58253	173822
2.59065	144537
2.59878	137084
2.60690	203882
2.61503	556490
2.62315	733820
2.63127	454408
2.63940	287596
2.64752	221333
2.65563	188399
2.66377	167200
2.67188	157320
2.68002	139345
2.68813	144514
2.69625	131524
2.70438	132833
2.71250	127018
2.72063	120913
2.72875	121308
2.73687	115546
2.74500	114175
2.75312	114184
2.76125	110192
2.76937	116127
2.77748	136290
2.78562	413205
2.79373	846508
2.80185	715231
2.80998	412585
2.81810	321205
2.82623	301955
2.83435	268527
2.84247	237458
2.85060	203749
2.85872	183685
2.86685	157890
2.87497	163713
2.88308	152462
2.89122	138411
2.89933	136642
2.90747	130375
2.91558	127663
2.92370	120462
2.93183	117826
2.93995	116269
2.94807	116124
2.95620	117265
2.96432	121191
2.97245	122344
2.98057	121783
2.98868	115221
2.99682	119057
3.00493	130525
3.01307	132619
3.02118	132673
3.02930	118164
3.03743	112515
3.04555	105975
3.05367	108655
3.06180	107263
3.06992	106246
3.07805	122867
3.08617	368566
3.09428	1410166
3.10242	2713950
3.11053	3683369
3.11867	4155272
3.12678	3017095
3.13490	1875230
3.14303	1368698
3.15115	1076434
3.15928	880143
3.16740	739547
3.17552	679334
3.18365	668423
3.19177	900489
3.19988	1389406
3.20802	1346582
3.21613	975390
3.22427	743671
3.23238	624202
3.24050	553885
3.24863	484672
3.25675	439288
3.26488	393274
3.27300	358741
3.28112	351594
3.28925	444964
3.29737	1101817
3.30548	3076008
3.31362	5522500
3.32173	5988420
3.32987	4594426
3.33798	3054239
3.34610	2130596
3.35423	1579688
3.36235	1257621
3.37048	1045774
3.37860	906153
3.38672	792925
3.39485	714188
3.40297	656081
3.41110	595753
3.41922	578660
3.42733	558897
3.43547	520993
3.44358	536175
3.45170	505966
3.45983	484112
3.46795	489027
3.47608	504188
3.48420	523112
3.49232	483796
3.50045	455294
3.50857	435443
3.51670	416067
3.52482	413387
3.53293	427288
3.54107	433086
3.54918	427211
3.55732	398480
3.56543	392021
3.57355	405175
3.58168	427647
3.58980	417287
3.59792	387842
3.60605	372557
3.61417	356091
3.62230	372752
3.63042	365835
3.63853	399963
3.64667	391123
3.65478	382413
3.66292	556640
3.67103	2224166
3.67915	7487576
3.68728	1.226008E+07
3.69540	1.070904E+07
3.70352	6378903
3.71165	4001410
3.71977	3014380
3.72790	2516020
3.73602	2146834
3.74413	1896687
3.75227	1700090
3.76038	1530795
3.76852	1408223
3.77663	1309164
3.78475	1237027
3.79288	1149582
3.80100	1127068
3.80913	1355099
3.81725	1959092
3.82537	2362271
3.83350	1973648
3.84162	1529635
3.84973	1246921
3.85787	1118601
3.86598	1022820
3.87412	963892
3.88223	898672
3.89035	857919
3.89848	816322
3.90660	778507
3.91473	741231
3.92285	808271
3.93097	909377
3.93910	972556
3.94722	999493
3.95535	1679341
3.96347	3790655
3.97158	6241037
3.97972	6276731
3.98783	4297346
3.99595	3080212
4.00408	5412345
4.01220	1.316528E+07
4.02033	2.157238E+07
4.02845	2.129425E+07
4.03657	1.384857E+07
4.04470	7407507
4.05282	4381538
4.06095	3079161
4.06907	2441039
4.07718	1961402
4.08532	1685341
4.09343	1470517
4.10155	1311576
4.10968	1207168
4.11780	1081145
4.12593	1002562
4.13405	968772
4.14217	969086
4.15030	1018957
4.15842	1012715
4.16655	956930
4.17467	876595
4.18278	831451
4.19092	778337
4.19903	726088
4.20717	758804
4.21528	1431942
4.22340	4249183
4.23153	9656659
4.23965	1.379118E+07
4.24777	1.358549E+07
4.25590	9626675
4.26402	5912407
4.27215	4074130
4.28027	3063266
4.28838	2413797
4.29652	1961506
4.30463	1669879
4.31277	1423109
4.32088	1290737
4.32900	1174567
4.33713	1107768
4.34525	1014088
4.35337	974989
4.36150	981127
4.36962	1003115
4.37775	995115
4.38587	928791
4.39398	812384
4.40212	754932
4.41023	719779
4.41837	674866
4.42648	647057
4.43460	622870
4.44273	605230
4.45085	589065
4.45898	582787
4.46710	563536
4.47522	547604
4.48335	530929
4.49147	528796
4.49958	521656
4.50772	508438
4.51583	487497
4.52397	481753
4.53208	469457
4.54020	471530
4.54833	464163
4.55645	471220
4.56458	464785
4.57270	449466
4.58082	427546
4.58895	426650
4.59707	408232
4.60520	395602
4.61332	400966
4.62143	423501
4.62957	482704
4.63768	656643
4.64580	872802
4.65393	888073
4.66205	753722
4.67018	602320
4.67830	534504
4.68642	495906
4.69455	477803
4.70267	446289
4.71080	411387
4.71892	386231
4.72703	386988
4.73517	374224
4.74328	367468
4.75142	357286
4.75953	348796
4.76765	346063
4.77578	343544
4.78390	335491
4.79202	383561
4.80015	502677
4.80827	716147
4.81640	807699
4.82452	718051
4.83263	584578
4.84077	524333
4.84888	515309
4.85702	508192
4.86513	477898
4.87325	441011
4.88138	400692
4.88950	385949
4.89762	365779
4.90575	362885
4.91387	348874
4.92200	335760
4.93012	352224
4.93823	438709
4.94637	792032
4.95448	1591068
4.96262	2572972
4.97073	3171761
4.97885	3004183
4.98698	2326426
4.99510	1642733
5.00323	1165527
5.01135	883245
5.01947	764713
5.02760	701672
5.03572	700233
5.04383	765772
5.05197	792138
5.06008	714452
5.06822	637704
5.07633	573322
5.08445	539836
5.09258	528047
5.10070	496868
5.10883	481206
5.11695	476104
5.12507	458803
5.13320	435196
5.14132	442174
5.14943	449711
5.15757	487399
5.16568	543768
5.17382	598037
5.18193	598091
5.19005	543229
5.19818	524937
5.20630	537124
5.21443	574001
5.22255	569250
5.23067	528065
5.23880	502688
5.24692	491324
5.25505	454906
5.26317	422710
5.27128	385031
5.27942	363828
5.28753	356953
5.29565	348253
5.30378	347495
5.31190	343525
5.32003	341740
5.32815	342419
5.33627	371333
5.34440	388626
5.35252	401053
5.36065	380224
5.36877	356809
5.37688	347739
5.38502	347188
5.39313	370906
5.40127	390185
5.40938	383294
5.41750	377174
5.42563	362983
5.43375	337565
5.44187	335196
5.45000	333701
5.45812	351642
5.46625	356403
5.47437	348611
5.48248	331912
5.49062	314567
5.49873	296761
5.50687	291989
5.51498	290988
5.52310	299902
5.53123	293374
5.53935	287649
5.54747	305436
5.55560	314635
5.56372	403396
5.57185	528420
5.57997	664593
5.58808	655646
5.59622	563526
5.60433	450697
5.61247	371580
5.62058	338060
5.62870	323274
5.63683	321864
5.64495	330807
5.65308	318951
5.66120	310497
5.66932	310114
5.67745	298506
5.68557	324399
5.69368	335258
5.70182	346566
5.70993	340018
5.71807	329314
5.72618	302077
5.73430	293967
5.74243	273453
5.75055	264005
5.75868	265188
5.76680	255852
5.77492	261225
5.78305	256918
5.79117	250503
5.79930	245426
5.80742	247570
5.81553	246849
5.82367	259700
5.83178	255827
5.83990	244971
5.84803	254135
5.85615	253856
5.86428	256876
5.87240	251680
5.88052	243457
5.88865	238109
5.89677	242116
5.90490	241808
5.91302	219841
5.92113	204946
5.92927	214197
5.93738	197545
5.94550	191000
5.95363	197747
5.96175	219031
5.96988	245326
5.97800	285855
5.98612	343304
5.99425	380680
6.00237	383198
6.01050	329361
6.01862	281155
6.02673	244462
6.03487	228732
6.04298	205514
6.05112	189422
6.05923	188292
6.06735	186462
6.07548	180833
6.08360	179584
6.09172	176469
6.09985	176373
6.10797	186149
6.11610	191046
6.12422	221974
6.13233	262879
6.14047	377970
6.14858	499321
6.15672	538599
6.16483	484422
6.17295	369857
6.18108	302442
6.18920	257408
6.19732	246844
6.20545	246552
6.21357	230368
6.22170	221678
6.22982	221817
6.23793	221366
6.24607	217176
6.25418	240526
6.26232	245705
6.27043	264802
6.27855	255076
6.28668	233428
6.29480	230919
6.30293	216566
6.31105	209348
6.31917	209308
6.32730	234199
6.33542	270207
6.34353	294212
6.35167	302934
6.35978	280407
6.36792	254369
6.37603	233723
6.38415	229286
6.39228	231708
6.40040	225560
6.40853	222881
6.41665	221947
6.42477	222456
6.43290	220613
6.44102	224294
6.44915	227306
6.45727	223596
6.46538	218247
6.47352	220333
6.48163	217071
6.48975	218697
6.49788	228548
6.50600	222204
6.51413	229605
6.52225	228129
6.53037	222458
6.53850	230118
6.54662	234343
6.55475	237214
6.56287	258091
6.57098	317943
6.57912	432217
6.58723	545582
6.59535	543797
6.60348	463102
6.61160	366042
6.61973	303822
6.62785	272965
6.63597	270928
6.64410	289813
6.65222	426785
6.66035	887822
6.66847	1751719
6.67658	2530859
6.68472	2608941
6.69283	1976110
6.70097	1256036
6.70908	842266
6.71720	673509
6.72533	544226
6.73345	454845
6.74157	415401
6.74970	371776
6.75782	346693
6.76595	316250
6.77407	294982
6.78218	278412
6.79032	267426
6.79843	247732
6.80657	234573
6.81468	237320
6.82280	227715
6.83093	216434
6.83905	214721
6.84718	219436
6.85530	229723
6.86342	235100
6.87155	244817
6.87967	237807
6.88778	209454
6.89592	171711
6.90403	156250
6.91217	133537
6.92028	132753
6.92840	131265
6.93653	127280
6.94465	123225
6.95278	118151
6.96090	118935
6.96902	122737
6.97715	150597
6.98527	155115
6.99338	165002
7.00152	150664
7.00963	149623
7.01777	142163
7.02588	138367
7.03400	134688
7.04213	133505
7.05025	143712
7.05838	159365
7.06650	178846
7.07462	194548
7.08275	200865
7.09087	176739
7.09900	161125
7.10712	145204
7.11523	126011
7.12337	125058
7.13148	115328
7.13960	137918
7.14773	171982
7.15585	253500
7.16398	350991
7.17210	413491
7.18022	381825
7.18835	308086
7.19647	251739
7.20460	292228
7.21272	572584
7.22083	1153359
7.22897	1791157
7.23708	2046075
7.24522	1723702
7.25333	1123800
7.26145	675532
7.26958	438998
7.27770	297551
7.28582	211803
7.29395	158008
7.30207	143945
7.31020	141359
7.31832	128963
7.32643	136283
7.33457	137951
7.34268	139414
7.35082	129737
7.35893	130725
7.36705	122704
7.37518	121752
7.38330	120621
7.39142	128551
7.39955	123701
7.40767	120679
7.41580	119003
7.42392	113288
7.43203	112132
7.44017	114173
7.44828	116606
7.45642	114948
7.46453	107559
7.47265	111691
7.48078	106722
7.48890	104364
7.49703	103882
7.50515	105508
7.51327	111160
7.52140	138323
7.52952	230346
7.53763	458872
7.54577	821732
7.55388	1391106
7.56202	1957628
7.57013	2248081
7.57825	2183817
7.58638	1787872
7.59450	1294596
7.60263	859373
7.61075	546274
7.61887	358346
7.62700	271952
7.63512	214948
7.64323	183310
7.65137	165548
7.65948	146746
7.66762	126421
7.67573	122103
7.68385	122504
7.69198	108322
7.70010	104591
7.70823	103628
7.71635	106349
7.72447	111285
7.73260	106934
7.74072	105795
7.74885	116149
7.75697	120952
7.76508	127059
7.77322	133768
7.78133	135547
7.78945	136681
7.79758	145842
7.80570	147953
7.81383	159589
7.82195	151858
7.83007	148136
7.83820	135054
7.84632	127504
7.85445	112713
7.86257	114679
7.87068	132000
7.87882	144118
7.88693	159799
7.89507	171346
7.90318	173343
7.91130	156361
7.91943	142506
7.92755	131361
7.93567	133167
7.94380	161815
7.95192	167284
7.96005	164731
7.96817	147510
7.97628	130927
7.98442	117364
7.99253	99749
8.00067	94998
8.00878	89438
8.01690	88096
8.02503	87122
8.03315	92703
8.04127	86220
8.04940	81935
8.05752	85948
8.06565	82699
8.07377	84434
8.08188	79093
8.09002	81377
8.09813	79056
8.10627	82573
8.11438	79837
8.12250	79813
8.13063	84907
8.13875	96773
8.14688	109903
8.15500	128470
8.16312	132922
8.17125	123043
8.17937	106763
8.18748	94224
8.19562	87939
8.20373	80526
8.21187	82797
8.21998	84402
8.22810	82954
8.23623	86245
8.24435	85460
8.25248	80494
8.26060	86769
8.26872	79184
8.27685	72774
8.28497	71601
8.29310	73023
8.30122	77040
8.30933	77176
8.31747	83252
8.32558	92620
8.33370	98930
8.34183	93483
8.34995	88752
8.35808	86230
8.36620	79422
8.37432	81124
8.38245	82402
8.39057	82983
8.39870	83208
8.40682	78615
8.41493	71424
8.42307	73857
8.43118	65765
8.43930	65342
8.44743	65013
8.45555	67952
8.46368	67021
8.47180	65699
8.47992	70674
8.48805	66801
8.49617	63865
8.50430	67910
8.51242	78394
8.52053	92072
8.52867	153409
8.53678	276883
8.54492	403212
8.55303	484375
8.56115	425457
8.56928	302060
8.57740	192734
8.58552	138967
8.59365	112091
8.60177	118034
8.60990	124974
8.61802	128400
8.62613	118095
8.63427	111792
8.64238	95765
8.65052	87606
8.65863	83502
8.66675	73240
8.67488	74405
8.68300	72652
8.69112	73686
8.69925	79086
8.70737	79672
8.71550	83547
8.72362	77830
8.73173	75909
8.73987	78069
8.74798	79536
8.75612	115272
8.76423	213226
8.77235	431617
8.78048	787697
8.78860	1116007
8.79673	1223668
8.80485	1059882
8.81297	750011
8.82110	483684
8.82922	314264
8.83733	237133
8.84547	212672
8.85358	206017
8.86172	203659
8.86983	192090
8.87795	182828
8.88608	171149
8.89420	165108
8.90233	157793
8.91045	160186
8.91857	153506
8.92670	159621
8.93482	173190
8.94295	185501
8.95107	186165
8.95918	193819
8.96732	179344
8.97543	180439
8.98355	172334
8.99168	181251
8.99980	175476
9.00793	167356
9.01605	160207
9.02417	153345
9.03230	143464
9.04042	128815
9.04855	127095
9.05667	120725
9.06478	118156
9.07292	115478
9.08103	121068
9.08915	125249
9.09728	134422
9.10540	156276
9.11353	184988
9.12165	201862
9.12977	210505
9.13790	202968
9.14602	177257
9.15415	150946
9.16227	133011
9.17038	123234
9.17852	121168
9.18663	115203
9.19477	111467
9.20288	115487
9.21100	108238
9.21913	111098
9.22725	110886
9.23537	107401
9.24350	114040
9.25162	113968
9.25975	110707
9.26787	113241
9.27598	109929
9.28412	110014
9.29223	115354
9.30037	101254
9.30848	94555
9.31660	97806
9.32473	93851
9.33285	96321
9.34098	89024
9.34910	92533
9.35722	90788
9.36535	86393
9.37347	85871
9.38158	86933
9.38972	89727
9.39783	95057
9.40597	106940
9.41408	115088
9.42220	147453
9.43033	183739
9.43845	217108
9.44658	245458
9.45470	249574
9.46282	210767
9.47095	177423
9.47907	144452
9.48718	110510
9.49532	108889
9.50343	104425
9.51157	124388
9.51968	143602
9.52780	162905
9.53593	173106
9.54405	164615
9.55218	146764
9.56030	128782
9.56842	108665
9.57655	93173
9.58467	88722
9.59280	81512
9.60092	76313
9.60903	72798
9.61717	68965
9.62528	68470
9.63340	64719
9.64153	61206
9.64965	66058
9.65778	67833
9.66590	65436
9.67402	65512
9.68215	64507
9.69027	63049
9.69840	58542
9.70652	56716
9.71463	63121
9.72277	56445
9.73088	54722
9.73900	55432
9.74713	58385
9.75525	56107
9.76338	54212
9.77150	56579
9.77962	52040
9.78775	48591
9.79587	49935
9.80400	52572
9.81212	52517
9.82023	53170
9.82837	58543
9.83648	51927
9.84462	55747
9.85273	55661
9.86085	58862
9.86898	57694
9.87710	57338
9.88522	59090
9.89335	62333
9.90147	54133
9.90960	61032
9.91772	55537
9.92583	60960
9.93397	75223
9.94208	110372
9.95022	156682
9.95833	205878
9.96645	222708
9.97458	205199
9.98270	176341
9.99083	138608
9.99895	119386
10.00707	101926
10.01520	92261
10.02332	80702
10.03143	79868
10.03957	75078
10.04768	69605
10.05582	72833
10.06393	69830
10.07205	71129
10.08018	72563
10.08830	69863
10.09643	66262
10.10455	68903
10.11267	68520
10.12080	68903
10.12892	61768
10.13705	60988
10.14517	64187
10.15328	58214
10.16142	57424
10.16953	61318
10.17765	54736
10.18578	57978
10.19390	54976
10.20203	60876
10.21015	59418
10.21827	61606
10.22640	59651
10.23452	70472
10.24265	74581
10.25077	85147
10.25888	112432
10.26702	203297
10.27513	439057
10.28325	923069
10.29138	1686784
10.29950	2628098
10.30763	3669636
10.31575	5256496
10.32387	7530223
10.33200	9913572
10.34012	1.113725E+07
10.34825	1.056396E+07
10.35637	8282908
10.36448	6328773
10.37262	5093508
10.38073	4266585
10.38887	3431202
10.39698	2519993
10.40510	1694400
10.41323	1119099
10.42135	804015
10.42947	632501
10.43760	570707
10.44572	550513
10.45385	539590
10.46197	517668
10.47008	484752
10.47822	440848
10.48633	405925
10.49447	375704
10.50258	340551
10.51070	319622
10.51883	300137
10.52695	282759
10.53507	271813
10.54320	252756
10.55132	261253
10.55945	248544
10.56757	235559
10.57568	231008
10.58382	224556
10.59193	207296
10.60007	208674
10.60818	195715
10.61630	192143
10.62443	181520
10.63255	177023
10.64068	168717
10.64880	162825
10.65692	163631
10.66505	150725
10.67317	160033
10.68128	156438
10.68942	157116
10.69753	155718
10.70567	158396
10.71378	158235
10.72190	169360
10.73003	149979
10.73815	147487
10.74628	133392
10.75440	137839
10.76252	130013
10.77065	128665
10.77877	125986
10.78690	125243
10.79502	123475
10.80313	123249
10.81127	127863
10.81938	135735
10.82750	138630
10.83563	139026
10.84375	124048
10.85188	120521
10.86000	107592
10.86812	101904
10.87625	100136
10.88437	96585
10.89250	92228
10.90062	97644
10.90873	96954
10.91687	97753
10.92498	90708
10.93310	90528
10.94123	91609
10.94935	86978
10.95748	87552
10.96560	83497
10.97372	88110
10.98185	90632
10.98997	91453
10.99810	101338
11.00622	109001
11.01433	102918
11.02247	103166
11.03058	99854
11.03872	98744
11.04683	86389
11.05495	86773
11.06308	83015
11.07120	83879
11.07932	91732
11.08745	102257
11.09557	104151
11.10370	108451
11.11182	100766
11.11993	100485
11.12807	97807
11.13618	89524
11.14432	81975
11.15243	77867
11.16055	79822
11.16868	79319
11.17680	81460
11.18493	80975
11.19305	79647
11.20117	76257
11.20930	75789
11.21742	70354
11.22553	68898
11.23367	64355
11.24178	62921
11.24992	57215
11.25803	55588
11.26615	58103
11.27428	54377
11.28240	56787
11.29053	61525
11.29865	81339
11.30677	129625
11.31490	259102
11.32302	534732
11.33113	980843
11.33927	1538813
11.34738	1933268
11.35552	2038575
11.36363	1763534
11.37175	1306736
11.37988	872909
11.38800	582361
11.39613	427405
11.40425	347694
11.41237	313836
11.42050	283558
11.42862	263075
11.43675	228141
11.44487	198789
11.45298	184405
11.46112	172044
11.46923	157848
11.47735	149731
11.48548	150805
11.49360	163642
11.50173	170101
11.50985	167537
11.51797	168338
11.52610	151119
11.53422	140583
11.54235	129133
11.55047	122310
11.55858	124967
11.56672	123052
11.57483	112706
11.58295	113404
11.59108	118535
11.59920	119888
11.60733	151156
11.61545	170084
11.62357	179581
11.63170	176283
11.63982	150700
11.64795	137221
11.65607	121222
11.66418	103591
11.67232	98356
11.68043	103799
11.68857	108532
11.69668	114375
11.70480	132948
11.71293	137460
11.72105	126424
11.72917	114605
11.73730	99332
11.74542	92610
11.75355	83418
11.76167	84862
11.76978	76619
11.77792	74010
11.78603	70569
11.79417	70714
11.80228	67011
11.81040	70444
11.81853	62348
11.82665	64089
11.83478	62889
11.84290	66122
11.85102	63026
11.85915	60881
11.86727	62527
11.87538	60262
11.88352	60492
11.89163	63367
11.89977	55121
11.90788	57451
11.91600	62757
11.92413	70898
11.93225	73691
11.94038	69524
11.94850	71280
11.95662	71260
11.96475	65709
11.97287	77616
11.98098	122963
11.98912	235852
11.99723	414451
12.00537	670382
12.01348	876397
12.02160	881387
12.02973	745083
12.03785	532379
12.04598	355158
12.05410	253906
12.06222	177980
12.07035	161234
12.07847	153897
12.08660	149917
12.09472	147578
12.10283	153087
12.11097	195006
12.11908	228314
12.12720	305685
12.13533	375676
12.14345	432365
12.15158	422563
12.15970	353432
12.16782	265771
12.17595	190636
12.18407	157311
12.19220	128979
12.20032	125725
12.20843	129042
12.21657	115806
12.22468	113670
12.23282	115311
12.24093	108927
12.24905	102279
12.25718	108584
12.26530	104994
12.27342	100818
12.28155	99272
12.28967	93574
12.29780	93766
12.30592	91326
12.31403	88198
12.32217	84698
12.33028	81218
12.33842	81091
12.34653	73669
12.35465	76896
12.36278	74840
12.37090	81189
12.37902	79071
12.38715	80144
12.39527	89159
12.40340	102814
12.41152	114067
12.41963	122581
12.42777	133725
12.43588	133399
12.44402	127319
12.45213	118402
12.46025	110958
12.46838	97792
12.47650	94418
12.48463	92266
12.49275	88150
12.50087	87187
12.50900	84120
12.51712	83114
12.52523	86631
12.53337	115912
12.54148	201149
12.54962	354292
12.55773	590424
12.56585	796288
12.57398	869781
12.58210	734734
12.59023	540591
12.59835	337984
12.60647	231686
12.61460	166692
12.62272	142542
12.63085	123601
12.63897	120666
12.64708	104754
12.65522	98394
12.66333	93795
12.67145	87649
12.67958	80461
12.68770	82082
12.69583	76849
12.70395	73408
12.71207	71265
12.72020	70759
12.72832	70646
12.73645	76524
12.74457	84912
12.75268	73848
12.76082	71727
12.76893	77006
12.77705	63281
12.78518	64087
12.79330	60879
12.80143	60061
12.80955	55819
12.81767	60493
12.82580	55490
12.83392	50638
12.84205	54325
12.85017	49892
12.85828	51879
12.86642	47929
12.87453	55989
12.88267	47914
12.89078	48946
12.89890	46776
12.90703	49969
12.91515	48617
12.92327	47841
12.93140	53323
12.93952	50102
12.94765	57844
12.95577	84160
12.96388	141232
12.97202	230870
12.98013	332941
12.98827	401451
12.99638	370681
13.00450	301753
13.01263	202138
13.02075	145729
13.02887	103103
13.03700	87488
13.04512	77034
13.05325	73343
13.06137	66015
13.06948	68451
13.07762	65598
13.08573	59558
13.09387	63792
13.10198	56691
13.11010	59186
13.11823	57686
13.12635	51051
13.13448	56213
13.14260	52878
13.15072	53231
13.15885	52684
13.16697	54751
13.17508	54605
13.18322	57017
13.19133	58408
13.19947	56936
13.20758	61554
13.21570	62853
13.22383	63308
13.23195	65791
13.24008	65786
13.24820	58588
13.25632	58919
13.26445	54222
13.27257	53732
13.28070	53611
13.28882	49943
13.29693	51542
13.30507	47090
13.31318	47992
13.32130	45625
13.32943	45184
13.33755	51611
13.34568	47992
13.35380	46013
13.36192	47175
13.37005	44784
13.37817	46932
13.38630	44947
13.39442	44841
13.40253	45914
13.41067	40560
13.41878	46475
13.42690	45749
13.43503	45824
13.44315	44893
13.45128	49949
13.45940	49757
13.46752	49402
13.47565	47788
13.48377	49777
13.49190	51230
13.50002	49426
13.50813	48018
13.51627	46310
13.52438	46652
13.53252	48843
13.54063	47425
13.54875	44347
13.55688	43919
13.56500	48414
13.57312	44887
13.58125	50748
13.58937	58052
13.59750	56903
13.60562	60913
13.61373	60756
13.62187	62739
13.62998	61088
13.63812	53614
13.64623	56732
13.65435	53103
13.66248	49254
13.67060	44756
13.67873	46152
13.68685	45308
13.69497	39977
13.70310	39847
13.71122	43946
13.71933	46013
13.72747	51474
13.73558	78064
13.74372	166077
13.75183	391317
13.75995	881823
13.76808	1719221
13.77620	2397368
13.78433	2769273
13.79245	2647353
13.80057	2093226
13.80870	1459880
13.81682	1045654
13.82493	822994
13.83307	741888
13.84118	727838
13.84932	696556
13.85743	611809
13.86555	515925
13.87368	420000
13.88180	346384
13.88993	295879
13.89805	260348
13.90617	236464
13.91430	215777
13.92242	198851
13.93055	191655
13.93867	182293
13.94678	182227
13.95492	185022
13.96303	206740
13.97115	263183
13.97928	273846
13.98740	296118
13.99553	284410
14.00365	255971
14.01177	217564
14.01990	193232
14.02802	172322
14.03615	159907
14.04427	141755
14.05238	143909
14.06052	137176
14.06863	132696
14.07675	128870
14.08488	132482
14.09300	123473
14.10113	125950
14.10925	121444
14.11737	122662
14.12550	125089
14.13362	132961
14.14175	165297
14.14987	184674
14.15798	200694
14.16612	212710
14.17423	204635
14.18237	217160
14.19048	251576
14.19860	310315
14.20673	388659
14.21485	417155
14.22297	405288
14.23110	354640
14.23922	301395
14.24735	268652
14.25547	237390
14.26358	225458
14.27172	198928
14.27983	179728
14.28797	163464
14.29608	144837
14.30420	134488
14.31233	131500
14.32045	124843
14.32858	119796
14.33670	115715
14.34482	111455
14.35295	104200
14.36107	98343
14.36918	88783
14.37732	81885
14.38543	76363
14.39357	71756
14.40168	72081
14.40980	73880
14.41793	77731
14.42605	86051
14.43418	82949
14.44230	74969
14.45042	72381
14.45855	71315
14.46667	74663
14.47480	74073
14.48292	79530
14.49103	79201
14.49917	79830
14.50728	82392
14.51540	87138
14.52353	91674
14.53165	96971
14.53978	88278
14.54790	87939
14.55602	78594
14.56415	69294
14.57227	65798
14.58040	59569
14.58852	59035
14.59663	57285
14.60477	52588
14.61288	55918
14.62100	51860
14.62913	53715
14.63725	55522
14.64538	52608
14.65350	53082
14.66162	49930
14.66975	47887
14.67787	51091
14.68600	54988
14.69412	50817
14.70223	45865
14.71037	52765
14.71848	53604
14.72662	52709
14.73473	58907
14.74285	59925
14.75098	64119
14.75910	67518
14.76722	68908
14.77535	66355
14.78347	77724
14.79160	115055
14.79972	248440
14.80783	606574
14.81597	1414160
14.82408	2574125
14.83222	3736256
14.84033	4349922
14.84845	3963994
14.85658	3089344
14.86470	2064910
14.87282	1283842
14.88095	773241
14.88907	512251
14.89720	405703
14.90532	343710
14.91343	297094
14.92157	276314
14.92968	244086
14.93782	238800
14.94593	219344
14.95405	208819
14.96218	206375
14.97030	210491
14.97843	204988
14.98655	187231
14.99467	182107
15.00280	170523
15.01092	150645
15.01903	147937
15.02717	140501
15.03528	132513
15.04342	134628
15.05153	125004
15.05965	119904
15.06778	113946
15.07590	107144
15.08403	107288
15.09215	104775
15.10027	99380
15.10840	97557
15.11652	95036
15.12465	101154
15.13277	102222
15.14088	107706
15.14902	111859
15.15713	107698
15.16525	108251
15.17338	89984
15.18150	73371
15.18963	68764
15.19775	66634
15.20587	66067
15.21400	61660
15.22212	59813
15.23025	55346
15.23837	59290
15.24648	56046
15.25462	57453
15.26273	58281
15.27085	56637
15.27898	52536
15.28710	51805
15.29523	55733
15.30335	50884
15.31147	58124
15.31960	51881
15.32772	51551
15.33585	52308
15.34397	49333
15.35208	48355
15.36022	47161
15.36833	46557
15.37647	48649
15.38458	47594
15.39270	50627
15.40083	56156
15.40895	58830
15.41707	58563
15.42520	68462
15.43332	65536
15.44145	62644
15.44957	54295
15.45768	60715
15.46582	61883
15.47393	90324
15.48207	146585
15.49018	207124
15.49830	289692
15.50643	350234
15.51455	380693
15.52268	351438
15.53080	306614
15.53892	244474
15.54705	204395
15.55517	163373
15.56328	134499
15.57142	121129
15.57953	106553
15.58767	88815
15.59578	79958
15.60390	72763
15.61203	72789
15.62015	68825
15.62828	67440
15.63640	65851
15.64452	62545
15.65265	57407
15.66077	56518
15.66888	57521
15.67702	54819
15.68513	53842
15.69327	55416
15.70138	57293
15.70950	50618
15.71763	51785
15.72575	51063
15.73388	52323
15.74200	54660
15.75012	60802
15.75825	68390
15.76637	109076
15.77450	154778
15.78262	226762
15.79073	289982
15.79887	311123
15.80698	272787
15.81510	221298
15.82323	167510
15.83135	120780
15.83948	95210
15.84760	83667
15.85572	73743
15.86385	67967
15.87197	74497
15.88010	76766
15.88822	76944
15.89633	72557
15.90447	73395
15.91258	69285
15.92070	69006
15.92883	65934
15.93695	66965
15.94508	68064
15.95320	82154
15.96132	107263
15.96945	136882
15.97757	167787
15.98570	182976
15.99382	167840
16.00193	147642
16.01007	130962
16.01818	102952
16.02632	98703
16.03443	83848
16.04255	82773
16.05068	79524
16.05880	74913
16.06692	68400
16.07505	67361
16.08317	66914
16.09130	62102
16.09942	66443
16.10753	63083
16.11567	62985
16.12378	65044
16.13192	66085
16.14003	68394
16.14815	70639
16.15628	75877
16.16440	71245
16.17253	67794
16.18065	64453
16.18877	65362
16.19690	60314
16.20502	55695
16.21313	60223
16.22127	57313
16.22938	56399
16.23752	58112
16.24563	55832
16.25375	56268
16.26188	53748
16.27000	54970
16.27813	56852
16.28625	56742
16.29437	64557
16.30250	69093
16.31062	71885
16.31873	72071
16.32687	72671
16.33498	67549
16.34312	73556
16.35123	88506
16.35935	114858
16.36748	150680
16.37560	196247
16.38373	209003
16.39185	208868
16.39997	179755
16.40810	140142
16.41622	111221
16.42435	92867
16.43247	79591
16.44058	82009
16.44872	104708
16.45683	171480
16.46495	310421
16.47308	516987
16.48120	749023
16.48933	896135
16.49745	871552
16.50557	676573
16.51370	478131
16.52182	306310
16.52995	210092
16.53807	164933
16.54618	132984
16.55432	110387
16.56243	101304
16.57057	98377
16.57868	91222
16.58680	99067
16.59493	98957
16.60305	103576
16.61117	120490
16.61930	123959
16.62742	118378
16.63555	115297
16.64367	102742
16.65178	91742
16.65992	82180
16.66803	74825
16.67617	68767
16.68428	67231
16.69240	69629
16.70053	74630
16.70865	65386
16.71677	65794
16.72490	64161
16.73302	61218
16.74115	57201
16.74927	59491
16.75738	62755
16.76552	66112
16.77363	65386
16.78177	65439
16.78988	63159
16.79800	58482
16.80613	57866
16.81425	53362
16.82238	53575
16.83050	54834
16.83862	53302
16.84675	45271
16.85487	50759
16.86298	47562
16.87112	46425
16.87923	47800
16.88737	46964
16.89548	46943
16.90360	44981
16.91173	46337
16.91985	51243
16.92798	47785
16.93610	48645
16.94422	47830
16.95235	45745
16.96047	45634
16.96858	46623
16.97672	47611
16.98483	46546
16.99297	45928
17.00108	48138
17.00920	48653
17.01733	48629
17.02545	46981
17.03358	50068
17.04170	49698
17.04982	55358
17.05795	61399
17.06607	57182
17.07420	51414
17.08232	58026
17.09043	60997
17.09857	68014
17.10668	77083
17.11480	86331
17.12293	93041
17.13105	89221
17.13918	91598
17.14730	86774
17.15542	88429
17.16355	77654
17.17167	67875
17.17980	63673
17.18792	56182
17.19603	52827
17.20417	52667
17.21228	48443
17.22042	52444
17.22853	49009
17.23665	50689
17.24478	51338
17.25290	49595
17.26102	52966
17.26915	52971
17.27727	49199
17.28540	46437
17.29352	47785
17.30163	45512
17.30977	48901
17.31788	55543
17.32602	63564
17.33413	71442
17.34225	83705
17.35038	87155
17.35850	93416
17.36662	91131
17.37475	92547
17.38287	86918
17.39100	85547
17.39912	73914
17.40723	79200
17.41537	75329
17.42348	79379
17.43162	73617
17.43973	75292
17.44785	75506
17.45598	68584
17.46410	67276
17.47223	62131
17.48035	64749
17.48847	55465
17.49660	55615
17.50472	52993
17.51283	52354
17.52097	52669
17.52908	49227
17.53722	49269
17.54533	54063
17.55345	58338
17.56158	62915
17.56970	84208
17.57783	118657
17.58595	180554
17.59407	273955
17.60220	375142
17.61032	446449
17.61845	474366
17.62657	427503
17.63468	342362
17.64282	275073
17.65093	251120
17.65905	254271
17.66718	262183
17.67530	257828
17.68343	234605
17.69155	210325
17.69967	176294
17.70780	141217
17.71592	127341
17.72405	109383
17.73217	105570
17.74028	94935
17.74842	98017
17.75653	95969
17.76465	89177
17.77278	90836
17.78090	80052
17.78903	78569
17.79715	87510
17.80527	107556
17.81340	150028
17.82152	188613
17.82965	234156
17.83777	246375
17.84588	245607
17.85402	221380
17.86213	191435
17.87027	164054
17.87838	147700
17.88650	128814
17.89463	106374
17.90275	89710
17.91087	83977
17.91900	77566
17.92712	72068
17.93525	66405
17.94337	65101
17.95148	65259
17.95962	67422
17.96773	61952
17.97587	60639
17.98398	59529
17.99210	58632
18.00023	63694
18.00835	66932
18.01648	75710
18.02460	81495
18.03272	99137
18.04085	105907
18.04897	121845
18.05708	150046
18.06522	202270
18.07333	344309
18.08147	599656
18.08958	907331
18.09770	1147371
18.10583	1193332
18.11395	1080581
18.12208	851321
18.13020	603860
18.13832	460525
18.14645	374997
18.15457	313324
18.16268	281823
18.17082	252969
18.17893	224949
18.18707	202934
18.19518	191730
18.20330	171386
18.21143	163126
18.21955	159252
18.22768	142240
18.23580	139677
18.24392	125946
18.25205	121669
18.26017	111603
18.26830	111588
18.27642	101763
18.28453	87979
18.29267	78527
18.30078	72880
18.30890	67107
18.31703	59730
18.32515	61534
18.33328	59642
18.34140	53982
18.34952	53413
18.35765	53167
18.36577	56646
18.37390	57125
18.38202	60798
18.39013	66687
18.39827	84808
18.40638	115714
18.41450	160128
18.42263	208119
18.43075	236818
18.43888	248855
18.44700	248169
18.45512	236973
18.46325	229863
18.47137	237021
18.47950	247701
18.48762	250231
18.49573	226022
18.50387	193335
18.51198	162463
18.52012	132800
18.52823	113573
18.53635	95897
18.54448	84588
18.55260	83958
18.56072	76355
18.56885	73374
18.57697	67852
18.58510	72305
18.59322	76398
18.60133	86617
18.60947	105115
18.61758	142908
18.62572	174275
18.63383	197952
18.64195	203601
18.65008	214544
18.65820	218075
18.66633	215210
18.67445	213487
18.68257	210873
18.69070	203209
18.69882	211685
18.70693	212487
18.71507	217111
18.72318	214140
18.73132	213961
18.73943	213959
18.74755	201144
18.75568	203404
18.76380	200396
18.77193	195970
18.78005	194279
18.78817	196578
18.79630	198552
18.80442	186685
18.81253	196589
18.82067	195681
18.82878	179701
18.83692	188771
18.84503	189389
18.85315	180346
18.86128	183737
18.86940	190355
18.87753	184471
18.88565	198501
18.89377	190853
18.90190	192877
18.91002	188943
18.91815	186585
18.92627	183046
18.93438	183162
18.94252	185860
18.95063	191095
18.95875	189551
18.96688	193601
18.97500	195704
18.98313	188484
18.99125	182222
18.99937	174132
19.00750	172081
19.01562	165623
19.02375	158335
19.03187	162267
19.03998	162688
19.04812	159435
19.05623	157885
19.06437	160432
19.07248	183373
19.08060	220100
19.08873	287426
19.09685	372618
19.10497	445179
19.11310	489619
19.12122	487399
19.12935	430528
19.13747	335222
19.14558	281437
19.15372	235682
19.16183	210081
19.16997	195857
19.17808	180342
19.18620	168778
19.19433	167937
19.20245	163323
19.21057	158029
19.21870	153226
19.22682	148540
19.23495	142956
19.24307	144549
19.25118	136925
19.25932	140236
19.26743	139442
19.27557	134873
19.28368	135340
19.29180	138951
19.29993	140442
19.30805	137507
19.31618	139608
19.32430	145836
19.33242	136494
19.34055	137488
19.34867	140533
19.35678	157758
19.36492	173730
19.37303	194823
19.38117	202890
19.38928	203546
19.39740	191166
19.40553	169464
19.41365	156147
19.42178	146077
19.42990	142200
19.43802	133416
19.44615	125403
19.45427	127753
19.46238	123647
19.47052	130441
19.47863	134790
19.48677	148773
19.49488	193261
19.50300	227830
19.51113	290533
19.51925	317932
19.52738	302002
19.53550	276983
19.54362	226934
19.55175	185454
19.55987	161486
19.56800	145161
19.57612	133545
19.58423	129357
19.59237	117506
19.60048	115902
19.60860	111322
19.61673	107028
19.62485	108431
19.63298	116018
19.64110	127328
19.64922	159988
19.65735	208737
19.66547	256254
19.67360	321253
19.68172	348101
19.68983	355069
19.69797	343679
19.70608	308061
19.71422	267957
19.72233	238629
19.73045	211882
19.73858	196569
19.74670	186143
19.75482	180353
19.76295	168516
19.77107	163508
19.77920	163421
19.78732	178839
19.79543	185489
19.80357	208671
19.81168	210703
19.81982	200839
19.82793	180274
19.83605	158670
19.84418	143403
19.85230	144404
19.86043	194337
19.86855	344413
19.87667	677247
19.88480	1244555
19.89292	1959081
19.90103	2649327
19.90917	2903305
19.91728	2747020
19.92542	2277722
19.93353	1684361
19.94165	1198615
19.94978	871273
19.95790	690876
19.96603	572650
19.97415	510532
19.98227	471627
19.99040	430428
19.99852	409918
20.00663	388260
20.01477	376139
20.02288	356236
20.03102	339643
20.03913	317878
20.04725	302829
20.05538	277456
20.06350	274235
20.07163	287281
20.07975	308078
20.08787	320610
20.09600	321700
20.10412	300425
20.11225	275510
20.12037	235832
20.12848	205614
20.13662	186806
20.14473	198362
20.15285	243069
20.16098	361272
20.16910	554208
20.17723	813655
20.18535	1134273
20.19347	1388470
20.20160	1528132
20.20972	1514419
20.21785	1365549
20.22597	1119509
20.23408	901227
20.24222	769803
20.25033	720385
20.25845	814014
20.26658	959380
20.27470	1084752
20.28283	1155456
20.29095	1151581
20.29907	1034241
20.30720	856800
20.31532	681872
20.32345	516589
20.33157	385335
20.33968	298706
20.34782	236485
20.35593	193664
20.36407	164677
20.37218	151634
20.38030	130607
20.38843	119195
20.39655	115565
20.40467	110156
20.41280	105248
20.42092	110657
20.42905	115333
20.43717	117161
20.44528	127312
20.45342	136229
20.46153	144960
20.46967	158754
20.47778	158314
20.48590	155061
20.49403	137157
20.50215	124112
20.51028	111562
20.51840	98229
20.52652	88648
20.53465	88769
20.54277	89243
20.55088	83843
20.55902	85925
20.56713	84820
20.57527	82382
20.58338	81161
20.59150	79021
20.59963	75565
20.60775	73122
20.61588	72524
20.62400	74352
20.63212	78285
20.64025	87414
20.64837	85165
20.65648	85110
20.66462	84307
20.67273	81952
20.68087	85513
20.68898	72709
20.69710	71522
20.70523	70377
20.71335	71769
20.72148	70322
20.72960	64493
20.73772	65548
20.74585	69159
20.75397	70509
20.76210	73136
20.77022	78869
20.77833	87493
20.78647	108720
20.79458	152697
20.80270	221851
20.81083	327762
20.81895	403744
20.82708	436019
20.83520	408570
20.84332	336091
20.85145	242652
20.85957	177159
20.86770	129219
20.87582	110989
20.88393	100279
20.89207	89916
20.90018	93042
20.90832	96669
20.91643	104616
20.92455	113806
20.93268	126308
20.94080	129002
20.94892	124815
20.95705	119970
20.96517	114395
20.97330	103588
20.98142	86775
20.98953	86317
20.99767	78953
21.00578	84145
21.01392	73618
21.02203	74435
21.03015	82485
21.03828	77947
21.04640	79368
21.05452	77879
21.06265	79739
21.07077	72953
21.07890	78459
21.08702	75985
21.09513	71175
21.10327	71561
21.11138	64441
21.11952	68713
21.12763	70415
21.13575	85328
21.14388	107781
21.15200	136866
21.16013	171256
21.16825	185993
21.17637	193378
21.18450	167672
21.19262	141474
21.20073	116233
21.20887	103491
21.21698	93702
21.22512	91287
21.23323	77769
21.24135	80624
21.24948	73821
21.25760	75817
21.26573	70998
21.27385	70393
21.28197	70071
21.29010	64501
21.29822	62692
21.30633	72462
21.31447	67908
21.32258	63437
21.33072	63287
21.33883	63441
21.34695	64953
21.35508	60884
21.36320	64325
21.37133	66535
21.37945	68383
21.38757	70056
21.39570	75745
21.40382	90640
21.41195	99489
21.42007	103795
21.42818	100996
21.43632	98873
21.44443	84973
21.45255	81384
21.46068	76713
21.46880	72720
21.47693	71622
21.48505	72440
21.49317	70009
21.50130	66791
21.50942	68287
21.51755	63956
21.52567	65478
21.53378	62954
21.54192	65179
21.55003	64792
21.55817	66427
21.56628	65975
21.57440	67269
21.58253	65334
21.59065	71346
21.59877	78303
21.60690	75456
21.61502	79819
21.62315	87170
21.63127	94274
21.63938	97561
21.64752	99896
21.65563	106082
21.66377	103274
21.67188	104106
21.68000	103724
21.68813	100990
21.69625	96382
21.70437	88920
21.71250	79105
21.72062	72136
21.72875	65844
21.73687	64354
21.74498	62552
21.75312	67143
21.76123	68461
21.76937	70675
21.77748	71232
21.78560	78579
21.79373	79911
21.80185	88585
21.80998	85749
21.81810	86607
21.82622	90320
21.83435	91252
21.84247	100172
21.85058	99282
21.85872	95279
21.86683	91035
21.87497	83030
21.88308	78489
21.89120	78218
21.89933	76451
21.90745	67376
21.91558	65910
21.92370	67128
21.93182	64096
21.93995	62547
21.94807	61405
21.95620	66947
21.96432	59200
21.97243	56559
21.98057	53708
21.98868	54731
21.99680	55720
22.00493	53536
22.01305	58221
22.02118	57094
22.02930	63252
22.03742	61326
22.04555	60874
22.05367	63012
22.06180	59309
22.06992	58713
22.07803	60095
22.08617	59275
22.09428	56406
22.10240	54325
22.11053	57643
22.11865	58023
22.12678	56367
22.13490	53356
22.14302	55613
22.15115	60473
22.15927	58451
22.16740	53448
22.17552	55529
22.18363	58347
22.19177	54763
22.19988	55573
22.20802	54897
22.21613	54141
22.22425	57457
22.23238	66869
22.24050	59587
22.24862	58259
22.25675	60530
22.26487	59666
22.27300	59955
22.28112	66310
22.28923	69570
22.29737	72851
22.30548	74052
22.31362	79912
22.32173	76290
22.32985	75218
22.33798	74389
22.34610	66951
22.35422	68558
22.36235	61845
22.37047	61848
22.37860	63801
22.38672	72594
22.39483	79122
22.40297	98985
22.41108	120020
22.41922	141401
22.42733	158073
22.43545	149912
22.44358	138943
22.45170	117274
22.45983	96609
22.46795	83510
22.47607	80490
22.48420	83845
22.49232	95080
22.50043	97855
22.50857	113008
22.51668	119728
22.52482	116656
22.53293	119110
22.54105	112038
22.54918	100164
22.55730	91798
22.56543	84299
22.57355	73323
22.58167	69738
22.58980	66267
22.59792	66594
22.60605	62628
22.61417	62741
22.62228	58618
22.63042	61770
22.63853	57351
22.64665	60558
22.65478	58150
22.66290	71452
22.67103	62870
22.67915	64520
22.68727	72512
22.69540	74399
22.70352	82495
22.71165	88451
22.71977	89979
22.72788	92716
22.73602	93089
22.74413	84007
22.75225	74430
22.76038	73715
22.76850	73952
22.77663	69145
22.78475	75798
22.79287	81160
22.80100	89776
22.80912	98594
22.81725	105802
22.82537	98843
22.83348	91040
22.84162	83194
22.84973	87469
22.85787	85446
22.86598	85360
22.87410	104041
22.88223	120271
22.89035	145244
22.89847	152936
22.90660	165125
22.91472	164632
22.92285	169799
22.93097	161940
22.93908	146240
22.94722	136549
22.95533	125811
22.96347	102697
22.97158	103350
22.97970	88199
22.98783	79430
22.99595	72706
23.00408	75666
23.01220	74823
23.02032	72721
23.02845	69660
23.03657	69199
23.04468	63612
23.05282	66201
23.06093	72565
23.06907	68490
23.07718	69366
23.08530	66824
23.09343	66085
23.10155	66976
23.10968	64948
23.11780	69016
23.12592	62202
23.13405	67956
23.14217	66997
23.15028	70378
23.15842	69758
23.16653	67532
23.17467	75377
23.18278	71447
23.19090	72564
23.19903	70280
23.20715	75709
23.21528	73200
23.22340	73486
23.23152	70066
23.23965	71333
23.24777	74759
23.25590	79644
23.26402	77418
23.27213	80369
23.28027	81533
23.28838	73567
23.29650	80207
23.30463	72217
23.31275	73246
23.32088	71615
23.32900	78768
23.33712	90199
23.34525	102945
23.35337	126027
23.36150	148833
23.36962	166303
23.37773	188103
23.38587	190272
23.39398	191863
23.40212	194493
23.41023	190979
23.41835	188842
23.42648	189744
23.43460	183531
23.44272	179208
23.45085	172488
23.45897	164696
23.46710	157942
23.47522	152183
23.48333	151059
23.49147	144145
23.49958	139426
23.50772	132173
23.51583	120812
23.52395	123178
23.53208	115397
23.54020	110233
23.54832	111338
23.55645	111913
23.56457	120542
23.57270	132319
23.58082	166240
23.58893	206513
23.59707	248664
23.60518	278002
23.61332	288235
23.62143	262722
23.62955	241495
23.63768	198099
23.64580	181251
23.65393	172570
23.66205	173615
23.67017	173318
23.67830	175592
23.68642	162529
23.69453	142732
23.70267	126180
23.71078	113707
23.71892	105204
23.72703	97028
23.73515	92134
23.74328	102573
23.75140	131517
23.75953	222038
23.76765	433432
23.77577	848351
23.78390	1469799
23.79202	2135214
23.80013	2464371
23.80827	2382742
23.81638	2122082
23.82452	1657274
23.83263	1284323
23.84075	987608
23.84888	772088
23.85700	617123
23.86513	531015
23.87325	438431
23.88137	386289
23.88950	331526
23.89762	307155
23.90575	287904
23.91387	272671
23.92198	264262
23.93012	244880
23.93823	232836
23.94635	213319
23.95448	199645
23.96260	191800
23.97073	172722
23.97885	170909
23.98697	162519
23.99510	167007
24.00322	201609
24.01135	287512
24.01947	448026
24.02758	671534
24.03572	896039
24.04383	948780
24.05197	881691
24.06008	686674
24.06820	500179
24.07633	344817
24.08445	242635
24.09257	183740
24.10070	151268
24.10882	140521
24.11695	138891
24.12507	131413
24.13318	136155
24.14132	141031
24.14943	157477
24.15757	157727
24.16568	157220
24.17380	148898
24.18193	149893
24.19005	142840
24.19817	147202
24.20630	151803
24.21442	142281
24.22255	134596
24.23067	128860
24.23878	116342
24.24692	106164
24.25503	101512
24.26317	99518
24.27128	94421
24.27940	90423
24.28753	89423
24.29565	89101
24.30378	89134
24.31190	91636
24.32002	87965
24.32815	94888
24.33627	95533
24.34438	93256
24.35252	86081
24.36063	86813
24.36877	89311
24.37688	92384
24.38500	112471
24.39313	137816
24.40125	165778
24.40938	171372
24.41750	168243
24.42562	141645
24.43375	120614
24.44187	99763
24.45000	87173
24.45812	89554
24.46623	91281
24.47437	93207
24.48248	100039
24.49060	110525
24.49873	109925
24.50685	115643
24.51498	119213
24.52310	117920
24.53122	118049
24.53935	120423
24.54747	126774
24.55560	135394
24.56372	129967
24.57183	126082
24.57997	117832
24.58808	116629
24.59620	99971
24.60433	96733
24.61245	80151
24.62058	82049
24.62870	87127
24.63682	98587
24.64495	104689
24.65307	110148
24.66120	114813
24.66932	119365
24.67743	117126
24.68557	117770
24.69368	116871
24.70182	117366
24.70993	120012
24.71805	118835
24.72618	117955
24.73430	116564
24.74242	112094
24.75055	120340
24.75867	118803
24.76680	120074
24.77492	119448
24.78303	122017
24.79117	128746
24.79928	122037
24.80742	119927
24.81553	127348
24.82365	129974
24.83178	137493
24.83990	148052
24.84802	170572
24.85615	214159
24.86427	251837
24.87240	323243
24.88052	410038
24.88863	491495
24.89677	527387
24.90488	512972
24.91302	450114
24.92113	365767
24.92925	279652
24.93738	215110
24.94550	167819
24.95363	152512
24.96175	138103
24.96987	129923
24.97800	124226
24.98612	127318
24.99423	124421
25.00237	124966
25.01048	123397
25.01862	126060
25.02673	120005
25.03485	128238
25.04298	124966
25.05110	131146
25.05923	116460
25.06735	125368
25.07547	121207
25.08360	123745
25.09172	132001
25.09985	162343
25.10797	250348
25.11608	448032
25.12422	832008
25.13233	1428891
25.14045	2071815
25.14858	2536786
25.15670	2678189
25.16483	2408550
25.17295	1793385
25.18107	1214776
25.18920	765614
25.19732	487118
25.20545	322480
25.21357	239871
25.22168	193034
25.22982	173678
25.23793	170575
25.24607	176589
25.25418	192792
25.26230	219718
25.27043	229627
25.27855	225626
25.28667	221757
25.29480	195634
25.30292	162894
25.31105	135996
25.31917	123339
25.32728	115585
25.33542	108799
25.34353	100987
25.35167	92689
25.35978	88899
25.36790	85065
25.37603	81823
25.38415	79203
25.39227	78189
25.40040	74201
25.40852	70810
25.41665	75527
25.42477	69547
25.43288	73419
25.44102	72141
25.44913	71891
25.45727	70454
25.46538	79491
25.47350	76319
25.48163	75483
25.48975	70432
25.49788	76372
25.50600	77647
25.51412	71021
25.52225	64292
25.53037	68102
25.53848	65619
25.54662	68458
25.55473	65208
25.56287	68645
25.57098	67426
25.57910	71961
25.58723	68244
25.59535	68305
25.60348	63109
25.61160	65204
25.61972	66840
25.62785	70124
25.63597	67102
25.64408	64215
25.65222	71390
25.66033	85265
25.66847	99600
25.67658	123879
25.68470	139587
25.69283	150278
25.70095	166578
25.70908	168172
25.71720	161326
25.72532	168007
25.73345	164577
25.74157	173885
25.74970	161313
25.75782	164745
25.76593	163915
25.77407	165287
25.78218	176055
25.79030	170135
25.79843	170760
25.80655	172073
25.81468	172732
25.82280	182710
25.83092	188349
25.83905	200990
25.84717	196388
25.85530	212876
25.86342	213287
25.87153	201572
25.87967	191710
25.88778	179545
25.89592	175339
25.90403	162654
25.91215	158675
25.92028	156807
25.92840	155379
25.93652	154071
25.94465	154441
25.95277	150000
25.96090	148667
25.96902	146373
25.97713	144557
25.98527	146837
25.99338	143280
26.00152	136817
26.00963	138980
26.01775	134932
26.02588	128612
26.03400	127970
26.04212	127197
26.05025	130826
26.05837	129055
26.06650	127853
26.07462	127921
26.08273	130934
26.09087	130072
26.09898	132649
26.10712	129607
26.11523	131763
26.12335	129115
26.13148	134765
26.13960	140948
26.14773	138576
26.15585	144114
26.16397	143196
26.17210	145497
26.18022	136210
26.18833	128128
26.19647	125429
26.20458	118580
26.21272	117196
26.22083	114414
26.22895	109441
26.23708	116431
26.24520	105501
26.25333	104614
26.26145	100208
26.26957	107419
26.27770	98983
26.28582	97463
26.29395	95936
26.30207	95450
26.31018	94694
26.31832	91306
26.32643	92674
26.33455	92584
26.34268	93857
26.35080	107908
26.35893	126877
26.36705	179961
26.37517	246478
26.38330	356348
26.39142	462122
26.39955	552530
26.40767	599078
26.41578	550030
26.42392	481852
26.43203	380543
26.44015	293004
26.44828	211338
26.45640	161429
26.46453	132177
26.47265	119303
26.48077	108133
26.48890	107426
26.49702	97750
26.50515	96185
26.51327	86009
26.52138	85136
26.52952	84841
26.53763	83357
26.54577	77992
26.55388	76978
26.56200	81128
26.57013	73916
26.57825	75138
26.58637	81910
26.59450	77081
26.60262	74259
26.61075	79419
26.61887	69643
26.62698	77072
26.63512	73887
26.64323	75587
26.65137	70354
26.65948	74511
26.66760	78600
26.67573	77113
26.68385	78661
26.69197	75901
26.70010	73296
26.70822	77110
26.71635	65512
26.72447	69036
26.73258	67954
26.74072	70802
26.74883	68615
26.75697	67686
26.76508	69175
26.77320	66456
26.78133	67885
26.78945	74431
26.79758	72311
26.80570	66387
26.81382	71354
26.82195	72348
26.83007	71008
26.83818	68044
26.84632	65803
26.85443	67685
26.86257	65763
26.87068	66484
26.87880	64588
26.88693	64078
26.89505	65832
26.90318	64175
26.91130	60072
26.91942	62271
26.92755	59155
26.93567	60384
26.94380	56071
26.95192	59651
26.96003	61531
26.96817	70428
26.97628	82213
26.98440	106251
26.99253	156953
27.00065	232961
27.00878	308559
27.01690	406649
27.02502	502355
27.03315	540836
27.04127	548250
27.04940	515807
27.05752	440874
27.06563	377666
27.07377	320955
27.08188	267779
27.09000	223987
27.09813	197985
27.10625	181357
27.11438	161212
27.12250	156334
27.13062	149992
27.13875	139832
27.14687	136974
27.15500	133113
27.16312	133560
27.17123	141056
27.17937	144643
27.18748	153816
27.19562	155442
27.20373	145188
27.21185	139632
27.21998	135789
27.22810	126113
27.23622	117899
27.24435	115181
27.25247	116934
27.26060	106798
27.26872	100076
27.27683	96028
27.28497	94318
27.29308	102260
27.30122	85120
27.30933	88343
27.31745	84747
27.32558	89120
27.33370	86037
27.34183	91746
27.34995	89522
27.35807	91136
27.36620	81102
27.37432	81640
27.38243	82206
27.39057	77691
27.39868	77643
27.40682	82130
27.41493	79228
27.42305	77397
27.43118	84594
27.43930	79535
27.44743	76963
27.45555	76699
27.46367	77380
27.47180	70324
27.47992	71526
27.48803	65281
27.49617	66925
27.50428	68588
27.51242	70324
27.52053	71112
27.52865	70943
27.53678	69098
27.54490	65886
27.55303	69294
27.56115	67968
27.56927	70134
27.57740	73792
27.58552	81660
27.59365	90786
27.60177	94914
27.60988	98072
27.61802	94511
27.62613	91019
27.63425	86395
27.64238	80532
27.65050	74799
27.65863	77300
27.66675	67166
27.67487	76348
27.68300	74592
27.69112	78156
27.69925	72459
27.70737	74336
27.71548	70584
27.72362	68436
27.73173	66193
27.73987	65739
27.74798	67534
27.75610	60259
27.76423	61511
27.77235	61933
27.78047	70556
27.78860	66006
27.79672	63652
27.80485	59592
27.81297	63003
27.82108	63206
27.82922	60135
27.83733	64295
27.84547	62868
27.85358	61482
27.86170	61196
27.86983	57735
27.87795	61909
27.88607	62753
27.89420	57985
27.90232	56460
27.91045	54087
27.91857	57968
27.92668	58336
27.93482	61741
27.94293	61446
27.95107	59966
27.95918	62836
27.96730	61984
27.97543	53236
27.98355	58345
27.99168	57037
27.99980	58918
28.00792	66507
28.01605	71298
28.02417	80646
28.03228	89394
28.04042	98346
28.04853	111310
28.05667	116222
28.06478	114567
28.07290	109151
28.08103	89797
28.08915	82217
28.09728	77185
28.10540	73580
28.11352	66707
28.12165	64616
28.12977	63504
28.13788	65930
28.14602	61009
28.15413	59224
28.16227	59484
28.17038	59063
28.17850	59471
28.18663	63467
28.19475	71764
28.20288	80260
28.21100	87481
28.21912	88645
28.22725	93271
28.23537	92672
28.24350	85467
28.25162	79121
28.25973	72492
28.26787	67134
28.27598	61133
28.28410	60064
28.29223	60345
28.30035	65884
28.30848	74530
28.31660	83546
28.32472	93751
28.33285	105613
28.34097	111289
28.34910	116777
28.35722	132665
28.36533	134272
28.37347	152200
28.38158	159623
28.38972	164221
28.39783	164790
28.40595	164542
28.41408	165032
28.42220	151437
28.43032	149510
28.43845	131805
28.44657	127130
28.45470	122282
28.46282	119852
28.47093	108927
28.47907	106901
28.48718	106012
28.49532	109096
28.50343	108156
28.51155	110879
28.51968	110540
28.52780	103617
28.53592	93640
28.54405	88282
28.55217	81601
28.56030	72463
28.56842	79119
28.57653	76178
28.58467	72082
28.59278	77887
28.60092	69628
28.60903	75235
28.61715	78491
28.62528	80260
28.63340	83404
28.64153	84539
28.64965	87258
28.65777	86674
28.66590	83843
28.67402	84965
28.68213	84916
28.69027	74552
28.69838	73507
28.70652	69933
28.71463	74612
28.72275	69256
28.73088	65284
28.73900	61327
28.74713	69691
28.75525	82302
28.76337	85900
28.77150	93775
28.77962	95378
28.78775	109767
28.79587	97412
28.80398	91338
28.81212	82751
28.82023	78084
28.82835	74954
28.83648	72714
28.84460	69824
28.85273	67307
28.86085	66381
28.86897	68165
28.87710	69490
28.88522	70074
28.89335	73847
28.90147	76009
28.90958	74861
28.91772	75086
28.92583	79528
28.93395	73039
28.94208	79243
28.95020	71215
28.95833	76027
28.96645	70545
28.97457	68808
28.98270	72326
28.99082	65876
28.99895	63150
29.00707	61789
29.01518	61873
29.02332	62265
29.03143	57213
29.03957	55907
29.04768	59885
29.05580	55214
29.06393	57887
29.07205	60479
29.08017	65047
29.08830	57976
29.09642	61533
29.10455	66084
29.11267	61054
29.12078	60209
29.12892	62865
29.13703	59379
29.14517	53803
29.15328	57303
29.16140	60619
29.16953	61237
29.17765	65263
29.18577	61096
29.19390	67702
29.20202	82674
29.21015	91998
29.21827	101293
29.22638	121138
29.23452	165740
29.24263	246141
29.25077	372478
29.25888	534354
29.26700	659846
29.27513	699858
29.28325	647853
29.29138	520458
29.29950	351573
29.30762	230599
29.31575	138126
29.32387	95868
29.33198	75868
29.34012	69538
29.34823	65193
29.35637	61721
29.36448	61734
29.37260	62997
29.38073	64169
29.38885	63624
29.39698	61270
29.40510	60852
29.41322	60247
29.42135	61721
29.42947	64934
29.43760	63960
29.44572	67989
29.45383	60359
29.46197	61108
29.47008	59134
29.47820	61749
29.48633	59630
29.49445	63531
29.50258	67613
29.51070	69392
29.51882	65906
29.52695	61175
29.53507	63424
29.54320	59528
29.55132	53372
29.55943	54437
29.56757	58829
29.57568	54236
29.58380	53247
29.59193	52726
29.60005	56521
29.60818	51290
29.61630	58509
29.62442	55293
29.63255	56176
29.64067	52374
29.64880	53919
29.65692	53396
29.66503	53864
29.67317	53855
29.68128	52742
29.68942	57980
29.69753	60055
29.70565	57692
29.71378	57133
29.72190	60909
29.73002	57784
29.73815	54121
29.74627	57115
29.75440	55526
29.76252	56266
29.77063	57621
29.77877	51991
29.78688	51525
29.79502	52471
29.80313	55138
29.81125	53985
29.81938	52283
29.82750	45860
29.83563	50853
29.84375	55991
29.85187	51927
29.86000	48347
29.86812	53689
29.87623	55586
29.88437	63683
29.89248	73370
29.90062	83096
29.90873	86003
29.91685	82856
29.92498	76457
29.93310	66941
29.94123	65398
29.94935	63471
29.95747	65114
29.96560	68274
29.97372	77056
29.98183	81227
29.98997	85545
29.99808	98108
30.00622	102287
30.01433	109141
30.02245	112940
30.03058	104575
30.03870	100009
30.04683	105519
30.05495	106114
30.06307	103766
30.07120	106776
30.07932	104378
30.08745	99672
30.09557	102328
30.10368	94940
30.11182	95227
30.11993	97335
30.12805	94862
30.13618	82865
30.14430	85300
30.15243	83955
30.16055	89720
30.16867	81284
30.17680	83282
30.18492	86217
30.19305	91164
30.20117	92197
30.20928	92314
30.21742	92082
30.22553	89083
30.23365	79082
30.24178	70439
30.24990	74937
30.25803	69252
30.26615	64280
30.27427	66408
30.28240	67349
30.29052	65579
30.29865	59441
30.30677	62745
30.31488	61065
30.32302	69794
30.33113	61338
30.33927	62272
30.34738	67769
30.35550	61362
30.36363	66444
30.37175	65798
30.37987	59387
30.38800	63801
30.39612	55416
30.40425	56737
30.41237	57471
30.42048	55713
30.42862	58424
30.43673	53058
30.44487	52400
30.45298	57654
30.46110	59351
30.46923	54611
30.47735	58901
30.48548	56671
30.49360	61223
30.50172	56479
30.50985	58792
30.51797	55138
30.52608	59051
30.53422	52062
30.54233	53876
30.55047	56678
30.55858	57414
30.56670	58544
30.57483	60471
30.58295	59425
30.59108	62549
30.59920	57124
30.60732	56946
30.61545	59105
30.62357	61358
30.63170	57011
30.63982	56195
30.64793	51475
30.65607	52773
30.66418	56223
30.67230	52368
30.68043	53517
30.68855	50209
30.69668	51048
30.70480	56119
30.71292	51886
30.72105	54467
30.72917	52117
30.73730	50877
30.74542	50913
30.75353	51869
30.76167	58221
30.76978	55762
30.77790	60069
30.78603	66536
30.79415	73491
30.80228	82635
30.81040	97578
30.81852	101458
30.82665	96834
30.83477	96204
30.84290	98383
30.85102	90869
30.85913	83818
30.86727	84821
30.87538	87303
30.88352	90586
30.89163	87816
30.89975	94120
30.90788	87625
30.91600	89332
30.92412	82245
30.93225	88027
30.94037	84114
30.94850	83849
30.95662	83682
30.96473	84868
30.97287	82595
30.98098	87626
30.98912	85014
30.99723	84532
31.00535	82598
31.01348	79585
31.02160	85780
31.02972	89847
31.03785	86271
31.04597	85795
31.05410	88708
31.06222	92874
31.07033	92279
31.07847	100802
31.08658	102069
31.09472	104434
31.10283	108574
31.11095	110041
31.11908	105381
31.12720	102633
31.13533	98046
31.14345	96143
31.15157	91563
31.15970	88937
31.16782	96790
31.17593	95047
31.18407	101684
31.19218	125397
31.20032	143607
31.20843	178985
31.21655	208595
31.22468	223374
31.23280	228636
31.24093	220125
31.24905	189270
31.25717	153998
31.26530	126665
31.27342	108931
31.28155	92387
31.28967	87835
31.29778	83964
31.30592	86034
31.31403	77915
31.32215	84782
31.33028	78682
31.33840	82060
31.34653	81008
31.35465	81508
31.36277	77160
31.37090	79434
31.37902	78163
31.38715	74744
31.39527	77829
31.40338	75610
31.41152	74917
31.41963	77160
31.42775	73648
31.43588	68062
31.44400	70586
31.45213	66764
31.46025	72877
31.46837	69862
31.47650	72468
31.48462	71970
31.49275	72253
31.50087	76891
31.50898	79600
31.51712	79934
31.52523	79165
31.53337	81682
31.54148	81957
31.54960	76862
31.55773	77768
31.56585	77625
31.57397	76878
31.58210	77235
31.59022	72385
31.59835	72543
31.60647	69541
31.61458	68973
31.62272	66504
31.63083	70056
31.63897	68086
31.64708	68115
31.65520	74746
31.66333	73814
31.67145	69001
31.67958	70589
31.68770	75099
31.69582	70213
31.70395	69280
31.71207	65083
31.72018	68292
31.72832	62964
31.73643	67768
31.74457	72500
31.75268	60591
31.76080	68485
31.76893	64551
31.77705	68246
31.78518	67772
31.79330	66464
31.80142	67017
31.80955	68066
31.81767	67296
31.82578	70141
31.83392	67420
31.84203	66710
31.85017	66502
31.85828	64259
31.86640	69323
31.87453	69236
31.88265	71243
31.89078	74993
31.89890	77217
31.90702	76362
31.91515	78831
31.92327	82506
31.93140	90187
31.93952	90887
31.94763	97570
31.95577	99290
31.96388	102689
31.97200	106871
31.98013	111030
31.98825	110976
31.99638	108353
32.00450	109924
32.01262	114791
32.02075	111902
32.02887	101709
32.03700	102322
32.04512	97875
32.05323	96007
32.06137	95919
32.06948	96968
32.07760	93200
32.08573	91823
32.09385	89648
32.10198	90991
32.11010	78897
32.11822	77272
32.12635	80107
32.13447	78790
32.14260	78628
32.15072	76364
32.15883	74614
32.16697	78850
32.17508	73558
32.18322	73617
32.19133	72709
32.19945	78251
32.20758	77798
32.21570	74601
32.22382	74313
32.23195	72971
32.24007	69550
32.24820	71834
32.25632	71507
32.26443	75344
32.27257	74981
32.28068	70408
32.28882	70548
32.29693	70687
32.30505	70988
32.31318	75866
32.32130	73088
32.32943	70435
32.33755	70367
32.34567	68571
32.35380	70965
32.36192	71390
32.37003	74592
32.37817	73239
32.38628	73578
32.39442	67720
32.40253	68265
32.41065	69982
32.41878	70899
32.42690	70852
32.43503	67734
32.44315	70839
32.45127	68382
32.45940	65101
32.46752	71840
32.47563	62096
32.48377	66814
32.49188	63392
32.50002	66643
32.50813	68372
32.51625	68728
32.52438	67153
32.53250	67606
32.54063	66717
32.54875	69800
32.55687	65693
32.56500	71058
32.57312	65596
32.58125	65853
32.58937	68966
32.59748	64623
32.60562	63944
32.61373	65655
32.62185	70513
32.62998	70679
32.63810	66158
32.64623	72674
32.65435	82573
32.66247	85927
32.67060	100730
32.67872	96756
32.68685	96983
32.69497	90512
32.70308	81172
32.71122	82235
32.71933	79417
32.72747	75485
32.73558	75383
32.74370	75755
32.75183	68648
32.75995	71782
32.76807	68787
32.77620	67096
32.78432	65341
32.79245	65984
32.80057	68529
32.80868	66673
32.81682	68349
32.82493	67195
32.83307	76125
32.84118	67258
32.84930	68843
32.85743	76073
32.86555	69118
32.87367	70140
32.88180	73603
32.88992	76733
32.89805	81120
32.90617	85964
32.91428	86764
32.92242	86695
32.93053	82644
32.93867	84375
32.94678	79125
32.95490	72567
32.96303	71650
32.97115	67093
32.97928	71576
32.98740	82540
32.99552	90552
33.00365	95240
33.01177	100920
33.01988	88334
33.02802	90198
33.03613	82027
33.04427	75646
33.05238	78730
33.06050	78260
33.06863	78989
33.07675	86560
33.08488	91794
33.09300	93207
33.10112	104500
33.10925	103958
33.11737	113007
33.12550	105965
33.13362	108605
33.14173	98257
33.14987	87441
33.15798	83335
33.16610	88423
33.17423	75778
33.18235	76782
33.19048	78213
33.19860	77303
33.20672	77711
33.21485	76791
33.22297	81262
33.23110	74170
33.23922	75032
33.24733	81061
33.25547	77464
33.26358	72307
33.27170	73066
33.27983	74265
33.28795	77559
33.29608	76596
33.30420	75472
33.31232	77767
33.32045	79080
33.32857	76092
33.33670	73463
33.34482	76149
33.35293	79723
33.36107	78328
33.36918	81199
33.37732	76495
33.38543	83728
33.39355	77234
33.40168	76194
33.40980	71586
33.41792	72724
33.42605	73467
33.43417	72081
33.44230	67942
33.45042	70547
33.45853	67253
33.46667	69861
33.47478	64743
33.48292	71767
33.49103	70524
33.49915	70133
33.50728	73524
33.51540	69818
33.52352	73997
33.53165	75956
33.53977	77055
33.54790	72598
33.55602	77735
33.56413	86413
33.57227	82842
33.58038	80208
33.58852	78862
33.59663	71753
33.60475	73233
33.61288	74303
33.62100	74973
33.62913	73624
33.63725	75260
33.64537	77621
33.65350	78017
33.66162	78602
33.66973	77182
33.67787	75379
33.68598	79060
33.69412	73534
33.70223	68952
33.71035	69524
33.71848	65902
33.72660	68748
33.73473	74412
33.74285	69390
33.75097	69256
33.75910	67106
33.76722	67710
33.77535	69489
33.78347	70036
33.79158	70495
33.79972	67907
33.80783	66250
33.81595	65944
33.82408	62108
33.83220	65123
33.84033	65055
33.84845	64063
33.85657	66081
33.86470	68703
33.87282	73698
33.88095	65454
33.88907	71561
33.89718	70468
33.90532	67221
33.91343	69444
33.92155	76175
33.92968	66223
33.93780	69758
33.94593	65602
33.95405	68124
33.96217	63624
33.97030	67802
33.97842	69770
33.98655	69357
33.99467	72199
34.00278	67326
34.01092	70313
34.01903	64188
34.02717	70085
34.03528	67530
34.04340	65156
34.05153	66778
34.05965	68166
34.06777	71327
34.07590	66709
34.08402	65305
34.09215	72187
34.10027	67970
34.10838	69906
34.11652	70998
34.12463	66452
34.13277	68505
34.14088	67630
34.14900	69061
34.15713	68510
34.16525	69078
34.17338	71769
34.18150	72765
34.18962	69500
34.19775	70319
34.20587	67584
34.21398	73712
34.22212	73060
34.23023	72526
34.23837	72562
34.24648	67078
34.25460	74705
34.26273	72542
34.27085	68465
34.27898	76523
34.28710	72314
34.29522	71673
34.30335	70521
34.31147	63026
34.31958	72123
34.32772	71677
34.33583	72150
34.34397	69311
34.35208	70822
34.36020	69623
34.36833	66923
34.37645	68283
34.38458	68274
34.39270	71508
34.40082	66241
34.40895	63796
34.41707	66606
34.42520	68235
34.43332	66032
34.44143	68755
34.44957	69760
34.45768	67162
34.46580	63121
34.47393	65801
34.48205	70027
34.49018	67385
34.49830	69314
34.50642	75030
34.51455	78323
34.52267	84002
34.53080	89278
34.53892	99102
34.54703	107777
34.55517	119186
34.56328	116322
34.57140	111482
34.57953	116151
34.58765	110661
34.59578	106402
34.60390	94140
34.61202	87042
34.62015	87041
34.62827	83588
34.63640	82336
34.64452	83207
34.65263	81095
34.66077	77153
34.66888	77833
34.67702	71996
34.68513	77254
34.69325	78369
34.70138	73962
34.70950	73852
34.71762	73313
34.72575	72812
34.73387	77379
34.74200	75026
34.75012	72984
34.75823	70754
34.76637	75978
34.77448	71927
34.78262	74486
34.79073	73169
34.79885	76561
34.80698	76436
34.81510	81492
34.82323	77640
34.83135	81663
34.83947	84779
34.84760	79276
34.85572	73560
34.86383	79516
34.87197	72118
34.88008	74605
34.88822	72817
34.89633	73465
34.90445	83213
34.91258	74940
34.92070	75618
34.92883	79090
34.93695	78161
34.94507	84738
34.95320	83721
34.96132	92053
34.96945	91036
34.97757	87005
34.98568	94999
34.99382	85759
35.00193	84153
35.01005	84125
35.01818	82193
35.02630	89681
35.03443	75947
35.04255	77500
35.05067	77103
35.05880	81272
35.06692	76016
35.07505	73795
35.08317	75252
35.09128	72801
35.09942	70697
35.10753	69440
35.11565	72415
35.12378	68441
35.13190	72307
35.14003	75217
35.14815	72456
35.15627	72929
35.16440	80456
35.17252	76655
35.18065	74232
35.18877	71547
35.19688	71941
35.20502	67092
35.21313	69273
35.22127	71864
35.22938	73119
35.23750	69017
35.24563	71675
35.25375	67474
35.26187	71004
35.27000	72338
35.27812	71474
35.28625	70993
35.29437	74812
35.30248	72722
35.31062	74046
35.31873	65751
35.32687	60320
35.33498	69181
35.34310	66001
35.35123	69687
35.35935	66120
35.36747	70620
35.37560	68843
35.38372	72009
35.39185	78942
35.39997	75090
35.40808	79867
35.41622	79851
35.42433	88801
35.43247	89331
35.44058	92202
35.44870	90010
35.45683	84844
35.46495	88968
35.47308	84028
35.48120	81505
35.48932	78808
35.49745	79716
35.50557	72585
35.51368	73176
35.52182	75276
35.52993	75570
35.53807	72559
35.54618	74213
35.55430	74295
35.56243	75685
35.57055	70343
35.57868	73590
35.58680	72794
35.59492	67970
35.60305	68525
35.61117	73015
35.61930	77570
35.62742	70414
35.63553	71811
35.64367	70691
35.65178	70461
35.65990	71874
35.66803	71535
35.67615	78936
35.68428	79127
35.69240	79713
35.70052	83330
35.70865	74552
35.71677	72669
35.72490	73124
35.73302	74165
35.74113	82218
35.74927	82073
35.75738	89636
35.76550	91737
35.77363	93316
35.78175	91118
35.78988	89902
35.79800	83192
35.80612	80957
35.81425	78399
35.82237	77969
35.83050	75619
35.83862	76638
35.84673	74015
35.85487	70087
35.86298	73213
35.87112	71798
35.87923	71228
35.88735	72902
35.89548	68165
35.90360	76272
35.91172	73817
35.91985	69652
35.92797	71700
35.93610	72638
35.94422	72682
35.95233	75106
35.96047	72997
35.96858	72114
35.97672	74109
35.98483	70347
35.99295	71808
36.00108	76911
36.00920	73308
36.01733	77723
36.02545	79951
36.03357	76593
36.04170	82240
36.04982	77452
36.05793	79514
36.06607	78822
36.07418	76895
36.08232	77563
36.09043	80278
36.09855	76315
36.10668	76445
36.11480	76168
36.12293	77654
36.13105	79790
36.13917	86268
36.14730	86907
36.15542	80330
36.16353	86315
36.17167	85500
36.17978	84153
36.18792	78367
36.19603	76197
36.20415	76056
36.21228	76097
36.22040	70988
36.22853	79786
36.23665	75070
36.24477	77489
36.25290	72699
36.26102	70552
36.26915	77269
36.27727	80120
36.28538	81135
36.29352	88442
36.30163	89344
36.30975	97459
36.31788	105857
36.32600	104056
36.33413	113929
36.34225	104419
36.35037	103733
36.35850	97033
36.36662	99038
36.37475	94612
36.38287	99121
36.39098	101410
36.39912	97614
36.40723	97369
36.41535	93985
36.42348	98728
36.43160	98704
36.43973	99065
36.44785	98016
36.45597	91205
36.46410	97235
36.47222	94406
36.48035	91564
36.48847	89747
36.49658	93760
36.50472	96416
36.51283	95267
36.52097	97326
36.52908	96099
36.53720	95912
36.54533	95921
36.55345	91921
36.56157	90244
36.56970	88779
36.57782	89231
36.58595	92430
36.59407	90829
36.60218	92303
36.61032	91874
36.61843	98060
36.62657	95079
36.63468	93909
36.64280	91687
36.65093	92547
36.65905	93900
36.66718	91672
36.67530	93137
36.68342	90695
36.69155	88491
36.69967	87765
36.70778	93537
36.71592	88608
36.72403	87327
36.73217	93168
36.74028	88222
36.74840	95376
36.75653	82691
36.76465	88089
36.77278	86324
36.78090	87356
36.78902	88284
36.79715	85682
36.80527	90643
36.81338	92083
36.82152	88192
36.82963	84860
36.83777	90463
36.84588	81334
36.85400	91977
36.86213	90143
36.87025	83228
36.87838	82664
36.88650	86354
36.89462	88008
36.90275	87799
36.91087	86813
36.91900	92752
36.92712	90777
36.93523	90902
36.94337	91010
36.95148	93377
36.95960	99626
36.96773	102431
36.97585	97717
36.98398	100131
36.99210	99485
37.00022	90200
37.00835	88507
37.01647	89094
37.02460	83756
37.03272	88002
37.04083	92452
37.04897	84782
37.05708	86873
37.06522	90074
37.07333	89376
37.08145	93873
37.08958	92582
37.09770	91836
37.10582	93234
37.11395	86717
37.12207	84073
37.13020	86469
37.13832	85568
37.14643	81846
37.15457	86815
37.16268	80236
37.17082	81955
37.17893	88420
37.18705	88945
37.19518	87510
37.20330	89799
37.21142	95634
37.21955	94364
37.22767	85314
37.23580	89909
37.24392	91564
37.25203	87615
37.26017	84532
37.26828	84370
37.27642	83146
37.28453	85056
37.29265	87215
37.30078	80849
37.30890	87688
37.31703	88050
37.32515	92479
37.33327	99558
37.34140	106610
37.34952	115709
37.35763	118892
37.36577	114904
37.37388	115048
37.38202	121545
37.39013	116305
37.39825	108533
37.40638	112555
37.41450	109798
37.42263	108488
37.43075	98453
37.43887	102657
37.44700	101662
37.45512	108042
37.46323	104537
37.47137	105144
37.47948	103401
37.48762	99860
