C:\MassHunter\GCMS\1\data\20191125_ALKANES\JTB-E18-40-11.D Mon Nov 25 17:58:10 2019
Start of data points
2.09530	117505
2.10342	126983
2.11155	128507
2.11967	119985
2.12778	118774
2.13592	117815
2.14403	123119
2.15217	115809
2.16028	117658
2.16840	110567
2.17653	116571
2.18465	113452
2.19277	108362
2.20090	109630
2.20902	111931
2.21715	113876
2.22527	105289
2.23338	100361
2.24152	99434
2.24963	102980
2.25777	103641
2.26588	139896
2.27400	847773
2.28213	2199997
2.29025	1455628
2.29837	497289
2.30650	302788
2.31462	564476
2.32275	2847856
2.33087	5.554746E+07
2.33898	7.636161E+07
2.34712	5.662793E+07
2.35523	2.314524E+07
2.36337	1.338907E+07
2.37148	9367392
2.37960	7956508
2.38773	7447834
2.39585	5020313
2.40398	5956116
2.41210	1.903536E+07
2.42022	8.959725E+07
2.42835	9.288843E+07
2.43647	6.684038E+07
2.44458	3.096227E+07
2.45272	1.968038E+07
2.46083	1.435796E+07
2.46897	1.121214E+07
2.47708	9175836
2.48520	7555449
2.49333	6367702
2.50145	5530454
2.50958	4833412
2.51770	4331358
2.52582	3920249
2.53395	3496974
2.54207	3319670
2.55018	4025707
2.55832	5874856
2.56643	6219647
2.57457	3596727
2.58268	2587999
2.59080	2697586
2.59893	1.851595E+07
2.60705	1.003776E+08
2.61518	1.133378E+08
2.62330	1.015177E+08
2.63142	4.715807E+07
2.63955	2.629321E+07
2.64767	1.862612E+07
2.65580	1.458395E+07
2.66392	1.177012E+07
2.67203	9950012
2.68017	8625576
2.68828	7564471
2.69640	7126247
2.70453	7185119
2.71265	6236417
2.72078	5133294
2.72890	4637622
2.73702	4327963
2.74515	4033184
2.75327	3776471
2.76140	3553024
2.76952	3392159
2.77763	3250479
2.78577	3057638
2.79388	2946336
2.80202	2822002
2.81013	2680990
2.81825	2581276
2.82638	2474829
2.83450	2396776
2.84262	2308805
2.85075	2239171
2.85887	2171528
2.86700	2136570
2.87512	2431982
2.88323	3801230
2.89137	5854062
2.89948	5073438
2.90762	2970295
2.91573	2104626
2.92385	1878958
2.93198	1939138
2.94010	2191287
2.94822	2052595
2.95635	1723264
2.96447	1578658
2.97260	1528309
2.98072	1493956
2.98883	1440001
2.99697	1405835
3.00508	1384789
3.01322	1351443
3.02133	1319259
3.02945	1299713
3.03758	1279206
3.04570	1251595
3.05383	1231398
3.06195	1217252
3.07007	1206022
3.07820	1159411
3.08632	1143850
3.09443	1129604
3.10257	1129598
3.11068	1129524
3.11882	1101732
3.12693	1075386
3.13505	1050364
3.14318	1044483
3.15130	1029466
3.15943	1009690
3.16755	990396
3.17567	976636
3.18380	957390
3.19192	937532
3.20005	940208
3.20817	937497
3.21628	921012
3.22442	889949
3.23253	886340
3.24065	881997
3.24878	867273
3.25690	873873
3.26503	852857
3.27315	848043
3.28127	839687
3.28940	856487
3.29752	934579
3.30565	1053413
3.31377	1112567
3.32188	1065316
3.33002	1044758
3.33813	977286
3.34625	959241
3.35438	940772
3.36250	919573
3.37063	908251
3.37875	891901
3.38687	859173
3.39500	850346
3.40312	830391
3.41125	826321
3.41937	804204
3.42748	802949
3.43562	803179
3.44373	777281
3.45187	776277
3.45998	758809
3.46810	752641
3.47623	765404
3.48435	738806
3.49247	741579
3.50060	722138
3.50872	724618
3.51685	721670
3.52497	707273
3.53308	702505
3.54122	713383
3.54933	714143
3.55747	689686
3.56558	690758
3.57370	675341
3.58183	670037
3.58995	668771
3.59807	680867
3.60620	663278
3.61432	640101
3.62245	643782
3.63057	651395
3.63868	641046
3.64682	636234
3.65493	630817
3.66307	628355
3.67118	624549
3.67930	617339
3.68743	607837
3.69555	613011
3.70368	614270
3.71180	606895
3.71992	607151
3.72805	581602
3.73617	589852
3.74428	593962
3.75242	591766
3.76053	575935
3.76867	584050
3.77678	577318
3.78490	578338
3.79303	567382
3.80115	559128
3.80928	567561
3.81740	559724
3.82552	567960
3.83365	561875
3.84177	545127
3.84990	551755
3.85802	544391
3.86613	540057
3.87427	527736
3.88238	531548
3.89050	526193
3.89863	532946
3.90675	528390
3.91488	510677
3.92300	519317
3.93112	514690
3.93925	511892
3.94737	512924
3.95550	506704
3.96362	516863
3.97173	514760
3.97987	505065
3.98798	492714
3.99612	508080
4.00423	486376
4.01235	497357
4.02048	494891
4.02860	491143
4.03672	483558
4.04485	476344
4.05297	475935
4.06110	481900
4.06922	478608
4.07733	477069
4.08547	475470
4.09358	465435
4.10172	465207
4.10983	463311
4.11795	460065
4.12608	465122
4.13420	455848
4.14232	474869
4.15045	460330
4.15857	451428
4.16670	459394
4.17482	457148
4.18293	440588
4.19107	452479
4.19918	446506
4.20732	442139
4.21543	450948
4.22355	452727
4.23168	454223
4.23980	441576
4.24793	442337
4.25605	432219
4.26417	429946
4.27230	432757
4.28042	428991
4.28853	424498
4.29667	418125
4.30478	426099
4.31292	427775
4.32103	418646
4.32915	428734
4.33728	422272
4.34540	419605
4.35353	413617
4.36165	418726
4.36977	418554
4.37790	399848
4.38602	403521
4.39413	404634
4.40227	398177
4.41038	395947
4.41852	395158
4.42663	387875
4.43475	395923
4.44288	394788
4.45100	400513
4.45913	404770
4.46725	397461
4.47537	409134
4.48350	395353
4.49162	382205
4.49975	391806
4.50787	378660
4.51598	378475
4.52412	385544
4.53223	383367
4.54035	382528
4.54848	382114
4.55660	376297
4.56473	381512
4.57285	368695
4.58097	374269
4.58910	364577
4.59722	378945
4.60535	368673
4.61347	379153
4.62158	367921
4.62972	367718
4.63783	365087
4.64597	367458
4.65408	361269
4.66220	361311
4.67033	362862
4.67845	359495
4.68657	363932
4.69470	355243
4.70282	363245
4.71095	356738
4.71907	351544
4.72718	356925
4.73532	337286
4.74343	352176
4.75157	350180
4.75968	355157
4.76780	349335
4.77593	342873
4.78405	344605
4.79217	345550
4.80030	342647
4.80842	341151
4.81655	339577
4.82467	340397
4.83278	338054
4.84092	346815
4.84903	339766
4.85717	339523
4.86528	342797
4.87340	336376
4.88153	325287
4.88965	325872
4.89778	333912
4.90590	333975
4.91402	333464
4.92215	364351
4.93027	402004
4.93838	465714
4.94652	497213
4.95463	512605
4.96277	495637
4.97088	478422
4.97900	466665
4.98713	448303
4.99525	431727
5.00338	432164
5.01150	415682
5.01962	421995
5.02775	419117
5.03587	418040
5.04400	407206
5.05212	403903
5.06023	405733
5.06837	399090
5.07648	399419
5.08460	400807
5.09273	392229
5.10085	391979
5.10898	394285
5.11710	386848
5.12522	395178
5.13335	393533
5.14147	390405
5.14960	388163
5.15772	385221
5.16583	388988
5.17397	382538
5.18208	385038
5.19020	389576
5.19833	382470
5.20645	388066
5.21458	378596
5.22270	375791
5.23082	384973
5.23895	378716
5.24707	378972
5.25520	377822
5.26332	383869
5.27143	375020
5.27957	363583
5.28768	354758
5.29582	363866
5.30393	357784
5.31205	345245
5.32018	323192
5.32830	320312
5.33642	328896
5.34455	326411
5.35267	324727
5.36080	327417
5.36892	322414
5.37703	291010
5.38517	279532
5.39328	277792
5.40142	274518
5.40953	266838
5.41765	274058
5.42578	268189
5.43390	277236
5.44202	277563
5.45015	268286
5.45827	277665
5.46640	265749
5.47452	264720
5.48263	262168
5.49077	264788
5.49888	258377
5.50702	222354
5.51513	185872
5.52325	194377
5.53138	192858
5.53950	188897
5.54763	189808
5.55575	190947
5.56387	185051
5.57200	183930
5.58012	182521
5.58823	182553
5.59637	187091
5.60448	186199
5.61262	180116
5.62073	184022
5.62885	181584
5.63698	185285
5.64510	188997
5.65323	190239
5.66135	188728
5.66947	187095
5.67760	188893
5.68572	188135
5.69385	185324
5.70197	179685
5.71008	187480
5.71822	188570
5.72633	184466
5.73445	179330
5.74258	181789
5.75070	188645
5.75883	179589
5.76695	182550
5.77507	178500
5.78320	184233
5.79132	180276
5.79945	172139
5.80757	181678
5.81568	178904
5.82382	182717
5.83193	183233
5.84005	185041
5.84818	179942
5.85630	170733
5.86443	186265
5.87255	173665
5.88067	183519
5.88880	180879
5.89692	173166
5.90505	166481
5.91317	152210
5.92128	127597
5.92942	124201
5.93753	129988
5.94567	120453
5.95378	122828
5.96190	134950
5.97003	143948
5.97815	150182
5.98627	150693
5.99440	144403
6.00252	141964
6.01065	139715
6.01877	127482
6.02688	122144
6.03502	127307
6.04313	129396
6.05127	125378
6.05938	127122
6.06750	119777
6.07563	127210
6.08375	122263
6.09188	120997
6.10000	126116
6.10812	124756
6.11625	125615
6.12437	121145
6.13248	127091
6.14062	121868
6.14873	120969
6.15687	123067
6.16498	128929
6.17310	125158
6.18123	130275
6.18935	131159
6.19748	133872
6.20560	124476
6.21372	127940
6.22185	131456
6.22997	129954
6.23808	131626
6.24622	129858
6.25433	135847
6.26247	124107
6.27058	129745
6.27870	135900
6.28683	136567
6.29495	138253
6.30308	135406
6.31120	132681
6.31932	137178
6.32745	139533
6.33557	139124
6.34370	141316
6.35182	138289
6.35993	140236
6.36807	138981
6.37618	133323
6.38430	128098
6.39243	128173
6.40055	133353
6.40868	125138
6.41680	126706
6.42492	119731
6.43305	119095
6.44117	123296
6.44930	116804
6.45742	124630
6.46553	121766
6.47367	124901
6.48178	128107
6.48992	117695
6.49803	122612
6.50615	122664
6.51428	122935
6.52240	121387
6.53052	119163
6.53865	120986
6.54677	116786
6.55490	121333
6.56302	117447
6.57113	120705
6.57927	118907
6.58738	120959
6.59552	116479
6.60363	119827
6.61175	119268
6.61988	118373
6.62800	114734
6.63612	120197
6.64425	115781
6.65237	121181
6.66050	111325
6.66862	110965
6.67673	113993
6.68487	122107
6.69298	113685
6.70112	122561
6.70923	115191
6.71735	109139
6.72548	113111
6.73360	111921
6.74173	114966
6.74985	113195
6.75797	112150
6.76610	112087
6.77422	115107
6.78233	106619
6.79047	113230
6.79858	112425
6.80672	111338
6.81483	107645
6.82295	105845
6.83108	111834
6.83920	100717
6.84733	85076
6.85545	74109
6.86357	62702
6.87170	63360
6.87982	59436
6.88793	63358
6.89607	59827
6.90418	63779
6.91232	60918
6.92043	61610
6.92855	59917
6.93668	59222
6.94480	59990
6.95293	59854
6.96105	61285
6.96917	59539
6.97730	58001
6.98542	60461
6.99355	57913
7.00167	57793
7.00978	54731
7.01792	57758
7.02603	59460
7.03415	63355
7.04228	59002
7.05040	61660
7.05853	57929
7.06665	57746
7.07477	57288
7.08290	60017
7.09102	58841
7.09915	57552
7.10727	58425
7.11538	58550
7.12352	56920
7.13163	55400
7.13977	60604
7.14788	56815
7.15600	59651
7.16413	58838
7.17225	58082
7.18037	52985
7.18850	56387
7.19662	57205
7.20475	61824
7.21287	59379
7.22098	56623
7.22912	59939
7.23723	57871
7.24537	56596
7.25348	58352
7.26160	56709
7.26973	60105
7.27785	59080
7.28597	56718
7.29410	57173
7.30222	59423
7.31035	55568
7.31847	54852
7.32658	51953
7.33472	63894
7.34283	59260
7.35097	60891
7.35908	53100
7.36720	58037
7.37533	53780
7.38345	62368
7.39158	54525
7.39970	54194
7.40782	61103
7.41595	57869
7.42407	57485
7.43218	58493
7.44032	57506
7.44843	52886
7.45657	62996
7.46468	55579
7.47280	54668
7.48093	57357
7.48905	55830
7.49718	59294
7.50530	61618
7.51342	57355
7.52155	60226
7.52967	57071
7.53780	55085
7.54592	57791
7.55403	57300
7.56217	66579
7.57028	56301
7.57840	55963
7.58653	54050
7.59465	55403
7.60278	59777
7.61090	57324
7.61902	54193
7.62715	56010
7.63527	54969
7.64340	53780
7.65152	55622
7.65963	58652
7.66777	55531
7.67588	56954
7.68400	52587
7.69213	54716
7.70025	58299
7.70838	56910
7.71650	54444
7.72462	56370
7.73275	52211
7.74087	56022
7.74900	55641
7.75712	51573
7.76523	56725
7.77337	53039
7.78148	52019
7.78962	50129
7.79773	50985
7.80585	56499
7.81398	56326
7.82210	51744
7.83022	51688
7.83835	63823
7.84647	52637
7.85460	51913
7.86272	51476
7.87083	51263
7.87897	56418
7.88708	56397
7.89522	50388
7.90333	58778
7.91145	52229
7.91958	51096
7.92770	50437
7.93582	48722
7.94395	52828
7.95207	49694
7.96020	52456
7.96832	52098
7.97643	53671
7.98457	56330
7.99268	52147
8.00082	56917
8.00893	56307
8.01705	53656
8.02518	52969
8.03330	56532
8.04143	53844
8.04955	54473
8.05767	53055
8.06580	53024
8.07392	54906
8.08203	51692
8.09017	56053
8.09828	51074
8.10642	51016
8.11453	50894
8.12265	54875
8.13078	54309
8.13890	54600
8.14703	55859
8.15515	50586
8.16327	53816
8.17140	55441
8.17952	54611
8.18765	53528
8.19577	53599
8.20388	52124
8.21202	55828
8.22013	53719
8.22825	51669
8.23638	51797
8.24450	52520
8.25263	52150
8.26075	50801
8.26887	54978
8.27700	53718
8.28512	50209
8.29325	52495
8.30137	51753
8.30948	51480
8.31762	51035
8.32573	52150
8.33387	58657
8.34198	54021
8.35010	57613
8.35823	56053
8.36635	58753
8.37447	56522
8.38260	54720
8.39072	53966
8.39885	53316
8.40697	51586
8.41508	52373
8.42322	49112
8.43133	53649
8.43947	51705
8.44758	52639
8.45570	48989
8.46383	49019
8.47195	52444
8.48007	48452
8.48820	50938
8.49632	53229
8.50445	49400
8.51257	49255
8.52068	50901
8.52882	53389
8.53693	55400
8.54507	49421
8.55318	50005
8.56130	49057
8.56943	50674
8.57755	50135
8.58568	52175
8.59380	50629
8.60192	48800
8.61005	52786
8.61817	53710
8.62628	49229
8.63442	53237
8.64253	49289
8.65067	53292
8.65878	49319
8.66690	51255
8.67503	51211
8.68315	48688
8.69128	49546
8.69940	55848
8.70752	50163
8.71565	61456
8.72377	57370
8.73188	79015
8.74002	107316
8.74813	135322
8.75627	134131
8.76438	135316
8.77250	135484
8.78063	138789
8.78875	138152
8.79688	130548
8.80500	128913
8.81312	122617
8.82125	127352
8.82937	123569
8.83750	121797
8.84562	113784
8.85373	122586
8.86187	114503
8.86998	110789
8.87810	109865
8.88623	112934
8.89435	111554
8.90248	107816
8.91060	108666
8.91872	101026
8.92685	108454
8.93497	104855
8.94310	106229
8.95122	104023
8.95933	109903
8.96747	110167
8.97558	104211
8.98372	98320
8.99183	104793
8.99995	98514
9.00808	107036
9.01620	100845
9.02432	98567
9.03245	104343
9.04057	99152
9.04870	94490
9.05682	97803
9.06493	89232
9.07307	85199
9.08118	85513
9.08932	88911
9.09743	85150
9.10555	86036
9.11368	83279
9.12180	84656
9.12992	85743
9.13805	90198
9.14617	83830
9.15430	85295
9.16242	81019
9.17053	88262
9.17867	81618
9.18678	82271
9.19492	85380
9.20303	82352
9.21115	82254
9.21928	86085
9.22740	82957
9.23553	82830
9.24365	76669
9.25177	78939
9.25990	83537
9.26802	74559
9.27613	80746
9.28427	78007
9.29238	81888
9.30052	83249
9.30863	82298
9.31675	79063
9.32488	76010
9.33300	76503
9.34113	77524
9.34925	73996
9.35737	77523
9.36550	76894
9.37362	71260
9.38175	76374
9.38987	78198
9.39798	74773
9.40612	69883
9.41423	69217
9.42235	72125
9.43048	69697
9.43860	73114
9.44673	67582
9.45485	69493
9.46297	75452
9.47110	73119
9.47922	74098
9.48735	71687
9.49547	70077
9.50358	65523
9.51172	61197
9.51983	52199
9.52795	44207
9.53608	41741
9.54420	40376
9.55233	38708
9.56045	32932
9.56857	35038
9.57670	32402
9.58482	30610
9.59295	39720
9.60107	33164
9.60918	33416
9.61732	34013
9.62543	31791
9.63357	33541
9.64168	33996
9.64980	31477
9.65793	33090
9.66605	30782
9.67417	28883
9.68230	31743
9.69042	32431
9.69855	34919
9.70667	35420
9.71478	33147
9.72292	32228
9.73103	29981
9.73917	28469
9.74728	30746
9.75540	29841
9.76353	31904
9.77165	30803
9.77977	30887
9.78790	30481
9.79602	30390
9.80415	30473
9.81227	33158
9.82038	34774
9.82852	34416
9.83663	33099
9.84477	31258
9.85288	32205
9.86100	34302
9.86913	32056
9.87725	28915
9.88538	29803
9.89350	33745
9.90162	32819
9.90975	32074
9.91787	30017
9.92598	32970
9.93412	30050
9.94223	35161
9.95037	32230
9.95848	31836
9.96660	30235
9.97473	38311
9.98285	32632
9.99098	34739
9.99910	38795
10.00722	40042
10.01535	34996
10.02347	34321
10.03160	36255
10.03972	37386
10.04783	33835
10.05597	32001
10.06408	35264
10.07220	33878
10.08033	30772
10.08845	33038
10.09658	37333
10.10470	29839
10.11282	32257
10.12095	28600
10.12907	27345
10.13720	30282
10.14532	30664
10.15343	29753
10.16157	31631
10.16968	29684
10.17780	31428
10.18593	32415
10.19405	29926
10.20218	33378
10.21030	28699
10.21842	29881
10.22655	32753
10.23467	34064
10.24280	30056
10.25092	30242
10.25903	32149
10.26717	33554
10.27528	28104
10.28342	34889
10.29153	32465
10.29965	30324
10.30778	30341
10.31590	30158
10.32402	31069
10.33215	32009
10.34027	29342
10.34840	29949
10.35652	30938
10.36463	29113
10.37277	28999
10.38088	30470
10.38902	29782
10.39713	28971
10.40525	30528
10.41338	31155
10.42150	29950
10.42963	30485
10.43775	30707
10.44587	32272
10.45400	29116
10.46212	32391
10.47023	30050
10.47837	31047
10.48648	28810
10.49462	29376
10.50273	29642
10.51085	30656
10.51898	27541
10.52710	30084
10.53523	29055
10.54335	30355
10.55147	31100
10.55960	28034
10.56772	28666
10.57583	29459
10.58397	29087
10.59208	27052
10.60022	31313
10.60833	29710
10.61645	27075
10.62458	31279
10.63270	31529
10.64083	28032
10.64895	25737
10.65707	28036
10.66520	26648
10.67332	29372
10.68145	25821
10.68957	31962
10.69768	29586
10.70582	27591
10.71393	29919
10.72205	29455
10.73018	27101
10.73830	34664
10.74643	27577
10.75455	29415
10.76267	27025
10.77080	28442
10.77892	29137
10.78705	27273
10.79517	27902
10.80328	29556
10.81142	29836
10.81953	30068
10.82765	27150
10.83578	31653
10.84390	29004
10.85203	27657
10.86015	31833
10.86827	26689
10.87640	26828
10.88452	26587
10.89265	25252
10.90077	26712
10.90888	25229
10.91702	29036
10.92513	27174
10.93327	29909
10.94138	28363
10.94950	26113
10.95763	26543
10.96575	24618
10.97387	26509
10.98200	25811
10.99012	29279
10.99825	27103
11.00637	28073
11.01448	28394
11.02262	33608
11.03073	23873
11.03887	27359
11.04698	27500
11.05510	31437
11.06323	26930
11.07135	25911
11.07948	27136
11.08760	26107
11.09572	24784
11.10385	27803
11.11197	23864
11.12008	24906
11.12822	23588
11.13633	28124
11.14447	24529
11.15258	23290
11.16070	31433
11.16883	25677
11.17695	24916
11.18508	25041
11.19320	27285
11.20132	22649
11.20945	22140
11.21757	23699
11.22568	24514
11.23382	24814
11.24193	25221
11.25007	26573
11.25818	24429
11.26630	26832
11.27443	24307
11.28255	25021
11.29068	28056
11.29880	23069
11.30692	22790
11.31505	24559
11.32317	24099
11.33130	24232
11.33942	24255
11.34753	22455
11.35567	24208
11.36378	21485
11.37190	28894
11.38003	26109
11.38815	26019
11.39628	24085
11.40440	24135
11.41252	27202
11.42065	29198
11.42877	26320
11.43690	26229
11.44502	25731
11.45313	24712
11.46127	23766
11.46938	25256
11.47752	22777
11.48563	27490
11.49375	24827
11.50188	23942
11.51000	25369
11.51812	21562
11.52625	23750
11.53437	24934
11.54250	24402
11.55062	22997
11.55873	28209
11.56687	22255
11.57498	24039
11.58312	27504
11.59123	23838
11.59935	25104
11.60748	22892
11.61560	25330
11.62372	26593
11.63185	23284
11.63997	23836
11.64810	26030
11.65622	23189
11.66433	22650
11.67247	23340
11.68058	25640
11.68872	26369
11.69683	26669
11.70495	25386
11.71308	25611
11.72120	28164
11.72933	28133
11.73745	27941
11.74557	26059
11.75370	26532
11.76182	30501
11.76993	27286
11.77807	25853
11.78618	26951
11.79432	26458
11.80243	22653
11.81055	29512
11.81868	23528
11.82680	26097
11.83493	24923
11.84305	26925
11.85117	26006
11.85930	25794
11.86742	27952
11.87555	25979
11.88367	25830
11.89178	24654
11.89992	25664
11.90803	24163
11.91615	24800
11.92428	25317
11.93240	25852
11.94053	30307
11.94865	28228
11.95677	23962
11.96490	26604
11.97302	23449
11.98115	26095
11.98927	28222
11.99738	27140
12.00552	28064
12.01363	25793
12.02175	27153
12.02988	25180
12.03800	26433
12.04613	25461
12.05425	31136
12.06237	21295
12.07050	24232
12.07862	23817
12.08675	25483
12.09487	25155
12.10298	27112
12.11112	24186
12.11923	23557
12.12737	25891
12.13548	25617
12.14360	25413
12.15173	27781
12.15985	23723
12.16797	27799
12.17610	27306
12.18422	33522
12.19235	26491
12.20047	25988
12.20858	25725
12.21672	24171
12.22483	26863
12.23297	25978
12.24108	32459
12.24920	25970
12.25733	27228
12.26545	27337
12.27357	28047
12.28170	27620
12.28982	24324
12.29795	26582
12.30607	28883
12.31418	26518
12.32232	22810
12.33043	22151
12.33857	24839
12.34668	26105
12.35480	25326
12.36293	26907
12.37105	23580
12.37918	22282
12.38730	24190
12.39542	30076
12.40355	24086
12.41167	24764
12.41978	25762
12.42792	23274
12.43603	27384
12.44417	23471
12.45228	26528
12.46040	23697
12.46853	25944
12.47665	24360
12.48478	26120
12.49290	21570
12.50102	23244
12.50915	21793
12.51727	24202
12.52540	26256
12.53352	28675
12.54163	25559
12.54977	25696
12.55788	25273
12.56600	25569
12.57413	25272
12.58225	25158
12.59038	23741
12.59850	23751
12.60662	20323
12.61475	24671
12.62287	23997
12.63100	25153
12.63912	30458
12.64723	23845
12.65537	19820
12.66348	23901
12.67160	26455
12.67973	22319
12.68785	25841
12.69598	25315
12.70410	25374
12.71222	24410
12.72035	23480
12.72847	23172
12.73660	23408
12.74472	24770
12.75283	30703
12.76097	22480
12.76908	23312
12.77722	22587
12.78533	27021
12.79345	25323
12.80158	24230
12.80970	23636
12.81782	22872
12.82595	24444
12.83407	23575
12.84220	23959
12.85032	24225
12.85843	21406
12.86657	23248
12.87468	23367
12.88282	24317
12.89093	22245
12.89905	21615
12.90718	23414
12.91530	23587
12.92343	26750
12.93155	22048
12.93967	24117
12.94780	24231
12.95592	23726
12.96403	21398
12.97217	24419
12.98028	26596
12.98842	23434
12.99653	23414
13.00465	21805
13.01278	24417
13.02090	23193
13.02903	24873
13.03715	22105
13.04527	23689
13.05340	21467
13.06152	23530
13.06963	24819
13.07777	23171
13.08588	22332
13.09402	23077
13.10213	21885
13.11025	22469
13.11838	27421
13.12650	29435
13.13463	24211
13.14275	26663
13.15087	22292
13.15900	24385
13.16712	25489
13.17525	25031
13.18337	21879
13.19148	22908
13.19962	24426
13.20773	25576
13.21585	23223
13.22398	23539
13.23210	23008
13.24023	28025
13.24835	23311
13.25647	25556
13.26460	25075
13.27272	22087
13.28085	25597
13.28897	23942
13.29708	25255
13.30522	25174
13.31333	22997
13.32145	27817
13.32958	21316
13.33770	23237
13.34583	24819
13.35395	24454
13.36207	23933
13.37020	25863
13.37832	22639
13.38645	25840
13.39457	24827
13.40268	23266
13.41082	22427
13.41893	24318
13.42707	23832
13.43518	23966
13.44330	24031
13.45143	22081
13.45955	23127
13.46767	22499
13.47580	30961
13.48392	21679
13.49205	22680
13.50017	23294
13.50828	24239
13.51642	25269
13.52453	22929
13.53267	25262
13.54078	26343
13.54890	19854
13.55703	21117
13.56515	20506
13.57328	22167
13.58140	22796
13.58952	27229
13.59765	23422
13.60577	24798
13.61388	24707
13.62202	23099
13.63013	22949
13.63827	22466
13.64638	23726
13.65450	21906
13.66263	19702
13.67075	25710
13.67888	22401
13.68700	21402
13.69512	24803
13.70325	22755
13.71137	26236
13.71950	28219
13.72762	24160
13.73573	24714
13.74387	25648
13.75198	24326
13.76010	26134
13.76823	27737
13.77635	27605
13.78448	27116
13.79260	25869
13.80072	22169
13.80885	25256
13.81697	25728
13.82510	28649
13.83322	26024
13.84133	24472
13.84947	25979
13.85758	26494
13.86570	26227
13.87383	27904
13.88195	26097
13.89008	29833
13.89820	29280
13.90632	26999
13.91445	24829
13.92257	27251
13.93070	28091
13.93882	27456
13.94693	26803
13.95507	28051
13.96318	27846
13.97132	28610
13.97943	26881
13.98755	28922
13.99568	35524
14.00380	31104
14.01192	30286
14.02005	26145
14.02817	29434
14.03630	28896
14.04442	24981
14.05253	27806
14.06067	29745
14.06878	27713
14.07692	29511
14.08503	28487
14.09315	30681
14.10128	30025
14.10940	34495
14.11752	42457
14.12565	60683
14.13377	75179
14.14190	99751
14.15002	107380
14.15813	119918
14.16627	110796
14.17438	106336
14.18252	99696
14.19063	94763
14.19875	93273
14.20688	83970
14.21500	85189
14.22313	83338
14.23125	81053
14.23937	81367
14.24750	84282
14.25562	85251
14.26373	77591
14.27187	77987
14.27998	69216
14.28812	60834
14.29623	50220
14.30435	39215
14.31248	33147
14.32060	33225
14.32873	31221
14.33685	32645
14.34497	30810
14.35310	28635
14.36122	29719
14.36935	27239
14.37747	25438
14.38558	28198
14.39372	27989
14.40183	27568
14.40995	27544
14.41808	29438
14.42620	29897
14.43433	26138
14.44245	26538
14.45057	28122
14.45870	24467
14.46682	26976
14.47495	22964
14.48307	28905
14.49118	27529
14.49932	25336
14.50743	26118
14.51555	25877
14.52368	25074
14.53180	27988
14.53993	25659
14.54805	28387
14.55617	26733
14.56430	28392
14.57242	24422
14.58055	27537
14.58867	25888
14.59678	24267
14.60492	23786
14.61303	23710
14.62117	25905
14.62928	26266
14.63740	29616
14.64553	26104
14.65365	24965
14.66177	25745
14.66990	23737
14.67802	24326
14.68615	22292
14.69427	23115
14.70238	25575
14.71052	23009
14.71863	23640
14.72677	24718
14.73488	26079
14.74300	24301
14.75113	28420
14.75925	22940
14.76738	23834
14.77550	27482
14.78362	23087
14.79175	22518
14.79987	22051
14.80798	24650
14.81612	25269
14.82423	23390
14.83237	25019
14.84048	21810
14.84860	23113
14.85673	23621
14.86485	26194
14.87298	24012
14.88110	23884
14.88922	25816
14.89735	24705
14.90547	23616
14.91358	25480
14.92172	25620
14.92983	26915
14.93797	24246
14.94608	25774
14.95420	26355
14.96233	23887
14.97045	23663
14.97858	25748
14.98670	25344
14.99482	23977
15.00295	22249
15.01107	29522
15.01920	23346
15.02732	25001
15.03543	23191
15.04357	24550
15.05168	24977
15.05980	27244
15.06793	26800
15.07605	25788
15.08418	26022
15.09230	22927
15.10042	23672
15.10855	22612
15.11667	20914
15.12480	24996
15.13292	24619
15.14103	23601
15.14917	25850
15.15728	24258
15.16540	21941
15.17353	23203
15.18165	24626
15.18978	23255
15.19790	23434
15.20602	24861
15.21415	23553
15.22227	22495
15.23040	23615
15.23852	23020
15.24663	21952
15.25477	22369
15.26288	21778
15.27102	22075
15.27913	22577
15.28725	21392
15.29538	21232
15.30350	24014
15.31162	22220
15.31975	22347
15.32787	23103
15.33600	22289
15.34412	21913
15.35223	21836
15.36037	23234
15.36848	23619
15.37662	22050
15.38473	23467
15.39285	22289
15.40098	19308
15.40910	21549
15.41723	19092
15.42535	23614
15.43347	22627
15.44160	25310
15.44972	23970
15.45783	22700
15.46597	23315
15.47408	23858
15.48222	24093
15.49033	19523
15.49845	20462
15.50658	20604
15.51470	22442
15.52283	20490
15.53095	20852
15.53907	25416
15.54720	23243
15.55532	26229
15.56343	22339
15.57157	24394
15.57968	21419
15.58782	21342
15.59593	21764
15.60405	24516
15.61218	20858
15.62030	21767
15.62843	23297
15.63655	24701
15.64467	23377
15.65280	24990
15.66092	23135
15.66905	21908
15.67717	24164
15.68528	21589
15.69342	21620
15.70153	24569
15.70965	21390
15.71778	21805
15.72590	21916
15.73403	22907
15.74215	21017
15.75027	23091
15.75840	22139
15.76652	20958
15.77465	23335
15.78277	23725
15.79088	22796
15.79902	20275
15.80713	24361
15.81527	23650
15.82338	20761
15.83150	22582
15.83963	24748
15.84775	20572
15.85587	24841
15.86400	22949
15.87212	23202
15.88025	27194
15.88837	24877
15.89648	22382
15.90462	21108
15.91273	21396
15.92087	23408
15.92898	24154
15.93710	20452
15.94523	22024
15.95335	23445
15.96147	23723
15.96960	23248
15.97772	21903
15.98585	22965
15.99397	27054
16.00208	25089
16.01022	24020
16.01833	29095
16.02647	24635
16.03458	25115
16.04270	27532
16.05083	24379
16.05895	23144
16.06708	28988
16.07520	24040
16.08332	22127
16.09145	21126
16.09957	21688
16.10768	25651
16.11582	20402
16.12393	22330
16.13207	22964
16.14018	22412
16.14830	22934
16.15643	22480
16.16455	21006
16.17268	20605
16.18080	24116
16.18892	22238
16.19705	28842
16.20517	22936
16.21328	21828
16.22142	22596
16.22953	22046
16.23767	23875
16.24578	24000
16.25390	24192
16.26203	24504
16.27015	24442
16.27828	22439
16.28640	23074
16.29452	25383
16.30265	24074
16.31077	23172
16.31890	27219
16.32702	27993
16.33513	28010
16.34327	27994
16.35138	29344
16.35950	28932
16.36763	28141
16.37575	28598
16.38388	29824
16.39200	24888
16.40012	25897
16.40825	26728
16.41637	25500
16.42450	28236
16.43262	28031
16.44073	23817
16.44887	30181
16.45698	28598
16.46512	28942
16.47323	23811
16.48135	29290
16.48948	25583
16.49760	31819
16.50572	23756
16.51385	26392
16.52197	25122
16.53010	23901
16.53822	23319
16.54633	27224
16.55447	24550
16.56258	23796
16.57072	27066
16.57883	25020
16.58695	23626
16.59508	24705
16.60320	27176
16.61132	25367
16.61945	20956
16.62757	22969
16.63570	22099
16.64382	23909
16.65193	23665
16.66007	22442
16.66818	24530
16.67632	24139
16.68443	23809
16.69255	22403
16.70068	23368
16.70880	23990
16.71693	25501
16.72505	26349
16.73317	25008
16.74130	22087
16.74942	22820
16.75753	20697
16.76567	21325
16.77378	25767
16.78192	20442
16.79003	24022
16.79815	22616
16.80628	21521
16.81440	22441
16.82253	21060
16.83065	23132
16.83877	26997
16.84690	25533
16.85502	22154
16.86315	22440
16.87127	21561
16.87938	21561
16.88752	22230
16.89563	23451
16.90375	24180
16.91188	21029
16.92000	22250
16.92813	21815
16.93625	22992
16.94437	24438
16.95250	26965
16.96062	21504
16.96875	20725
16.97687	22221
16.98498	23128
16.99312	23982
17.00123	20108
17.00935	23988
17.01748	23710
17.02560	23912
17.03373	22759
17.04185	28739
17.04997	22168
17.05810	23588
17.06622	22043
17.07435	20616
17.08247	24231
17.09058	20880
17.09872	21894
17.10683	23132
17.11497	22150
17.12308	23561
17.13120	26086
17.13933	25169
17.14745	24424
17.15557	20390
17.16370	25682
17.17182	24384
17.17995	24346
17.18807	25114
17.19618	24802
17.20432	22662
17.21243	22343
17.22057	22554
17.22868	25624
17.23680	21106
17.24493	21942
17.25305	22576
17.26118	19744
17.26930	23752
17.27742	27259
17.28555	23046
17.29367	26749
17.30178	25128
17.30992	26030
17.31803	24009
17.32617	25235
17.33428	23271
17.34240	26995
17.35053	24639
17.35865	26805
17.36678	26398
17.37490	29470
17.38302	27787
17.39115	28622
17.39927	28180
17.40738	24797
17.41552	28838
17.42363	25946
17.43177	29516
17.43988	26411
17.44800	26804
17.45613	28480
17.46425	23722
17.47238	27668
17.48050	25354
17.48862	29391
17.49675	27809
17.50487	27371
17.51300	26824
17.52112	28919
17.52923	25011
17.53737	29609
17.54548	28598
17.55360	23508
17.56173	27455
17.56985	24874
17.57798	26992
17.58610	25007
17.59422	25833
17.60235	29869
17.61047	25850
17.61860	26225
17.62672	25341
17.63483	24838
17.64297	27697
17.65108	27012
17.65920	28086
17.66733	31449
17.67545	28168
17.68358	27958
17.69170	25686
17.69982	27272
17.70795	25545
17.71607	27468
17.72420	28772
17.73232	27191
17.74043	26979
17.74857	26852
17.75668	25876
17.76482	24689
17.77293	25671
17.78105	25962
17.78918	27064
17.79730	28543
17.80542	26502
17.81355	26163
17.82167	27393
17.82980	26537
17.83792	26268
17.84603	26905
17.85417	26190
17.86228	25856
17.87042	28283
17.87853	26567
17.88665	25978
17.89478	26545
17.90290	27967
17.91103	26033
17.91915	22841
17.92727	24245
17.93540	25204
17.94352	22573
17.95163	21906
17.95977	24659
17.96788	23865
17.97602	24874
17.98413	25339
17.99225	24185
18.00038	28241
18.00850	26189
18.01663	26901
18.02475	25456
18.03287	25233
18.04100	24499
18.04912	23135
18.05723	20915
18.06537	26336
18.07348	26356
18.08162	29480
18.08973	25894
18.09785	25666
18.10598	24698
18.11410	26756
18.12223	24858
18.13035	28074
18.13847	25097
18.14660	22913
18.15472	24905
18.16285	26535
18.17097	24866
18.17908	23994
18.18722	23517
18.19533	25608
18.20345	30730
18.21158	21220
18.21970	24267
18.22783	25963
18.23595	29079
18.24407	26545
18.25220	24110
18.26032	24052
18.26845	23538
18.27657	23150
18.28468	23545
18.29282	23503
18.30093	22523
18.30907	25115
18.31718	26308
18.32530	23298
18.33343	27393
18.34155	23433
18.34967	23704
18.35780	24023
18.36592	23183
18.37405	22461
18.38217	23101
18.39028	25651
18.39842	20437
18.40653	22344
18.41467	24891
18.42278	22154
18.43090	21102
18.43903	22673
18.44715	24444
18.45527	22627
18.46340	22949
18.47152	22415
18.47965	22932
18.48777	25272
18.49588	23967
18.50402	22134
18.51213	22716
18.52027	24962
18.52838	23177
18.53650	24762
18.54463	21300
18.55275	22893
18.56088	23591
18.56900	22757
18.57712	24189
18.58525	25089
18.59337	23451
18.60148	24401
18.60962	25273
18.61773	24511
18.62587	25354
18.63398	22158
18.64210	24412
18.65023	22645
18.65835	23465
18.66648	25414
18.67460	22696
18.68272	23350
18.69085	22340
18.69897	21234
18.70708	23378
18.71522	26469
18.72333	23595
18.73147	23236
18.73958	23139
18.74770	19815
18.75583	23180
18.76395	21899
18.77208	25680
18.78020	22686
18.78832	20126
18.79645	21751
18.80457	23770
18.81270	24386
18.82082	23082
18.82893	21515
18.83707	22949
18.84518	23114
18.85330	23547
18.86143	21581
18.86955	21828
18.87768	25254
18.88580	21626
18.89392	23893
18.90205	25947
18.91017	22604
18.91830	28397
18.92642	22176
18.93453	25495
18.94267	22619
18.95078	23274
18.95892	24091
18.96703	26214
18.97515	28538
18.98328	25249
18.99140	23301
18.99952	21571
19.00765	27457
19.01577	24265
19.02390	23291
19.03202	23831
19.04013	25200
19.04827	29188
19.05638	29684
19.06452	27408
19.07263	25436
19.08075	26908
19.08888	30357
19.09700	28159
19.10513	29137
19.11325	26975
19.12137	29631
19.12950	28576
19.13762	27513
19.14573	30671
19.15387	27767
19.16198	29627
19.17012	29859
19.17823	27226
19.18635	27295
19.19448	30948
19.20260	29036
19.21073	27264
19.21885	27029
19.22697	26207
19.23510	27100
19.24322	25275
19.25133	29187
19.25947	28737
19.26758	26537
19.27572	33105
19.28383	32178
19.29195	33839
19.30008	31707
19.30820	33332
19.31633	38023
19.32445	30089
19.33257	29657
19.34070	29460
19.34882	28119
19.35695	30824
19.36507	31606
19.37318	29629
19.38132	33835
19.38943	36315
19.39755	38481
19.40568	44230
19.41380	53816
19.42193	75058
19.43005	93561
19.43817	109957
19.44630	102446
19.45442	92362
19.46255	70289
19.47067	51865
19.47878	41972
19.48692	39608
19.49503	35821
19.50315	34099
19.51128	33987
19.51940	31368
19.52753	28209
19.53565	30668
19.54377	31715
19.55190	31769
19.56002	31664
19.56815	32525
19.57627	30979
19.58438	28801
19.59252	29559
19.60063	24777
19.60877	28489
19.61688	32793
19.62500	36398
19.63313	45429
19.64125	51300
19.64937	66194
19.65750	69509
19.66562	69081
19.67375	68213
19.68187	67476
19.68998	58580
19.69812	52612
19.70623	58068
19.71437	50635
19.72248	42422
19.73060	38705
19.73873	35177
19.74685	33902
19.75498	31088
19.76310	28235
19.77122	29793
19.77935	28723
19.78747	30066
19.79558	29869
19.80372	29972
19.81183	25331
19.81997	28451
19.82808	24193
19.83620	26048
19.84433	23943
19.85245	25168
19.86058	28692
19.86870	27719
19.87682	30134
19.88495	32214
19.89307	40996
19.90118	39273
19.90932	41442
19.91743	43590
19.92557	39677
19.93368	38077
19.94180	38019
19.94993	37216
19.95805	37919
19.96618	37690
19.97430	36612
19.98242	39000
19.99055	35746
19.99867	37843
20.00680	41402
20.01492	32055
20.02303	32896
20.03117	33656
20.03928	33054
20.04740	30343
20.05553	32496
20.06365	25113
20.07178	28240
20.07990	27571
20.08802	26743
20.09615	25317
20.10427	27325
20.11240	33335
20.12052	27066
20.12863	30703
20.13677	31031
20.14488	30840
20.15302	28430
20.16113	29507
20.16925	31983
20.17738	30477
20.18550	30639
20.19362	32409
20.20175	34328
20.20987	31990
20.21800	37987
20.22612	45134
20.23423	58449
20.24237	72023
20.25048	81955
20.25862	87434
20.26673	88541
20.27485	82507
20.28298	77136
20.29110	67347
20.29922	55716
20.30735	51169
20.31547	44623
20.32360	39144
20.33172	33510
20.33983	34668
20.34797	33087
20.35608	29476
20.36422	36778
20.37233	30976
20.38045	35437
20.38858	38017
20.39670	38737
20.40483	38357
20.41295	42658
20.42107	41535
20.42920	45689
20.43732	42640
20.44543	37439
20.45357	35817
20.46168	31496
20.46982	30881
20.47793	29879
20.48605	29068
20.49418	27682
20.50230	28438
20.51043	26513
20.51855	26253
20.52667	25700
20.53480	27467
20.54292	28424
20.55103	25279
20.55917	28479
20.56728	24056
20.57542	24099
20.58353	25217
20.59165	25709
20.59978	27023
20.60790	23043
20.61603	27022
20.62415	24751
20.63227	26991
20.64040	26387
20.64852	26396
20.65665	24782
20.66477	24467
20.67288	26198
20.68102	24215
20.68913	22174
20.69725	23176
20.70538	22506
20.71350	23415
20.72163	23224
20.72975	26170
20.73787	25828
20.74600	30078
20.75412	25176
20.76225	23598
20.77037	24664
20.77848	24229
20.78662	25287
20.79473	24426
20.80287	24014
20.81098	25715
20.81910	25342
20.82723	26944
20.83535	24631
20.84347	27933
20.85160	28297
20.85972	24043
20.86785	24767
20.87597	27904
20.88408	23749
20.89222	23532
20.90033	25183
20.90847	22250
20.91658	23434
20.92470	27405
20.93283	25766
20.94095	24461
20.94907	23755
20.95720	24761
20.96532	23728
20.97345	24229
20.98157	24953
20.98968	24540
20.99782	26690
21.00593	26942
21.01407	28616
21.02218	22684
21.03030	21886
21.03843	24241
21.04655	24890
21.05468	24942
21.06280	24244
21.07092	25401
21.07905	23467
21.08717	23828
21.09528	26978
21.10342	23885
21.11153	24738
21.11967	25335
21.12778	21859
21.13590	27071
21.14403	27004
21.15215	22711
21.16028	24799
21.16840	27251
21.17652	24560
21.18465	27042
21.19277	24319
21.20090	24740
21.20902	25686
21.21713	28035
21.22527	26899
21.23338	29273
21.24150	25206
21.24963	25920
21.25775	25635
21.26588	28163
21.27400	25354
21.28212	27517
21.29025	25202
21.29837	23759
21.30650	28014
21.31462	28260
21.32273	25583
21.33087	25455
21.33898	26349
21.34710	28424
21.35523	27683
21.36335	25895
21.37148	28374
21.37960	25768
21.38772	22162
21.39585	20592
21.40397	22062
21.41210	24773
21.42022	25553
21.42833	25392
21.43647	25563
21.44458	23189
21.45272	23971
21.46083	22750
21.46895	22838
21.47708	22560
21.48520	27004
21.49332	24324
21.50145	31303
21.50957	24462
21.51770	25990
21.52582	31339
21.53393	25448
21.54207	26601
21.55018	28095
21.55832	28841
21.56643	35850
21.57455	37820
21.58268	45011
21.59080	47546
21.59893	46393
21.60705	46080
21.61517	43965
21.62330	39465
21.63142	32983
21.63953	29211
21.64767	29197
21.65578	29848
21.66392	28942
21.67203	27706
21.68015	25252
21.68828	23036
21.69640	23896
21.70453	24022
21.71265	27225
21.72077	24523
21.72890	26439
21.73702	27999
21.74513	28336
21.75327	28490
21.76138	35109
21.76952	43614
21.77763	41020
21.78575	46183
21.79388	45301
21.80200	42111
21.81013	38701
21.81825	34371
21.82637	33010
21.83450	27577
21.84262	30328
21.85075	27383
21.85887	28991
21.86698	33097
21.87512	25182
21.88323	26308
21.89135	25344
21.89948	24157
21.90760	24274
21.91573	23526
21.92385	27368
21.93197	22102
21.94010	29348
21.94822	23332
21.95635	23958
21.96447	25028
21.97258	26709
21.98072	27755
21.98883	29262
21.99695	26455
22.00508	25469
22.01320	22903
22.02133	25702
22.02945	28434
22.03757	23868
22.04570	26198
22.05382	25934
22.06195	24077
22.07007	25675
22.07818	27943
22.08632	23074
22.09443	25533
22.10257	31184
22.11068	26391
22.11880	21202
22.12693	25847
22.13505	25942
22.14317	29312
22.15130	27677
22.15942	27351
22.16755	32729
22.17567	32257
22.18378	30558
22.19192	34103
22.20003	29385
22.20817	27008
22.21628	26492
22.22440	23307
22.23253	28098
22.24065	30191
22.24878	23556
22.25690	27547
22.26502	26783
22.27315	25380
22.28127	24042
22.28938	26710
22.29752	27395
22.30563	27997
22.31377	24985
22.32188	26562
22.33000	28547
22.33813	26210
22.34625	24781
22.35438	26831
22.36250	26038
22.37062	23487
22.37875	24127
22.38687	25529
22.39498	24423
22.40312	22498
22.41123	23275
22.41937	26193
22.42748	25454
22.43560	26173
22.44373	25819
22.45185	26333
22.45998	24406
22.46810	25656
22.47622	23122
22.48435	28546
22.49247	30047
22.50060	26429
22.50872	25747
22.51683	24482
22.52497	26996
22.53308	25459
22.54120	27012
22.54933	24791
22.55745	25022
22.56558	28311
22.57370	25263
22.58182	25642
22.58995	24262
22.59807	25326
22.60620	22287
22.61432	22132
22.62243	23694
22.63057	24761
22.63868	24140
22.64682	23138
22.65493	28441
22.66305	26369
22.67118	25262
22.67930	27998
22.68742	28571
22.69555	25958
22.70367	27742
22.71180	27111
22.71992	28545
22.72803	25307
22.73617	27419
22.74428	26580
22.75242	23470
22.76053	30004
22.76865	25741
22.77678	26883
22.78490	24927
22.79302	26196
22.80115	23846
22.80927	24509
22.81740	24370
22.82552	28656
22.83363	26077
22.84177	24998
22.84988	26079
22.85802	28209
22.86613	27029
22.87425	33187
22.88238	30095
22.89050	35780
22.89863	39415
22.90675	44600
22.91487	48466
22.92300	56497
22.93112	60342
22.93923	63144
22.94737	66290
22.95548	60123
22.96362	54421
22.97173	52757
22.97985	51104
22.98798	42928
22.99610	46151
23.00423	42050
23.01235	36401
23.02047	38875
23.02860	34924
23.03672	33171
23.04483	31224
23.05297	28011
23.06108	27132
23.06922	31011
23.07733	27055
23.08545	29913
23.09358	29841
23.10170	30697
23.10983	30741
23.11795	24822
23.12607	30664
23.13420	28921
23.14232	29124
23.15045	31010
23.15857	28758
23.16668	26424
23.17482	26452
23.18293	27033
23.19105	25058
23.19918	28207
23.20730	25610
23.21543	24078
23.22355	24214
23.23167	33331
23.23980	24473
23.24792	24589
23.25605	24780
23.26417	26347
23.27228	27030
23.28042	28887
23.28853	27147
23.29667	26370
23.30478	25265
23.31290	27537
23.32103	24001
23.32915	24547
23.33727	26089
23.34540	25801
23.35352	25599
23.36165	28412
23.36977	28295
23.37788	26178
23.38602	24426
23.39413	25120
23.40227	23380
23.41038	25670
23.41850	24842
23.42663	26626
23.43475	26180
23.44287	25891
23.45100	24134
23.45912	26180
23.46725	28022
23.47537	26776
23.48348	24010
23.49162	26757
23.49973	23796
23.50787	25394
23.51598	26297
23.52410	26266
23.53223	27081
23.54035	25362
23.54848	26516
23.55660	24214
23.56472	29119
23.57285	30009
23.58097	25149
23.58908	28009
23.59722	30367
23.60533	26564
23.61347	29904
23.62158	27982
23.62970	24824
23.63783	27336
23.64595	27969
23.65408	28761
23.66220	31306
23.67032	31690
23.67845	32105
23.68657	34086
23.69470	32737
23.70282	32492
23.71093	30967
23.71907	34078
23.72718	42095
23.73530	55980
23.74343	89119
23.75155	144511
23.75968	222693
23.76780	315982
23.77592	382168
23.78405	401356
23.79217	374947
23.80030	325938
23.80842	271139
23.81653	228106
23.82467	192744
23.83278	147828
23.84090	129002
23.84903	118076
23.85715	98606
23.86528	86244
23.87340	82173
23.88152	73539
23.88965	74841
23.89777	68576
23.90590	65025
23.91402	60451
23.92213	53621
23.93027	54610
23.93838	53003
23.94652	49276
23.95463	50709
23.96275	44945
23.97088	43767
23.97900	46294
23.98712	48454
23.99525	43489
24.00337	43440
24.01150	40212
24.01962	41309
24.02773	40319
24.03587	44309
24.04398	44938
24.05212	46862
24.06023	46162
24.06835	41950
24.07648	43342
24.08460	43795
24.09272	42554
24.10085	39287
24.10897	40802
24.11710	42583
24.12522	40224
24.13333	39458
24.14147	41953
24.14958	42782
24.15772	41549
24.16583	39320
24.17395	38510
24.18208	40608
24.19020	35034
24.19833	37947
24.20645	35824
24.21457	34803
24.22270	35041
24.23082	32062
24.23893	29949
24.24707	34107
24.25518	29863
24.26332	34870
24.27143	31228
24.27955	38649
24.28768	43174
24.29580	47341
24.30393	59658
24.31205	73182
24.32017	77539
24.32830	72001
24.33642	61027
24.34455	46734
24.35267	38400
24.36078	33764
24.36892	30977
24.37703	32732
24.38515	28848
24.39328	31425
24.40140	34101
24.40953	33968
24.41765	37407
24.42577	44957
24.43390	43412
24.44202	41977
24.45015	40236
24.45827	39103
24.46638	35255
24.47452	37370
24.48263	37815
24.49077	32672
24.49888	34967
24.50700	32222
24.51513	30580
24.52325	32835
24.53137	29368
24.53950	27399
24.54762	30389
24.55575	28891
24.56387	30500
24.57198	29349
24.58012	27003
24.58823	27949
24.59637	28992
24.60448	30814
24.61260	30861
24.62073	28003
24.62885	31535
24.63697	27884
24.64510	30056
24.65322	30538
24.66135	31929
24.66947	35333
24.67758	32662
24.68572	30552
24.69383	34068
24.70197	28836
24.71008	28311
24.71820	33994
24.72633	26757
24.73445	27685
24.74258	25315
24.75070	25554
24.75882	28752
24.76695	25772
24.77507	30286
24.78318	28337
24.79132	26701
24.79943	23346
24.80757	31305
24.81568	25371
24.82380	25801
24.83193	28060
24.84005	25911
24.84818	22664
24.85630	26299
24.86442	27687
24.87255	24045
24.88067	25995
24.88878	23180
24.89692	28610
24.90503	29089
24.91317	27372
24.92128	26065
24.92940	25595
24.93753	26684
24.94565	26837
24.95378	26251
24.96190	26070
24.97002	25202
24.97815	29078
24.98627	25979
24.99440	29153
25.00252	24004
25.01063	28726
25.01877	28617
25.02688	25159
25.03500	24084
25.04313	24285
25.05125	25731
25.05938	24975
25.06750	28542
25.07562	26772
25.08375	30134
25.09187	24048
25.10000	26924
25.10812	29783
25.11623	29738
25.12437	31344
25.13248	32264
25.14062	31198
25.14873	34088
25.15685	32532
25.16498	32078
25.17310	30076
25.18122	28587
25.18935	28768
25.19747	25729
25.20560	27800
25.21372	23016
25.22183	29197
25.22997	27449
25.23808	26862
25.24622	29001
25.25433	28212
25.26245	27866
25.27058	27011
25.27870	30263
25.28682	34557
25.29495	31457
25.30307	35915
25.31120	37908
25.31932	38537
25.32743	39628
25.33557	36029
25.34368	32208
25.35182	31401
25.35993	31573
25.36805	29179
25.37618	31230
25.38430	32345
25.39243	33975
25.40055	31914
25.40867	32026
25.41680	27868
25.42492	25271
25.43303	27975
25.44117	25010
25.44928	26400
25.45742	25655
25.46553	25011
25.47365	26493
25.48178	27450
25.48990	23378
25.49803	25859
25.50615	25958
25.51427	29374
25.52240	28525
25.53052	26031
25.53865	27157
25.54677	22500
25.55488	24690
25.56302	23131
25.57113	24255
25.57925	24353
25.58738	24565
25.59550	25745
25.60363	23803
25.61175	25190
25.61987	24226
25.62800	22808
25.63612	23675
25.64425	20599
25.65237	22510
25.66048	23405
25.66862	21243
25.67673	23902
25.68485	23078
25.69298	22622
25.70110	21232
25.70923	24130
25.71735	24072
25.72547	23973
25.73360	20837
25.74172	21960
25.74985	21763
25.75797	22727
25.76608	21458
25.77422	22045
25.78233	21065
25.79047	23277
25.79858	23226
25.80670	20728
25.81483	22571
25.82295	21063
25.83107	23267
25.83920	25398
25.84732	23570
25.85545	26212
25.86357	26053
25.87168	20350
25.87982	23722
25.88793	24244
25.89607	23482
25.90418	21791
25.91230	20009
25.92043	24878
25.92855	27240
25.93667	29495
25.94480	28898
25.95292	24799
25.96105	30010
25.96917	29477
25.97728	28972
25.98542	24640
25.99353	22989
26.00167	23237
26.00978	22937
26.01790	30910
26.02603	24711
26.03415	27793
26.04228	23187
26.05040	21918
26.05852	24346
26.06665	20827
26.07477	21068
26.08288	22269
26.09102	25254
26.09913	24918
26.10727	25720
26.11538	27270
26.12350	29682
26.13163	30690
26.13975	33679
26.14788	34849
26.15600	32731
26.16412	35852
26.17225	31415
26.18037	29345
26.18850	28917
26.19662	29947
26.20473	26234
26.21287	28068
26.22098	25165
26.22910	26136
26.23723	24427
26.24535	23028
26.25348	23625
26.26160	26501
26.26972	26605
26.27785	24288
26.28597	21188
26.29410	20925
26.30222	21660
26.31033	20108
26.31847	23042
26.32658	26152
26.33470	22428
26.34283	22355
26.35095	22090
26.35908	21528
26.36720	21079
26.37532	22689
26.38345	21023
26.39157	24997
26.39970	26121
26.40782	22649
26.41593	28385
26.42407	24604
26.43218	24422
26.44032	23035
26.44843	22674
26.45655	22784
26.46468	22198
26.47280	26474
26.48092	24044
26.48905	27426
26.49717	23716
26.50530	23610
26.51342	22190
26.52153	20853
26.52967	23510
26.53778	24469
26.54592	25616
26.55403	23799
26.56215	22851
26.57028	23932
26.57840	26463
26.58653	22764
26.59465	26856
26.60277	23100
26.61090	21814
26.61902	22239
26.62713	26305
26.63527	22848
26.64338	23129
26.65152	23037
26.65963	22804
26.66775	22945
26.67588	22854
26.68400	24864
26.69213	23744
26.70025	25563
26.70837	21502
26.71650	22702
26.72462	25402
26.73273	24839
26.74087	23902
26.74898	24730
26.75712	23398
26.76523	26280
26.77335	22967
26.78148	25370
26.78960	24347
26.79773	31596
26.80585	21689
26.81397	25184
26.82210	24594
26.83022	25559
26.83835	25325
26.84647	22748
26.85458	23753
26.86272	24358
26.87083	23286
26.87895	20620
26.88708	20891
26.89520	23279
26.90333	19570
26.91145	21346
26.91957	21908
26.92770	23537
26.93582	26859
26.94395	24029
26.95207	26947
26.96018	31333
26.96832	44515
26.97643	53132
26.98455	60514
26.99268	75124
27.00080	79453
27.00893	78803
27.01705	78441
27.02517	66531
27.03330	66761
27.04142	64731
27.04955	57294
27.05767	54123
27.06578	45246
27.07392	45477
27.08203	40402
27.09017	39558
27.09828	38693
27.10640	33613
27.11453	40876
27.12265	36004
27.13077	32726
27.13890	37496
27.14702	31578
27.15515	33546
27.16327	35236
27.17138	33655
27.17952	31550
27.18763	37760
27.19577	37850
27.20388	33034
27.21200	35725
27.22013	30452
27.22825	29238
27.23638	28464
27.24450	26962
27.25262	29022
27.26075	26816
27.26887	29143
27.27698	28716
27.28512	26688
27.29323	28068
27.30137	25459
27.30948	26306
27.31760	28502
27.32573	26927
27.33385	26540
27.34198	27240
27.35010	27260
27.35822	30745
27.36635	26671
27.37447	28406
27.38258	26303
27.39072	30861
27.39883	26732
27.40697	27866
27.41508	28664
27.42320	26730
27.43133	28014
27.43945	29184
27.44758	26322
27.45570	26250
27.46382	25881
27.47195	26574
27.48007	27479
27.48820	23813
27.49632	24117
27.50443	26976
27.51257	27460
27.52068	29741
27.52880	27279
27.53693	26720
27.54505	27725
27.55318	25440
27.56130	26006
27.56942	25184
27.57755	23864
27.58567	23854
27.59380	22528
27.60192	26581
27.61003	22009
27.61817	26531
27.62628	24136
27.63442	25033
27.64253	23317
27.65065	25673
27.65878	27230
27.66690	24334
27.67502	27533
27.68315	28787
27.69127	26675
27.69940	24318
27.70752	25048
27.71563	23765
27.72377	23876
27.73188	22637
27.74002	25093
27.74813	22191
27.75625	23835
27.76438	23931
27.77250	26177
27.78062	22437
27.78875	26461
27.79687	33519
27.80500	28890
27.81312	27416
27.82123	28865
27.82937	23643
27.83748	32033
27.84562	23942
27.85373	26114
27.86185	25935
27.86998	31670
27.87810	26640
27.88623	26189
27.89435	24539
27.90247	24979
27.91060	24598
27.91872	26445
27.92683	26376
27.93497	25235
27.94308	22590
27.95122	23982
27.95933	22795
27.96745	22547
27.97558	26705
27.98370	23541
27.99183	24372
27.99995	24814
28.00807	23342
28.01620	20985
28.02432	22985
28.03245	25011
28.04057	24909
28.04868	25170
28.05682	27082
28.06493	26665
28.07305	24212
28.08118	26122
28.08930	28369
28.09743	27734
28.10555	33563
28.11367	34921
28.12180	33324
28.12992	29865
28.13805	28590
28.14617	29440
28.15428	23637
28.16242	25645
28.17053	27348
28.17865	23150
28.18678	25071
28.19490	23262
28.20303	27034
28.21115	24580
28.21927	25206
28.22740	22910
28.23552	30127
28.24365	22628
28.25177	27410
28.25988	25104
28.26802	27687
28.27613	27125
28.28427	29251
28.29238	32169
28.30050	37523
28.30863	36249
28.31675	34663
28.32487	36794
28.33300	37188
28.34112	39012
28.34925	34423
28.35737	35843
28.36548	32554
28.37362	36520
28.38173	28947
28.38987	31698
28.39798	31076
28.40610	31927
28.41423	35092
28.42235	26419
28.43047	28380
28.43860	25849
28.44672	28850
28.45485	29234
28.46297	26532
28.47108	27191
28.47922	24181
28.48733	25594
28.49547	27102
28.50358	27383
28.51170	31347
28.51983	27159
28.52795	25732
28.53608	27199
28.54420	27733
28.55232	31573
28.56045	25998
28.56857	24148
28.57668	24128
28.58482	24486
28.59293	25966
28.60107	27772
28.60918	27967
28.61730	29376
28.62543	34092
28.63355	36834
28.64168	37694
28.64980	42375
28.65792	48530
28.66605	52772
28.67417	54813
28.68230	51809
28.69042	52973
28.69853	49803
28.70667	40421
28.71478	34900
28.72290	31512
28.73103	31128
28.73915	27680
28.74728	27565
28.75540	25028
28.76352	24550
28.77165	27062
28.77977	28092
28.78790	25296
28.79602	28454
28.80413	27258
28.81227	27055
28.82038	24184
28.82850	26866
28.83663	26646
28.84475	25324
28.85288	25897
28.86100	25029
28.86912	27037
28.87725	25116
28.88537	25688
28.89350	23244
28.90162	23795
28.90973	25036
28.91787	25361
28.92598	24743
28.93412	26322
28.94223	28566
28.95035	29787
28.95848	28794
28.96660	28806
28.97472	28901
28.98285	32414
28.99097	25560
28.99910	26139
29.00722	26509
29.01533	26445
29.02347	25848
29.03158	26576
29.03972	28700
29.04783	26983
29.05595	28523
29.06408	22634
29.07220	24583
29.08033	27648
29.08845	22679
29.09657	23349
29.10470	22555
29.11282	23749
29.12093	23364
29.12907	25737
29.13718	26238
29.14532	26422
29.15343	29915
29.16155	30789
29.16968	27120
29.17780	27249
29.18593	26629
29.19405	25571
29.20217	26312
29.21030	25319
29.21842	30068
29.22653	25577
29.23467	28935
29.24278	27673
29.25092	26675
29.25903	29568
29.26715	25756
29.27528	26183
29.28340	27276
29.29153	27167
29.29965	25563
29.30777	29674
29.31590	23147
29.32402	23767
29.33215	28882
29.34027	26401
29.34838	26797
29.35652	28635
29.36463	27184
29.37275	28082
29.38088	28554
29.38900	33762
29.39713	32066
29.40525	30676
29.41337	32426
29.42150	25062
29.42962	26695
29.43775	26885
29.44587	26633
29.45398	24072
29.46212	26947
29.47023	29335
29.47835	31467
29.48648	30303
29.49460	31746
29.50273	33654
29.51085	33429
29.51897	32428
29.52710	32776
29.53522	27820
29.54335	27380
29.55147	27845
29.55958	28417
29.56772	24625
29.57583	27417
29.58397	27395
29.59208	23407
29.60020	32085
29.60833	24772
29.61645	33450
29.62457	33472
29.63270	28572
29.64082	28860
29.64895	25812
29.65707	26324
29.66518	26214
29.67332	25939
29.68143	27008
29.68957	31904
29.69768	24457
29.70580	25051
29.71393	24725
29.72205	29159
29.73018	26648
29.73830	23537
29.74642	26827
29.75455	25477
29.76267	25539
29.77078	25605
29.77892	26838
29.78703	23616
29.79517	25093
29.80328	24058
29.81140	23531
29.81953	23828
29.82765	23654
29.83578	22922
29.84390	24028
29.85202	25856
29.86015	26550
29.86827	25034
29.87640	28476
29.88452	28885
29.89263	29627
29.90077	40568
29.90888	36644
29.91700	37663
29.92513	34550
29.93325	33987
29.94138	37327
29.94950	42782
29.95762	34866
29.96575	37434
29.97387	37459
29.98200	39898
29.99012	39646
29.99823	37326
30.00637	36567
30.01448	37788
30.02260	36319
30.03073	35138
30.03885	33318
30.04698	33992
30.05510	31484
30.06322	30651
30.07135	30062
30.07947	30955
30.08760	33500
30.09572	32074
30.10383	31256
30.11197	28111
30.12008	25755
30.12822	25266
30.13633	28554
30.14445	27539
30.15258	27597
30.16070	28959
30.16882	26409
30.17695	29187
30.18507	28037
30.19320	25475
30.20132	29069
30.20943	27396
30.21757	27960
30.22568	30917
30.23382	26331
30.24193	24409
30.25005	26504
30.25818	31280
30.26630	33250
30.27442	34517
30.28255	34341
30.29067	31986
30.29880	29795
30.30692	32022
30.31503	31286
30.32317	32525
30.33128	33064
30.33942	36263
30.34753	29665
30.35565	28376
30.36378	27270
30.37190	30162
30.38003	28436
30.38815	28966
30.39627	27845
30.40440	26273
30.41252	30452
30.42063	27558
30.42877	31479
30.43688	28063
30.44502	26875
30.45313	25225
30.46125	28661
30.46938	26254
30.47750	25266
30.48563	26985
30.49375	27173
30.50187	29065
30.51000	27330
30.51812	28397
30.52625	27937
30.53437	26818
30.54248	28365
30.55062	25489
30.55873	27917
30.56685	27225
30.57498	28345
30.58310	27395
30.59123	23320
30.59935	25596
30.60747	24967
30.61560	27646
30.62372	27054
30.63185	26802
30.63997	27284
30.64808	24818
30.65622	26147
30.66433	26389
30.67245	26726
30.68058	30509
30.68870	25108
30.69683	25297
30.70495	26665
30.71307	25431
30.72120	24234
30.72932	27818
30.73745	27678
30.74557	29210
30.75368	24090
30.76182	22753
30.76993	28677
30.77807	30898
30.78618	31477
30.79430	34706
30.80243	29906
30.81055	27537
30.81867	31831
30.82680	32615
30.83492	33362
30.84305	33423
30.85117	29938
30.85928	30290
30.86742	29323
30.87553	29434
30.88367	30758
30.89178	24982
30.89990	28858
30.90803	25111
30.91615	25450
30.92428	28750
30.93240	29455
30.94052	27633
30.94865	28809
30.95677	29382
30.96488	25397
30.97302	28546
30.98113	26962
30.98927	31194
30.99738	28068
31.00550	27843
31.01363	27535
31.02175	28607
31.02988	27012
31.03800	30551
31.04612	29531
31.05425	27144
31.06237	27421
31.07048	34390
31.07862	35628
31.08673	36667
31.09487	35791
31.10298	31508
31.11110	29965
31.11923	31178
31.12735	31463
31.13548	28576
31.14360	30662
31.15172	31799
31.15985	35256
31.16797	45991
31.17610	63383
31.18422	72179
31.19233	91130
31.20047	99426
31.20858	105315
31.21670	99460
31.22483	83912
31.23295	72372
31.24108	55568
31.24920	41755
31.25732	37719
31.26545	32337
31.27357	30528
31.28170	30794
31.28982	33166
31.29793	30442
31.30607	29198
31.31418	32030
31.32230	29458
31.33043	30082
31.33855	31260
31.34668	30325
31.35480	29121
31.36292	28782
31.37105	27211
31.37917	27619
31.38730	29927
31.39542	29722
31.40353	28694
31.41167	34520
31.41978	28509
31.42792	32057
31.43603	29973
31.44415	30027
31.45228	28784
31.46040	29322
31.46852	28296
31.47665	26879
31.48477	30342
31.49290	26089
31.50102	29012
31.50913	30513
31.51727	27623
31.52538	30446
31.53352	28290
31.54163	27959
31.54975	29172
31.55788	30423
31.56600	34249
31.57413	25720
31.58225	30324
31.59037	29065
31.59850	27218
31.60662	24350
31.61473	27464
31.62287	29611
31.63098	29759
31.63912	28471
31.64723	29843
31.65535	29458
31.66348	29147
31.67160	31765
31.67973	27473
31.68785	30687
31.69597	31069
31.70410	26213
31.71222	27427
31.72033	27250
31.72847	26315
31.73658	25987
31.74472	28636
31.75283	28064
31.76095	30272
31.76908	30431
31.77720	34992
31.78533	35432
31.79345	33485
31.80157	36249
31.80970	36417
31.81782	37866
31.82595	39608
31.83407	43939
31.84218	44031
31.85032	50795
31.85843	51405
31.86655	54073
31.87468	49497
31.88280	44522
31.89093	46643
31.89905	39024
31.90717	39476
31.91530	39599
31.92342	37255
31.93155	34107
31.93967	38551
31.94778	42699
31.95592	38902
31.96403	39908
31.97217	43955
31.98028	38969
31.98840	41523
31.99653	32609
32.00465	38286
32.01277	32073
32.02090	33216
32.02902	33659
32.03715	33863
32.04527	33769
32.05338	34951
32.06152	33314
32.06963	32621
32.07777	33596
32.08588	38026
32.09400	34803
32.10213	29843
32.11025	30948
32.11837	29858
32.12650	31512
32.13462	28619
32.14275	29832
32.15087	30367
32.15898	30401
32.16712	31979
32.17523	35164
32.18337	30184
32.19148	29774
32.19960	29943
32.20773	30377
32.21585	30192
32.22398	31656
32.23210	31721
32.24022	30853
32.24835	29446
32.25647	33797
32.26458	30382
32.27272	31012
32.28083	35642
32.28897	30655
32.29708	27075
32.30520	30779
32.31333	32070
32.32145	30164
32.32958	31709
32.33770	32672
32.34582	32348
32.35395	33984
32.36207	32190
32.37020	30510
32.37832	31052
32.38643	31436
32.39457	29206
32.40268	36161
32.41080	29908
32.41893	34971
32.42705	34307
32.43518	34048
32.44330	27112
32.45142	34993
32.45955	29816
32.46767	31633
32.47580	32889
32.48392	30061
32.49203	31014
32.50017	36546
32.50828	30175
32.51640	29937
32.52453	32181
32.53265	31531
32.54078	32051
32.54890	39496
32.55702	41524
32.56515	43982
32.57327	46652
32.58140	45496
32.58952	40417
32.59763	39752
32.60577	35923
32.61388	30226
32.62202	31464
32.63013	36151
32.63825	30623
32.64638	31635
32.65450	29873
32.66262	32631
32.67075	33683
32.67887	31629
32.68700	36587
32.69512	35030
32.70323	35774
32.71137	37486
32.71948	36677
32.72762	37434
32.73573	32507
32.74385	38437
32.75198	32798
32.76010	34532
32.76822	29928
32.77635	35352
32.78447	29778
32.79260	31387
32.80072	29558
32.80883	30123
32.81697	31876
32.82508	31518
32.83322	29029
32.84133	35319
32.84945	29418
32.85758	29881
32.86570	31591
32.87383	28148
32.88195	32788
32.89007	35888
32.89820	32346
32.90632	30207
32.91443	34070
32.92257	36608
32.93068	32084
32.93882	34670
32.94693	32463
32.95505	30464
32.96318	32196
32.97130	31301
32.97943	29320
32.98755	32335
32.99567	30704
33.00380	32097
33.01192	31528
33.02005	29325
33.02817	30084
33.03628	30562
33.04442	28520
33.05253	32741
33.06065	36109
33.06878	38149
33.07690	33852
33.08503	41070
33.09315	43823
33.10127	44251
33.10940	40360
33.11752	39490
33.12565	38353
33.13377	39483
33.14188	39397
33.15002	36207
33.15813	31748
33.16625	34192
33.17438	30069
33.18250	31879
33.19063	32427
33.19875	33220
33.20687	39074
33.21500	33652
33.22312	29461
33.23125	33427
33.23937	30174
33.24748	31360
33.25562	30788
33.26373	34393
33.27187	30470
33.27998	35623
33.28810	36482
33.29623	31016
33.30435	34385
33.31247	35197
33.32060	35661
33.32872	31896
33.33685	32786
33.34497	35880
33.35308	35344
33.36122	31499
33.36933	28568
33.37747	38776
33.38558	30871
33.39370	32925
33.40183	32210
33.40995	33535
33.41808	33383
33.42620	34628
33.43432	31635
33.44245	32711
33.45057	31861
33.45868	29407
33.46682	30018
33.47493	34244
33.48307	32448
33.49118	30818
33.49930	32888
33.50743	31442
33.51555	33553
33.52368	34615
33.53180	34631
33.53992	32509
33.54805	33568
33.55617	35794
33.56428	36139
33.57242	35939
33.58053	34790
33.58867	36611
33.59678	34901
33.60490	37193
33.61303	37670
33.62115	37934
33.62928	33194
33.63740	34196
33.64552	34506
33.65365	36461
33.66177	38422
33.66990	37082
33.67802	36899
33.68613	36245
33.69427	38272
33.70238	39381
33.71050	37025
33.71863	40485
33.72675	35935
33.73488	37850
33.74300	37029
33.75112	41481
33.75925	38534
33.76737	38742
33.77550	37347
33.78362	39749
33.79173	39073
33.79987	36034
33.80798	35730
33.81610	36165
33.82423	38868
33.83235	39452
33.84048	38400
33.84860	37775
33.85672	42544
33.86485	44607
33.87297	36473
33.88110	36610
33.88922	38679
33.89733	38141
33.90547	45733
33.91358	36913
33.92172	33069
33.92983	38014
33.93795	35209
33.94608	38089
33.95420	36841
33.96232	36121
33.97045	38595
33.97857	37375
33.98670	38308
33.99482	39247
34.00293	38818
34.01107	40839
34.01918	32741
34.02732	37219
34.03543	38286
34.04355	36934
34.05168	37868
34.05980	33289
34.06793	35398
34.07605	37792
34.08417	35768
34.09230	36792
34.10042	35192
34.10853	38691
34.11667	36875
34.12478	35522
34.13292	42071
34.14103	36613
34.14915	34244
34.15728	35333
34.16540	35670
34.17353	36267
34.18165	39787
34.18977	38011
34.19790	36288
34.20602	36225
34.21413	35343
34.22227	34389
34.23038	38322
34.23852	38612
34.24663	36194
34.25475	35090
34.26288	36447
34.27100	38501
34.27913	35195
34.28725	37294
34.29537	37812
34.30350	38981
34.31162	38342
34.31975	40936
34.32787	38789
34.33598	37669
34.34412	38397
34.35223	42019
34.36035	35673
34.36848	39980
34.37660	42987
34.38473	41652
34.39285	45466
34.40097	44935
34.40910	45469
34.41722	38982
34.42535	39462
34.43347	41603
34.44158	50017
34.44972	53598
34.45783	56665
34.46597	55904
34.47408	64698
34.48220	62674
34.49033	61642
34.49845	57421
34.50657	62016
34.51470	59792
34.52282	53694
34.53095	51130
34.53907	51470
34.54718	52890
34.55532	49190
34.56343	50190
34.57157	55540
34.57968	49160
34.58780	47849
34.59593	48154
34.60405	47468
34.61217	47650
34.62030	46576
34.62842	45164
34.63655	43959
34.64467	45515
34.65278	43329
34.66092	45153
34.66903	42790
34.67717	43913
34.68528	43894
34.69340	43013
34.70153	43532
34.70965	45341
34.71778	47149
34.72590	44393
34.73402	42901
34.74215	46231
34.75027	42444
34.75838	44971
34.76652	44813
34.77463	46436
34.78277	45663
34.79088	44972
34.79900	51244
34.80713	43368
34.81525	45553
34.82338	48184
34.83150	50090
34.83962	46869
34.84775	45745
34.85587	41303
34.86398	41750
34.87212	42148
34.88023	43447
34.88837	44238
34.89648	43267
34.90460	41295
34.91273	45494
34.92085	41924
34.92898	41475
34.93710	46804
34.94522	41748
34.95335	44248
34.96147	45897
34.96960	47703
34.97772	44380
34.98583	43352
34.99397	42918
35.00208	42124
35.01020	45864
35.01833	44290
35.02645	43272
35.03458	45774
35.04270	45287
35.05082	49603
35.05895	43999
35.06707	46581
35.07520	42598
35.08332	42969
35.09143	42356
35.09957	42835
35.10768	46413
35.11582	43371
35.12393	47171
35.13205	44370
35.14018	43565
35.14830	44764
35.15642	45034
35.16455	45396
35.17267	43170
35.18080	46861
35.18892	42470
35.19703	44112
35.20517	45498
35.21328	43140
35.22142	44650
35.22953	46118
35.23765	44983
35.24578	48777
35.25390	49574
35.26203	44749
35.27015	49699
35.27827	47027
35.28640	44474
35.29452	43106
35.30263	44109
35.31077	43474
35.31888	45613
35.32702	42227
35.33513	46182
35.34325	46745
35.35138	48918
35.35950	41528
35.36763	43258
35.37575	46397
35.38387	45651
35.39200	49443
35.40012	44235
35.40823	48103
35.41637	48450
35.42448	54054
35.43262	53643
35.44073	53195
35.44885	54272
35.45698	60718
35.46510	55199
35.47323	58098
35.48135	61798
35.48947	62801
35.49760	55952
35.50572	54983
35.51385	58057
35.52197	53041
35.53008	51046
35.53822	50989
35.54633	49034
35.55445	60599
35.56258	58722
35.57070	54359
35.57883	54928
35.58695	55144
35.59507	50043
35.60320	50688
35.61132	50340
35.61945	44626
35.62757	52969
35.63568	50285
35.64382	47196
35.65193	47278
35.66005	48161
35.66818	46074
35.67630	52849
35.68443	49173
35.69255	52660
35.70067	44273
35.70880	47977
35.71692	48900
35.72505	51364
35.73317	44876
35.74128	48911
35.74942	45577
35.75753	49507
35.76567	46535
35.77378	49980
35.78190	48112
35.79003	45113
35.79815	42234
35.80627	43158
35.81440	48361
35.82252	49297
35.83065	50066
35.83877	46233
35.84688	50801
35.85502	45875
35.86313	46066
35.87127	47551
35.87938	44551
35.88750	47926
35.89563	47420
35.90375	43402
35.91188	47621
35.92000	49241
35.92812	50080
35.93625	47060
35.94437	48901
35.95248	50450
35.96062	48200
35.96873	48344
35.97687	50803
35.98498	53242
35.99310	57031
36.00123	61447
36.00935	67772
36.01748	64955
36.02560	69723
36.03372	63126
36.04185	57743
36.04997	57350
36.05808	56063
36.06622	52347
36.07433	54195
36.08247	49832
36.09058	53618
36.09870	50188
36.10683	52372
36.11495	51013
36.12308	48924
36.13120	49751
36.13932	52285
36.14745	49549
36.15557	49401
36.16370	49029
36.17182	51357
36.17993	58391
36.18807	57436
36.19618	60642
36.20430	64684
36.21243	70099
36.22055	65018
36.22868	69178
36.23680	63403
36.24492	55436
36.25305	54469
36.26117	51606
36.26930	51987
36.27742	53889
36.28553	53816
36.29367	53021
36.30178	54385
36.30992	52595
36.31803	52139
36.32615	53497
36.33428	51810
36.34240	54665
36.35052	53268
36.35865	53640
36.36677	53444
36.37490	56856
36.38302	61268
36.39113	68605
36.39927	59706
36.40738	59633
36.41552	56641
36.42363	60739
36.43175	58527
36.43988	54945
36.44800	52851
36.45612	50172
36.46425	58142
36.47237	54805
36.48050	50203
36.48862	53223
36.49673	56480
36.50487	48098
36.51298	49061
36.52112	54790
36.52923	57793
36.53735	52108
36.54548	56516
36.55360	56960
36.56173	56476
36.56985	57655
36.57797	59066
36.58610	56015
36.59422	54915
36.60233	54638
36.61047	54786
36.61858	62701
36.62672	59244
36.63483	58714
36.64295	61460
36.65108	58944
36.65920	55671
36.66733	55869
36.67545	62361
36.68357	58184
36.69170	60574
36.69982	61321
36.70793	59498
36.71607	58574
36.72418	59168
36.73232	59558
36.74043	57838
36.74855	60158
36.75668	63657
36.76480	61221
36.77293	62220
36.78105	60331
36.78917	62041
36.79730	65377
36.80542	59576
36.81355	64038
36.82167	62423
36.82978	57679
36.83792	59530
36.84603	60110
36.85415	62296
36.86228	67727
36.87040	60771
36.87853	60550
36.88665	63799
36.89477	65794
36.90290	63544
36.91102	60995
36.91915	68384
36.92727	66838
36.93538	65937
36.94352	63982
36.95163	68127
36.95977	70370
36.96788	66317
36.97600	70290
36.98413	71329
36.99225	62468
37.00037	65364
37.00850	64718
37.01662	71392
37.02475	70722
37.03287	70516
37.04098	65415
37.04912	68065
37.05723	69717
37.06537	72903
37.07348	67933
37.08160	72089
37.08973	70049
37.09785	73852
37.10597	71739
37.11410	70584
37.12222	73078
37.13035	73512
37.13847	70354
37.14658	76534
37.15472	74934
37.16283	68745
37.17097	78167
37.17908	66313
37.18720	68655
37.19533	72510
37.20345	70983
37.21158	71266
37.21970	74593
37.22782	71774
37.23595	77741
37.24407	79745
37.25218	82908
37.26032	82389
37.26843	84424
37.27657	85986
37.28468	86833
37.29280	81002
37.30093	84846
37.30905	78895
37.31718	77355
37.32530	77855
37.33342	78538
37.34155	79286
37.34967	76717
37.35780	78621
37.36592	74410
37.37403	75168
37.38217	72951
37.39028	73437
37.39840	72329
37.40653	69117
37.41465	79088
37.42278	72946
37.43090	74084
37.43902	71245
37.44715	68827
37.45527	73456
37.46340	73623
37.47152	74732
37.47963	75484
37.48777	73950
