Z:\data\JTB-E02\BACandBLUE\JTB-E02-198-09.D Fri Feb 22 12:15:50 2019
Start of data points
2.09518,68563
2.10330,61828
2.11143,64488
2.11955,61498
2.12768,61741
2.13580,61731
2.14392,64773
2.15205,62631
2.16017,56201
2.16828,54947
2.17642,57081
2.18453,64444
2.19267,50799
2.20078,54494
2.20890,55150
2.21703,51969
2.22515,53052
2.23328,51821
2.24140,52501
2.24952,48814
2.25765,56145
2.26577,249837
2.27390,1283870
2.28202,1896555
2.29013,1525339
2.29827,737766
2.30638,414824
2.31450,295177
2.32263,267577
2.33075,230139
2.33888,199692
2.34700,190049
2.35512,169363
2.36325,153413
2.37137,141261
2.37950,133194
2.38762,131498
2.39573,126530
2.40387,121683
2.41198,114940
2.42010,114137
2.42823,106704
2.43635,110396
2.44448,110671
2.45260,115456
2.46072,138230
2.46885,176547
2.47697,160696
2.48510,128505
2.49322,101421
2.50133,104900
2.50947,97186
2.51758,91365
2.52572,91043
2.53383,90244
2.54195,88910
2.55008,82922
2.55820,86810
2.56632,86907
2.57445,86879
2.58257,81238
2.59070,73440
2.59882,73411
2.60693,81907
2.61507,91841
2.62318,92609
2.63132,83865
2.63943,82720
2.64755,84810
2.65568,82237
2.66380,77220
2.67192,78167
2.68005,77961
2.68817,75220
2.69630,78702
2.70442,72101
2.71253,70628
2.72067,67817
2.72878,67995
2.73692,73830
2.74503,71627
2.75315,71878
2.76128,68376
2.76940,68474
2.77753,68277
2.78565,68918
2.79377,70888
2.80190,87451
2.81002,97709
2.81813,102236
2.82627,97630
2.83438,86358
2.84252,82047
2.85063,77721
2.85875,89158
2.86688,93385
2.87500,96433
2.88313,98172
2.89125,90163
2.89937,94025
2.90750,87715
2.91562,81088
2.92375,76481
2.93187,69914
2.93998,71556
2.94812,70553
2.95623,68512
2.96435,66130
2.97248,70230
2.98060,69712
2.98873,65838
2.99685,73184
3.00497,110388
3.01310,160678
3.02122,143337
3.02935,107212
3.03747,88411
3.04558,83105
3.05372,86319
3.06183,84643
3.06995,84005
3.07808,82636
3.08620,94283
3.09433,102445
3.10245,116167
3.11057,137180
3.11870,163603
3.12682,186762
3.13495,200810
3.14307,174660
3.15118,146314
3.15932,136989
3.16743,121544
3.17557,116542
3.18368,102813
3.19180,104694
3.19993,92516
3.20805,88712
3.21617,77393
3.22430,83150
3.23242,86842
3.24055,77022
3.24867,77725
3.25678,71628
3.26492,71685
3.27303,70295
3.28117,74371
3.28928,133124
3.29740,393979
3.30553,1104115
3.31365,1996686
3.32178,2444360
3.32990,2120225
3.33802,1534932
3.34615,1130340
3.35427,890761
3.36238,726450
3.37052,605025
3.37863,549982
3.38677,522664
3.39488,489960
3.40300,482597
3.41113,487264
3.41925,460735
3.42738,423769
3.43550,375748
3.44362,335030
3.45175,316507
3.45987,290249
3.46798,306825
3.47612,297477
3.48423,285578
3.49237,307766
3.50048,332872
3.50860,323972
3.51673,312502
3.52485,297936
3.53298,307423
3.54110,280045
3.54922,248614
3.55735,225909
3.56547,200561
3.57360,190954
3.58172,184642
3.58983,188176
3.59797,169783
3.60608,174215
3.61420,173940
3.62233,176734
3.63045,168835
3.63858,160507
3.64670,155049
3.65482,151497
3.66295,153520
3.67107,191610
3.67920,222700
3.68732,243415
3.69543,237175
3.70357,238029
3.71168,246118
3.71980,233342
3.72793,206643
3.73605,188089
3.74418,181600
3.75230,173824
3.76042,160775
3.76855,158014
3.77667,171664
3.78480,205157
3.79292,302645
3.80103,394036
3.80917,369988
3.81728,271249
3.82542,221624
3.83353,195956
3.84165,183553
3.84978,169677
3.85790,159399
3.86602,142724
3.87415,138024
3.88227,135288
3.89040,137688
3.89852,141717
3.90663,139949
3.91477,149143
3.92288,148924
3.93102,158480
3.93913,168695
3.94725,157132
3.95538,150902
3.96350,144936
3.97163,148886
3.97975,155129
3.98787,147255
3.99600,143868
4.00412,141488
4.01223,145912
4.02037,160945
4.02848,163817
4.03662,177877
4.04473,182312
4.05285,198561
4.06098,205368
4.06910,203659
4.07723,174628
4.08535,156557
4.09347,136469
4.10160,139666
4.10972,154204
4.11785,167816
4.12597,183070
4.13408,177735
4.14222,189533
4.15033,205021
4.15845,245610
4.16658,282309
4.17470,278367
4.18283,240116
4.19095,202061
4.19907,164186
4.20720,148907
4.21532,193009
4.22345,354638
4.23157,711844
4.23968,1003789
4.24782,954797
4.25593,721203
4.26405,515911
4.27218,385406
4.28030,302755
4.28843,258176
4.29655,225213
4.30467,199414
4.31280,187393
4.32092,175023
4.32905,171127
4.33717,167156
4.34528,157515
4.35342,144933
4.36153,145344
4.36967,142105
4.37778,138645
4.38590,132826
4.39403,132325
4.40215,138964
4.41027,138925
4.41840,145023
4.42652,146069
4.43465,149982
4.44277,142606
4.45088,146101
4.45902,140788
4.46713,149071
4.47527,164202
4.48338,168553
4.49150,178215
4.49963,202330
4.50775,233467
4.51587,263567
4.52400,268539
4.53212,249350
4.54025,207523
4.54837,184533
4.55648,180306
4.56462,164003
4.57273,160000
4.58087,154509
4.58898,154167
4.59710,151564
4.60523,142362
4.61335,141068
4.62148,146002
4.62960,145374
4.63772,146067
4.64585,154953
4.65397,146397
4.66208,160143
4.67022,186095
4.67833,197574
4.68647,184186
4.69458,162606
4.70270,142553
4.71083,129504
4.71895,126273
4.72708,115951
4.73520,110016
4.74332,115311
4.75145,112009
4.75957,111558
4.76770,119901
4.77582,128827
4.78393,132947
4.79207,128366
4.80018,117314
4.80830,115337
4.81643,118941
4.82455,113850
4.83268,112924
4.84080,115421
4.84892,116722
4.85705,116243
4.86517,112774
4.87330,120892
4.88142,136048
4.88953,143017
4.89767,152341
4.90578,155609
4.91390,142370
4.92203,130029
4.93015,123631
4.93828,150845
4.94640,262107
4.95452,582723
4.96265,1083307
4.97077,1563387
4.97890,1716419
4.98702,1441833
4.99513,1041388
5.00327,711121
5.01138,545450
5.01952,431210
5.02763,352215
5.03575,315343
5.04388,296563
5.05200,274548
5.06012,243319
5.06825,245326
5.07637,239564
5.08450,220082
5.09262,209459
5.10073,201223
5.10887,198136
5.11698,194676
5.12512,191296
5.13323,184971
5.14135,189654
5.14948,189969
5.15760,193664
5.16573,202258
5.17385,220232
5.18197,271534
5.19010,362517
5.19822,444207
5.20633,455421
5.21447,375952
5.22258,294650
5.23072,244774
5.23883,236820
5.24695,239858
5.25508,248042
5.26320,237325
5.27133,208382
5.27945,192589
5.28757,183582
5.29570,183542
5.30382,175053
5.31193,177709
5.32007,172468
5.32818,170942
5.33632,172360
5.34443,181070
5.35255,181415
5.36068,183947
5.36880,194483
5.37693,216435
5.38505,203891
5.39317,194019
5.40130,169025
5.40942,159952
5.41755,151162
5.42567,146579
5.43378,143446
5.44192,142931
5.45003,147054
5.45815,147897
5.46628,162847
5.47440,177539
5.48253,180077
5.49065,160696
5.49877,160932
5.50690,166542
5.51502,168861
5.52315,159283
5.53127,158564
5.53938,152996
5.54752,145429
5.55563,142451
5.56375,139954
5.57188,137693
5.58000,155261
5.58813,184991
5.59625,210223
5.60437,232220
5.61250,236086
5.62062,215268
5.62875,198340
5.63687,187210
5.64498,179026
5.65312,184230
5.66123,174381
5.66937,161915
5.67748,160518
5.68560,153591
5.69373,146744
5.70185,154426
5.70997,150197
5.71810,148326
5.72622,146421
5.73435,146672
5.74247,148329
5.75058,136951
5.75872,134597
5.76683,133346
5.77497,138242
5.78308,142488
5.79120,146777
5.79933,152317
5.80745,141075
5.81558,141216
5.82370,135693
5.83182,127194
5.83995,126597
5.84807,132647
5.85618,127730
5.86432,129834
5.87243,123732
5.88057,116736
5.88868,115228
5.89680,117915
5.90493,117752
5.91305,117988
5.92118,121254
5.92930,119532
5.93742,108745
5.94555,110701
5.95367,113990
5.96178,115859
5.96992,120754
5.97803,138320
5.98617,135243
5.99428,135013
6.00240,126280
6.01053,118901
6.01865,110777
6.02678,106051
6.03490,99845
6.04302,105120
6.05115,100250
6.05927,112024
6.06740,107825
6.07552,123049
6.08363,119150
6.09177,115129
6.09988,116393
6.10800,99858
6.11613,99177
6.12425,96981
6.13238,103515
6.14050,97059
6.14862,102065
6.15675,107079
6.16487,115263
6.17300,133407
6.18112,148526
6.18923,158297
6.19737,151121
6.20548,138917
6.21362,133928
6.22173,128102
6.22985,134615
6.23798,136389
6.24610,138153
6.25422,155517
6.26235,161285
6.27047,157921
6.27860,172781
6.28672,180795
6.29483,172424
6.30297,160611
6.31108,158121
6.31922,149106
6.32733,150949
6.33545,154186
6.34358,151256
6.35170,158070
6.35982,163301
6.36795,169406
6.37607,172971
6.38420,167627
6.39232,141840
6.40043,136873
6.40857,132046
6.41668,130141
6.42482,121621
6.43293,126242
6.44105,112475
6.44918,110945
6.45730,115972
6.46543,122892
6.47355,137556
6.48167,128288
6.48980,119932
6.49792,112497
6.50603,108435
6.51417,109506
6.52228,101593
6.53042,102057
6.53853,102089
6.54665,101247
6.55478,102855
6.56290,98811
6.57103,95239
6.57915,101519
6.58727,88639
6.59540,92087
6.60352,96735
6.61163,90926
6.61977,89018
6.62788,86280
6.63602,93611
6.64413,93014
6.65225,98363
6.66038,99445
6.66850,100134
6.67663,102730
6.68475,99614
6.69287,103719
6.70100,104681
6.70912,106384
6.71725,100263
6.72537,92670
6.73348,90085
6.74162,90372
6.74973,88616
6.75785,84441
6.76598,89419
6.77410,89955
6.78223,107898
6.79035,112857
6.79847,122290
6.80660,130616
6.81472,125808
6.82285,113552
6.83097,103787
6.83908,104276
6.84722,101435
6.85533,99679
6.86347,92985
6.87158,85913
6.87970,84028
6.88783,81668
6.89595,80710
6.90407,85335
6.91220,82879
6.92032,79045
6.92845,74025
6.93657,72990
6.94468,67967
6.95282,74727
6.96093,67908
6.96907,69955
6.97718,67672
6.98530,61701
6.99343,62754
7.00155,66449
7.00967,62953
7.01780,65352
7.02592,63935
7.03405,68576
7.04217,68076
7.05028,66433
7.05842,70027
7.06653,71329
7.07467,68010
7.08278,69332
7.09090,60680
7.09903,65439
7.10715,67607
7.11528,63109
7.12340,70971
7.13152,68815
7.13965,69718
7.14777,68985
7.15588,63945
7.16402,63080
7.17213,64978
7.18027,62411
7.18838,58841
7.19650,65188
7.20463,62182
7.21275,61030
7.22088,59636
7.22900,59977
7.23712,59727
7.24525,61464
7.25337,74840
7.26150,88533
7.26962,103855
7.27773,129901
7.28587,140868
7.29398,135109
7.30210,116760
7.31023,95519
7.31835,78876
7.32648,71482
7.33460,68506
7.34272,70118
7.35085,76143
7.35897,77272
7.36710,78398
7.37522,79114
7.38333,74225
7.39147,71901
7.39958,66273
7.40770,67001
7.41583,66950
7.42395,65342
7.43208,65792
7.44020,63582
7.44832,61412
7.45645,62579
7.46457,58785
7.47270,62318
7.48082,63639
7.48893,65886
7.49707,76734
7.50518,67680
7.51332,65995
7.52143,65760
7.52955,67252
7.53768,67639
7.54580,62789
7.55392,67019
7.56205,59119
7.57017,64317
7.57830,61023
7.58642,67989
7.59453,63078
7.60267,66753
7.61078,68305
7.61892,63848
7.62703,60693
7.63515,60542
7.64328,61979
7.65140,63179
7.65953,57797
7.66765,61083
7.67577,61384
7.68390,61724
7.69202,60637
7.70013,58929
7.70827,58841
7.71638,58714
7.72452,60352
7.73263,63843
7.74075,64853
7.74888,65024
7.75700,67205
7.76513,62720
7.77325,69083
7.78137,66122
7.78950,57567
7.79762,58136
7.80573,56701
7.81387,58887
7.82198,62084
7.83012,65621
7.83823,73574
7.84635,64923
7.85448,68872
7.86260,66940
7.87073,61172
7.87885,61643
7.88697,63678
7.89510,58984
7.90322,55274
7.91135,57111
7.91947,53708
7.92758,51282
7.93572,52353
7.94383,52371
7.95195,47497
7.96008,51605
7.96820,52081
7.97633,51965
7.98445,61856
7.99257,60362
8.00070,66132
8.00882,69357
8.01695,68207
8.02507,67262
8.03318,61310
8.04132,59187
8.04943,56736
8.05755,56827
8.06568,55999
8.07380,57537
8.08193,56474
8.09005,56215
8.09817,55036
8.10630,52353
8.11442,55085
8.12255,54160
8.13067,55904
8.13878,55524
8.14692,57003
8.15503,58094
8.16317,56940
8.17128,61381
8.17940,63027
8.18753,65660
8.19565,72103
8.20377,77262
8.21190,81086
8.22002,73894
8.22815,72072
8.23627,65965
8.24438,65401
8.25252,64645
8.26063,64985
8.26877,62938
8.27688,64141
8.28500,56561
8.29313,60917
8.30125,60536
8.30938,54028
8.31750,56211
8.32562,55515
8.33375,55568
8.34187,57410
8.34998,61381
8.35812,75144
8.36623,81286
8.37437,96360
8.38248,99741
8.39060,87112
8.39873,77797
8.40685,71301
8.41498,66536
8.42310,65386
8.43122,64811
8.43935,60182
8.44747,58553
8.45558,54889
8.46372,53917
8.47183,52666
8.47997,48570
8.48808,54949
8.49620,60093
8.50433,63950
8.51245,58918
8.52058,63539
8.52870,62421
8.53682,61867
8.54495,61411
8.55307,56123
8.56120,60420
8.56932,54805
8.57743,55883
8.58557,55350
8.59368,57393
8.60180,58029
8.60993,55680
8.61805,54144
8.62618,52231
8.63430,58440
8.64242,53246
8.65055,53135
8.65867,55965
8.66680,53350
8.67492,53824
8.68303,53175
8.69117,53608
8.69928,51532
8.70742,48574
8.71553,58493
8.72365,52688
8.73178,56517
8.73990,50549
8.74802,52781
8.75615,53567
8.76427,57527
8.77240,74372
8.78052,97116
8.78863,189028
8.79677,377033
8.80488,621017
8.81302,826149
8.82113,865535
8.82925,739620
8.83738,556933
8.84550,378263
8.85362,267474
8.86175,203685
8.86987,171373
8.87800,145344
8.88612,129548
8.89423,120315
8.90237,111390
8.91048,102425
8.91862,96236
8.92673,96240
8.93485,97559
8.94298,95279
8.95110,96344
8.95923,90232
8.96735,86529
8.97547,89817
8.98360,82204
8.99172,86244
8.99983,81383
9.00797,84749
9.01608,76006
9.02422,85437
9.03233,75687
9.04045,75957
9.04858,75342
9.05670,76756
9.06483,70110
9.07295,73048
9.08107,73140
9.08920,67848
9.09732,77870
9.10543,77641
9.11357,70195
9.12168,68904
9.12982,67296
9.13793,68160
9.14605,66552
9.15418,68844
9.16230,73119
9.17043,69793
9.17855,71893
9.18667,66534
9.19480,70145
9.20292,69273
9.21105,69839
9.21917,65678
9.22728,66137
9.23542,69797
9.24353,67696
9.25165,64311
9.25978,62253
9.26790,67093
9.27603,70472
9.28415,64802
9.29227,63472
9.30040,67151
9.30852,60434
9.31665,64392
9.32477,61583
9.33288,57315
9.34102,54552
9.34913,56892
9.35727,58749
9.36538,61818
9.37350,54699
9.38163,65061
9.38975,57734
9.39787,59234
9.40600,55384
9.41412,59039
9.42225,52995
9.43037,54587
9.43848,55975
9.44662,49433
9.45473,53993
9.46287,53606
9.47098,49559
9.47910,53615
9.48723,50660
9.49535,53310
9.50348,56958
9.51160,58036
9.51972,56178
9.52785,56756
9.53597,58965
9.54408,63679
9.55222,62465
9.56033,68163
9.56847,70221
9.57658,72454
9.58470,68361
9.59283,65635
9.60095,62351
9.60908,69375
9.61720,62246
9.62532,64732
9.63345,60461
9.64157,55703
9.64968,54408
9.65782,49482
9.66593,48070
9.67407,45934
9.68218,43830
9.69030,46368
9.69843,44254
9.70655,42221
9.71468,41533
9.72280,43377
9.73092,42683
9.73905,44533
9.74717,38809
9.75530,40917
9.76342,37117
9.77153,36555
9.77967,42287
9.78778,38559
9.79590,35845
9.80403,37442
9.81215,37562
9.82028,39454
9.82840,39879
9.83652,45967
9.84465,38716
9.85277,44641
9.86090,36676
9.86902,36107
9.87713,39478
9.88527,38400
9.89338,41821
9.90150,34623
9.90963,35359
9.91775,36750
9.92588,39051
9.93400,37038
9.94212,35766
9.95025,39673
9.95837,35374
9.96650,34846
9.97462,37780
9.98273,37938
9.99087,40703
9.99898,40309
10.00712,43336
10.01523,49943
10.02335,55757
10.03148,51614
10.03960,54751
10.04772,60155
10.05585,54018
10.06397,52306
10.07210,49308
10.08022,48512
10.08833,41146
10.09647,41726
10.10458,41370
10.11272,38433
10.12083,41227
10.12895,37292
10.13708,37611
10.14520,35050
10.15333,38127
10.16145,36841
10.16957,37886
10.17770,38310
10.18582,36634
10.19393,37726
10.20207,34343
10.21018,37892
10.21832,40566
10.22643,40448
10.23455,44677
10.24268,36921
10.25080,39637
10.25893,44514
10.26705,36966
10.27517,42325
10.28330,38772
10.29142,39284
10.29953,36675
10.30767,41315
10.31578,39854
10.32392,44324
10.33203,40681
10.34015,38560
10.34828,40752
10.35640,34626
10.36453,35828
10.37265,37205
10.38077,33603
10.38890,34228
10.39702,30164
10.40515,35292
10.41327,38538
10.42138,32725
10.42952,31964
10.43763,32339
10.44575,31236
10.45388,32660
10.46200,35691
10.47013,34884
10.47825,36427
10.48637,32392
10.49450,28339
10.50262,29644
10.51075,32333
10.51887,35622
10.52698,32912
10.53512,35647
10.54323,35930
10.55137,31505
10.55948,36199
10.56760,32497
10.57573,35014
10.58385,33443
10.59197,38320
10.60010,33513
10.60822,36207
10.61635,34517
10.62447,35460
10.63258,33111
10.64072,33175
10.64883,31352
10.65697,32726
10.66508,33111
10.67320,32686
10.68133,35691
10.68945,32667
10.69757,39383
10.70570,38784
10.71382,36183
10.72195,43777
10.73007,41603
10.73818,42330
10.74632,44589
10.75443,41854
10.76257,40923
10.77068,46571
10.77880,50110
10.78693,56816
10.79505,57499
10.80318,51871
10.81130,54087
10.81942,49943
10.82755,43751
10.83567,37276
10.84378,38134
10.85192,38676
10.86003,34924
10.86817,36189
10.87628,41691
10.88440,34889
10.89253,32222
10.90065,33359
10.90878,32988
10.91690,31194
10.92502,32268
10.93315,32320
10.94127,33043
10.94938,34697
10.95752,31414
10.96563,31708
10.97377,36063
10.98188,36578
10.99000,32607
10.99813,33191
11.00625,30899
11.01438,34504
11.02250,32286
11.03062,30244
11.03875,31399
11.04687,33318
11.05500,35872
11.06312,29021
11.07123,31131
11.07937,29334
11.08748,27151
11.09560,30353
11.10373,29467
11.11185,31011
11.11998,28693
11.12810,29856
11.13622,27910
11.14435,31596
11.15247,34501
11.16060,30192
11.16872,32102
11.17683,27611
11.18497,27268
11.19308,31548
11.20122,28426
11.20933,32904
11.21745,32923
11.22558,36532
11.23370,34734
11.24182,30659
11.24995,30967
11.25807,26828
11.26620,28782
11.27432,29560
11.28243,27150
11.29057,32801
11.29868,33146
11.30682,31200
11.31493,27248
11.32305,26971
11.33118,30990
11.33930,37341
11.34742,38174
11.35555,42067
11.36367,37473
11.37180,34702
11.37992,33354
11.38803,33412
11.39617,29487
11.40428,34200
11.41242,29629
11.42053,29898
11.42865,30011
11.43678,29205
11.44490,29581
11.45303,28323
11.46115,32615
11.46927,32365
11.47740,28999
11.48552,31227
11.49363,29009
11.50177,29505
11.50988,29521
11.51802,31785
11.52613,27292
11.53425,26999
11.54238,29854
11.55050,29924
11.55863,25947
11.56675,30394
11.57487,27843
11.58300,27506
11.59112,27029
11.59925,25018
11.60737,28114
11.61548,29064
11.62362,26973
11.63173,32842
11.63985,29562
11.64798,29582
11.65610,25813
11.66423,30227
11.67235,25294
11.68047,28277
11.68860,27838
11.69672,33102
11.70485,30115
11.71297,31123
11.72108,32798
11.72922,32627
11.73733,34720
11.74545,35793
11.75358,33166
11.76170,28469
11.76983,31591
11.77795,30897
11.78607,29695
11.79420,28563
11.80232,31854
11.81045,30777
11.81857,32034
11.82668,29970
11.83482,31229
11.84293,28432
11.85107,31910
11.85918,30968
11.86730,30322
11.87543,33760
11.88355,35326
11.89167,34994
11.89980,34872
11.90792,32883
11.91605,33828
11.92417,33860
11.93228,28567
11.94042,30312
11.94853,29378
11.95667,33148
11.96478,28688
11.97290,25027
11.98103,26715
11.98915,24724
11.99728,26187
12.00540,23371
12.01352,27481
12.02165,27969
12.02977,31942
12.03788,29770
12.04602,26226
12.05413,25605
12.06227,29025
12.07038,25909
12.07850,29609
12.08663,28172
12.09475,33695
12.10288,28275
12.11100,27485
12.11912,29808
12.12725,32611
12.13537,31114
12.14348,29497
12.15162,29888
12.15973,26004
12.16787,28433
12.17598,25985
12.18410,30373
12.19223,28709
12.20035,26951
12.20848,31420
12.21660,26842
12.22472,27645
12.23285,29760
12.24097,28814
12.24910,27660
12.25722,26470
12.26533,25477
12.27347,24933
12.28158,28967
12.28970,29635
12.29783,27376
12.30595,32439
12.31408,29353
12.32220,28833
12.33032,30034
12.33845,24738
12.34657,26606
12.35470,28806
12.36282,30168
12.37093,28804
12.37907,27241
12.38718,33257
12.39530,26901
12.40343,33503
12.41155,31322
12.41968,35201
12.42780,37693
12.43592,36516
12.44405,35568
12.45217,36393
12.46030,36602
12.46842,46497
12.47653,51725
12.48467,51396
12.49278,48305
12.50092,45419
12.50903,41475
12.51715,34801
12.52528,30483
12.53340,30628
12.54152,30573
12.54965,30251
12.55777,26951
12.56590,29050
12.57402,35314
12.58213,28337
12.59027,30729
12.59838,29492
12.60652,26741
12.61463,28423
12.62275,30081
12.63088,27844
12.63900,29565
12.64713,30368
12.65525,28248
12.66337,32486
12.67150,25670
12.67962,27245
12.68773,29766
12.69587,28474
12.70398,28861
12.71212,30600
12.72023,28076
12.72835,29721
12.73648,28270
12.74460,34332
12.75273,37133
12.76085,38520
12.76897,42434
12.77710,40905
12.78522,38266
12.79333,38095
12.80147,32408
12.80958,34309
12.81772,29579
12.82583,28421
12.83395,27428
12.84208,24692
12.85020,25184
12.85833,29590
12.86645,28824
12.87457,28655
12.88270,25247
12.89082,24667
12.89895,28006
12.90707,24684
12.91518,28080
12.92332,24378
12.93143,26882
12.93955,27643
12.94768,27606
12.95580,27914
12.96393,25378
12.97205,26092
12.98017,26225
12.98830,26409
12.99642,25395
13.00455,25712
13.01267,28177
13.02078,28779
13.02892,24745
13.03703,26578
13.04517,27435
13.05328,28420
13.06140,28758
13.06953,28100
13.07765,27392
13.08577,24302
13.09390,25419
13.10202,25683
13.11015,28116
13.11827,27558
13.12638,26665
13.13452,28279
13.14263,25418
13.15077,27778
13.15888,29192
13.16700,29473
13.17513,27289
13.18325,28742
13.19137,28076
13.19950,31451
13.20762,33170
13.21575,32932
13.22387,32907
13.23198,35187
13.24012,32569
13.24823,26775
13.25637,30896
13.26448,29905
13.27260,28143
13.28073,28954
13.28885,32853
13.29698,27781
13.30510,26273
13.31322,26482
13.32135,23500
13.32947,27257
13.33758,28029
13.34572,24481
13.35383,25406
13.36197,22169
13.37008,24688
13.37820,25341
13.38633,25212
13.39445,25736
13.40258,22996
13.41070,26552
13.41882,26142
13.42695,29598
13.43507,24455
13.44318,25597
13.45132,26795
13.45943,24416
13.46757,22892
13.47568,24752
13.48380,23657
13.49193,26476
13.50005,25363
13.50818,27143
13.51630,26239
13.52442,29534
13.53255,27725
13.54067,24192
13.54880,24813
13.55692,23769
13.56503,27962
13.57317,26833
13.58128,27341
13.58940,24662
13.59753,28001
13.60565,27152
13.61378,23825
13.62190,25823
13.63002,22599
13.63815,26053
13.64627,25849
13.65440,23155
13.66252,25576
13.67063,24817
13.67877,24434
13.68688,25720
13.69502,24580
13.70313,21365
13.71125,23202
13.71938,21613
13.72750,26513
13.73562,26340
13.74375,26593
13.75187,27130
13.76000,24327
13.76812,25387
13.77623,21695
13.78437,24255
13.79248,26537
13.80062,24782
13.80873,25287
13.81685,30038
13.82498,28234
13.83310,27607
13.84122,29732
13.84935,25530
13.85747,23941
13.86560,27935
13.87372,30050
13.88183,33686
13.88997,32342
13.89808,28130
13.90622,26884
13.91433,26197
13.92245,25073
13.93058,25814
13.93870,25993
13.94683,28811
13.95495,26126
13.96307,32699
13.97120,25324
13.97932,25932
13.98743,26157
13.99557,25457
14.00368,31200
14.01182,24953
14.01993,24922
14.02805,27850
14.03618,27484
14.04430,29277
14.05243,28195
14.06055,26666
14.06867,30767
14.07680,24563
14.08492,27709
14.09305,27045
14.10117,31906
14.10928,30406
14.11742,25389
14.12553,24724
14.13365,24975
14.14178,23143
14.14990,27747
14.15803,28539
14.16615,27802
14.17427,30976
14.18240,35105
14.19052,40741
14.19865,47958
14.20677,68335
14.21488,95060
14.22302,108983
14.23113,129330
14.23925,120557
14.24738,110073
14.25550,103200
14.26363,92192
14.27175,84093
14.27987,86648
14.28800,79761
14.29612,67331
14.30425,66025
14.31237,57578
14.32048,56235
14.32862,49262
14.33673,50725
14.34487,43512
14.35298,45837
14.36110,43476
14.36923,41105
14.37735,36871
14.38547,34034
14.39360,34132
14.40172,31176
14.40985,31436
14.41797,31273
14.42608,30147
14.43422,25554
14.44233,31406
14.45047,31729
14.45858,28765
14.46670,29028
14.47483,26547
14.48295,30014
14.49107,28803
14.49920,31628
14.50732,26932
14.51545,28264
14.52357,27423
14.53168,26150
14.53982,28573
14.54793,25887
14.55607,26934
14.56418,30155
14.57230,26320
14.58043,25329
14.58855,27641
14.59668,26403
14.60480,28215
14.61292,29042
14.62105,26491
14.62917,27560
14.63728,25587
14.64542,28945
14.65353,24609
14.66167,29119
14.66978,29749
14.67790,23990
14.68603,30012
14.69415,27559
14.70228,26605
14.71040,26341
14.71852,26336
14.72665,26875
14.73477,28926
14.74290,26900
14.75102,32228
14.75913,28951
14.76727,31918
14.77538,23967
14.78350,22896
14.79163,25127
14.79975,27045
14.80788,29934
14.81600,32256
14.82412,28535
14.83225,30077
14.84037,28345
14.84850,33403
14.85662,35966
14.86473,35019
14.87287,36259
14.88098,43194
14.88912,36729
14.89723,40414
14.90535,38197
14.91348,36238
14.92160,32326
14.92972,33028
14.93785,35781
14.94597,35247
14.95410,35914
14.96222,36568
14.97033,37884
14.97847,37758
14.98658,33882
14.99472,33264
15.00283,35216
15.01095,33325
15.01908,30010
15.02720,31648
15.03532,31677
15.04345,35507
15.05157,31905
15.05970,30583
15.06782,33623
15.07593,31095
15.08407,32519
15.09218,29644
15.10032,31250
15.10843,28610
15.11655,29243
15.12468,28684
15.13280,29639
15.14093,32197
15.14905,29266
15.15717,32894
15.16530,32740
15.17342,29552
15.18153,28577
15.18967,27641
15.19778,29808
15.20592,32895
15.21403,30256
15.22215,29713
15.23028,31196
15.23840,31812
15.24653,28046
15.25465,27551
15.26277,25609
15.27090,30215
15.27902,28916
15.28713,28640
15.29527,26299
15.30338,30189
15.31152,27190
15.31963,26045
15.32775,23452
15.33588,28871
15.34400,26066
15.35213,24063
15.36025,23847
15.36837,25318
15.37650,28604
15.38462,24351
15.39275,27867
15.40087,25020
15.40898,24416
15.41712,26706
15.42523,22383
15.43335,24397
15.44148,27295
15.44960,25994
15.45773,25049
15.46585,24756
15.47397,26583
15.48210,25099
15.49022,25633
15.49835,25824
15.50647,24997
15.51458,27540
15.52272,23350
15.53083,23005
15.53897,27239
15.54708,23969
15.55520,23626
15.56333,27118
15.57145,25919
15.57957,26874
15.58770,23801
15.59582,23795
15.60395,24033
15.61207,24073
15.62018,24607
15.62832,26219
15.63643,26526
15.64457,25305
15.65268,23875
15.66080,23970
15.66893,26448
15.67705,24625
15.68517,23808
15.69330,24764
15.70142,30896
15.70955,24145
15.71767,25460
15.72578,23435
15.73392,27495
15.74203,24515
15.75017,27328
15.75828,27822
15.76640,26838
15.77453,26366
15.78265,26382
15.79078,29591
15.79890,23942
15.80702,31163
15.81515,26808
15.82327,25773
15.83138,27260
15.83952,24749
15.84763,27491
15.85577,25034
15.86388,26114
15.87200,26278
15.88013,27362
15.88825,24182
15.89638,23350
15.90450,27305
15.91262,25212
15.92075,22945
15.92887,25438
15.93700,26310
15.94512,25828
15.95323,28993
15.96137,25423
15.96948,23011
15.97760,25744
15.98573,27369
15.99385,24863
16.00198,28723
16.01010,27799
16.01822,32091
16.02635,30933
16.03447,33957
16.04260,40766
16.05072,43355
16.05883,43090
16.06697,48798
16.07508,42421
16.08320,36889
16.09133,36430
16.09945,33123
16.10758,31622
16.11570,31551
16.12382,28727
16.13195,28914
16.14007,30736
16.14820,31243
16.15632,30630
16.16443,29439
16.17257,31821
16.18068,28451
16.18882,32491
16.19693,28439
16.20505,29125
16.21318,28971
16.22130,30567
16.22942,30218
16.23755,30012
16.24567,25876
16.25380,34031
16.26192,28649
16.27003,28087
16.27817,29410
16.28628,27988
16.29442,28166
16.30253,26285
16.31065,26884
16.31878,24041
16.32690,27052
16.33502,30461
16.34315,32563
16.35127,30568
16.35940,35065
16.36752,34990
16.37563,33557
16.38377,31393
16.39188,29180
16.40002,32145
16.40813,29083
16.41625,29700
16.42438,30051
16.43250,26944
16.44063,25975
16.44875,26903
16.45687,26905
16.46500,26390
16.47312,28593
16.48123,31039
16.48937,27660
16.49748,27414
16.50562,30040
16.51373,29443
16.52185,31746
16.52998,28879
16.53810,27007
16.54623,31544
16.55435,30766
16.56247,28840
16.57060,27194
16.57872,27643
16.58685,25396
16.59497,27473
16.60308,29131
16.61122,28565
16.61933,25655
16.62745,28418
16.63558,26641
16.64370,28059
16.65183,28691
16.65995,26455
16.66807,28403
16.67620,27141
16.68432,24446
16.69245,27935
16.70057,27224
16.70868,23321
16.71682,28550
16.72493,30192
16.73305,27287
16.74118,29711
16.74930,26650
16.75743,25299
16.76555,24559
16.77367,24130
16.78180,25826
16.78992,23459
16.79805,25909
16.80617,24548
16.81428,26738
16.82242,23573
16.83053,21886
16.83867,25177
16.84678,27249
16.85490,23211
16.86303,25139
16.87115,27682
16.87927,29912
16.88740,22004
16.89552,24381
16.90365,23456
16.91177,24505
16.91988,25928
16.92802,25979
16.93613,27065
16.94427,25199
16.95238,26421
16.96050,26830
16.96863,33336
16.97675,25145
16.98488,27748
16.99300,26026
17.00112,23418
17.00925,26193
17.01737,26369
17.02548,22776
17.03362,27651
17.04173,26046
17.04987,28606
17.05798,28390
17.06610,28182
17.07423,24668
17.08235,23778
17.09048,25287
17.09860,29952
17.10672,24951
17.11485,26334
17.12297,26817
17.13108,25265
17.13922,25939
17.14733,24941
17.15547,24959
17.16358,25497
17.17170,25161
17.17983,24537
17.18795,23838
17.19608,25115
17.20420,24839
17.21232,25999
17.22045,25140
17.22857,27443
17.23670,24959
17.24482,23643
17.25293,23164
17.26107,30433
17.26918,24376
17.27730,32198
17.28543,27411
17.29355,25854
17.30168,26290
17.30980,28137
17.31792,26954
17.32605,27391
17.33417,25628
17.34230,24962
17.35042,24038
17.35853,27402
17.36667,25541
17.37478,29394
17.38292,32431
17.39103,33445
17.39915,30602
17.40728,29832
17.41540,34655
17.42352,26816
17.43165,28913
17.43977,31083
17.44790,28163
17.45602,28478
17.46413,29317
17.47227,32386
17.48038,32489
17.48852,29746
17.49663,27289
17.50475,29033
17.51288,28165
17.52100,27133
17.52912,29848
17.53725,31379
17.54537,31244
17.55350,32498
17.56162,33115
17.56973,29367
17.57787,31280
17.58598,28636
17.59412,25979
17.60223,27258
17.61035,25677
17.61848,27924
17.62660,26620
17.63473,26651
17.64285,26445
17.65097,26925
17.65910,25065
17.66722,28110
17.67533,31165
17.68347,28236
17.69158,29383
17.69972,26678
17.70783,29474
17.71595,29697
17.72408,30667
17.73220,32066
17.74033,28176
17.74845,27185
17.75657,29174
17.76470,27700
17.77282,26134
17.78093,26706
17.78907,28272
17.79718,27381
17.80532,24136
17.81343,31599
17.82155,27506
17.82968,29888
17.83780,27256
17.84593,30230
17.85405,27394
17.86217,27697
17.87030,30311
17.87842,29848
17.88655,29296
17.89467,27181
17.90278,27193
17.91092,24781
17.91903,26879
17.92715,26196
17.93528,26046
17.94340,26703
17.95153,26435
17.95965,26928
17.96777,25912
17.97590,27097
17.98402,25393
17.99215,26165
18.00027,24761
18.00838,28964
18.01652,23951
18.02463,24230
18.03277,26965
18.04088,25183
18.04900,23779
18.05713,26994
18.06525,27389
18.07337,27426
18.08150,28290
18.08962,33006
18.09775,34813
18.10587,36173
18.11398,40885
18.12212,40069
18.13023,46601
18.13837,43685
18.14648,44864
18.15460,41457
18.16273,40670
18.17085,41250
18.17897,37020
18.18710,36704
18.19522,39945
18.20335,40729
18.21147,37807
18.21958,39759
18.22772,35844
18.23583,34100
18.24397,33746
18.25208,40651
18.26020,40463
18.26833,41226
18.27645,40295
18.28458,39393
18.29270,36896
18.30082,34852
18.30895,30486
18.31707,33077
18.32518,33690
18.33332,29069
18.34143,28832
18.34957,29207
18.35768,34568
18.36580,29792
18.37393,25383
18.38205,25671
18.39018,29499
18.39830,25554
18.40642,28429
18.41455,27812
18.42267,27822
18.43080,27028
18.43892,23769
18.44703,28882
18.45517,22869
18.46328,28650
18.47140,26836
18.47953,27377
18.48765,28124
18.49578,27013
18.50390,27882
18.51202,27113
18.52015,32449
18.52827,24881
18.53640,25687
18.54452,28248
18.55263,27756
18.56077,26820
18.56888,26737
18.57700,25389
18.58513,28172
18.59325,24866
18.60138,25276
18.60950,26163
18.61762,25422
18.62575,30090
18.63387,25623
18.64200,27778
18.65012,26569
18.65823,25884
18.66637,22646
18.67448,27430
18.68262,26163
18.69073,26274
18.69885,26727
18.70698,22837
18.71510,26829
18.72322,25049
18.73135,23870
18.73947,27446
18.74760,27072
18.75572,25556
18.76383,22959
18.77197,26678
18.78008,24397
18.78822,24910
18.79633,25204
18.80445,29886
18.81258,24699
18.82070,23174
18.82882,21906
18.83695,26868
18.84507,22384
18.85320,25394
18.86132,23458
18.86943,24583
18.87757,26633
18.88568,27061
18.89382,29679
18.90193,25672
18.91005,31156
18.91818,27477
18.92630,25390
18.93443,29429
18.94255,28081
18.95067,26857
18.95880,27435
18.96692,31289
18.97503,26170
18.98317,27746
18.99128,28549
18.99942,23646
19.00753,24664
19.01565,23187
19.02378,25822
19.03190,22691
19.04003,23984
19.04815,27141
19.05627,28049
19.06440,28390
19.07252,24046
19.08065,23071
19.08877,29787
19.09688,26563
19.10502,32958
19.11313,39453
19.12125,40078
19.12938,40234
19.13750,36097
19.14563,34995
19.15375,37079
19.16187,31399
19.17000,34073
19.17812,30939
19.18625,26554
19.19437,31444
19.20248,24504
19.21062,27565
19.21873,31348
19.22685,27241
19.23498,29195
19.24310,30266
19.25123,31314
19.25935,25193
19.26747,32877
19.27560,32074
19.28372,30507
19.29185,40097
19.29997,35591
19.30808,45470
19.31622,51649
19.32433,50238
19.33247,42779
19.34058,41382
19.34870,35858
19.35683,34562
19.36495,33018
19.37307,41091
19.38120,31744
19.38932,35153
19.39745,33300
19.40557,31824
19.41368,27786
19.42182,29645
19.42993,31844
19.43807,30595
19.44618,29650
19.45430,30470
19.46243,31488
19.47055,32345
19.47868,30953
19.48680,32952
19.49492,34120
19.50305,39657
19.51117,54923
19.51928,62284
19.52742,69573
19.53553,80942
19.54367,78640
19.55178,73996
19.55990,53365
19.56803,49185
19.57615,37367
19.58428,34432
19.59240,31894
19.60052,30964
19.60865,32444
19.61677,29556
19.62488,28753
19.63302,31386
19.64113,30884
19.64927,35695
19.65738,42011
19.66550,56314
19.67363,63012
19.68175,83239
19.68988,89871
19.69800,95465
19.70612,89489
19.71425,73179
19.72237,61226
19.73050,54290
19.73862,44478
19.74673,44206
19.75487,41713
19.76298,41416
19.77110,36823
19.77923,33783
19.78735,35367
19.79548,34928
19.80360,34966
19.81172,34190
19.81985,33344
19.82797,29751
19.83610,27534
19.84422,30435
19.85233,27223
19.86047,26950
19.86858,30260
19.87670,32751
19.88483,40182
19.89295,48149
19.90108,70422
19.90920,101303
19.91732,134207
19.92545,156877
19.93357,189309
19.94170,205970
19.94982,203157
19.95793,198187
19.96607,196964
19.97418,196414
19.98232,193151
19.99043,181070
19.99855,178774
20.00668,177556
20.01480,168947
20.02292,161416
20.03105,151819
20.03917,144830
20.04730,132021
20.05542,132416
20.06353,111444
20.07167,97157
20.07978,80872
20.08792,68855
20.09603,56151
20.10415,57621
20.11228,55370
20.12040,53688
20.12853,52188
20.13665,50868
20.14477,48286
20.15290,44435
20.16102,45172
20.16913,41599
20.17727,43187
20.18538,44970
20.19352,47888
20.20163,46307
20.20975,43387
20.21788,45961
20.22600,43200
20.23413,41220
20.24225,43433
20.25037,43312
20.25850,41132
20.26662,45880
20.27475,52192
20.28287,57509
20.29098,68801
20.29912,80122
20.30723,84399
20.31535,80654
20.32348,74152
20.33160,75929
20.33973,64841
20.34785,55397
20.35597,46879
20.36410,44165
20.37222,38588
20.38035,35197
20.38847,37184
20.39658,28761
20.40472,33936
20.41283,33756
20.42095,32278
20.42908,30100
20.43720,31692
20.44533,32295
20.45345,35609
20.46157,41324
20.46970,42614
20.47782,40226
20.48595,43530
20.49407,37704
20.50218,35456
20.51032,34917
20.51843,29423
20.52657,28209
20.53468,28238
20.54280,28104
20.55093,29896
20.55905,33552
20.56717,29666
20.57530,25744
20.58342,24958
20.59155,30747
20.59967,27854
20.60778,28369
20.61592,27959
20.62403,28741
20.63217,29799
20.64028,26834
20.64840,27711
20.65653,26998
20.66465,28574
20.67277,27072
20.68090,26637
20.68902,27012
20.69715,27566
20.70527,27937
20.71338,26202
20.72152,27517
20.72963,25588
20.73777,24860
20.74588,26807
20.75400,27037
20.76213,28463
20.77025,26998
20.77838,28241
20.78650,28127
20.79462,30379
20.80275,26558
20.81087,29740
20.81898,25666
20.82712,32244
20.83523,27023
20.84337,29761
20.85148,29181
20.85960,28641
20.86773,28554
20.87585,27013
20.88398,25918
20.89210,31692
20.90022,28749
20.90835,28585
20.91647,28595
20.92460,30729
20.93272,30814
20.94083,26788
20.94897,29257
20.95708,28284
20.96520,30113
20.97333,31939
20.98145,29838
20.98958,30981
20.99770,30326
21.00582,31383
21.01395,33492
21.02207,29999
21.03020,30383
21.03832,32223
21.04643,29540
21.05457,31331
21.06268,36824
21.07080,29869
21.07893,31648
21.08705,28696
21.09518,30437
21.10330,33031
21.11142,29038
21.11955,31680
21.12767,26041
21.13580,34335
21.14392,33765
21.15203,35054
21.16017,31675
21.16828,36378
21.17642,35017
21.18453,32993
21.19265,32195
21.20078,33843
21.20890,33650
21.21702,33780
21.22515,33776
21.23327,31114
21.24140,33329
21.24952,29217
21.25763,30925
21.26577,34590
21.27388,39571
21.28202,34288
21.29013,31734
21.29825,32635
21.30638,31512
21.31450,31482
21.32263,33420
21.33075,30912
21.33887,35907
21.34700,31038
21.35512,34195
21.36323,31519
21.37137,31165
21.37948,31449
21.38762,30034
21.39573,32537
21.40385,33863
21.41198,31180
21.42010,35110
21.42823,31698
21.43635,34015
21.44447,32867
21.45260,32435
21.46072,33923
21.46883,33611
21.47697,34494
21.48508,32130
21.49322,34807
21.50133,30878
21.50945,30643
21.51758,33112
21.52570,32488
21.53383,34977
21.54195,28967
21.55007,31111
21.55820,32265
21.56632,28818
21.57445,27891
21.58257,31999
21.59068,34207
21.59882,30862
21.60693,28897
21.61505,29002
21.62318,31436
21.63130,32487
21.63943,36162
21.64755,42226
21.65567,47117
21.66380,51072
21.67192,47210
21.68005,45298
21.68817,41034
21.69628,40947
21.70442,37730
21.71253,34162
21.72065,30926
21.72878,35776
21.73690,34565
21.74503,29468
21.75315,30807
21.76127,32835
21.76940,31067
21.77752,32456
21.78565,30963
21.79377,33546
21.80188,34006
21.81002,32577
21.81813,32172
21.82627,31978
21.83438,32078
21.84250,35619
21.85063,37210
21.85875,40953
21.86687,45901
21.87500,38891
21.88312,40479
21.89125,36314
21.89937,33353
21.90748,31533
21.91562,29157
21.92373,31259
21.93187,30115
21.93998,34995
21.94810,34084
21.95623,32327
21.96435,26712
21.97248,30784
21.98060,30219
21.98872,27633
21.99685,28763
22.00497,26865
22.01308,30568
22.02122,29505
22.02933,33191
22.03747,28971
22.04558,26012
22.05370,30359
22.06183,33052
22.06995,29816
22.07808,34457
22.08620,27728
22.09432,35880
22.10245,29449
22.11057,32058
22.11868,30337
22.12682,31398
22.13493,30738
22.14307,32537
22.15118,30618
22.15930,35605
22.16743,26945
22.17555,30320
22.18368,31193
22.19180,28689
22.19992,35634
22.20805,31116
22.21617,32661
22.22430,29388
22.23242,31115
22.24053,31458
22.24867,30700
22.25678,34272
22.26490,29883
22.27303,32564
22.28115,28498
22.28928,29282
22.29740,29305
22.30552,27045
22.31365,28672
22.32177,27441
22.32990,27456
22.33802,30968
22.34613,29658
22.35427,34955
22.36238,33177
22.37052,28625
22.37863,30896
22.38675,27514
22.39488,32063
22.40300,31592
22.41112,28283
22.41925,34441
22.42737,31894
22.43550,27957
22.44362,36115
22.45173,30807
22.45987,34106
22.46798,31904
22.47612,29724
22.48423,30116
22.49235,33434
22.50048,26846
22.50860,27368
22.51672,28630
22.52485,28412
22.53297,27696
22.54110,27003
22.54922,32080
22.55733,28890
22.56547,28643
22.57358,25790
22.58172,30113
22.58983,32569
22.59795,29529
22.60608,29352
22.61420,25535
22.62233,27191
22.63045,26438
22.63857,30690
22.64670,24044
22.65482,26598
22.66293,26817
22.67107,25974
22.67918,27295
22.68732,31784
22.69543,27943
22.70355,26352
22.71168,27736
22.71980,27653
22.72793,33837
22.73605,31494
22.74417,34847
22.75230,29967
22.76042,29830
22.76855,29780
22.77667,29372
22.78478,29378
22.79292,27965
22.80103,29641
22.80915,31036
22.81728,29566
22.82540,28727
22.83353,27250
22.84165,25170
22.84977,27260
22.85790,30121
22.86602,30387
22.87415,29180
22.88227,32283
22.89038,31928
22.89852,29308
22.90663,34170
22.91475,36434
22.92288,38073
22.93100,49355
22.93913,55476
22.94725,64172
22.95537,75587
22.96350,86501
22.97162,79144
22.97975,84263
22.98787,77387
22.99598,72251
23.00412,74008
23.01223,64535
23.02037,59956
23.02848,56139
23.03660,48238
23.04473,49201
23.05285,38451
23.06097,35084
23.06910,37771
23.07722,30519
23.08535,33941
23.09347,34498
23.10158,34921
23.10972,33693
23.11783,32064
23.12597,36325
23.13408,33673
23.14220,36128
23.15033,31038
23.15845,33380
23.16657,32228
23.17470,33780
23.18282,28085
23.19095,32500
23.19907,30502
23.20718,29612
23.21532,27950
23.22343,30688
23.23157,33377
23.23968,28070
23.24780,27546
23.25593,28814
23.26405,25827
23.27218,26384
23.28030,32316
23.28842,30475
23.29655,28140
23.30467,28604
23.31278,31807
23.32092,25364
23.32903,25549
23.33717,27153
23.34528,29084
23.35340,25753
23.36153,25364
23.36965,30953
23.37778,28402
23.38590,28496
23.39402,30040
23.40215,27136
23.41027,27344
23.41840,32876
23.42652,28774
23.43463,25134
23.44277,28906
23.45088,26853
23.45900,29705
23.46713,28683
23.47525,28910
23.48338,34110
23.49150,28181
23.49962,29682
23.50775,25975
23.51587,28631
23.52400,28037
23.53212,27900
23.54023,30611
23.54837,23535
23.55648,29207
23.56460,29980
23.57273,28842
23.58085,29723
23.58898,33582
23.59710,33853
23.60522,30151
23.61335,29290
23.62147,31074
23.62960,30525
23.63772,30752
23.64583,27311
23.65397,27680
23.66208,30469
23.67022,30540
23.67833,34574
23.68645,37384
23.69458,39978
23.70270,43453
23.71082,42083
23.71895,42782
23.72707,39001
23.73520,39359
23.74332,41884
23.75143,37735
23.75957,44395
23.76768,74128
23.77582,145154
23.78393,301358
23.79205,574207
23.80018,971532
23.80830,1254618
23.81643,1349200
23.82455,1236865
23.83267,993330
23.84080,785578
23.84892,577552
23.85703,446849
23.86517,346432
23.87328,286235
23.88142,224318
23.88953,200388
23.89765,187712
23.90578,158266
23.91390,145393
23.92203,131221
23.93015,112226
23.93827,108840
23.94640,109321
23.95452,99519
23.96263,97628
23.97077,93618
23.97888,83044
23.98702,84805
23.99513,76710
24.00325,76388
24.01138,74943
24.01950,76697
24.02763,71461
24.03575,64939
24.04387,66722
24.05200,63949
24.06012,62763
24.06825,63508
24.07637,61564
24.08448,62401
24.09262,62570
24.10073,62605
24.10885,56777
24.11698,56407
24.12510,55638
24.13323,56305
24.14135,59743
24.14947,58110
24.15760,53802
24.16572,55383
24.17385,57112
24.18197,52637
24.19008,51292
24.19822,52462
24.20633,51867
24.21445,51514
24.22258,57021
24.23070,48230
24.23883,48760
24.24695,57504
24.25507,50885
24.26320,49551
24.27132,47610
24.27945,43386
24.28757,44722
24.29568,46086
24.30382,43926
24.31193,43980
24.32007,44033
24.32818,44614
24.33630,40450
24.34443,41180
24.35255,42556
24.36067,42734
24.36880,44827
24.37692,43049
24.38505,44311
24.39317,44558
24.40128,54336
24.40942,56304
24.41753,64992
24.42567,68102
24.43378,69290
24.44190,63056
24.45003,54179
24.45815,43434
24.46628,44711
24.47440,39980
24.48252,38942
24.49065,41862
24.49877,39115
24.50688,36322
24.51502,41264
24.52313,43447
24.53127,44961
24.53938,45029
24.54750,39870
24.55563,43281
24.56375,43064
24.57188,41869
24.58000,38401
24.58812,40633
24.59625,40979
24.60437,43987
24.61248,39247
24.62062,34893
24.62873,37494
24.63687,40435
24.64498,41168
24.65310,38924
24.66123,36986
24.66935,37583
24.67748,41071
24.68560,39351
24.69372,39721
24.70185,39236
24.70997,39214
24.71810,34822
24.72622,36411
24.73433,34260
24.74247,34480
24.75058,33522
24.75870,34278
24.76683,37977
24.77495,34458
24.78308,34382
24.79120,33956
24.79932,32022
24.80745,32592
24.81557,34116
24.82370,31807
24.83182,28510
24.83993,29505
24.84807,28438
24.85618,33888
24.86432,33234
24.87243,37472
24.88055,34350
24.88868,33832
24.89680,34189
24.90492,35926
24.91305,33787
24.92117,33353
24.92930,35907
24.93742,33018
24.94553,30410
24.95367,30769
24.96178,30634
24.96992,34314
24.97803,30645
24.98615,29043
24.99428,29753
25.00240,30815
25.01052,29863
25.01865,27881
25.02677,30132
25.03490,35715
25.04302,31342
25.05113,27346
25.05927,28734
25.06738,29602
25.07552,32373
25.08363,30511
25.09175,30731
25.09988,27921
25.10800,31028
25.11613,33341
25.12425,33773
25.13237,30991
25.14050,33643
25.14862,39348
25.15673,39035
25.16487,41871
25.17298,43217
25.18112,40824
25.18923,40104
25.19735,34968
25.20548,34368
25.21360,33949
25.22173,34811
25.22985,33827
25.23797,32200
25.24610,29847
25.25422,33080
25.26235,31232
25.27047,31998
25.27858,32517
25.28672,32295
25.29483,31886
25.30295,34731
25.31108,37275
25.31920,35646
25.32733,42788
25.33545,38028
25.34357,36012
25.35170,35424
25.35982,35304
25.36795,35448
25.37607,33636
25.38418,32579
25.39232,31045
25.40043,31270
25.40855,29866
25.41668,30106
25.42480,35762
25.43293,29911
25.44105,29436
25.44917,28009
25.45730,29707
25.46542,28243
25.47355,27761
25.48167,29328
25.48978,31516
25.49792,31639
25.50603,32373
25.51417,33697
25.52228,34860
25.53040,32248
25.53853,32365
25.54665,31553
25.55477,28671
25.56290,28934
25.57102,30931
25.57915,31728
25.58727,30006
25.59538,27072
25.60352,31779
25.61163,29862
25.61977,28204
25.62788,29025
25.63600,30678
25.64413,26784
25.65225,26674
25.66038,24426
25.66850,27727
25.67662,27734
25.68475,29296
25.69287,28745
25.70098,27329
25.70912,29232
25.71723,28109
25.72537,26699
25.73348,27665
25.74160,28162
25.74973,26158
25.75785,28777
25.76598,28421
25.77410,27684
25.78222,28494
25.79035,27251
25.79847,28554
25.80658,29642
25.81472,30230
25.82283,29411
25.83097,30079
25.83908,28824
25.84720,33369
25.85533,30723
25.86345,29299
25.87158,31454
25.87970,27609
25.88782,28669
25.89595,26467
25.90407,26389
25.91220,25330
25.92032,27628
25.92843,26402
25.93657,22854
25.94468,25269
25.95280,26273
25.96093,27649
25.96905,25945
25.97718,29276
25.98530,28229
25.99342,25459
26.00155,26993
26.00967,26753
26.01780,23588
26.02592,27770
26.03403,23808
26.04217,28241
26.05028,27359
26.05840,26094
26.06653,29647
26.07465,24790
26.08278,25089
26.09090,24512
26.09902,26869
26.10715,27902
26.11527,28129
26.12340,29436
26.13152,29702
26.13963,29476
26.14777,35106
26.15588,34026
26.16402,36618
26.17213,39367
26.18025,31894
26.18838,36506
26.19650,34679
26.20462,36467
26.21275,37658
26.22087,35509
26.22900,34388
26.23712,34856
26.24523,30383
26.25337,30295
26.26148,31180
26.26962,31461
26.27773,32863
26.28585,26914
26.29398,29287
26.30210,29779
26.31023,30340
26.31835,28636
26.32647,28805
26.33460,28328
26.34272,26484
26.35083,29499
26.35897,31077
26.36708,25771
26.37522,26522
26.38333,28064
26.39145,27162
26.39958,25307
26.40770,28990
26.41583,34530
26.42395,29442
26.43207,31425
26.44020,29543
26.44832,26754
26.45643,29761
26.46457,30001
26.47268,27968
26.48082,23636
26.48893,27073
26.49705,26587
26.50518,26398
26.51330,29344
26.52143,30080
26.52955,29421
26.53767,24225
26.54580,27353
26.55392,26297
26.56205,28128
26.57017,29481
26.57828,27639
26.58642,25482
26.59453,24343
26.60265,26980
26.61078,28045
26.61890,24185
26.62703,26726
26.63515,24967
26.64327,26060
26.65140,25285
26.65952,26736
26.66765,25450
26.67577,24530
26.68388,26580
26.69202,30159
26.70013,26497
26.70827,27473
26.71638,26449
26.72450,30090
26.73263,28342
26.74075,28222
26.74887,26014
26.75700,25524
26.76512,26336
26.77325,26588
26.78137,27549
26.78948,28541
26.79762,27243
26.80573,27013
26.81387,25277
26.82198,29451
26.83010,27922
26.83823,30431
26.84635,26457
26.85447,33735
26.86260,28891
26.87072,29128
26.87885,26311
26.88697,27197
26.89508,25869
26.90322,26704
26.91133,33196
26.91947,25120
26.92758,27479
26.93570,27169
26.94383,25646
26.95195,22350
26.96008,24683
26.96820,24051
26.97632,28810
26.98445,32833
26.99257,43536
27.00068,63158
27.00882,91395
27.01693,131818
27.02507,178471
27.03318,201962
27.04130,224472
27.04943,214615
27.05755,202588
27.06568,172864
27.07380,152510
27.08192,112232
27.09005,99214
27.09817,86155
27.10628,73381
27.11442,68323
27.12253,66569
27.13067,61877
27.13878,56918
27.14690,55977
27.15503,56222
27.16315,53068
27.17128,49735
27.17940,53459
27.18752,46766
27.19565,51661
27.20377,51601
27.21190,47745
27.22002,49997
27.22813,49085
27.23627,44568
27.24438,44561
27.25250,43607
27.26063,42032
27.26875,39949
27.27688,39731
27.28500,39308
27.29312,38829
27.30125,36411
27.30937,37352
27.31750,40036
27.32562,34118
27.33373,38983
27.34187,35448
27.34998,36660
27.35812,34585
27.36623,36028
27.37435,35583
27.38248,36664
27.39060,33341
27.39872,34574
27.40685,33049
27.41497,34727
27.42310,36589
27.43122,34374
27.43933,34949
27.44747,29968
27.45558,36745
27.46372,32649
27.47183,35306
27.47995,30789
27.48808,32098
27.49620,31469
27.50432,33216
27.51245,33265
27.52057,38103
27.52870,32339
27.53682,35515
27.54493,32225
27.55307,33215
27.56118,33960
27.56932,31207
27.57743,30512
27.58555,29077
27.59368,33629
27.60180,33064
27.60993,28357
27.61805,29827
27.62617,30713
27.63430,35542
27.64242,31664
27.65053,28805
27.65867,26796
27.66678,30798
27.67492,30751
27.68303,27639
27.69115,29274
27.69928,31326
27.70740,31056
27.71553,32863
27.72365,26136
27.73177,29121
27.73990,27668
27.74802,28291
27.75615,28595
27.76427,30112
27.77238,28075
27.78052,29396
27.78863,24782
27.79675,29496
27.80488,29595
27.81300,29045
27.82113,30472
27.82925,28119
27.83737,30197
27.84550,31114
27.85362,30605
27.86175,30417
27.86987,30557
27.87798,27515
27.88612,32183
27.89423,28941
27.90235,35708
27.91048,30518
27.91860,29719
27.92673,28907
27.93485,31366
27.94297,32065
27.95110,25615
27.95922,25779
27.96735,26280
27.97547,33555
27.98358,26806
27.99172,32494
27.99983,30769
28.00797,27785
28.01608,27276
28.02420,28433
28.03233,27651
28.04045,26238
28.04857,27898
28.05670,26360
28.06482,28814
28.07295,28659
28.08107,27714
28.08918,26767
28.09732,29111
28.10543,29305
28.11357,30153
28.12168,34852
28.12980,31904
28.13793,26491
28.14605,30150
28.15418,25308
28.16230,25829
28.17042,28171
28.17855,28499
28.18667,26411
28.19478,27758
28.20292,31947
28.21103,31582
28.21917,30687
28.22728,28246
28.23540,29703
28.24353,34234
28.25165,30537
28.25978,31337
28.26790,32392
28.27602,27661
28.28415,32397
28.29227,27678
28.30038,27027
28.30852,27051
28.31663,31326
28.32477,31595
28.33288,35595
28.34100,39636
28.34913,44927
28.35725,57756
28.36538,56685
28.37350,58275
28.38162,65326
28.38975,65746
28.39787,70432
28.40600,67304
28.41412,65289
28.42223,59682
28.43037,59126
28.43848,49138
28.44660,53890
28.45473,47087
28.46285,46104
28.47098,50202
28.47910,45507
28.48722,44464
28.49535,42554
28.50347,40032
28.51160,35930
28.51972,34594
28.52783,39738
28.53597,40296
28.54408,40569
28.55220,38792
28.56033,35593
28.56845,33587
28.57658,35406
28.58470,35419
28.59282,36727
28.60095,35219
28.60907,36417
28.61720,38279
28.62532,33327
28.63343,35410
28.64157,33970
28.64968,40076
28.65782,35467
28.66593,40551
28.67405,38870
28.68218,38580
28.69030,40947
28.69842,37081
28.70655,43488
28.71467,35423
28.72280,35676
28.73092,33704
28.73903,31375
28.74717,36960
28.75528,33716
28.76342,34566
28.77153,35867
28.77965,42480
28.78778,47303
28.79590,44313
28.80403,43029
28.81215,41683
28.82027,38263
28.82840,37824
28.83652,34011
28.84463,31239
28.85277,31935
28.86088,31788
28.86902,31456
28.87713,30723
28.88525,31307
28.89338,32082
28.90150,30220
28.90963,28564
28.91775,30552
28.92587,30844
28.93400,30433
28.94212,31725
28.95023,30987
28.95837,31151
28.96648,30276
28.97462,34039
28.98273,35812
28.99085,33803
28.99898,35126
29.00710,31821
29.01523,32505
29.02335,31341
29.03147,31875
29.03960,31329
29.04772,31873
29.05585,28458
29.06397,29090
29.07208,30053
29.08022,30480
29.08833,29788
29.09645,30847
29.10458,30985
29.11270,30718
29.12083,28853
29.12895,30961
29.13707,27810
29.14520,27547
29.15332,29445
29.16145,32669
29.16957,32447
29.17768,28787
29.18582,31791
29.19393,34063
29.20207,32004
29.21018,29806
29.21830,32124
29.22643,28397
29.23455,32060
29.24267,32922
29.25080,30341
29.25892,30222
29.26705,30602
29.27517,30817
29.28328,28940
29.29142,32614
29.29953,29671
29.30767,32293
29.31578,27570
29.32390,30141
29.33203,30249
29.34015,29063
29.34827,33283
29.35640,26845
29.36452,29182
29.37265,29197
29.38077,31083
29.38888,29349
29.39702,26875
29.40513,31354
29.41327,27499
29.42138,27642
29.42950,28824
29.43763,31048
29.44575,27317
29.45388,29064
29.46200,31725
29.47012,31651
29.47825,32994
29.48637,28179
29.49448,29872
29.50262,31349
29.51073,31473
29.51887,29661
29.52698,36190
29.53510,35573
29.54323,30919
29.55135,32931
29.55948,31557
29.56760,32983
29.57572,33095
29.58385,27699
29.59197,31393
29.60008,29605
29.60822,26475
29.61633,28588
29.62447,28867
29.63258,31944
29.64070,29597
29.64883,34276
29.65695,33690
29.66508,29582
29.67320,30274
29.68132,31139
29.68945,28170
29.69757,30307
29.70570,29389
29.71382,31043
29.72193,27274
29.73007,29779
29.73818,28784
29.74630,29760
29.75443,26020
29.76255,29347
29.77068,29902
29.77880,28454
29.78692,31717
29.79505,28744
29.80317,26584
29.81130,27015
29.81942,31442
29.82753,28288
29.83567,25293
29.84378,27665
29.85192,31819
29.86003,28151
29.86815,32409
29.87628,31636
29.88440,31965
29.89252,31082
29.90065,32346
29.90877,38433
29.91690,38133
29.92502,34559
29.93313,34631
29.94127,37089
29.94938,32340
29.95752,35384
29.96563,32773
29.97375,31885
29.98188,33827
29.99000,37631
29.99812,41036
30.00625,40159
30.01437,46671
30.02250,45904
30.03062,46853
30.03873,46307
30.04687,49159
30.05498,50401
30.06312,52142
30.07123,54345
30.07935,50322
30.08748,49159
30.09560,42029
30.10373,43150
30.11185,40173
30.11997,41634
30.12810,40056
30.13622,41254
30.14433,37211
30.15247,39388
30.16058,39933
30.16872,37702
30.17683,38128
30.18495,35157
30.19308,32911
30.20120,38450
30.20933,39267
30.21745,38697
30.22557,35679
30.23370,38158
30.24182,31974
30.24995,36188
30.25807,30167
30.26618,32339
30.27432,37959
30.28243,32025
30.29055,32292
30.29868,28974
30.30680,32968
30.31493,27251
30.32305,31580
30.33117,27972
30.33930,36026
30.34742,33211
30.35555,34152
30.36367,31181
30.37178,34364
30.37992,34258
30.38803,31353
30.39615,31149
30.40428,32851
30.41240,29162
30.42053,30804
30.42865,29978
30.43677,32454
30.44490,31413
30.45302,31931
30.46115,28636
30.46927,31812
30.47738,26958
30.48552,28405
30.49363,29642
30.50177,29444
30.50988,29716
30.51800,26655
30.52613,31195
30.53425,32163
30.54237,31063
30.55050,30995
30.55862,32256
30.56675,30892
30.57487,32661
30.58298,26811
30.59112,30637
30.59923,28383
30.60737,32503
30.61548,32304
30.62360,30308
30.63173,31323
30.63985,30574
30.64797,28827
30.65610,30543
30.66422,29865
30.67235,30614
30.68047,32033
30.68858,29524
30.69672,34201
30.70483,29046
30.71297,29107
30.72108,30360
30.72920,29717
30.73733,26921
30.74545,29154
30.75358,28290
30.76170,25687
30.76982,28347
30.77795,27457
30.78607,31260
30.79418,29263
30.80232,31305
30.81043,34868
30.81857,30426
30.82668,32660
30.83480,36415
30.84293,33102
30.85105,31284
30.85918,34286
30.86730,28712
30.87542,28962
30.88355,30202
30.89167,30264
30.89980,25639
30.90792,29306
30.91603,28618
30.92417,29998
30.93228,25801
30.94040,27345
30.94853,28652
30.95665,27090
30.96478,32102
30.97290,29526
30.98102,30426
30.98915,24001
30.99727,30168
31.00540,27809
31.01352,27335
31.02163,32583
31.02977,29508
31.03788,26771
31.04602,28588
31.05413,30878
31.06225,32514
31.07038,33055
31.07850,27620
31.08662,32249
31.09475,31223
31.10287,32345
31.11100,34910
31.11912,38821
31.12723,40263
31.13537,44375
31.14348,37419
31.15162,35112
31.15973,34413
31.16785,33506
31.17598,30927
31.18410,38028
31.19222,42140
31.20035,52045
31.20847,68356
31.21660,89475
31.22472,117605
31.23283,130915
31.24097,139035
31.24908,125185
31.25722,106749
31.26533,82396
31.27345,62143
31.28158,48644
31.28970,37334
31.29783,37633
31.30595,30906
31.31407,34144
31.32220,31910
31.33032,31919
31.33843,33816
31.34657,29367
31.35468,32566
31.36282,29290
31.37093,31817
31.37905,34111
31.38718,30646
31.39530,29017
31.40343,31780
31.41155,32581
31.41967,33864
31.42780,29977
31.43592,31068
31.44403,31295
31.45217,35993
31.46028,30978
31.46842,29858
31.47653,30816
31.48465,28651
31.49278,37305
31.50090,32053
31.50903,28098
31.51715,27795
31.52527,28886
31.53340,28480
31.54152,31370
31.54965,31803
31.55777,29017
31.56588,31585
31.57402,29312
31.58213,27939
31.59025,30612
31.59838,30008
31.60650,32173
31.61463,30273
31.62275,30432
31.63087,32207
31.63900,31225
31.64712,32340
31.65525,31863
31.66337,30577
31.67148,32045
31.67962,31191
31.68773,33890
31.69587,29925
31.70398,29525
31.71210,34426
31.72023,30858
31.72835,26652
31.73647,30907
31.74460,31600
31.75272,28453
31.76085,29859
31.76897,28643
31.77708,32609
31.78522,30453
31.79333,31242
31.80147,28797
31.80958,31656
31.81770,34469
31.82583,37633
31.83395,29818
31.84207,32000
31.85020,31556
31.85832,36794
31.86645,38814
31.87457,43304
31.88268,42384
31.89082,39048
31.89893,39133
31.90707,35180
31.91518,43944
31.92330,36746
31.93143,35504
31.93955,35471
31.94768,40239
31.95580,41695
31.96392,41441
31.97205,39839
31.98017,40102
31.98828,42798
31.99642,43116
32.00453,44929
32.01267,42987
32.02078,42421
32.02890,41557
32.03703,42090
32.04515,38093
32.05328,39948
32.06140,39015
32.06952,38685
32.07765,39662
32.08577,37574
32.09390,36909
32.10202,38471
32.11013,39351
32.11827,40363
32.12638,35512
32.13450,40629
32.14263,33368
32.15075,37626
32.15888,35085
32.16700,35559
32.17512,35762
32.18325,32479
32.19137,32464
32.19950,32971
32.20762,33519
32.21573,33704
32.22387,34917
32.23198,36758
32.24010,35124
32.24823,34259
32.25635,33123
32.26448,31852
32.27260,32686
32.28072,32016
32.28885,36073
32.29697,34449
32.30510,34120
32.31322,30815
32.32133,37455
32.32947,34638
32.33758,31805
32.34572,36955
32.35383,38327
32.36195,40112
32.37008,38008
32.37820,40361
32.38632,38690
32.39445,36546
32.40257,35396
32.41070,36345
32.41882,35724
32.42693,34874
32.43507,33895
32.44318,32132
32.45132,36712
32.45943,30087
32.46755,33557
32.47568,31209
32.48380,33780
32.49192,32312
32.50005,33231
32.50817,35012
32.51630,32634
32.52442,31966
32.53253,30505
32.54067,31794
32.54878,31253
32.55692,33260
32.56503,33108
32.57315,32015
32.58128,32498
32.58940,36492
32.59753,32516
32.60565,32973
32.61377,31382
32.62190,30120
32.63002,30738
32.63813,32133
32.64627,31333
32.65438,35921
32.66252,32872
32.67063,35606
32.67875,38233
32.68688,40148
32.69500,40551
32.70313,41527
32.71125,42766
32.71937,40756
32.72750,38280
32.73562,40431
32.74375,36530
32.75187,31872
32.75998,35368
32.76812,43010
32.77623,33489
32.78435,33957
32.79248,34124
32.80060,30051
32.80873,33811
32.81685,34563
32.82497,29407
32.83310,33836
32.84122,31380
32.84935,29651
32.85747,31805
32.86558,32474
32.87372,32130
32.88183,31201
32.88995,29748
32.89808,30280
32.90620,32975
32.91433,29003
32.92245,30964
32.93057,33673
32.93870,33395
32.94682,33133
32.95495,30232
32.96307,29553
32.97118,33479
32.97932,28798
32.98743,35172
32.99557,31456
33.00368,31146
33.01180,34561
33.01993,27691
33.02805,31352
33.03617,32635
33.04430,31200
33.05242,32795
33.06055,36374
33.06867,30092
33.07678,30794
33.08492,34318
33.09303,38505
33.10117,33669
33.10928,37083
33.11740,44217
33.12553,45803
33.13365,50708
33.14178,53678
33.14990,52208
33.15802,45709
33.16615,38872
33.17427,37101
33.18238,34768
33.19052,36095
33.19863,35446
33.20677,31895
33.21488,35127
33.22300,32903
33.23113,35900
33.23925,30726
33.24738,34780
33.25550,33579
33.26362,36368
33.27175,33161
33.27987,33848
33.28798,33420
33.29612,33341
33.30423,35796
33.31237,33792
33.32048,40760
33.32860,32222
33.33673,34828
33.34485,31823
33.35298,32390
33.36110,33463
33.36922,33394
33.37735,32922
33.38547,32890
33.39360,34388
33.40172,34887
33.40983,31487
33.41797,33765
33.42608,32374
33.43420,34672
33.44233,33012
33.45045,31782
33.45858,35266
33.46670,34717
33.47482,34898
33.48295,33270
33.49107,37791
33.49920,37064
33.50732,31753
33.51543,30237
33.52357,35168
33.53168,36931
33.53980,35658
33.54793,38782
33.55605,32419
33.56418,36530
33.57230,36096
33.58042,33755
33.58855,32391
33.59667,32735
33.60480,34730
33.61292,38421
33.62103,33384
33.62917,34294
33.63728,31758
33.64542,32139
33.65353,33448
33.66165,32066
33.66978,33664
33.67790,40868
33.68602,34873
33.69415,35942
33.70227,33710
33.71040,32573
33.71852,41960
33.72663,37525
33.73477,34298
33.74288,34164
33.75102,31427
33.75913,36167
33.76725,38195
33.77538,30719
33.78350,33369
33.79163,36501
33.79975,40704
33.80787,36321
33.81600,43182
33.82412,36930
33.83223,33364
33.84037,36794
33.84848,37030
33.85662,38267
33.86473,38674
33.87285,36394
33.88098,40352
33.88910,35576
33.89723,37403
33.90535,39115
33.91347,37984
33.92160,31843
33.92972,35787
33.93783,35197
33.94597,36739
33.95408,36583
33.96222,34270
33.97033,35547
33.97845,34424
33.98658,37157
33.99470,40030
34.00283,34749
34.01095,34809
34.01907,37540
34.02720,38998
34.03532,37882
34.04345,34480
34.05157,35775
34.05968,41129
34.06782,37536
34.07593,35534
34.08405,39044
34.09218,37825
34.10030,38189
34.10843,37628
34.11655,35732
34.12467,36535
34.13280,34237
34.14092,37164
34.14905,35142
34.15717,35542
34.16528,37320
34.17342,35281
34.18153,39063
34.18967,41947
34.19778,40454
34.20590,36382
34.21403,36390
34.22215,37934
34.23027,39009
34.23840,35258
34.24652,34501
34.25465,37524
34.26277,33825
34.27088,35267
34.27902,38848
34.28713,39277
34.29527,40195
34.30338,38057
34.31150,37183
34.31963,40410
34.32775,37850
34.33587,36151
34.34400,37833
34.35212,41993
34.36025,41390
34.36837,44568
34.37648,35985
34.38462,35459
34.39273,41387
34.40087,43084
34.40898,38445
34.41710,38511
34.42523,39423
34.43335,38197
34.44148,39953
34.44960,39686
34.45772,37507
34.46585,42966
34.47397,37077
34.48208,40257
34.49022,39773
34.49833,36511
34.50647,39916
34.51458,35934
34.52270,43086
34.53083,42899
34.53895,41182
34.54708,42498
34.55520,42958
34.56332,45623
34.57145,46410
34.57957,47983
34.58770,49451
34.59582,51182
34.60393,45381
34.61207,47548
34.62018,46432
34.62830,45502
34.63643,43538
34.64455,43661
34.65268,45375
34.66080,41527
34.66892,39883
34.67705,39358
34.68517,39323
34.69330,41322
34.70142,40335
34.70953,42350
34.71767,44895
34.72578,42969
34.73390,39082
34.74203,46062
34.75015,42126
34.75828,42407
34.76640,41957
34.77452,42321
34.78265,40609
34.79077,41300
34.79890,41225
34.80702,42663
34.81513,38846
34.82327,41151
34.83138,42680
34.83952,43937
34.84763,45713
34.85575,40174
34.86388,35778
34.87200,41027
34.88012,41717
34.88825,43373
34.89637,41888
34.90450,37613
34.91262,36500
34.92073,41043
34.92887,46165
34.93698,44199
34.94512,42753
34.95323,47061
34.96135,46762
34.96948,46820
34.97760,51351
34.98572,50754
34.99385,48798
35.00197,51122
35.01010,50161
35.01822,47088
35.02633,47395
35.03447,43601
35.04258,48739
35.05072,49867
35.05883,46574
35.06695,44289
35.07508,44250
35.08320,44323
35.09133,43574
35.09945,45896
35.10757,47044
35.11570,45980
35.12382,50363
35.13193,43370
35.14007,44114
35.14818,43165
35.15632,45658
35.16443,50147
35.17255,44420
35.18068,51195
35.18880,46935
35.19693,42066
35.20505,41796
35.21317,42502
35.22130,44137
35.22942,45796
35.23755,40122
35.24567,40770
35.25378,37783
35.26192,40229
35.27003,39821
35.27815,44917
35.28628,46054
35.29440,41832
35.30253,40790
35.31065,42392
35.31877,42127
35.32690,40272
35.33502,40175
35.34315,42522
35.35127,41762
35.35938,42324
35.36752,42823
35.37563,42359
35.38375,37826
35.39188,42629
35.40000,40731
35.40813,42308
35.41625,40262
35.42437,41597
35.43250,44513
35.44062,43141
35.44875,40812
35.45687,42861
35.46498,42566
35.47312,44668
35.48123,47058
35.48937,43008
35.49748,44817
35.50560,43510
35.51373,45347
35.52185,43018
35.52997,48331
35.53810,43580
35.54622,43883
35.55435,44802
35.56247,46653
35.57058,43120
35.57872,41727
35.58683,42587
35.59497,42066
35.60308,45564
35.61120,43817
35.61933,42916
35.62745,42103
35.63558,50373
35.64370,45949
35.65182,44643
35.65995,43731
35.66807,41226
35.67618,41679
35.68432,45771
35.69243,48162
35.70057,50719
35.70868,46945
35.71680,42625
35.72493,42883
35.73305,44286
35.74118,44718
35.74930,43242
35.75742,46069
35.76555,44097
35.77367,46239
35.78178,44155
35.78992,47264
35.79803,40735
35.80617,45770
35.81428,44366
35.82240,42854
35.83053,40613
35.83865,43834
35.84678,52391
35.85490,40666
35.86302,41282
35.87115,43448
35.87927,41844
35.88740,44954
35.89552,46582
35.90363,44622
35.91177,45378
35.91988,46541
35.92800,44649
35.93613,41619
35.94425,45976
35.95238,43657
35.96050,42925
35.96862,40203
35.97675,46942
35.98487,48905
35.99300,45627
36.00112,44033
36.00923,44867
36.01737,48284
36.02548,43698
36.03360,47119
36.04173,42451
36.04985,49046
36.05798,46117
36.06610,48629
36.07422,50940
36.08235,51021
36.09047,49557
36.09860,51410
36.10672,44932
36.11483,48090
36.12297,45193
36.13108,42335
36.13922,46520
36.14733,47297
36.15545,45183
36.16358,43419
36.17170,43766
36.17982,53673
36.18795,48043
36.19607,42983
36.20420,43982
36.21232,46759
36.22043,42785
36.22857,45484
36.23668,45106
36.24482,45186
36.25293,46489
36.26105,43758
36.26918,44415
36.27730,44829
36.28543,47516
36.29355,44367
36.30167,46565
36.30980,44085
36.31792,52878
36.32603,54519
36.33417,56426
36.34228,57210
36.35042,55710
36.35853,52036
36.36665,54285
36.37478,52099
36.38290,47316
36.39103,49991
36.39915,54771
36.40727,49538
36.41540,47278
36.42352,49361
36.43165,49892
36.43977,51406
36.44788,51235
36.45602,49432
36.46413,48786
36.47225,48249
36.48038,46480
36.48850,49321
36.49663,47185
36.50475,49655
36.51287,46053
36.52100,47369
36.52912,50851
36.53725,45352
36.54537,46618
36.55348,46601
36.56162,45117
36.56973,48036
36.57785,49477
36.58598,44806
36.59410,48739
36.60223,48111
36.61035,52446
36.61847,45326
36.62660,48093
36.63472,44997
36.64285,54867
36.65097,48838
36.65908,45764
36.66722,48737
36.67533,52788
36.68347,48166
36.69158,49848
36.69970,45681
36.70783,54432
36.71595,50150
36.72407,48342
36.73220,46768
36.74032,47814
36.74845,48608
36.75657,47681
36.76468,50879
36.77282,47955
36.78093,49714
36.78907,52569
36.79718,50454
36.80530,49333
36.81343,48786
36.82155,48206
36.82967,46232
36.83780,47868
36.84592,46874
36.85405,49033
36.86217,50226
36.87028,45669
36.87842,50152
36.88653,50475
36.89467,48677
36.90278,47615
36.91090,46459
36.91903,50252
36.92715,51197
36.93528,49392
36.94340,50646
36.95152,50060
36.95965,46874
36.96777,49444
36.97588,46069
36.98402,53647
36.99213,53611
37.00027,50259
37.00838,48099
37.01650,50233
37.02463,51916
37.03275,50814
37.04088,48093
37.04900,52995
37.05712,42883
37.06525,47352
37.07337,50644
37.08150,50303
37.08962,52290
37.09773,48977
37.10587,51758
37.11398,52506
37.12210,49554
37.13023,53367
37.13835,49773
37.14648,52504
37.15460,50363
37.16272,48833
37.17085,49987
37.17897,52713
37.18710,51173
37.19522,48109
37.20333,50865
37.21147,53130
37.21958,56175
37.22770,56888
37.23583,51040
37.24395,54992
37.25208,54942
37.26020,53368
37.26832,59168
37.27645,56400
37.28457,50643
37.29270,52693
37.30082,52072
37.30893,52993
37.31707,55232
37.32518,53705
37.33332,56196
37.34143,55534
37.34955,59286
37.35768,53790
37.36580,56465
37.37392,57591
37.38205,60605
37.39017,57606
37.39830,60872
37.40642,56693
37.41453,58720
37.42267,59618
37.43078,62554
37.43892,61114
37.44703,60564
37.45515,59218
37.46328,51565
37.47140,55604
37.47953,57079
37.48765,56995
