Z:\data\JTB-E02\BACandBLUE\JTB-E02-196-15.D Wed Feb 20 18:26:30 2019
Start of data points
2.09515,114798
2.10328,109711
2.11140,109442
2.11953,104719
2.12765,105084
2.13577,102098
2.14390,101048
2.15202,102732
2.16015,100445
2.16827,98230
2.17638,91530
2.18452,98362
2.19263,90015
2.20075,93294
2.20888,91475
2.21700,84681
2.22513,79565
2.23325,78841
2.24137,87981
2.24950,81243
2.25762,80432
2.26575,143230
2.27387,674602
2.28198,1562582
2.29012,1466640
2.29823,800900
2.30637,525664
2.31448,430271
2.32260,369527
2.33073,333400
2.33885,309005
2.34697,281530
2.35510,251206
2.36322,232167
2.37135,222286
2.37947,209249
2.38758,202556
2.39572,197249
2.40383,192943
2.41197,194696
2.42008,188070
2.42820,175444
2.43633,178931
2.44445,175747
2.45257,176922
2.46070,174970
2.46882,164096
2.47695,153166
2.48507,152448
2.49318,156054
2.50132,171803
2.50943,162878
2.51757,152170
2.52568,150651
2.53380,149615
2.54193,144279
2.55005,155411
2.55818,191088
2.56630,315996
2.57442,398555
2.58255,329583
2.59067,276214
2.59878,251769
2.60692,229724
2.61503,236649
2.62317,245749
2.63128,236935
2.63940,211145
2.64753,191099
2.65565,183793
2.66378,189948
2.67190,177796
2.68002,179947
2.68815,168695
2.69627,170850
2.70440,166997
2.71252,156645
2.72063,159448
2.72877,157705
2.73688,156238
2.74500,149386
2.75313,147854
2.76125,148692
2.76938,139705
2.77750,141165
2.78562,139569
2.79375,140781
2.80187,143220
2.81000,149681
2.81812,144774
2.82623,148943
2.83437,176401
2.84248,211505
2.85060,206275
2.85873,160789
2.86685,152461
2.87498,147384
2.88310,145930
2.89122,136927
2.89935,130565
2.90747,137957
2.91560,132546
2.92372,135214
2.93183,124461
2.93997,124776
2.94808,123475
2.95622,123847
2.96433,125846
2.97245,120955
2.98058,127748
2.98870,116622
2.99682,117282
3.00495,121904
3.01307,126517
3.02120,127283
3.02932,121448
3.03743,117681
3.04557,121619
3.05368,116185
3.06182,126044
3.06993,146839
3.07805,150171
3.08618,130923
3.09430,128464
3.10243,197321
3.11055,720675
3.11867,1702788
3.12680,2012640
3.13492,1506098
3.14303,1074059
3.15117,830909
3.15928,681905
3.16742,576412
3.17553,486553
3.18365,433553
3.19178,371030
3.19990,332448
3.20803,304122
3.21615,285208
3.22427,257519
3.23240,252098
3.24052,224152
3.24863,217031
3.25677,201119
3.26488,192511
3.27302,181842
3.28113,180878
3.28925,216337
3.29738,553957
3.30550,2217260
3.31363,6410950
3.32175,1.088851E+07
3.32987,1.167752E+07
3.33800,8930297
3.34612,5892614
3.35425,3948307
3.36237,2895390
3.37048,2229008
3.37862,1811975
3.38673,1507318
3.39485,1288283
3.40298,1141424
3.41110,1011475
3.41923,935903
3.42735,865199
3.43547,792780
3.44360,724538
3.45172,679320
3.45985,648258
3.46797,688680
3.47608,993890
3.48422,1409221
3.49233,1460662
3.50045,1151208
3.50858,842249
3.51670,687847
3.52483,594277
3.53295,532522
3.54107,487021
3.54920,448877
3.55732,402633
3.56545,383959
3.57357,351953
3.58168,335189
3.58982,327272
3.59793,316068
3.60607,308860
3.61418,291182
3.62230,311291
3.63043,335614
3.63855,399386
3.64667,476238
3.65480,498166
3.66292,446244
3.67105,382338
3.67917,358679
3.68728,339547
3.69542,333769
3.70353,322353
3.71167,301518
3.71978,286271
3.72790,289504
3.73603,272217
3.74415,264591
3.75228,258719
3.76040,251518
3.76852,260606
3.77665,248996
3.78477,244617
3.79288,247304
3.80102,247293
3.80913,315070
3.81727,649446
3.82538,1461521
3.83350,2130489
3.84163,1999963
3.84975,1510384
3.85788,1163684
3.86600,960621
3.87412,823308
3.88225,737899
3.89037,671122
3.89848,614173
3.90662,565389
3.91473,519934
3.92287,488528
3.93098,467186
3.93910,440554
3.94723,429727
3.95535,413283
3.96348,387986
3.97160,382472
3.97972,371849
3.98785,374509
3.99597,356925
4.00410,350933
4.01222,328195
4.02033,348074
4.02847,350678
4.03658,344760
4.04470,348250
4.05283,303663
4.06095,290830
4.06908,285889
4.07720,269223
4.08532,265655
4.09345,261701
4.10157,244091
4.10970,242988
4.11782,250001
4.12593,237199
4.13407,242323
4.14218,247617
4.15032,248716
4.15843,255405
4.16655,272089
4.17468,269882
4.18280,275202
4.19092,279022
4.19905,290066
4.20717,266862
4.21530,244711
4.22342,255911
4.23153,372665
4.23967,683151
4.24778,1070978
4.25592,1145585
4.26403,955452
4.27215,697986
4.28028,547398
4.28840,443259
4.29652,378981
4.30465,337093
4.31277,312704
4.32090,285312
4.32902,270224
4.33713,272851
4.34527,266626
4.35338,259913
4.36152,251226
4.36963,244981
4.37775,231669
4.38588,237555
4.39400,230899
4.40213,215647
4.41025,220065
4.41837,226857
4.42650,211118
4.43462,209575
4.44273,215571
4.45087,204562
4.45898,203352
4.46712,205355
4.47523,199043
4.48335,190815
4.49148,201056
4.49960,193567
4.50773,196291
4.51585,190847
4.52397,194268
4.53210,199552
4.54022,188222
4.54833,183839
4.55647,187269
4.56458,184736
4.57272,181432
4.58083,194664
4.58895,180597
4.59708,176470
4.60520,182993
4.61333,170640
4.62145,171096
4.62957,173840
4.63770,166815
4.64582,171512
4.65395,168733
4.66207,175005
4.67018,174445
4.67832,167873
4.68643,166773
4.69455,172609
4.70268,167534
4.71080,170898
4.71893,159095
4.72705,167660
4.73517,170268
4.74330,165578
4.75142,160444
4.75955,165426
4.76767,159137
4.77578,159537
4.78392,163461
4.79203,163839
4.80017,162127
4.80828,164236
4.81640,174438
4.82453,180130
4.83265,182078
4.84077,177621
4.84890,182070
4.85702,192625
4.86515,190933
4.87327,194997
4.88138,176605
4.88952,170078
4.89763,168525
4.90577,167870
4.91388,171982
4.92200,162090
4.93013,171483
4.93825,153533
4.94638,174320
4.95450,231392
4.96262,486835
4.97075,1065737
4.97887,1991942
4.98698,2751994
4.99512,2894424
5.00323,2484731
5.01137,1866073
5.01948,1406177
5.02760,1095688
5.03573,919720
5.04385,789452
5.05198,711834
5.06010,632475
5.06822,594389
5.07635,545905
5.08447,519046
5.09258,483576
5.10072,450160
5.10883,417379
5.11697,401947
5.12508,371276
5.13320,367931
5.14133,357482
5.14945,346957
5.15758,340358
5.16570,334541
5.17382,336118
5.18195,330278
5.19007,332156
5.19820,343630
5.20632,355754
5.21443,350789
5.22257,330659
5.23068,318581
5.23880,300973
5.24693,310268
5.25505,307586
5.26318,309652
5.27130,299527
5.27942,284399
5.28755,266338
5.29567,268902
5.30380,255584
5.31192,262961
5.32003,264034
5.32817,260763
5.33628,261751
5.34440,269553
5.35253,286506
5.36065,287537
5.36878,298409
5.37690,286117
5.38502,272249
5.39315,252721
5.40127,275066
5.40940,289497
5.41752,284948
5.42563,285105
5.43377,272259
5.44188,267398
5.45002,276705
5.45813,289870
5.46625,312853
5.47438,313719
5.48250,299347
5.49062,277510
5.49875,274748
5.50687,261369
5.51500,263967
5.52312,253199
5.53123,258836
5.53937,258787
5.54748,255195
5.55562,247071
5.56373,245844
5.57185,230125
5.57998,239545
5.58810,226786
5.59623,244813
5.60435,258252
5.61247,274998
5.62060,269519
5.62872,262797
5.63683,243628
5.64497,248142
5.65308,257364
5.66122,252464
5.66933,241978
5.67745,234104
5.68558,233500
5.69370,238209
5.70183,248409
5.70995,272549
5.71807,288527
5.72620,276922
5.73432,259696
5.74243,238561
5.75057,232210
5.75868,217375
5.76682,216437
5.77493,216283
5.78305,209190
5.79118,195945
5.79930,211089
5.80743,195775
5.81555,198726
5.82367,199656
5.83180,198998
5.83992,203606
5.84805,203645
5.85617,215047
5.86428,222683
5.87242,211910
5.88053,215255
5.88865,201274
5.89678,202602
5.90490,190066
5.91303,186236
5.92115,162121
5.92927,149535
5.93740,143679
5.94552,146307
5.95365,142477
5.96177,139514
5.96988,147472
5.97802,151647
5.98613,185333
5.99427,229004
6.00238,269959
6.01050,283610
6.01863,255432
6.02675,223681
6.03487,201957
6.04300,192089
6.05112,197865
6.05925,177279
6.06737,179214
6.07548,159539
6.08362,153222
6.09173,161627
6.09987,145629
6.10798,145717
6.11610,147811
6.12423,144717
6.13235,154803
6.14047,151082
6.14860,153765
6.15672,152067
6.16485,157725
6.17297,156952
6.18108,152071
6.18922,160655
6.19733,165901
6.20547,166651
6.21358,173919
6.22170,181939
6.22983,171725
6.23795,185345
6.24608,184031
6.25420,180256
6.26232,175106
6.27045,178832
6.27857,193958
6.28668,189564
6.29482,187271
6.30293,188203
6.31107,194077
6.31918,198443
6.32730,206198
6.33543,213220
6.34355,216541
6.35168,210031
6.35980,222591
6.36792,201489
6.37605,208105
6.38417,219520
6.39228,220679
6.40042,233519
6.40853,226494
6.41667,223963
6.42478,227933
6.43290,233935
6.44103,234995
6.44915,235146
6.45728,230620
6.46540,237041
6.47352,245803
6.48165,253305
6.48977,248146
6.49790,254370
6.50602,259412
6.51413,266146
6.52227,255911
6.53038,251399
6.53850,257223
6.54663,254384
6.55475,262073
6.56288,276839
6.57100,258540
6.57912,271071
6.58725,282062
6.59537,261297
6.60350,275330
6.61162,273665
6.61973,278402
6.62787,271787
6.63598,272939
6.64412,287332
6.65223,288901
6.66035,351934
6.66848,615535
6.67660,1515202
6.68472,3083449
6.69285,4564882
6.70097,4732769
6.70910,3773142
6.71722,2786716
6.72533,1785293
6.73347,1284958
6.74158,1001745
6.74972,839202
6.75783,706754
6.76595,633084
6.77408,556524
6.78220,504395
6.79032,440432
6.79845,383372
6.80657,351202
6.81470,325148
6.82282,309681
6.83093,301811
6.83907,294715
6.84718,279799
6.85532,269568
6.86343,264484
6.87155,249677
6.87968,231759
6.88780,218041
6.89593,199328
6.90405,193071
6.91217,182064
6.92030,170893
6.92842,158318
6.93653,154313
6.94467,144831
6.95278,146065
6.96092,136939
6.96903,135281
6.97715,128672
6.98528,136742
6.99340,155016
7.00153,172680
7.00965,197678
7.01777,208554
7.02590,196495
7.03402,183789
7.04215,173760
7.05027,163916
7.05838,159962
7.06652,154032
7.07463,149735
7.08275,147303
7.09088,145569
7.09900,143357
7.10713,136736
7.11525,141551
7.12337,137537
7.13150,129475
7.13962,132346
7.14775,122346
7.15587,124774
7.16398,130126
7.17212,137658
7.18023,145193
7.18835,147434
7.19648,153828
7.20460,136568
7.21273,127568
7.22085,128508
7.22897,124829
7.23710,128085
7.24522,138343
7.25335,138080
7.26147,135461
7.26958,124258
7.27772,127920
7.28583,118172
7.29397,114709
7.30208,114150
7.31020,108396
7.31833,102255
7.32645,103208
7.33457,105441
7.34270,107251
7.35082,112058
7.35895,105652
7.36707,114412
7.37518,112097
7.38332,107992
7.39143,112610
7.39957,118469
7.40768,107248
7.41580,105056
7.42393,114552
7.43205,116918
7.44018,106745
7.44830,111700
7.45642,108970
7.46455,110070
7.47267,109826
7.48078,111571
7.48892,101103
7.49703,106100
7.50517,94541
7.51328,98569
7.52140,95225
7.52953,94600
7.53765,96356
7.54578,93697
7.55390,98288
7.56202,102557
7.57015,92037
7.57827,88899
7.58638,89976
7.59452,97401
7.60263,95082
7.61077,85120
7.61888,91397
7.62700,93048
7.63513,87066
7.64325,88291
7.65138,87711
7.65950,89891
7.66762,85881
7.67575,84093
7.68387,85614
7.69200,88513
7.70012,81811
7.70823,83580
7.71637,86650
7.72448,87865
7.73260,87548
7.74073,87878
7.74885,86871
7.75698,83032
7.76510,83387
7.77322,84108
7.78135,85600
7.78947,84682
7.79760,86178
7.80572,90374
7.81383,92924
7.82197,86969
7.83008,84366
7.83820,88072
7.84633,78615
7.85445,75163
7.86258,81639
7.87070,79472
7.87882,78159
7.88695,81217
7.89507,81348
7.90320,75282
7.91132,79607
7.91943,77173
7.92757,78270
7.93568,83063
7.94382,99471
7.95193,138883
7.96005,195029
7.96818,247899
7.97630,256268
7.98442,227659
7.99255,193793
8.00067,143410
8.00880,117493
8.01692,102767
8.02503,93800
8.03317,87834
8.04128,92357
8.04942,82906
8.05753,83031
8.06565,84391
8.07378,79987
8.08190,79732
8.09003,84290
8.09815,82558
8.10627,78351
8.11440,83981
8.12252,77448
8.13063,77880
8.13877,76298
8.14688,84240
8.15502,87239
8.16313,93874
8.17125,92300
8.17938,93061
8.18750,91260
8.19563,84503
8.20375,78082
8.21187,78854
8.22000,82642
8.22812,76285
8.23623,83498
8.24437,83084
8.25248,81011
8.26062,79648
8.26873,77855
8.27685,74661
8.28498,77813
8.29310,76286
8.30123,79181
8.30935,71071
8.31747,75157
8.32560,73726
8.33372,87025
8.34185,90279
8.34997,90728
8.35808,92569
8.36622,87359
8.37433,83131
8.38245,86660
8.39058,82047
8.39870,81818
8.40683,88430
8.41495,77068
8.42307,82291
8.43120,72274
8.43932,71746
8.44745,75273
8.45557,68340
8.46368,63676
8.47182,70794
8.47993,72317
8.48807,77484
8.49618,77750
8.50430,76440
8.51243,79606
8.52055,83201
8.52867,96751
8.53680,179278
8.54492,497553
8.55305,1189794
8.56117,2181450
8.56928,3027838
8.57742,3168929
8.58553,2476797
8.59367,1471416
8.60178,757810
8.60990,410311
8.61803,267102
8.62615,228396
8.63427,205919
8.64240,191825
8.65052,172985
8.65865,169622
8.66677,161118
8.67488,147291
8.68302,150552
8.69113,140339
8.69927,134814
8.70738,131455
8.71550,133414
8.72363,121022
8.73175,131673
8.73988,116724
8.74800,117082
8.75612,108205
8.76425,108871
8.77237,110375
8.78048,121449
8.78862,179513
8.79673,304285
8.80487,508928
8.81298,702236
8.82110,832662
8.82923,779153
8.83735,632147
8.84548,459784
8.85360,364986
8.86172,321523
8.86985,284180
8.87797,282520
8.88608,267978
8.89422,254978
8.90233,248403
8.91047,226554
8.91858,224952
8.92670,224257
8.93483,205812
8.94295,201186
8.95108,202213
8.95920,196911
8.96732,190657
8.97545,180759
8.98357,190220
8.99170,183311
8.99982,174701
9.00793,176270
9.01607,170517
9.02418,168986
9.03230,164389
9.04043,152911
9.04855,155212
9.05668,158200
9.06480,157179
9.07292,157469
9.08105,144236
9.08917,149028
9.09730,148893
9.10542,143647
9.11353,150860
9.12167,146494
9.12978,145040
9.13792,150175
9.14603,140828
9.15415,137656
9.16228,142386
9.17040,138569
9.17852,141333
9.18665,147373
9.19477,140548
9.20290,138841
9.21102,129598
9.21913,134289
9.22727,126944
9.23538,129505
9.24352,130261
9.25163,132318
9.25975,126163
9.26788,133709
9.27600,131013
9.28413,135433
9.29225,127558
9.30037,121889
9.30850,121257
9.31662,119059
9.32473,125213
9.33287,114209
9.34098,122350
9.34912,121095
9.35723,120600
9.36535,117867
9.37348,118289
9.38160,111464
9.38973,116568
9.39785,112127
9.40597,108698
9.41410,116850
9.42222,111930
9.43033,111185
9.43847,100543
9.44658,111272
9.45472,111663
9.46283,107968
9.47095,102532
9.47908,112320
9.48720,109516
9.49533,98789
9.50345,104842
9.51157,104251
9.51970,103274
9.52782,115545
9.53595,121904
9.54407,128377
9.55218,131471
9.56032,127818
9.56843,122690
9.57655,112707
9.58468,98488
9.59280,88782
9.60093,88308
9.60905,84016
9.61717,80545
9.62530,77285
9.63342,72347
9.64155,73500
9.64967,76339
9.65778,69621
9.66592,73884
9.67403,67120
9.68215,75743
9.69028,71694
9.69840,61297
9.70653,64842
9.71465,68313
9.72277,65651
9.73090,69778
9.73902,63101
9.74715,65626
9.75527,67709
9.76338,65970
9.77152,61327
9.77963,67957
9.78777,58621
9.79588,63944
9.80400,67351
9.81213,59900
9.82025,65828
9.82837,61893
9.83650,62090
9.84462,61417
9.85275,63713
9.86087,60064
9.86898,66575
9.87712,68070
9.88523,70868
9.89337,67915
9.90148,70277
9.90960,68082
9.91773,64708
9.92585,65107
9.93398,66793
9.94210,71112
9.95022,89122
9.95835,115326
9.96647,151280
9.97458,188416
9.98272,210946
9.99083,214665
9.99897,191378
10.00708,149434
10.01520,120182
10.02333,100814
10.03145,99930
10.03958,103142
10.04770,106757
10.05582,97611
10.06395,94075
10.07207,95713
10.08018,92036
10.08832,88491
10.09643,84833
10.10457,89769
10.11268,85201
10.12080,84542
10.12893,87034
10.13705,82431
10.14518,80185
10.15330,80058
10.16142,82374
10.16955,70351
10.17767,77510
10.18580,74551
10.19392,74209
10.20203,72582
10.21017,75870
10.21828,70987
10.22640,74805
10.23453,71630
10.24265,72365
10.25078,81337
10.25890,87224
10.26702,90940
10.27515,93722
10.28327,98123
10.29140,90763
10.29952,103962
10.30763,137684
10.31577,193275
10.32388,287686
10.33202,515649
10.34013,901077
10.34825,1321065
10.35638,1575677
10.36450,1479761
10.37262,1044942
10.38075,656489
10.38887,362643
10.39700,215356
10.40512,159627
10.41323,139106
10.42137,119076
10.42948,116924
10.43762,106419
10.44573,104265
10.45385,95424
10.46198,91160
10.47010,82702
10.47822,86000
10.48635,81141
10.49447,82978
10.50260,77061
10.51072,81526
10.51883,75200
10.52697,78212
10.53508,74340
10.54322,75192
10.55133,77397
10.55945,70089
10.56758,74840
10.57570,74052
10.58383,71463
10.59195,68452
10.60007,71492
10.60820,69813
10.61632,68886
10.62443,73686
10.63257,68717
10.64068,67508
10.64882,69515
10.65693,67089
10.66505,65872
10.67318,63347
10.68130,66739
10.68943,65904
10.69755,67976
10.70567,67408
10.71380,70030
10.72192,71342
10.73003,66630
10.73817,67034
10.74628,66601
10.75442,67137
10.76253,69482
10.77065,74136
10.77878,65932
10.78690,65878
10.79503,69735
10.80315,65867
10.81127,63656
10.81940,58292
10.82752,64169
10.83565,65566
10.84377,59407
10.85188,62266
10.86002,59310
10.86813,57452
10.87625,58852
10.88438,58768
10.89250,64654
10.90063,60734
10.90875,61402
10.91687,61465
10.92500,57046
10.93312,59077
10.94125,55993
10.94937,58827
10.95748,60438
10.96562,59151
10.97373,58705
10.98187,58542
10.98998,55899
10.99810,57521
11.00623,55855
11.01435,59946
11.02247,58357
11.03060,51168
11.03872,55267
11.04685,48233
11.05497,47536
11.06308,54901
11.07122,50921
11.07933,57391
11.08747,54434
11.09558,53384
11.10370,54338
11.11183,48751
11.11995,52728
11.12807,52147
11.13620,53849
11.14432,55546
11.15245,52487
11.16057,51180
11.16868,50430
11.17682,50129
11.18493,54164
11.19307,54968
11.20118,61447
11.20930,63562
11.21743,62962
11.22555,59339
11.23368,58699
11.24180,56134
11.24992,55063
11.25805,57262
11.26617,52148
11.27428,53419
11.28242,51439
11.29053,56634
11.29867,51824
11.30678,48605
11.31490,54486
11.32303,51175
11.33115,62412
11.33928,53085
11.34740,59702
11.35552,56084
11.36365,57928
11.37177,57596
11.37990,51904
11.38802,51907
11.39613,50027
11.40427,53532
11.41238,54237
11.42050,48490
11.42863,52108
11.43675,50245
11.44488,46811
11.45300,47100
11.46112,42094
11.46925,45753
11.47737,47244
11.48550,50753
11.49362,52286
11.50173,55824
11.50987,68764
11.51798,84257
11.52610,77181
11.53423,84574
11.54235,71812
11.55048,67647
11.55860,60922
11.56672,59541
11.57485,60159
11.58297,52383
11.59110,55070
11.59922,52877
11.60733,53078
11.61547,52683
11.62358,54397
11.63172,48248
11.63983,48331
11.64795,48538
11.65608,51329
11.66420,50247
11.67232,49918
11.68045,49216
11.68857,48915
11.69670,48200
11.70482,55168
11.71293,69046
11.72107,69618
11.72918,69576
11.73732,67104
11.74543,59725
11.75355,55319
11.76168,58310
11.76980,56900
11.77792,50814
11.78605,58262
11.79417,53272
11.80230,53264
11.81042,48961
11.81853,55283
11.82667,55127
11.83478,50699
11.84292,51268
11.85103,55077
11.85915,51717
11.86728,51405
11.87540,50447
11.88353,52543
11.89165,54588
11.89977,52657
11.90790,49432
11.91602,52825
11.92413,50954
11.93227,50955
11.94038,52770
11.94852,48599
11.95663,51244
11.96475,48825
11.97288,52346
11.98100,52153
11.98913,49392
11.99725,49316
12.00537,53685
12.01350,56058
12.02162,62316
12.02975,61374
12.03787,70593
12.04598,66220
12.05412,66237
12.06223,53955
12.07035,54628
12.07848,50557
12.08660,51720
12.09473,52970
12.10285,51853
12.11097,48237
12.11910,50171
12.12722,50040
12.13535,53757
12.14347,54482
12.15158,54255
12.15972,52014
12.16783,50095
12.17595,51399
12.18408,47380
12.19220,51594
12.20033,50333
12.20845,47500
12.21657,50486
12.22470,46109
12.23282,50762
12.24095,52830
12.24907,51735
12.25718,53952
12.26532,50157
12.27343,49329
12.28157,48679
12.28968,53602
12.29780,50819
12.30593,51884
12.31405,53600
12.32217,49160
12.33030,48867
12.33842,48441
12.34655,48203
12.35467,48186
12.36278,56721
12.37092,59081
12.37903,59961
12.38717,69038
12.39528,66718
12.40340,61903
12.41153,59240
12.41965,52363
12.42778,54605
12.43590,54855
12.44402,58865
12.45215,60905
12.46027,65022
12.46838,63752
12.47652,59218
12.48463,66983
12.49277,59128
12.50088,55630
12.50900,52415
12.51713,53662
12.52525,54553
12.53338,47765
12.54150,51462
12.54962,48956
12.55775,50452
12.56587,55273
12.57398,51990
12.58212,50555
12.59023,58283
12.59837,52334
12.60648,52807
12.61460,54764
12.62273,52440
12.63085,51626
12.63898,55972
12.64710,50213
12.65522,50739
12.66335,51999
12.67147,52985
12.67960,52314
12.68772,53767
12.69583,44412
12.70397,50207
12.71208,47366
12.72020,51768
12.72833,50466
12.73645,52505
12.74458,52297
12.75270,54829
12.76082,56164
12.76895,61908
12.77707,55747
12.78520,52913
12.79332,53989
12.80143,51421
12.80957,52372
12.81768,52564
12.82582,51216
12.83393,49123
12.84205,49459
12.85018,47947
12.85830,51451
12.86642,46555
12.87455,48853
12.88267,45283
12.89080,51052
12.89892,49579
12.90703,55894
12.91517,45322
12.92328,52980
12.93142,49254
12.93953,49791
12.94765,43820
12.95578,49358
12.96390,44826
12.97202,46545
12.98015,48212
12.98827,48600
12.99640,51265
13.00452,52748
13.01263,49992
13.02077,49046
13.02888,48703
13.03702,46300
13.04513,48712
13.05325,47951
13.06138,49717
13.06950,46360
13.07763,49659
13.08575,46552
13.09387,48480
13.10200,47098
13.11012,49450
13.11823,52252
13.12637,47890
13.13448,51108
13.14262,48120
13.15073,46610
13.15885,47724
13.16698,43919
13.17510,41387
13.18323,47225
13.19135,47489
13.19947,46975
13.20760,51789
13.21572,56645
13.22383,57316
13.23197,55052
13.24008,56863
13.24822,57834
13.25633,54586
13.26445,51146
13.27258,49575
13.28070,47650
13.28883,50893
13.29695,46543
13.30507,50852
13.31320,48951
13.32132,46205
13.32945,47645
13.33757,45920
13.34568,46791
13.35382,44281
13.36193,50571
13.37005,45458
13.37818,43190
13.38630,44826
13.39443,43554
13.40255,45276
13.41067,44471
13.41880,49153
13.42692,42041
13.43505,45932
13.44317,45400
13.45128,45232
13.45942,38846
13.46753,45395
13.47567,45309
13.48378,41621
13.49190,39015
13.50003,44241
13.50815,42651
13.51627,43996
13.52440,42983
13.53252,42876
13.54065,44223
13.54877,44693
13.55688,46000
13.56502,41948
13.57313,47561
13.58127,45934
13.58938,44161
13.59750,45440
13.60563,45109
13.61375,44393
13.62187,48657
13.63000,43166
13.63812,43272
13.64625,46134
13.65437,46443
13.66248,44323
13.67062,46064
13.67873,43979
13.68687,42890
13.69498,41045
13.70310,45246
13.71123,46310
13.71935,44918
13.72748,45495
13.73560,48616
13.74372,40946
13.75185,45685
13.75997,50480
13.76808,49939
13.77622,54827
13.78433,70422
13.79247,81314
13.80058,93458
13.80870,100009
13.81683,82541
13.82495,74584
13.83308,62807
13.84120,61846
13.84932,57197
13.85745,55635
13.86557,48029
13.87370,48093
13.88182,47014
13.88993,48934
13.89807,44503
13.90618,46618
13.91430,47407
13.92243,48568
13.93055,52529
13.93868,50929
13.94680,52212
13.95492,46443
13.96305,54174
13.97117,52333
13.97930,60370
13.98742,70578
13.99553,82541
14.00367,95017
14.01178,97786
14.01990,88863
14.02803,73271
14.03615,70187
14.04428,65863
14.05240,60570
14.06052,57092
14.06865,59792
14.07677,57781
14.08490,55157
14.09302,57384
14.10113,66883
14.10927,56556
14.11738,56579
14.12552,53617
14.13363,49550
14.14175,50500
14.14988,54006
14.15800,51501
14.16612,48381
14.17425,51071
14.18237,55390
14.19050,56504
14.19862,62528
14.20673,82505
14.21487,115120
14.22298,179751
14.23112,229686
14.23923,263084
14.24735,269631
14.25548,247602
14.26360,220636
14.27172,200678
14.27985,174605
14.28797,160376
14.29610,143476
14.30422,139017
14.31233,130104
14.32047,117042
14.32858,111981
14.33672,110213
14.34483,106523
14.35295,95472
14.36108,95490
14.36920,85969
14.37733,76673
14.38545,70988
14.39357,70283
14.40170,59838
14.40982,53991
14.41793,53593
14.42607,56054
14.43418,53647
14.44232,51743
14.45043,51405
14.45855,55986
14.46668,46934
14.47480,54480
14.48293,52293
14.49105,45345
14.49917,48909
14.50730,51132
14.51542,49737
14.52355,50094
14.53167,48975
14.53978,50186
14.54792,55841
14.55603,51809
14.56415,51503
14.57228,48098
14.58040,48141
14.58853,45653
14.59665,48573
14.60477,46042
14.61290,47655
14.62102,45250
14.62915,47984
14.63727,48425
14.64538,46454
14.65352,44211
14.66163,42578
14.66977,45614
14.67788,49210
14.68600,44603
14.69413,42108
14.70225,46350
14.71037,45812
14.71850,44174
14.72662,46017
14.73475,41826
14.74287,45599
14.75098,45486
14.75912,48310
14.76723,42920
14.77537,43411
14.78348,48612
14.79160,40801
14.79973,43204
14.80785,43903
14.81597,45525
14.82410,46029
14.83222,46684
14.84035,51669
14.84847,62338
14.85658,59905
14.86472,64857
14.87283,62353
14.88097,63448
14.88908,65455
14.89720,68923
14.90533,60977
14.91345,60399
14.92158,63364
14.92970,61857
14.93782,62148
14.94595,60998
14.95407,60529
14.96218,63642
14.97032,59380
14.97843,61660
14.98657,58398
14.99468,57606
15.00280,57814
15.01093,62703
15.01905,66168
15.02718,59106
15.03530,60981
15.04342,59213
15.05155,55521
15.05967,56730
15.06778,53203
15.07592,54905
15.08403,49631
15.09217,53523
15.10028,59512
15.10840,53414
15.11653,55406
15.12465,53918
15.13278,50708
15.14090,51956
15.14902,51392
15.15715,53977
15.16527,48117
15.17340,47122
15.18152,50142
15.18963,48504
15.19777,49292
15.20588,50329
15.21400,54820
15.22213,49485
15.23025,48549
15.23838,47157
15.24650,46800
15.25462,43393
15.26275,48522
15.27087,45834
15.27900,42945
15.28712,48322
15.29523,48090
15.30337,42690
15.31148,42076
15.31962,44317
15.32773,43765
15.33585,48688
15.34398,47864
15.35210,42201
15.36022,43136
15.36835,41320
15.37647,41139
15.38460,45497
15.39272,44684
15.40083,45180
15.40897,45987
15.41708,45219
15.42522,44687
15.43333,43376
15.44145,42009
15.44958,45240
15.45770,44720
15.46582,47384
15.47395,43693
15.48207,43824
15.49020,41142
15.49832,41567
15.50643,46064
15.51457,43045
15.52268,47948
15.53082,54915
15.53893,54377
15.54705,66843
15.55518,85994
15.56330,97852
15.57143,97902
15.57955,87026
15.58767,79347
15.59580,66991
15.60392,57994
15.61203,57121
15.62017,51556
15.62828,47083
15.63642,49128
15.64453,45335
15.65265,49873
15.66078,49175
15.66890,45614
15.67703,48710
15.68515,45784
15.69327,43500
15.70140,39852
15.70952,47207
15.71765,42668
15.72577,40090
15.73388,43026
15.74202,40310
15.75013,45847
15.75825,43985
15.76638,43958
15.77450,42727
15.78263,49001
15.79075,48847
15.79887,52457
15.80700,59112
15.81512,54214
15.82325,52332
15.83137,54124
15.83948,47557
15.84762,47887
15.85573,45618
15.86385,47364
15.87198,53221
15.88010,50548
15.88823,47323
15.89635,44859
15.90447,51733
15.91260,54678
15.92072,53549
15.92885,54468
15.93697,55046
15.94508,46913
15.95322,45211
15.96133,47926
15.96947,48747
15.97758,50512
15.98570,50612
15.99383,49473
16.00195,59334
16.01007,59358
16.01820,60891
16.02632,65410
16.03445,65242
16.04257,65061
16.05068,70379
16.05882,65536
16.06693,65718
16.07507,58701
16.08318,58444
16.09130,62112
16.09943,61698
16.10755,63040
16.11567,58943
16.12380,57007
16.13192,57264
16.14005,56938
16.14817,54628
16.15628,57267
16.16442,56533
16.17253,60413
16.18067,54975
16.18878,56892
16.19690,55935
16.20503,52665
16.21315,52301
16.22128,53740
16.22940,58967
16.23752,56120
16.24565,56030
16.25377,51102
16.26188,51958
16.27002,60318
16.27813,50257
16.28627,57096
16.29438,51478
16.30250,56452
16.31063,56445
16.31875,51138
16.32688,52652
16.33500,56269
16.34312,49987
16.35125,54153
16.35937,52716
16.36750,55547
16.37562,57170
16.38373,63607
16.39187,71065
16.39998,77070
16.40810,72091
16.41623,70488
16.42435,61244
16.43248,52640
16.44060,51528
16.44872,50097
16.45685,54798
16.46497,50100
16.47310,49611
16.48122,51212
16.48933,48640
16.49747,47454
16.50558,49841
16.51370,52482
16.52183,52865
16.52995,49004
16.53808,49876
16.54620,51992
16.55432,50841
16.56245,47074
16.57057,48905
16.57870,47691
16.58682,42890
16.59493,47055
16.60307,48453
16.61118,53701
16.61932,55883
16.62743,57303
16.63555,57137
16.64368,56660
16.65180,56079
16.65992,55002
16.66805,50186
16.67617,49498
16.68430,46282
16.69242,45355
16.70053,48582
16.70867,47748
16.71678,50574
16.72492,46487
16.73303,44465
16.74115,45587
16.74928,43444
16.75740,40506
16.76553,41850
16.77365,41659
16.78177,39889
16.78990,39695
16.79802,40723
16.80613,44386
16.81427,40462
16.82238,40418
16.83052,39679
16.83863,41435
16.84675,40049
16.85488,40332
16.86300,39133
16.87113,37997
16.87925,39415
16.88737,36945
16.89550,38590
16.90362,38770
16.91173,42036
16.91987,46987
16.92798,43016
16.93612,42244
16.94423,44585
16.95235,41203
16.96048,41074
16.96860,40032
16.97673,40863
16.98485,43266
16.99297,48015
17.00110,47816
17.00922,35463
17.01735,41488
17.02547,38719
17.03358,39563
17.04172,39815
17.04983,37599
17.05795,35293
17.06608,40039
17.07420,42139
17.08233,45153
17.09045,52349
17.09857,63365
17.10670,84330
17.11482,106987
17.12295,133277
17.13107,153846
17.13918,175169
17.14732,166739
17.15543,162418
17.16355,141684
17.17168,118452
17.17980,102032
17.18793,91190
17.19605,78965
17.20417,66703
17.21230,64339
17.22042,57326
17.22855,58354
17.23667,54407
17.24478,51639
17.25292,49432
17.26103,48535
17.26917,54310
17.27728,48813
17.28540,50502
17.29353,42715
17.30165,43212
17.30977,41679
17.31790,45025
17.32602,43707
17.33415,48720
17.34227,46468
17.35038,49620
17.35852,48604
17.36663,46559
17.37477,48460
17.38288,52653
17.39100,48663
17.39913,51966
17.40725,53234
17.41538,48054
17.42350,49354
17.43162,51134
17.43975,50618
17.44787,48208
17.45598,47307
17.46412,45517
17.47223,49579
17.48037,46269
17.48848,47783
17.49660,48720
17.50473,45911
17.51285,51972
17.52098,46699
17.52910,49508
17.53722,48992
17.54535,50426
17.55347,48119
17.56158,51837
17.56972,51116
17.57783,52487
17.58597,52509
17.59408,58177
17.60220,49120
17.61033,49722
17.61845,44025
17.62658,47067
17.63470,46191
17.64282,46072
17.65095,52125
17.65907,59468
17.66720,79704
17.67532,114976
17.68343,127217
17.69157,141475
17.69968,143394
17.70780,121607
17.71593,102593
17.72405,88410
17.73218,70507
17.74030,65236
17.74842,59374
17.75655,58504
17.76467,62265
17.77280,55452
17.78092,52211
17.78903,51337
17.79717,55323
17.80528,48153
17.81342,49562
17.82153,49024
17.82965,48621
17.83778,51586
17.84590,46671
17.85402,48032
17.86215,47911
17.87027,43458
17.87840,48778
17.88652,44170
17.89463,45062
17.90277,45077
17.91088,45037
17.91902,45551
17.92713,40333
17.93525,43516
17.94338,38968
17.95150,39954
17.95962,41474
17.96775,46003
17.97587,40724
17.98400,41771
17.99212,42140
18.00023,39201
18.00837,40876
18.01648,45967
18.02462,41754
18.03273,44028
18.04085,40623
18.04898,43380
18.05710,44005
18.06523,43864
18.07335,41180
18.08147,43951
18.08960,45961
18.09772,49294
18.10583,61771
18.11397,72217
18.12208,75551
18.13022,91622
18.13833,82089
18.14645,90176
18.15458,90051
18.16270,85628
18.17083,90149
18.17895,80660
18.18707,82985
18.19520,83929
18.20332,84860
18.21145,83778
18.21957,73763
18.22768,81550
18.23582,75524
18.24393,70712
18.25205,73515
18.26018,72979
18.26830,73064
18.27643,67440
18.28455,68448
18.29267,60267
18.30080,58870
18.30892,51760
18.31705,55394
18.32517,49778
18.33328,48154
18.34142,45307
18.34953,46445
18.35765,44528
18.36578,44631
18.37390,46050
18.38203,46581
18.39015,45539
18.39827,44474
18.40640,52329
18.41452,43683
18.42265,44581
18.43077,41626
18.43888,40412
18.44702,43592
18.45513,40038
18.46327,42206
18.47138,44832
18.47950,43434
18.48763,44682
18.49575,42056
18.50387,46893
18.51200,42390
18.52012,42880
18.52825,42298
18.53637,42815
18.54448,40853
18.55262,40841
18.56073,45047
18.56887,40077
18.57698,39639
18.58510,43410
18.59323,43134
18.60135,44852
18.60947,39015
18.61760,39247
18.62572,47636
18.63385,42474
18.64197,45018
18.65008,45145
18.65822,48158
18.66633,43424
18.67447,46570
18.68258,42200
18.69070,37380
18.69883,40901
18.70695,40994
18.71508,39758
18.72320,38638
18.73132,42291
18.73945,39948
18.74757,36477
18.75568,37601
18.76382,38867
18.77193,37650
18.78007,38316
18.78818,38149
18.79630,38586
18.80443,42018
18.81255,40006
18.82068,37473
18.82880,37901
18.83692,38137
18.84505,39150
18.85317,36657
18.86130,33847
18.86942,36506
18.87753,41558
18.88567,39999
18.89378,38071
18.90190,37879
18.91003,39408
18.91815,42703
18.92628,43062
18.93440,45191
18.94252,37496
18.95065,39632
18.95877,37428
18.96690,38870
18.97502,41081
18.98313,44303
18.99127,42798
18.99938,40194
19.00750,40288
19.01563,39564
19.02375,39405
19.03188,37148
19.04000,43621
19.04812,39029
19.05625,40118
19.06437,42473
19.07250,38461
19.08062,43830
19.08873,43287
19.09687,46013
19.10498,55485
19.11312,62460
19.12123,71232
19.12935,78837
19.13748,78214
19.14560,72457
19.15372,66453
19.16185,65692
19.16997,52722
19.17810,67894
19.18622,60097
19.19433,64490
19.20247,62585
19.21058,67171
19.21872,62853
19.22683,62240
19.23495,59256
19.24308,54186
19.25120,53060
19.25933,48589
19.26745,48909
19.27557,53480
19.28370,56118
19.29182,50132
19.29993,53621
19.30807,57478
19.31618,54312
19.32432,56665
19.33243,57618
19.34055,61591
19.34868,58879
19.35680,60870
19.36493,67027
19.37305,64768
19.38117,58956
19.38930,60238
19.39742,54322
19.40553,58084
19.41367,55621
19.42178,55463
19.42992,49935
19.43803,51210
19.44615,51014
19.45428,48188
19.46240,53469
19.47053,50160
19.47865,53649
19.48677,53076
19.49490,55710
19.50302,63081
19.51115,85728
19.51927,115911
19.52738,161043
19.53552,196499
19.54363,208139
19.55175,175105
19.55988,140706
19.56800,108823
19.57613,83449
19.58425,66032
19.59237,61993
19.60050,62028
19.60862,60036
19.61675,57567
19.62487,51035
19.63298,58187
19.64112,62590
19.64923,68659
19.65735,101323
19.66548,161410
19.67360,242853
19.68173,336914
19.68985,417412
19.69797,456426
19.70610,410711
19.71422,353194
19.72235,280000
19.73047,220030
19.73858,175263
19.74672,146144
19.75483,124167
19.76297,110954
19.77108,108750
19.77920,93797
19.78733,87873
19.79545,84091
19.80357,86132
19.81170,80087
19.81982,74517
19.82795,71128
19.83607,68340
19.84418,67347
19.85232,74350
19.86043,68186
19.86857,67598
19.87668,82456
19.88480,126116
19.89293,204573
19.90105,367382
19.90918,550417
19.91730,738230
19.92542,859641
19.93355,884334
19.94167,881307
19.94978,796899
19.95792,705453
19.96603,643629
19.97417,594449
19.98228,564913
19.99040,530440
19.99853,506672
20.00665,473909
20.01478,457551
20.02290,430264
20.03102,403373
20.03915,382467
20.04727,361609
20.05540,339509
20.06352,293266
20.07163,250990
20.07977,202518
20.08788,161102
20.09600,136132
20.10413,125622
20.11225,110860
20.12038,113729
20.12850,107545
20.13662,91734
20.14475,104525
20.15287,97621
20.16100,99012
20.16912,97423
20.17723,103715
20.18537,94328
20.19348,102748
20.20160,97261
20.20973,98323
20.21785,93687
20.22598,89133
20.23410,86448
20.24222,82111
20.25035,84308
20.25847,91136
20.26660,108936
20.27472,130834
20.28283,187058
20.29097,251865
20.29908,310256
20.30722,337368
20.31533,335988
20.32345,298449
20.33158,244984
20.33970,199087
20.34782,161651
20.35595,137552
20.36407,113475
20.37220,94510
20.38032,85409
20.38843,78313
20.39657,76520
20.40468,73137
20.41282,73360
20.42093,68741
20.42905,70891
20.43718,81292
20.44530,99376
20.45342,113167
20.46155,129143
20.46967,134647
20.47780,139072
20.48592,129678
20.49403,121326
20.50217,106113
20.51028,97040
20.51842,81629
20.52653,75793
20.53465,69926
20.54278,73251
20.55090,57969
20.55903,57420
20.56715,60045
20.57527,60900
20.58340,56895
20.59152,64656
20.59963,56639
20.60777,58599
20.61588,52682
20.62402,55070
20.63213,55352
20.64025,56813
20.64838,54053
20.65650,56063
20.66463,57318
20.67275,56308
20.68087,52607
20.68900,51565
20.69712,56238
20.70525,53150
20.71337,57131
20.72148,56553
20.72962,55825
20.73773,50279
20.74585,60421
20.75398,55197
20.76210,54171
20.77023,56628
20.77835,54035
20.78647,56002
20.79460,64522
20.80272,60902
20.81085,58219
20.81897,57495
20.82708,58481
20.83522,59535
20.84333,61948
20.85145,58881
20.85958,61352
20.86770,59817
20.87583,62655
20.88395,55958
20.89207,56037
20.90020,54605
20.90832,54481
20.91645,56835
20.92457,63210
20.93268,55894
20.94082,57278
20.94893,59810
20.95707,61406
20.96518,59731
20.97330,61286
20.98143,64059
20.98955,56864
20.99767,54576
21.00580,53004
21.01392,59984
21.02205,57066
21.03017,59961
21.03828,55108
21.04642,55669
21.05453,55664
21.06267,54851
21.07078,54935
21.07890,60251
21.08703,56609
21.09515,54790
21.10328,50903
21.11140,54868
21.11952,55325
21.12765,53858
21.13577,52718
21.14388,60722
21.15202,60843
21.16013,63477
21.16827,61697
21.17638,64225
21.18450,64714
21.19263,63791
21.20075,58213
21.20888,61130
21.21700,59966
21.22512,61970
21.23325,59700
21.24137,60028
21.24948,58563
21.25762,58093
21.26573,60937
21.27387,61641
21.28198,64048
21.29010,59463
21.29823,54271
21.30635,56086
21.31448,61427
21.32260,55766
21.33072,54131
21.33885,56844
21.34697,54272
21.35510,53526
21.36322,54206
21.37133,55206
21.37947,52848
21.38758,57332
21.39570,53728
21.40383,57902
21.41195,53528
21.42008,53298
21.42820,57221
21.43632,58685
21.44445,61788
21.45257,54584
21.46070,55905
21.46882,52478
21.47693,53548
21.48507,56941
21.49318,51583
21.50130,52105
21.50943,53966
21.51755,52314
21.52568,55429
21.53380,53842
21.54192,54281
21.55005,54653
21.55817,53971
21.56630,56768
21.57442,54617
21.58253,55025
21.59067,58409
21.59878,55517
21.60692,54020
21.61503,53930
21.62315,60070
21.63128,61732
21.63940,76781
21.64752,94690
21.65565,109723
21.66377,127369
21.67190,129768
21.68002,124154
21.68813,116154
21.69627,91396
21.70438,81549
21.71252,76635
21.72063,67501
21.72875,63419
21.73688,55176
21.74500,57113
21.75313,53039
21.76125,52940
21.76937,52903
21.77750,54643
21.78562,54510
21.79373,59933
21.80187,54669
21.80998,51875
21.81812,57165
21.82623,63644
21.83435,72822
21.84248,82795
21.85060,99063
21.85873,108825
21.86685,115938
21.87497,120971
21.88310,103529
21.89122,97737
21.89933,81836
21.90747,73143
21.91558,66202
21.92372,58430
21.93183,58542
21.93995,54716
21.94808,52870
21.95620,55204
21.96433,57025
21.97245,53729
21.98057,50675
21.98870,54016
21.99682,52557
22.00495,48805
22.01307,52977
22.02118,56212
22.02932,58551
22.03743,54493
22.04555,57201
22.05368,53225
22.06180,50303
22.06993,49760
22.07805,51394
22.08617,47591
22.09430,44300
22.10242,52433
22.11055,54686
22.11867,50416
22.12678,49097
22.13492,56737
22.14303,48418
22.15117,50430
22.15928,47327
22.16740,50409
22.17553,53153
22.18365,49230
22.19177,51646
22.19990,48721
22.20802,48999
22.21615,52083
22.22427,53353
22.23238,55742
22.24052,56764
22.24863,64561
22.25677,63307
22.26488,66200
22.27300,67505
22.28113,58244
22.28925,59144
22.29737,58497
22.30550,52097
22.31362,59699
22.32175,58567
22.32987,70331
22.33798,80303
22.34612,89164
22.35423,103622
22.36237,105761
22.37048,95881
22.37860,82939
22.38673,73528
22.39485,68257
22.40298,63266
22.41110,58764
22.41922,56732
22.42735,55837
22.43547,54014
22.44358,50034
22.45172,50252
22.45983,49592
22.46797,46814
22.47608,48557
22.48420,48458
22.49233,46613
22.50045,51932
22.50858,49289
22.51670,45662
22.52482,51549
22.53295,43427
22.54107,48586
22.54918,46022
22.55732,49200
22.56543,48339
22.57357,52012
22.58168,48923
22.58980,43797
22.59793,48507
22.60605,50908
22.61418,46188
22.62230,44542
22.63042,40271
22.63855,38418
22.64667,46000
22.65480,42387
22.66292,48068
22.67103,46970
22.67917,45432
22.68728,50570
22.69540,54968
22.70353,58625
22.71165,60053
22.71978,56362
22.72790,53815
22.73602,53705
22.74415,55678
22.75227,56569
22.76040,46106
22.76852,47642
22.77663,44314
22.78477,46762
22.79288,45583
22.80102,40963
22.80913,46318
22.81725,46735
22.82538,39969
22.83350,46562
22.84162,49132
22.84975,47017
22.85787,50013
22.86600,44809
22.87412,49402
22.88223,49005
22.89037,52432
22.89848,57331
22.90662,54044
22.91473,52853
22.92285,63335
22.93098,65065
22.93910,71563
22.94722,81220
22.95535,93878
22.96347,96255
22.97160,98474
22.97972,95039
22.98783,88549
22.99597,80984
23.00408,82757
23.01222,77473
23.02033,70156
23.02845,68683
23.03658,61042
23.04470,57344
23.05283,56554
23.06095,55092
23.06907,58351
23.07720,53871
23.08532,51775
23.09343,52582
23.10157,51685
23.10968,46842
23.11782,45493
23.12593,45400
23.13405,45960
23.14218,42790
23.15030,45660
23.15843,43735
23.16655,42772
23.17467,43699
23.18280,42413
23.19092,44153
23.19905,45901
23.20717,42271
23.21528,43819
23.22342,44164
23.23153,42706
23.23965,46174
23.24778,43886
23.25590,46371
23.26403,48378
23.27215,56588
23.28027,54533
23.28840,54455
23.29652,52283
23.30465,52249
23.31277,52553
23.32088,46822
23.32902,45860
23.33713,42545
23.34525,46019
23.35338,42072
23.36150,48988
23.36963,43257
23.37775,49132
23.38587,48376
23.39400,44496
23.40212,51341
23.41025,46367
23.41837,49640
23.42648,47169
23.43462,51574
23.44273,47897
23.45087,44415
23.45898,46392
23.46710,44896
23.47523,48599
23.48335,47195
23.49147,47646
23.49960,46752
23.50772,47140
23.51585,46238
23.52397,47432
23.53208,45665
23.54022,49099
23.54833,52633
23.55647,48337
23.56458,50031
23.57270,52863
23.58083,51984
23.58895,57481
23.59708,51083
23.60520,60658
23.61332,64582
23.62145,63969
23.62957,70957
23.63768,82748
23.64582,79655
23.65393,104782
23.66207,142662
23.67018,197497
23.67830,265712
23.68643,294289
23.69455,300576
23.70268,257003
23.71080,208458
23.71892,166182
23.72705,132247
23.73517,104094
23.74328,82899
23.75142,92609
23.75953,107212
23.76767,201974
23.77578,510302
23.78390,1312507
23.79203,2717803
23.80015,4452075
23.80828,5662148
23.81640,5919105
23.82452,5258083
23.83265,4009248
23.84077,2741546
23.84890,1848642
23.85702,1297598
23.86513,917741
23.87327,731063
23.88138,587170
23.88950,513224
23.89763,430490
23.90575,386792
23.91388,359754
23.92200,313733
23.93012,299171
23.93825,268197
23.94637,248626
23.95450,239839
23.96262,224358
23.97073,208579
23.97887,200976
23.98698,197462
23.99510,179439
24.00323,179928
24.01135,169386
24.01948,155051
24.02760,163978
24.03572,161707
24.04385,160709
24.05197,157964
24.06010,163201
24.06822,166587
24.07633,164039
24.08447,160122
24.09258,146088
24.10072,138982
24.10883,135225
24.11695,129229
24.12508,124262
24.13320,123419
24.14132,124484
24.14945,124512
24.15757,125127
24.16570,134364
24.17382,127319
24.18193,132336
24.19007,121888
24.19818,114889
24.20632,105315
24.21443,105893
24.22255,115424
24.23068,121696
24.23880,119967
24.24693,130452
24.25505,120827
24.26317,127242
24.27130,117130
24.27942,107364
24.28753,97745
24.29567,98789
24.30378,99420
24.31192,85501
24.32003,93078
24.32815,87501
24.33628,87487
24.34440,88140
24.35253,87454
24.36065,86147
24.36877,86118
24.37690,82420
24.38502,82299
24.39313,95591
24.40127,111375
24.40938,136047
24.41752,166376
24.42563,181002
24.43375,182262
24.44188,167660
24.45000,129988
24.45813,104213
24.46625,89537
24.47437,82101
24.48250,77110
24.49062,76138
24.49875,79345
24.50687,77382
24.51498,87057
24.52312,95976
24.53123,101509
24.53935,108616
24.54748,109761
24.55560,113284
24.56373,100598
24.57185,91797
24.57997,89155
24.58810,92315
24.59622,89951
24.60435,89705
24.61247,92751
24.62058,86126
24.62872,92269
24.63683,84523
24.64497,77541
24.65308,79517
24.66120,82126
24.66933,81974
24.67745,76776
24.68557,80151
24.69370,80236
24.70182,77149
24.70995,77477
24.71807,75642
24.72618,70476
24.73432,75582
24.74243,66332
24.75057,64582
24.75868,64363
24.76680,63690
24.77493,71162
24.78305,66620
24.79117,65000
24.79930,60644
24.80742,64764
24.81555,65774
24.82367,62509
24.83178,58553
24.83992,60520
24.84803,63057
24.85617,63812
24.86428,62816
24.87240,64452
24.88053,60504
24.88865,60588
24.89678,63783
24.90490,63405
24.91302,60823
24.92115,65267
24.92927,66313
24.93738,60672
24.94552,63871
24.95363,63520
24.96177,62134
24.96988,55181
24.97800,57998
24.98613,59247
24.99425,58073
25.00238,55900
25.01050,58840
25.01862,60479
25.02675,55728
25.03487,52673
25.04298,53972
25.05112,60194
25.05923,55345
25.06737,62017
25.07548,60222
25.08360,61423
25.09173,59641
25.09985,62376
25.10798,56126
25.11610,55825
25.12422,58156
25.13235,57035
25.14047,60539
25.14860,64040
25.15672,70215
25.16483,70685
25.17297,80058
25.18108,77622
25.18920,77372
25.19733,79979
25.20545,68131
25.21358,62874
25.22170,68571
25.22982,66355
25.23795,59984
25.24607,58074
25.25420,61896
25.26232,62371
25.27043,56720
25.27857,56714
25.28668,62237
25.29482,58795
25.30293,60021
25.31105,64040
25.31918,64610
25.32730,63697
25.33542,67789
25.34355,73231
25.35167,66124
25.35980,65920
25.36792,63528
25.37603,58370
25.38417,60510
25.39228,57836
25.40042,54387
25.40853,55763
25.41665,51562
25.42478,53335
25.43290,53618
25.44103,51885
25.44915,55225
25.45727,50631
25.46540,53143
25.47352,52136
25.48163,60711
25.48977,60191
25.49788,62640
25.50602,65394
25.51413,67069
25.52225,66790
25.53038,61858
25.53850,55590
25.54663,58825
25.55475,57771
25.56287,52832
25.57100,56129
25.57912,51147
25.58723,51039
25.59537,52882
25.60348,46581
25.61162,53863
25.61973,49091
25.62785,48119
25.63598,48057
25.64410,50160
25.65223,48380
25.66035,51276
25.66847,54181
25.67660,52951
25.68472,54535
25.69285,54320
25.70097,56531
25.70908,48706
25.71722,52212
25.72533,49947
25.73345,46339
25.74158,55176
25.74970,52919
25.75783,56275
25.76595,49795
25.77407,53309
25.78220,55129
25.79032,55418
25.79845,49181
25.80657,51738
25.81468,53971
25.82282,52365
25.83093,56343
25.83905,56151
25.84718,55362
25.85530,56791
25.86343,62412
25.87155,58330
25.87967,57439
25.88780,49965
25.89592,54595
25.90405,47699
25.91217,50753
25.92028,47355
25.92842,46499
25.93653,48012
25.94467,44600
25.95278,46405
25.96090,48605
25.96903,46801
25.97715,44322
25.98527,46714
25.99340,48278
26.00152,41256
26.00965,46852
26.01777,47627
26.02588,44943
26.03402,46692
26.04213,46015
26.05027,44968
26.05838,48702
26.06650,44991
26.07463,46759
26.08275,48397
26.09088,47301
26.09900,49023
26.10712,48896
26.11525,47379
26.12337,52573
26.13148,53948
26.13962,50870
26.14773,60405
26.15587,61815
26.16398,65602
26.17210,62178
26.18023,64761
26.18835,68777
26.19648,68271
26.20460,69378
26.21272,66643
26.22085,65322
26.22897,62814
26.23708,59726
26.24522,53684
26.25333,57728
26.26147,59995
26.26958,57521
26.27770,61013
26.28583,59194
26.29395,59672
26.30208,62581
26.31020,60388
26.31832,58844
26.32645,53722
26.33457,58230
26.34270,51125
26.35082,54874
26.35893,54490
26.36707,55225
26.37518,51050
26.38330,48387
26.39143,52979
26.39955,52025
26.40768,51837
26.41580,53642
26.42392,58960
26.43205,57917
26.44017,52626
26.44830,54914
26.45642,54580
26.46453,47244
26.47267,51428
26.48078,52649
26.48892,48459
26.49703,49811
26.50515,51854
26.51328,47451
26.52140,49933
26.52952,51908
26.53765,41669
26.54577,48715
26.55390,49813
26.56202,47684
26.57013,48089
26.57827,48429
26.58638,45619
26.59452,45373
26.60263,46083
26.61075,44551
26.61888,51332
26.62700,48008
26.63512,49232
26.64325,46483
26.65137,50644
26.65950,51713
26.66762,50045
26.67573,53840
26.68387,52649
26.69198,55327
26.70012,51269
26.70823,55807
26.71635,50759
26.72448,48839
26.73260,54372
26.74073,51275
26.74885,48281
26.75697,48128
26.76510,53128
26.77322,53622
26.78133,52130
26.78947,50458
26.79758,56600
26.80572,46052
26.81383,51733
26.82195,52767
26.83008,56536
26.83820,55679
26.84633,55001
26.85445,58503
26.86257,61862
26.87070,61489
26.87882,61477
26.88693,64839
26.89507,60032
26.90318,52895
26.91132,56048
26.91943,52949
26.92755,54309
26.93568,52812
26.94380,56554
26.95193,53831
26.96005,56148
26.96817,67072
26.97630,73095
26.98442,104487
26.99255,183128
27.00067,354770
27.00878,657078
27.01692,1188953
27.02503,1862269
27.03315,2504823
27.04128,2693779
27.04940,2478961
27.05753,1991380
27.06565,1497922
27.07377,1074496
27.08190,775370
27.09002,603493
27.09815,466150
27.10627,402430
27.11438,333614
27.12252,300136
27.13063,274430
27.13877,261028
27.14688,229113
27.15500,217823
27.16313,200616
27.17125,192387
27.17937,183542
27.18750,183225
27.19562,161793
27.20375,171141
27.21187,156029
27.21998,155716
27.22812,148418
27.23623,141364
27.24437,138423
27.25248,131511
27.26060,121882
27.26873,117473
27.27685,115740
27.28497,112134
27.29310,109440
27.30122,104225
27.30935,105069
27.31747,93125
27.32558,98667
27.33372,91507
27.34183,93504
27.34997,99023
27.35808,96478
27.36620,93584
27.37433,92394
27.38245,90512
27.39058,90301
27.39870,84891
27.40682,83015
27.41495,84773
27.42307,83195
27.43118,82576
27.43932,80680
27.44743,78831
27.45557,76967
27.46368,77554
27.47180,81307
27.47993,81106
27.48805,75482
27.49618,74659
27.50430,73768
27.51242,71766
27.52055,75703
27.52867,76289
27.53680,74859
27.54492,74413
27.55303,78603
27.56117,78660
27.56928,73756
27.57740,74745
27.58553,75243
27.59365,75175
27.60178,72759
27.60990,79455
27.61802,74265
27.62615,80830
27.63427,85277
27.64240,85156
27.65052,78642
27.65863,72820
27.66677,78606
27.67488,64813
27.68300,67901
27.69113,62795
27.69925,64972
27.70738,66438
27.71550,60374
27.72362,60311
27.73175,59376
27.73987,59881
27.74800,58307
27.75612,58609
27.76423,62372
27.77237,61736
27.78048,63043
27.78862,55688
27.79673,60179
27.80485,60765
27.81298,60290
27.82110,59671
27.82922,59759
27.83735,61666
27.84547,63491
27.85360,65470
27.86172,63002
27.86983,64500
27.87797,60751
27.88608,62896
27.89422,59208
27.90233,60422
27.91045,55021
27.91858,56176
27.92670,57350
27.93482,51092
27.94295,52973
27.95107,54381
27.95920,51994
27.96732,53871
27.97543,55684
27.98357,56593
27.99168,56979
27.99982,53384
28.00793,55753
28.01605,57498
28.02418,56951
28.03230,54882
28.04043,54848
28.04855,53209
28.05667,57740
28.06480,54273
28.07292,56040
28.08103,57963
28.08917,55719
28.09728,55586
28.10542,53921
28.11353,52691
28.12165,52842
28.12978,54331
28.13790,51554
28.14603,55428
28.15415,50605
28.16227,53324
28.17040,55135
28.17852,48416
28.18665,47436
28.19477,55503
28.20288,54460
28.21102,56893
28.21913,56849
28.22725,63464
28.23538,73888
28.24350,69364
28.25163,69104
28.25975,64012
28.26787,57273
28.27600,56000
28.28412,54157
28.29225,55575
28.30037,53618
28.30848,53031
28.31662,63164
28.32473,70218
28.33285,90943
28.34098,114228
28.34910,150406
28.35723,194165
28.36535,245774
28.37347,286074
28.38160,306688
28.38972,313326
28.39785,306288
28.40597,286155
28.41408,248850
28.42222,219477
28.43033,201188
28.43847,174873
28.44658,154513
28.45470,141750
28.46283,129603
28.47095,118739
28.47907,108958
28.48720,104122
28.49532,105069
28.50345,101218
28.51157,97969
28.51968,91068
28.52782,88550
28.53593,87899
28.54407,87244
28.55218,78644
28.56030,80800
28.56843,81297
28.57655,81855
28.58468,82814
28.59280,73395
28.60092,72376
28.60905,75106
28.61717,70326
28.62528,73796
28.63342,73270
28.64153,69123
28.64967,77686
28.65778,79379
28.66590,80696
28.67403,77185
28.68215,77432
28.69028,79836
28.69840,72831
28.70652,72650
28.71465,72635
28.72277,67541
28.73088,69137
28.73902,65830
28.74713,66158
28.75527,68103
28.76338,69267
28.77150,73724
28.77963,82957
28.78775,95205
28.79588,108615
28.80400,110039
28.81212,107135
28.82025,82564
28.82837,72149
28.83650,68072
28.84462,59964
28.85273,63267
28.86087,59309
28.86898,59675
28.87710,58577
28.88523,61091
28.89335,56210
28.90148,55006
28.90960,57318
28.91772,57709
28.92585,56343
28.93397,60057
28.94210,60175
28.95022,58331
28.95833,64663
28.96647,58064
28.97458,61987
28.98272,65798
28.99083,57907
28.99895,60884
29.00708,66080
29.01520,57987
29.02332,57061
29.03145,59508
29.03957,58028
29.04770,53504
29.05582,57080
29.06393,54988
29.07207,54675
29.08018,52870
29.08832,52537
29.09643,52732
29.10455,53373
29.11268,55534
29.12080,59134
29.12892,54714
29.13705,56522
29.14517,48168
29.15330,49335
29.16142,55329
29.16953,53246
29.17767,57105
29.18578,54533
29.19392,55887
29.20203,60113
29.21015,55127
29.21828,58238
29.22640,58666
29.23453,57217
29.24265,60171
29.25077,58480
29.25890,57702
29.26702,55612
29.27513,57825
29.28327,59403
29.29138,56729
29.29952,56635
29.30763,53361
29.31575,53456
29.32388,54959
29.33200,52293
29.34013,52619
29.34825,55226
29.35637,55146
29.36450,50242
29.37262,57376
29.38073,58685
29.38887,55033
29.39698,53674
29.40512,52700
29.41323,54331
29.42135,58249
29.42948,56179
29.43760,52570
29.44573,54506
29.45385,51396
29.46197,56711
29.47010,56546
29.47822,52223
29.48635,52747
29.49447,56218
29.50258,57678
29.51072,62332
29.51883,63801
29.52695,66035
29.53508,59434
29.54320,63252
29.55133,57278
29.55945,53698
29.56757,55012
29.57570,48715
29.58382,49861
29.59195,48046
29.60007,50588
29.60818,50323
29.61632,52389
29.62443,45341
29.63257,54170
29.64068,57240
29.64880,47829
29.65693,57071
29.66505,50469
29.67317,56081
29.68130,48927
29.68942,54905
29.69755,49770
29.70567,48205
29.71378,49138
29.72192,47724
29.73003,49986
29.73817,52196
29.74628,52490
29.75440,53776
29.76253,50387
29.77065,47756
29.77877,50500
29.78690,48118
29.79502,52639
29.80315,48455
29.81127,51186
29.81938,49434
29.82752,48654
29.83563,44438
29.84377,46013
29.85188,45912
29.86000,46473
29.86813,49711
29.87625,57312
29.88438,79280
29.89250,101728
29.90062,141733
29.90875,185597
29.91687,218608
29.92498,231496
29.93312,201244
29.94123,152502
29.94937,109459
29.95748,88024
29.96560,77624
29.97373,70761
29.98185,75208
29.98998,88290
29.99810,107891
30.00622,115481
30.01435,125896
30.02247,148255
30.03060,160453
30.03872,160908
30.04683,170368
30.05497,161876
30.06308,164586
30.07120,156134
30.07933,155501
30.08745,138182
30.09558,130113
30.10370,127756
30.11182,112996
30.11995,111652
30.12807,97027
30.13620,90248
30.14432,89969
30.15243,93161
30.16057,85359
30.16868,85859
30.17680,84383
30.18493,79697
30.19305,77652
30.20118,78910
30.20930,76064
30.21742,70878
30.22555,75149
30.23367,74319
30.24180,68291
30.24992,75379
30.25803,73244
30.26617,65134
30.27428,67277
30.28242,67118
30.29053,62114
30.29865,60499
30.30678,58374
30.31490,63231
30.32302,67323
30.33115,60971
30.33927,62514
30.34740,59849
30.35552,59452
30.36363,60132
30.37177,63829
30.37988,61023
30.38802,56760
30.39613,59452
30.40425,56199
30.41238,58980
30.42050,56561
30.42862,55341
30.43675,52488
30.44487,54579
30.45300,56216
30.46112,55548
30.46923,56030
30.47737,54899
30.48548,49750
30.49362,51806
30.50173,54450
30.50985,57339
30.51798,51718
30.52610,51365
30.53423,53024
30.54235,51514
30.55047,54606
30.55860,56598
30.56672,56648
30.57483,55215
30.58297,54734
30.59108,58193
30.59922,51890
30.60733,52338
30.61545,54111
30.62358,53260
30.63170,53401
30.63983,46993
30.64795,51884
30.65607,55101
30.66420,54459
30.67232,48898
30.68045,49682
30.68857,54630
30.69668,52622
30.70482,51224
30.71293,47204
30.72105,49043
30.72918,49290
30.73730,54257
30.74543,50766
30.75355,56153
30.76167,54826
30.76980,53137
30.77792,53112
30.78605,53653
30.79417,53300
30.80228,56162
30.81042,54198
30.81853,59242
30.82667,63929
30.83478,63550
30.84290,65740
30.85103,56391
30.85915,55341
30.86727,51113
30.87540,51748
30.88352,52372
30.89165,55160
30.89977,52275
30.90788,57313
30.91602,53000
30.92413,51475
30.93227,55158
30.94038,50830
30.94850,49196
30.95663,45852
30.96475,51650
30.97287,51486
30.98100,52375
30.98912,51354
30.99725,49859
31.00537,48528
31.01348,55789
31.02162,52987
31.02973,56538
31.03787,59418
31.04598,64649
31.05410,65612
31.06223,64263
31.07035,62668
31.07848,59487
31.08660,64581
31.09472,72203
31.10285,81735
31.11097,100411
31.11908,123865
31.12722,137951
31.13533,131196
31.14347,122973
31.15158,98361
31.15970,78205
31.16783,73083
31.17595,64142
31.18408,63808
31.19220,68440
31.20032,74566
31.20845,87415
31.21657,105501
31.22468,121825
31.23282,135801
31.24093,146936
31.24907,137597
31.25718,114769
31.26530,97033
31.27343,74726
31.28155,70358
31.28968,72013
31.29780,56565
31.30592,57764
31.31405,56347
31.32217,56108
31.33030,51031
31.33842,49210
31.34653,54770
31.35467,51607
31.36278,55170
31.37090,54886
31.37903,55592
31.38715,64703
31.39528,64544
31.40340,65429
31.41152,62369
31.41965,65886
31.42777,62746
31.43590,62329
31.44402,68603
31.45213,59573
31.46027,64610
31.46838,57136
31.47652,52703
31.48463,56007
31.49275,56648
31.50088,52862
31.50900,53600
31.51712,51443
31.52525,52816
31.53337,55989
31.54150,52374
31.54962,48437
31.55773,50066
31.56587,50057
31.57398,49237
31.58212,54602
31.59023,53053
31.59835,55773
31.60648,52192
31.61460,51132
31.62272,52716
31.63085,50761
31.63897,52804
31.64710,54235
31.65522,52647
31.66333,50817
31.67147,50446
31.67958,52078
31.68772,56729
31.69583,54435
31.70395,48817
31.71208,52153
31.72020,50222
31.72833,47323
31.73645,48370
31.74457,52130
31.75270,46206
31.76082,52603
31.76893,52469
31.77707,44264
31.78518,49315
31.79332,57319
31.80143,52857
31.80955,55652
31.81768,52377
31.82580,48790
31.83393,52843
31.84205,51245
31.85017,59616
31.85830,54806
31.86642,59859
31.87455,62611
31.88267,61902
31.89078,68154
31.89892,65839
31.90703,63913
31.91515,63216
31.92328,68800
31.93140,70253
31.93953,78047
31.94765,85496
31.95577,97580
31.96390,103062
31.97202,115750
31.98015,129819
31.98827,135153
31.99638,136003
32.00452,129133
32.01263,130710
32.02075,127607
32.02888,119438
32.03700,109248
32.04513,100852
32.05325,89862
32.06137,86599
32.06950,80376
32.07762,86535
32.08575,88108
32.09387,84922
32.10198,89108
32.11012,79150
32.11823,80377
32.12637,76474
32.13448,75720
32.14260,72046
32.15073,70467
32.15885,66103
32.16697,64534
32.17510,63456
32.18322,68264
32.19135,61200
32.19947,60611
32.20758,64461
32.21572,59899
32.22383,61770
32.23197,59975
32.24008,57991
32.24820,66199
32.25633,60567
32.26445,59612
32.27257,59254
32.28070,59633
32.28882,62486
32.29695,61188
32.30507,58327
32.31318,61553
32.32132,59525
32.32943,62205
32.33757,61264
32.34568,61557
32.35380,59816
32.36193,63997
32.37005,62026
32.37818,59795
32.38630,63272
32.39442,63865
32.40255,58796
32.41067,59743
32.41878,55613
32.42692,61292
32.43503,61228
32.44317,57566
32.45128,57978
32.45940,57857
32.46753,59714
32.47565,59289
32.48378,60750
32.49190,51638
32.50002,60522
32.50815,58388
32.51627,55229
32.52440,58631
32.53252,53372
32.54063,54176
32.54877,54018
32.55688,56924
32.56500,58121
32.57313,55058
32.58125,55525
32.58938,59387
32.59750,54869
32.60562,55138
32.61375,55874
32.62187,54862
32.63000,50739
32.63812,57642
32.64623,53804
32.65437,55820
32.66248,59238
32.67060,69370
32.67873,75963
32.68685,89635
32.69498,91370
32.70310,90728
32.71122,83907
32.71935,74575
32.72747,71082
32.73560,66444
32.74372,60843
32.75183,61175
32.75997,56315
32.76808,61450
32.77622,59478
32.78433,51199
32.79245,49223
32.80058,54321
32.80870,51197
32.81682,56158
32.82495,56432
32.83307,55556
32.84120,55528
32.84932,59191
32.85743,50606
32.86557,52198
32.87368,54930
32.88182,55340
32.88993,58255
32.89805,58428
32.90618,54038
32.91430,54527
32.92243,59016
32.93055,61029
32.93867,58906
32.94680,57077
32.95492,56534
32.96303,58864
32.97117,57519
32.97928,59914
32.98742,62356
32.99553,59511
33.00365,63355
33.01178,60261
33.01990,59379
33.02803,58205
33.03615,57101
33.04427,59441
33.05240,59011
33.06052,62069
33.06863,62634
33.07677,55150
33.08488,53540
33.09302,54662
33.10113,58460
33.10925,65816
33.11738,73016
33.12550,77107
33.13363,86867
33.14175,85401
33.14987,82670
33.15800,75569
33.16612,69320
33.17425,63784
33.18237,59060
33.19048,60019
33.19862,64295
33.20673,62158
33.21485,60630
33.22298,64429
33.23110,66164
33.23923,66479
33.24735,65425
33.25547,67532
33.26360,63803
33.27172,66950
33.27985,62456
33.28797,59390
33.29608,57481
33.30422,62557
33.31233,58262
33.32047,59681
33.32858,62821
33.33670,62706
33.34483,55290
33.35295,59780
33.36107,57391
33.36920,58059
33.37732,57266
33.38545,60569
33.39357,59902
33.40168,57991
33.40982,61507
33.41793,56580
33.42607,60297
33.43418,55780
33.44230,57222
33.45043,53300
33.45855,55174
33.46667,58366
33.47480,55948
33.48292,59015
33.49105,57553
33.49917,57451
33.50728,60290
33.51542,60506
33.52353,57167
33.53167,56753
33.53978,65656
33.54790,57983
33.55603,60228
33.56415,61372
33.57228,60131
33.58040,61212
33.58852,59276
33.59665,64670
33.60477,61839
33.61288,63606
33.62102,64384
33.62913,56496
33.63727,63352
33.64538,61092
33.65350,55435
33.66163,57244
33.66975,60129
33.67788,65251
33.68600,60517
33.69412,58353
33.70225,59825
33.71037,63964
33.71848,57779
33.72662,59819
33.73473,61501
33.74287,63471
33.75098,64094
33.75910,60988
33.76723,61109
33.77535,61896
33.78348,61129
33.79160,60098
33.79972,61713
33.80785,59657
33.81597,62051
33.82410,63907
33.83222,62485
33.84033,58622
33.84847,61769
33.85658,67379
33.86470,63184
33.87283,65317
33.88095,62433
33.88908,66375
33.89720,69903
33.90532,62699
33.91345,63830
33.92157,65350
33.92970,68787
33.93782,63703
33.94593,61629
33.95407,63849
33.96218,59716
33.97032,64829
33.97843,63999
33.98655,59602
33.99468,65917
34.00280,60153
34.01092,61041
34.01905,65918
34.02717,61468
34.03530,58170
34.04342,62803
34.05153,57966
34.05967,60056
34.06778,57780
34.07592,57723
34.08403,64684
34.09215,60840
34.10028,63812
34.10840,63620
34.11652,59730
34.12465,63103
34.13277,64018
34.14090,65960
34.14902,58373
34.15713,59160
34.16527,67615
34.17338,60670
34.18152,61446
34.18963,60399
34.19775,63210
34.20588,59612
34.21400,59719
34.22213,59337
34.23025,60118
34.23837,62939
34.24650,65926
34.25462,65197
34.26273,58588
34.27087,59891
34.27898,63199
34.28712,63295
34.29523,59297
34.30335,57384
34.31148,66849
34.31960,59080
34.32773,64004
34.33585,60222
34.34397,61911
34.35210,59268
34.36022,64213
34.36835,61004
34.37647,62088
34.38458,58655
34.39272,62296
34.40083,65950
34.40895,68320
34.41708,63957
34.42520,61212
34.43333,59496
34.44145,61777
34.44957,62480
34.45770,60312
34.46582,65327
34.47395,67641
34.48207,58958
34.49018,57951
34.49832,60904
34.50643,59279
34.51455,59153
34.52268,61813
34.53080,70860
34.53893,74380
34.54705,85671
34.55517,98255
34.56330,106618
34.57142,117564
34.57955,118981
34.58767,122171
34.59578,117340
34.60392,109791
34.61203,104762
34.62017,97002
34.62828,90650
34.63640,88120
34.64453,87006
34.65265,84454
34.66077,81343
34.66890,81546
34.67702,75121
34.68515,81599
34.69327,81526
34.70138,78964
34.70952,79237
34.71763,73733
34.72577,71836
34.73388,71828
34.74200,70588
34.75013,70267
34.75825,73361
34.76637,74283
34.77450,76674
34.78262,69287
34.79075,65053
34.79887,72737
34.80698,72676
34.81512,72686
34.82323,68633
34.83137,62984
34.83948,62802
34.84760,70073
34.85573,67091
34.86385,62744
34.87198,68972
34.88010,64041
34.88822,70893
34.89635,65134
34.90447,68420
34.91258,65691
34.92072,67710
34.92883,72957
34.93697,75354
34.94508,73474
34.95320,85756
34.96133,90882
34.96945,107829
34.97758,148794
34.98570,165353
34.99382,188551
35.00195,188577
35.01007,167041
35.01820,136017
35.02632,117739
35.03443,96527
35.04257,95421
35.05068,86439
35.05880,79675
35.06693,88010
35.07505,83231
35.08318,80147
35.09130,87390
35.09942,86048
35.10755,82438
35.11567,83580
35.12380,84287
35.13192,84669
35.14003,72602
35.14817,72243
35.15628,80774
35.16440,83429
35.17253,83975
35.18065,82547
35.18878,79847
35.19690,76602
35.20502,78857
35.21315,76849
35.22127,73132
35.22940,74007
35.23752,64871
35.24563,76722
35.25377,67011
35.26188,69831
35.27002,71786
35.27813,72418
35.28625,72187
35.29438,70627
35.30250,67193
35.31062,71977
35.31875,68996
35.32687,72880
35.33500,76047
35.34312,67607
35.35123,64456
35.35937,70268
35.36748,66228
35.37562,65555
35.38373,67899
35.39185,67896
35.39998,68728
35.40810,67244
35.41623,64939
35.42435,63422
35.43247,68544
35.44060,69221
35.44872,69245
35.45683,65760
35.46497,67990
35.47308,69645
35.48122,69944
35.48933,70574
35.49745,68933
35.50558,79062
35.51370,71593
35.52183,68003
35.52995,68809
35.53807,66351
35.54620,69327
35.55432,74999
35.56243,69846
35.57057,61051
35.57868,69945
35.58682,76190
35.59493,68728
35.60305,71855
35.61118,70352
35.61930,72836
35.62743,73868
35.63555,74994
35.64367,69717
35.65180,65811
35.65992,67179
35.66805,69186
35.67617,70547
35.68428,69541
35.69242,79692
35.70053,80082
35.70865,77972
35.71678,77879
35.72490,72185
35.73303,76072
35.74115,72836
35.74927,79158
35.75740,75250
35.76552,73437
35.77365,73550
35.78177,75807
35.78988,75004
35.79802,73247
35.80613,74505
35.81425,70946
35.82238,68553
35.83050,69236
35.83863,65639
35.84675,71806
35.85487,71553
35.86300,75644
35.87112,75413
35.87925,74275
35.88737,71962
35.89548,74034
35.90362,71724
35.91173,71227
35.91987,70051
35.92798,72605
35.93610,70231
35.94423,72850
35.95235,71947
35.96047,69072
35.96860,71607
35.97672,69056
35.98485,71202
35.99297,68423
36.00108,80842
36.00922,71397
36.01733,77843
36.02547,75743
36.03358,74474
36.04170,77206
36.04983,74066
36.05795,72777
36.06608,74502
36.07420,74644
36.08232,77031
36.09045,79279
36.09857,75726
36.10668,78204
36.11482,72124
36.12293,72477
36.13107,70270
36.13918,75241
36.14730,75709
36.15543,69644
36.16355,75648
36.17168,77798
36.17980,72408
36.18792,73935
36.19605,75803
36.20417,75148
36.21230,83531
36.22042,72307
36.22853,70091
36.23667,74026
36.24478,74859
36.25290,75984
36.26103,66011
36.26915,71747
36.27728,69805
36.28540,66883
36.29352,70126
36.30165,77624
36.30977,79741
36.31790,89110
36.32602,92901
36.33413,100091
36.34227,108335
36.35038,106368
36.35850,103592
36.36663,99438
36.37475,87106
36.38288,79297
36.39100,79625
36.39912,74213
36.40725,88940
36.41537,84855
36.42350,85409
36.43162,82796
36.43973,78429
36.44787,78841
36.45598,74321
36.46412,72397
36.47223,72063
36.48035,72289
36.48848,77086
36.49660,75654
36.50472,69606
36.51285,69313
36.52097,72294
36.52910,71722
36.53722,70517
36.54533,74403
36.55347,72096
36.56158,79422
36.56972,72904
36.57783,74459
36.58595,73791
36.59408,67372
36.60220,73729
36.61032,73014
36.61845,74088
36.62657,74803
36.63470,74958
36.64282,73697
36.65093,80291
36.65907,73564
36.66718,71281
36.67532,73025
36.68343,73513
36.69155,81574
36.69968,78562
36.70780,83322
36.71593,74969
36.72405,74454
36.73217,75780
36.74030,73679
36.74842,82962
36.75653,75761
36.76467,80535
36.77278,83208
36.78092,75164
36.78903,74987
36.79715,69912
36.80528,72990
36.81340,72214
36.82153,71209
36.82965,73382
36.83777,73994
36.84590,73530
36.85402,76858
36.86215,72138
36.87027,74890
36.87838,78664
36.88652,72660
36.89463,80317
36.90275,77380
36.91088,73116
36.91900,75262
36.92713,74173
36.93525,75246
36.94337,78165
36.95150,77802
36.95962,84181
36.96775,73586
36.97587,73615
36.98398,74437
36.99212,75317
37.00023,77249
37.00835,72343
37.01648,76027
37.02460,74088
37.03273,75076
37.04085,69573
37.04897,79033
37.05710,76694
37.06522,78674
37.07335,80825
37.08147,74901
37.08958,75975
37.09772,75593
37.10583,78317
37.11397,81286
37.12208,76726
37.13020,80232
37.13833,75139
37.14645,79123
37.15457,80702
37.16270,74979
37.17082,76468
37.17895,75733
37.18707,75863
37.19518,85075
37.20332,79703
37.21143,80577
37.21957,82821
37.22768,84567
37.23580,79792
37.24393,77807
37.25205,81088
37.26018,75793
37.26830,80138
37.27642,84004
37.28455,78284
37.29267,83577
37.30078,78010
37.30892,78971
37.31703,76998
37.32517,78222
37.33328,78593
37.34140,87660
37.34953,82964
37.35765,98402
37.36578,100330
37.37390,109079
37.38202,114680
37.39015,118260
37.39827,111183
37.40638,108731
37.41452,113201
37.42263,102004
37.43077,103840
37.43888,98330
37.44700,94997
37.45513,99896
37.46325,98231
37.47138,98075
37.47950,97295
37.48762,100255
