C:\MassHunter\GCMS\1\data\JTB-E02\BACandBLUE\JTB-E18-010-07.D Fri May 17 09:27:03 2019
Start of data points
2.09515	60460
2.10327	53985
2.11138	54005
2.11952	55233
2.12763	53110
2.13577	57079
2.14388	52443
2.15200	51990
2.16013	49612
2.16825	50833
2.17638	51198
2.18450	47199
2.19262	47831
2.20075	42352
2.20887	44232
2.21700	48704
2.22512	42901
2.23323	47151
2.24137	48912
2.24948	43180
2.25760	52672
2.26573	194295
2.27385	1008147
2.28198	1044676
2.29010	420162
2.29822	251640
2.30635	202767
2.31447	177266
2.32260	157849
2.33072	143578
2.33883	134107
2.34697	128133
2.35508	116139
2.36320	119457
2.37133	111604
2.37945	110341
2.38758	111608
2.39570	102761
2.40382	102703
2.41195	97849
2.42007	102209
2.42820	98040
2.43632	91587
2.44443	98409
2.45257	95799
2.46068	87223
2.46882	89123
2.47693	89907
2.48505	91290
2.49318	104524
2.50130	97938
2.50942	90823
2.51755	88012
2.52567	96926
2.53380	86698
2.54192	93750
2.55003	102332
2.55817	156604
2.56628	169711
2.57442	130366
2.58253	110765
2.59065	107969
2.59878	169025
2.60690	697685
2.61502	1169855
2.62315	687990
2.63127	371605
2.63940	262233
2.64752	202229
2.65563	162278
2.66377	147055
2.67188	128448
2.68002	121715
2.68813	116037
2.69625	108265
2.70438	106848
2.71250	103397
2.72063	105426
2.72875	97004
2.73687	98478
2.74500	95879
2.75312	95946
2.76123	90963
2.76937	99660
2.77748	206992
2.78562	523611
2.79373	521834
2.80185	298472
2.80998	219250
2.81810	213785
2.82623	193387
2.83435	162162
2.84247	141216
2.85060	135269
2.85872	121657
2.86685	115076
2.87497	111802
2.88308	107775
2.89122	105007
2.89933	106046
2.90745	98736
2.91558	94872
2.92370	97691
2.93183	94770
2.93995	91365
2.94807	91292
2.95620	100615
2.96432	125476
2.97245	122116
2.98057	105865
2.98868	95336
2.99682	95320
3.00493	90709
3.01305	92924
3.02118	92929
3.02930	85299
3.03743	86699
3.04555	85389
3.05367	92100
3.06180	88961
3.06992	89422
3.07805	218178
3.08617	1139966
3.09428	3013036
3.10242	4187512
3.11053	5079224
3.11867	4271970
3.12678	2549143
3.13490	1668703
3.14303	1273576
3.15115	1010408
3.15927	806635
3.16740	709533
3.17552	647477
3.18365	746792
3.19177	1360699
3.19988	1725812
3.20802	1309887
3.21613	916801
3.22427	748787
3.23238	634648
3.24050	544821
3.24863	472380
3.25675	425363
3.26488	383342
3.27300	349554
3.28112	336266
3.28925	451190
3.29737	1140851
3.30548	2847661
3.31362	4312498
3.32173	4066327
3.32987	2776242
3.33798	1698210
3.34610	1151320
3.35423	896665
3.36235	746126
3.37048	636604
3.37860	563922
3.38672	516673
3.39485	483967
3.40297	451607
3.41108	426062
3.41922	400926
3.42733	395055
3.43547	390275
3.44358	381921
3.45170	370197
3.45983	370339
3.46795	352242
3.47608	356929
3.48420	359178
3.49232	341113
3.50045	329181
3.50857	320741
3.51670	313029
3.52482	317858
3.53293	310788
3.54107	332426
3.54918	332064
3.55730	323761
3.56543	371875
3.57355	564842
3.58168	729796
3.58980	639457
3.59792	488803
3.60605	418288
3.61417	393183
3.62230	390276
3.63042	380751
3.63853	349737
3.64667	343327
3.65478	340617
3.66290	732265
3.67103	3429587
3.67915	9774408
3.68728	1.327163E+07
3.69540	9884300
3.70352	5735553
3.71165	3836127
3.71977	3001877
3.72790	2534604
3.73602	2182497
3.74413	1907514
3.75227	1703816
3.76038	1539949
3.76852	1399352
3.77663	1314297
3.78475	1230531
3.79288	1148824
3.80100	1162671
3.80912	1513245
3.81725	2207352
3.82537	2410753
3.83350	1901064
3.84162	1427850
3.84973	1207400
3.85787	1079661
3.86598	993292
3.87412	916874
3.88223	856017
3.89035	816397
3.89848	761091
3.90660	732201
3.91473	745164
3.92285	808879
3.93097	909827
3.93910	910677
3.94722	988804
3.95533	1840783
3.96347	4087256
3.97158	6114360
3.97972	5588538
3.98783	3547495
3.99595	2960326
4.00408	7166768
4.01220	1.802188E+07
4.02033	2.693165E+07
4.02845	2.488258E+07
4.03657	1.463675E+07
4.04470	6969713
4.05282	3811094
4.06093	2593118
4.06907	1984641
4.07718	1605519
4.08532	1349293
4.09343	1191300
4.10155	1078501
4.10968	988654
4.11780	900684
4.12593	838687
4.13405	778422
4.14217	787447
4.15030	778021
4.15842	743604
4.16655	693049
4.17467	681979
4.18278	665791
4.19092	630782
4.19903	604031
4.20715	683231
4.21528	1485883
4.22340	4823433
4.23153	1.114795E+07
4.23965	1.598366E+07
4.24777	1.585167E+07
4.25590	1.085273E+07
4.26402	6333387
4.27215	4150166
4.28027	3006205
4.28838	2288612
4.29652	1827986
4.30463	1554035
4.31277	1320447
4.32088	1169238
4.32900	1049691
4.33713	958251
4.34525	887772
4.35337	842076
4.36150	833580
4.36962	832811
4.37775	802646
4.38587	758953
4.39398	694100
4.40212	658811
4.41023	625625
4.41837	606161
4.42648	575426
4.43460	567656
4.44273	532554
4.45085	519260
4.45897	515095
4.46710	493574
4.47522	479415
4.48335	485709
4.49147	463859
4.49958	460454
4.50772	450612
4.51583	441179
4.52397	438631
4.53208	432191
4.54020	431098
4.54833	416016
4.55645	418609
4.56458	411695
4.57270	392659
4.58082	386623
4.58895	389575
4.59707	378840
4.60518	379626
4.61332	362379
4.62143	367898
4.62957	423121
4.63768	536742
4.64580	670601
4.65393	698576
4.66205	586981
4.67018	503856
4.67830	435826
4.68642	403299
4.69455	401877
4.70267	377418
4.71080	349513
4.71892	326786
4.72703	331536
4.73517	325335
4.74328	323548
4.75140	304995
4.75953	306712
4.76765	299492
4.77578	299330
4.78390	297819
4.79202	315544
4.80015	351669
4.80827	428115
4.81640	468256
4.82452	444598
4.83263	394642
4.84077	378694
4.84888	395672
4.85700	406323
4.86513	401535
4.87325	392303
4.88138	358176
4.88950	333890
4.89762	312986
4.90575	315969
4.91387	297123
4.92200	286265
4.93012	284773
4.93823	315678
4.94637	463477
4.95448	882798
4.96262	1683882
4.97073	2486750
4.97885	2733242
4.98698	2276113
4.99510	1616375
5.00322	1085174
5.01135	801952
5.01947	647520
5.02760	578693
5.03572	597126
5.04383	674070
5.05197	729452
5.06008	672940
5.06822	585709
5.07633	525643
5.08445	486200
5.09258	458722
5.10070	449648
5.10882	422503
5.11695	412489
5.12507	398019
5.13320	386062
5.14132	386074
5.14943	377223
5.15757	400517
5.16568	444326
5.17382	481450
5.18193	478838
5.19005	458744
5.19818	432112
5.20630	417784
5.21443	428160
5.22255	439515
5.23067	430563
5.23880	391748
5.24692	389135
5.25503	373058
5.26317	349446
5.27128	333117
5.27942	315605
5.28753	310333
5.29565	299559
5.30378	288493
5.31190	290143
5.32003	284453
5.32815	294662
5.33627	293491
5.34440	298742
5.35252	304884
5.36065	294015
5.36877	295743
5.37688	283996
5.38502	277890
5.39313	272500
5.40125	288754
5.40938	283531
5.41750	284004
5.42563	274179
5.43375	279375
5.44187	259135
5.45000	255337
5.45812	269888
5.46625	276599
5.47437	271634
5.48248	267717
5.49062	255303
5.49873	241750
5.50685	250026
5.51498	252508
5.52310	240548
5.53123	244570
5.53935	245851
5.54747	245637
5.55560	244821
5.56372	269855
5.57185	311517
5.57997	363238
5.58808	368958
5.59622	354097
5.60433	298477
5.61247	269165
5.62058	251982
5.62870	250606
5.63683	257313
5.64495	258081
5.65307	245048
5.66120	249328
5.66932	241159
5.67745	251267
5.68557	256302
5.69368	278651
5.70182	306467
5.70993	293967
5.71807	268401
5.72618	254079
5.73430	240561
5.74243	222887
5.75055	227462
5.75868	222054
5.76680	219607
5.77492	211426
5.78305	217087
5.79117	218580
5.79928	212389
5.80742	213597
5.81553	214937
5.82367	207945
5.83178	217918
5.83990	208553
5.84803	205805
5.85615	206728
5.86428	207476
5.87240	211369
5.88052	206102
5.88865	196091
5.89677	200560
5.90488	205173
5.91302	186361
5.92113	155744
5.92927	149782
5.93738	150798
5.94550	153019
5.95363	160017
5.96175	180710
5.96988	214449
5.97800	234836
5.98612	275520
5.99425	315628
6.00237	333991
6.01050	317349
6.01862	262489
6.02673	214750
6.03487	191031
6.04298	179452
6.05110	157750
6.05923	152162
6.06735	156197
6.07548	151900
6.08360	144416
6.09172	150331
6.09985	141001
6.10797	142066
6.11610	142328
6.12422	146253
6.13233	174283
6.14047	254306
6.14858	379665
6.15670	467809
6.16483	458951
6.17295	372171
6.18108	286094
6.18920	239256
6.19732	217121
6.20545	200742
6.21357	193831
6.22170	186628
6.22982	175249
6.23793	187448
6.24607	179290
6.25418	181260
6.26232	186034
6.27043	188789
6.27855	187068
6.28668	183464
6.29480	175019
6.30292	176626
6.31105	177394
6.31917	168830
6.32730	176103
6.33542	193096
6.34353	217954
6.35167	235975
6.35978	234391
6.36792	206875
6.37603	200838
6.38415	183323
6.39228	185144
6.40040	177950
6.40853	180241
6.41665	176288
6.42477	170502
6.43290	172373
6.44102	175069
6.44913	175933
6.45727	172865
6.46538	169829
6.47352	167993
6.48163	171523
6.48975	178572
6.49788	169462
6.50600	175426
6.51413	184621
6.52225	176818
6.53037	180520
6.53850	180208
6.54662	177257
6.55473	177062
6.56287	178902
6.57098	175374
6.57912	204151
6.58723	233327
6.59535	248795
6.60348	237579
6.61160	224635
6.61973	199782
6.62785	193426
6.63597	190444
6.64410	189516
6.65222	189370
6.66035	198309
6.66847	229583
6.67658	274111
6.68472	286524
6.69283	274338
6.70095	233888
6.70908	217548
6.71720	210820
6.72533	195422
6.73345	202726
6.74157	189928
6.74970	170641
6.75782	155581
6.76595	157786
6.77407	154830
6.78218	153110
6.79032	152853
6.79843	155058
6.80657	153238
6.81468	143209
6.82280	132821
6.83093	130378
6.83905	132608
6.84717	135061
6.85530	152273
6.86342	175055
6.87155	212954
6.87967	225622
6.88778	207103
6.89592	164157
6.90403	129360
6.91217	107983
6.92028	96342
6.92840	94612
6.93653	83235
6.94465	85890
6.95277	83536
6.96090	86598
6.96902	90127
6.97715	97648
6.98527	105738
6.99338	116868
7.00152	112732
7.00963	109066
7.01777	92156
7.02588	86252
7.03400	86255
7.04213	84613
7.05025	80825
7.05838	82586
7.06650	84073
7.07462	85322
7.08275	88079
7.09087	84939
7.09898	77532
7.10712	79661
7.11523	75284
7.12337	75296
7.13148	72801
7.13960	70805
7.14773	84299
7.15585	115137
7.16398	161484
7.17210	202245
7.18022	207459
7.18835	180027
7.19647	146127
7.20458	125354
7.21272	164063
7.22083	359913
7.22897	881855
7.23708	1637406
7.24520	2210943
7.25333	2083224
7.26145	1407808
7.26958	790748
7.27770	464689
7.28582	320286
7.29395	224843
7.30207	161789
7.31020	120844
7.31832	106469
7.32643	105806
7.33457	107583
7.34268	111227
7.35080	107259
7.35893	105735
7.36705	98939
7.37518	95602
7.38330	88203
7.39142	91314
7.39955	91108
7.40767	87372
7.41580	87356
7.42392	86490
7.43203	87301
7.44017	84020
7.44828	78890
7.45642	83273
7.46453	85965
7.47265	80462
7.48078	84344
7.48890	80033
7.49702	78145
7.50515	72368
7.51327	77051
7.52140	79399
7.52952	92873
7.53763	133302
7.54577	211042
7.55388	300621
7.56202	416036
7.57013	477312
7.57825	482035
7.58638	418752
7.59450	321258
7.60263	226850
7.61075	156250
7.61887	118776
7.62700	99704
7.63512	86562
7.64323	77975
7.65137	76107
7.65948	73676
7.66762	78092
7.67573	79448
7.68385	72562
7.69198	74792
7.70010	73915
7.70823	71332
7.71635	74252
7.72447	70633
7.73260	72162
7.74072	73579
7.74883	71222
7.75697	73947
7.76508	70221
7.77322	71525
7.78133	75974
7.78945	73543
7.79758	76667
7.80570	76184
7.81383	88778
7.82195	89437
7.83007	91413
7.83820	82518
7.84632	77090
7.85445	73486
7.86257	74682
7.87068	74202
7.87882	76781
7.88693	86222
7.89505	93161
7.90318	98655
7.91130	85571
7.91943	81279
7.92755	79408
7.93567	88748
7.94380	96466
7.95192	108435
7.96005	118741
7.96817	115252
7.97628	107371
7.98442	95360
7.99253	84839
8.00065	72525
8.00878	68344
8.01690	64598
8.02503	63131
8.03315	71064
8.04127	74304
8.04940	74768
8.05752	66932
8.06565	71105
8.07377	66317
8.08188	63942
8.09002	62176
8.09813	63814
8.10627	63355
8.11438	57267
8.12250	63029
8.13063	64997
8.13875	59582
8.14687	75115
8.15500	89357
8.16312	94363
8.17125	90472
8.17937	84619
8.18748	74624
8.19562	71273
8.20373	67479
8.21187	63475
8.21998	64418
8.22810	60038
8.23623	61442
8.24435	56941
8.25248	58528
8.26060	62784
8.26872	61264
8.27685	61607
8.28497	56916
8.29308	56398
8.30122	58808
8.30933	61074
8.31747	55922
8.32558	62384
8.33370	62840
8.34183	66052
8.34995	68218
8.35808	60965
8.36620	57665
8.37432	53027
8.38245	55539
8.39057	63984
8.39868	54456
8.40682	59142
8.41493	54898
8.42307	55558
8.43118	54768
8.43930	52961
8.44743	54581
8.45555	49705
8.46368	49987
8.47180	53041
8.47992	51578
8.48805	53965
8.49617	53826
8.50430	51400
8.51242	51801
8.52053	62429
8.52867	62719
8.53678	88228
8.54490	151341
8.55303	232398
8.56115	298637
8.56928	296013
8.57740	238316
8.58552	158779
8.59365	107379
8.60177	84253
8.60990	78689
8.61802	73665
8.62613	76543
8.63427	72912
8.64238	68286
8.65052	67682
8.65863	63074
8.66675	62900
8.67488	62392
8.68300	57968
8.69112	60776
8.69925	64571
8.70737	62923
8.71550	59251
8.72362	56419
8.73173	56591
8.73987	58541
8.74798	52837
8.75612	57657
8.76423	66788
8.77235	105786
8.78048	189101
8.78860	323612
8.79672	478603
8.80485	566136
8.81297	542045
8.82110	411680
8.82922	284161
8.83733	200325
8.84547	154289
8.85358	136958
8.86172	145692
8.86983	151291
8.87795	140313
8.88608	139469
8.89420	131855
8.90233	126695
8.91045	130897
8.91857	121535
8.92670	131584
8.93482	133808
8.94293	144112
8.95107	150133
8.95918	170343
8.96732	173530
8.97543	163838
8.98355	147080
8.99168	139465
8.99980	138814
9.00793	137767
9.01605	124464
9.02417	111972
9.03230	115133
9.04042	107653
9.04853	103483
9.05667	100576
9.06478	103758
9.07292	98494
9.08103	99603
9.08915	101184
9.09728	95505
9.10540	103731
9.11353	114445
9.12165	121253
9.12977	127899
9.13790	123103
9.14602	121374
9.15415	109012
9.16227	101251
9.17038	95298
9.17852	88749
9.18663	93661
9.19475	90751
9.20288	82693
9.21100	89685
9.21913	83799
9.22725	90910
9.23537	87091
9.24350	91542
9.25162	86023
9.25975	86199
9.26787	86526
9.27598	82123
9.28412	80688
9.29223	81420
9.30037	77308
9.30848	76354
9.31660	75141
9.32473	77858
9.33285	79870
9.34097	76585
9.34910	78755
9.35722	80505
9.36535	75561
9.37347	73397
9.38158	72781
9.38972	76085
9.39783	80234
9.40597	81266
9.41408	82434
9.42220	89153
9.43033	93698
9.43845	103870
9.44657	108987
9.45470	108864
9.46282	107351
9.47095	99838
9.47907	92019
9.48718	84513
9.49532	77154
9.50343	75013
9.51157	73749
9.51968	77370
9.52780	81965
9.53593	84873
9.54405	88830
9.55218	87133
9.56030	84271
9.56842	75963
9.57655	70460
9.58467	75809
9.59278	73224
9.60092	84965
9.60903	79027
9.61717	77296
9.62528	64715
9.63340	55333
9.64153	50780
9.64965	50179
9.65778	49990
9.66590	46139
9.67402	49411
9.68215	47324
9.69027	45028
9.69840	46328
9.70652	43071
9.71463	46555
9.72277	56253
9.73088	48229
9.73900	50188
9.74713	44889
9.75525	47474
9.76338	45113
9.77150	41792
9.77962	41254
9.78775	43394
9.79587	42591
9.80400	46082
9.81212	45040
9.82023	41710
9.82837	45018
9.83648	40867
9.84460	41138
9.85273	41867
9.86085	44585
9.86898	40200
9.87710	48368
9.88522	51538
9.89335	48408
9.90147	46169
9.90960	48371
9.91772	45686
9.92583	53664
9.93397	72349
9.94208	116272
9.95022	197875
9.95833	317360
9.96645	413647
9.97458	435353
9.98270	386630
9.99082	298314
9.99895	201465
10.00707	143677
10.01520	118784
10.02332	92303
10.03143	90951
10.03957	83573
10.04768	76607
10.05582	70589
10.06393	67562
10.07205	71765
10.08018	75899
10.08830	75973
10.09643	73097
10.10455	73651
10.11267	69759
10.12080	67147
10.12892	67432
10.13703	64600
10.14517	64318
10.15328	64820
10.16142	64099
10.16953	60600
10.17765	62103
10.18578	58629
10.19390	55469
10.20203	55024
10.21015	58494
10.21827	54046
10.22640	55228
10.23452	55610
10.24263	61944
10.25077	63274
10.25888	65724
10.26702	89485
10.27513	160400
10.28325	383924
10.29138	850864
10.29950	1587441
10.30763	2489853
10.31575	3419620
10.32387	4891674
10.33200	7014462
10.34012	9719227
10.34825	1.152419E+07
10.35637	1.080853E+07
10.36448	7876789
10.37262	4667879
10.38073	2372507
10.38885	1321157
10.39698	846954
10.40510	629400
10.41323	468722
10.42135	370573
10.42947	317404
10.43760	267988
10.44572	245104
10.45385	230623
10.46197	210552
10.47008	211175
10.47822	192067
10.48633	191830
10.49445	174843
10.50258	158408
10.51070	147982
10.51883	145101
10.52695	142307
10.53507	135488
10.54320	132895
10.55132	130674
10.55945	130263
10.56757	131304
10.57568	125391
10.58382	115108
10.59193	119540
10.60007	108901
10.60818	107573
10.61630	107654
10.62443	102106
10.63255	100774
10.64067	94312
10.64880	98157
10.65692	95693
10.66505	90448
10.67317	85631
10.68128	88458
10.68942	92747
10.69753	87932
10.70567	89365
10.71378	89263
10.72190	88861
10.73003	81278
10.73815	81673
10.74628	83587
10.75440	80073
10.76252	80760
10.77065	81059
10.77877	76694
10.78688	75251
10.79502	74130
10.80313	71356
10.81127	69618
10.81938	68091
10.82750	74141
10.83563	70039
10.84375	69309
10.85188	66099
10.86000	66101
10.86812	64898
10.87625	60689
10.88437	63683
10.89248	63022
10.90062	60219
10.90873	61396
10.91687	57550
10.92498	53434
10.93310	55789
10.94123	53783
10.94935	57364
10.95748	59697
10.96560	54665
10.97372	55839
10.98185	55911
10.98997	57925
10.99810	56089
11.00622	56381
11.01433	56695
11.02247	56926
11.03058	56474
11.03870	53453
11.04683	55379
11.05495	51215
11.06308	49674
11.07120	53843
11.07932	57214
11.08745	55803
11.09557	55144
11.10370	58228
11.11182	53937
11.11993	53371
11.12807	54060
11.13618	49788
11.14432	45067
11.15243	44513
11.16055	42596
11.16868	45492
11.17680	44952
11.18492	46185
11.19305	47254
11.20117	45932
11.20930	46914
11.21742	45638
11.22553	46878
11.23367	44424
11.24178	45777
11.24992	41104
11.25803	39142
11.26615	38808
11.27428	37448
11.28240	40321
11.29052	37470
11.29865	37502
11.30677	46463
11.31490	57723
11.32302	82638
11.33113	127648
11.33927	198481
11.34738	267920
11.35552	306842
11.36363	306824
11.37175	266793
11.37988	195673
11.38800	146078
11.39613	111636
11.40425	85704
11.41237	83076
11.42050	79898
11.42862	73614
11.43673	65320
11.44487	58274
11.45298	59343
11.46112	51152
11.46923	51496
11.47735	51349
11.48548	65199
11.49360	87978
11.50173	105820
11.50985	133383
11.51797	136219
11.52610	121320
11.53422	112940
11.54233	91525
11.55047	81476
11.55858	73635
11.56672	73784
11.57483	66046
11.58295	58703
11.59108	62719
11.59920	63225
11.60733	73063
11.61545	99122
11.62357	128726
11.63170	151432
11.63982	145406
11.64795	132387
11.65607	107605
11.66418	79661
11.67232	71034
11.68043	64748
11.68855	53165
11.69668	49100
11.70480	54019
11.71293	49420
11.72105	50861
11.72917	51542
11.73730	50584
11.74542	44968
11.75355	47895
11.76167	49528
11.76978	44668
11.77792	48683
11.78603	46858
11.79417	51392
11.80228	49915
11.81040	45165
11.81853	51014
11.82665	44464
11.83477	46032
11.84290	42461
11.85102	41430
11.85915	41855
11.86727	41832
11.87538	42417
11.88352	40002
11.89163	39358
11.89977	39785
11.90788	39413
11.91600	40703
11.92413	40915
11.93225	49151
11.94037	51922
11.94850	52900
11.95662	50677
11.96475	48665
11.97287	43606
11.98098	42616
11.98912	41735
11.99723	48526
12.00537	61800
12.01348	79004
12.02160	94456
12.02973	96757
12.03785	91453
12.04598	72841
12.05410	63465
12.06222	54060
12.07035	48759
12.07847	50477
12.08658	45695
12.09472	47384
12.10283	46669
12.11097	47513
12.11908	48470
12.12720	48476
12.13533	52883
12.14345	57911
12.15158	59500
12.15970	55449
12.16782	52531
12.17595	47921
12.18407	44779
12.19220	41404
12.20032	41527
12.20843	40890
12.21657	39724
12.22468	39407
12.23280	43600
12.24093	40779
12.24905	41749
12.25718	43587
12.26530	42368
12.27342	41058
12.28155	40460
12.28967	39290
12.29780	39552
12.30592	39235
12.31403	39118
12.32217	35895
12.33028	38034
12.33840	38301
12.34653	37095
12.35465	41774
12.36278	36522
12.37090	36509
12.37902	37103
12.38715	36342
12.39527	36379
12.40340	40715
12.41152	48854
12.41963	50845
12.42777	62909
12.43588	70605
12.44402	70263
12.45213	71614
12.46025	66001
12.46838	62650
12.47650	54405
12.48462	50750
12.49275	45514
12.50087	45675
12.50900	43246
12.51712	43735
12.52523	38442
12.53337	42937
12.54148	50985
12.54962	49983
12.55773	58815
12.56585	68424
12.57398	76742
12.58210	82937
12.59022	71406
12.59835	63958
12.60647	55323
12.61460	51615
12.62272	48172
12.63083	46610
12.63897	44754
12.64708	44922
12.65522	45564
12.66333	41249
12.67145	39051
12.67958	40936
12.68770	38346
12.69583	39428
12.70395	41629
12.71207	39822
12.72020	41090
12.72832	42216
12.73643	45256
12.74457	49858
12.75268	54110
12.76082	48803
12.76893	49913
12.77705	43092
12.78518	39562
12.79330	33337
12.80143	36522
12.80955	36471
12.81767	38367
12.82580	34465
12.83392	34177
12.84205	33002
12.85017	33143
12.85828	35903
12.86642	30296
12.87453	33213
12.88265	34508
12.89078	31409
12.89890	31399
12.90703	35006
12.91515	33078
12.92327	32457
12.93140	28563
12.93952	31065
12.94765	33258
12.95577	31910
12.96388	39909
12.97202	48790
12.98013	61358
12.98827	82142
12.99638	93904
13.00450	94070
13.01263	88933
13.02075	66641
13.02887	53013
13.03700	49148
13.04512	46108
13.05325	41237
13.06137	40631
13.06948	40460
13.07762	39930
13.08573	38828
13.09387	35199
13.10198	34867
13.11010	40740
13.11823	39673
13.12635	35062
13.13447	34436
13.14260	33179
13.15072	31861
13.15885	37167
13.16697	31890
13.17508	36489
13.18322	38513
13.19133	36953
13.19947	37250
13.20758	39679
13.21570	40635
13.22383	37804
13.23195	40281
13.24008	40613
13.24820	36134
13.25632	41466
13.26445	36853
13.27257	37174
13.28068	35304
13.28882	35576
13.29693	32360
13.30507	33460
13.31318	31071
13.32130	32522
13.32943	31921
13.33755	33263
13.34568	34566
13.35380	30003
13.36192	32344
13.37005	32738
13.37817	31773
13.38628	29804
13.39442	28595
13.40253	30609
13.41067	33604
13.41878	30868
13.42690	32191
13.43503	31095
13.44315	31503
13.45128	30491
13.45940	30349
13.46752	30884
13.47565	29746
13.48377	29868
13.49190	28285
13.50002	30167
13.50813	36572
13.51627	30974
13.52438	31029
13.53250	34517
13.54063	38635
13.54875	34654
13.55688	33604
13.56500	33845
13.57312	32668
13.58125	30837
13.58937	35600
13.59750	35609
13.60562	36823
13.61373	40079
13.62187	39118
13.62998	40749
13.63812	41783
13.64623	39863
13.65435	36824
13.66248	34687
13.67060	32113
13.67872	30663
13.68685	30421
13.69497	27006
13.70310	29459
13.71122	29871
13.71933	28559
13.72747	30482
13.73558	28820
13.74372	31673
13.75183	45509
13.75995	66900
13.76808	125596
13.77620	190637
13.78432	269192
13.79245	334976
13.80057	351393
13.80870	291886
13.81682	246182
13.82493	222549
13.83307	215407
13.84118	214697
13.84932	211101
13.85743	205628
13.86555	180086
13.87368	143261
13.88180	119855
13.88993	93617
13.89805	80293
13.90617	67055
13.91430	65144
13.92242	59136
13.93053	56710
13.93867	57311
13.94678	54818
13.95492	50204
13.96303	53270
13.97115	54273
13.97928	58166
13.98740	64705
13.99553	60497
14.00365	61772
14.01177	58855
14.01990	60015
14.02802	53529
14.03615	58115
14.04427	52250
14.05238	48210
14.06052	48168
14.06863	51904
14.07675	49790
14.08488	51235
14.09300	48125
14.10113	45447
14.10925	47002
14.11737	46247
14.12550	47042
14.13362	45433
14.14175	44197
14.14987	47859
14.15798	49685
14.16612	52781
14.17423	49339
14.18235	52787
14.19048	60163
14.19860	74585
14.20673	101765
14.21485	129599
14.22297	160119
14.23110	160915
14.23922	164259
14.24735	166090
14.25547	152474
14.26358	150432
14.27172	148055
14.27983	130766
14.28797	117117
14.29608	109137
14.30420	100280
14.31233	88359
14.32045	85015
14.32857	79882
14.33670	78766
14.34482	73692
14.35295	71857
14.36107	67699
14.36918	62252
14.37732	54630
14.38543	50135
14.39357	45895
14.40168	45105
14.40980	45595
14.41793	48047
14.42605	52868
14.43417	58923
14.44230	54809
14.45042	53207
14.45855	51231
14.46667	45302
14.47478	46546
14.48292	44666
14.49103	41667
14.49917	46067
14.50728	45398
14.51540	44991
14.52353	45418
14.53165	47317
14.53978	44763
14.54790	40315
14.55602	40579
14.56415	43699
14.57227	37052
14.58038	37104
14.58852	38777
14.59663	37689
14.60477	39733
14.61288	34328
14.62100	33354
14.62913	32269
14.63725	34138
14.64538	33077
14.65350	32975
14.66162	32873
14.66975	34255
14.67787	36072
14.68600	36855
14.69412	31256
14.70223	32014
14.71037	37073
14.71848	32943
14.72660	31972
14.73473	30474
14.74285	35293
14.75098	36350
14.75910	33369
14.76722	36478
14.77535	35696
14.78347	39307
14.79160	47539
14.79972	86609
14.80783	220159
14.81597	576297
14.82408	1300457
14.83220	2419535
14.84033	3452651
14.84845	3938953
14.85658	3621861
14.86470	2695946
14.87282	1801606
14.88095	1087181
14.88907	691113
14.89720	471767
14.90532	366710
14.91343	302466
14.92157	250513
14.92968	219549
14.93782	197376
14.94593	179635
14.95405	164470
14.96218	153107
14.97030	144165
14.97842	129557
14.98655	125554
14.99467	121238
15.00280	113199
15.01092	114466
15.01903	101678
15.02717	102827
15.03528	94959
15.04342	92196
15.05153	89959
15.05965	86788
15.06778	78740
15.07590	82156
15.08403	78784
15.09215	77591
15.10027	74710
15.10840	75604
15.11652	71110
15.12463	72479
15.13277	77671
15.14088	77291
15.14902	83311
15.15713	93260
15.16525	92386
15.17338	77619
15.18150	68013
15.18963	56998
15.19775	55077
15.20587	51597
15.21400	51165
15.22212	53692
15.23023	48556
15.23837	42826
15.24648	41080
15.25462	42996
15.26273	41429
15.27085	40755
15.27898	40239
15.28710	38198
15.29523	35151
15.30335	38068
15.31147	36310
15.31960	39119
15.32772	38307
15.33585	33966
15.34397	39636
15.35208	37982
15.36022	35574
15.36833	32487
15.37645	36336
15.38458	39158
15.39270	37709
15.40083	36153
15.40895	36731
15.41707	34611
15.42520	37256
15.43332	35240
15.44145	34386
15.44957	32437
15.45768	31958
15.46582	33247
15.47393	38268
15.48207	43430
15.49018	55587
15.49830	58255
15.50643	67078
15.51455	76871
15.52267	79283
15.53080	76418
15.53892	70276
15.54705	63302
15.55517	58564
15.56328	55300
15.57142	51665
15.57953	48821
15.58767	41020
15.59578	40652
15.60390	35026
15.61203	36106
15.62015	35223
15.62827	35873
15.63640	31040
15.64452	33926
15.65265	37114
15.66077	31709
15.66888	34128
15.67702	31674
15.68513	32863
15.69327	32561
15.70138	30817
15.70950	31131
15.71763	28676
15.72575	29040
15.73388	33928
15.74200	33581
15.75012	33125
15.75825	41086
15.76637	57045
15.77448	86599
15.78262	137764
15.79073	204037
15.79887	266011
15.80698	278123
15.81510	244000
15.82323	191615
15.83135	141266
15.83948	100308
15.84760	78098
15.85572	69983
15.86385	62822
15.87197	57110
15.88008	55896
15.88822	51939
15.89633	53232
15.90447	45823
15.91258	48030
15.92070	47596
15.92883	41915
15.93695	44216
15.94508	45439
15.95320	43455
15.96132	41847
15.96945	45971
15.97757	48267
15.98570	48265
15.99382	48065
16.00193	55395
16.01007	54189
16.01818	55611
16.02630	64001
16.03443	69050
16.04255	65226
16.05068	69299
16.05880	63000
16.06692	57846
16.07505	50466
16.08317	45128
16.09130	42740
16.09942	41234
16.10753	39359
16.11567	43925
16.12378	41158
16.13192	44025
16.14003	43095
16.14815	42474
16.15628	42387
16.16440	44238
16.17252	44228
16.18065	36716
16.18877	38661
16.19690	41809
16.20502	35887
16.21313	35605
16.22127	40444
16.22938	39500
16.23752	40449
16.24563	39353
16.25375	35143
16.26188	38326
16.27000	38303
16.27812	35839
16.28625	37972
16.29437	38596
16.30250	41684
16.31062	43319
16.31873	41688
16.32687	41521
16.33498	39108
16.34312	38229
16.35123	40266
16.35935	44708
16.36748	54923
16.37560	59512
16.38373	67113
16.39185	65289
16.39997	65450
16.40810	56992
16.41622	56053
16.42433	47659
16.43247	44079
16.44058	49236
16.44872	54163
16.45683	79660
16.46495	150655
16.47308	299830
16.48120	508593
16.48933	750492
16.49745	879706
16.50557	809922
16.51370	622575
16.52182	419054
16.52995	270923
16.53807	189685
16.54618	130930
16.55432	109638
16.56243	94883
16.57055	86811
16.57868	77153
16.58680	76823
16.59493	68471
16.60305	73231
16.61117	70719
16.61930	70841
16.62742	68271
16.63555	62756
16.64367	64013
16.65178	57574
16.65992	54133
16.66803	56426
16.67615	52731
16.68428	51221
16.69240	49070
16.70053	48647
16.70865	51702
16.71677	45875
16.72490	42497
16.73302	43032
16.74115	40564
16.74927	43956
16.75738	44581
16.76552	47512
16.77363	52200
16.78177	51129
16.78988	50153
16.79800	48493
16.80613	45861
16.81425	40625
16.82237	37964
16.83050	38102
16.83862	38884
16.84675	36821
16.85487	36300
16.86298	37372
16.87112	36520
16.87923	33448
16.88737	35487
16.89548	40414
16.90360	33867
16.91173	34209
16.91985	35684
16.92797	32482
16.93610	34549
16.94422	35897
16.95235	37393
16.96047	38343
16.96858	35455
16.97672	33336
16.98483	37227
16.99297	35285
17.00108	34239
17.00920	34716
17.01733	34602
17.02545	36283
17.03358	39571
17.04170	35105
17.04982	42080
17.05795	39523
17.06607	38766
17.07418	42562
17.08232	41791
17.09043	39823
17.09857	35832
17.10668	37964
17.11480	38623
17.12293	33492
17.13105	37550
17.13918	38329
17.14730	38220
17.15542	39866
17.16355	38939
17.17167	38130
17.17980	37416
17.18792	37396
17.19603	34305
17.20417	35269
17.21228	34576
17.22040	33634
17.22853	33124
17.23665	33244
17.24478	32286
17.25290	32436
17.26102	38373
17.26915	37669
17.27727	34784
17.28540	31658
17.29352	30883
17.30163	35789
17.30977	37461
17.31788	35484
17.32602	35030
17.33413	40710
17.34225	42049
17.35038	49031
17.35850	52533
17.36662	53031
17.37475	51788
17.38287	49323
17.39100	52204
17.39912	44756
17.40723	43066
17.41537	46458
17.42348	43282
17.43162	44603
17.43973	46602
17.44785	46017
17.45598	41540
17.46410	41206
17.47222	41155
17.48035	39598
17.48847	40121
17.49660	40449
17.50472	38919
17.51283	37364
17.52097	38723
17.52908	40310
17.53722	43055
17.54533	36087
17.55345	36517
17.56158	38440
17.56970	53354
17.57783	72608
17.58595	113453
17.59407	174778
17.60220	262365
17.61032	369549
17.61843	435994
17.62657	435464
17.63468	364745
17.64282	277315
17.65093	207563
17.65905	138263
17.66718	107104
17.67530	95178
17.68343	89027
17.69155	80451
17.69967	82014
17.70780	64468
17.71592	66896
17.72403	62137
17.73217	59402
17.74028	59113
17.74842	57051
17.75653	52065
17.76465	53297
17.77278	47652
17.78090	49910
17.78903	51047
17.79715	56068
17.80527	81386
17.81340	120129
17.82152	200903
17.82965	295109
17.83777	368479
17.84588	382170
17.85402	350441
17.86213	277954
17.87025	214315
17.87838	170262
17.88650	129248
17.89463	112905
17.90275	100480
17.91087	86075
17.91900	73001
17.92712	70958
17.93525	70598
17.94337	64500
17.95148	63965
17.95962	61369
17.96773	52692
17.97587	54303
17.98398	52857
17.99210	51857
18.00023	48799
18.00835	54685
18.01647	56655
18.02460	56768
18.03272	66272
18.04085	71746
18.04897	84700
18.05708	99783
18.06522	154120
18.07333	284144
18.08147	591648
18.08958	1034928
18.09770	1540353
18.10583	1934204
18.11395	1890530
18.12207	1586924
18.13020	1169098
18.13832	855346
18.14645	612958
18.15457	481255
18.16268	391211
18.17082	335465
18.17893	295634
18.18707	267971
18.19518	237874
18.20330	218523
18.21143	199825
18.21955	182371
18.22768	169319
18.23580	156825
18.24392	145290
18.25205	134727
18.26017	138531
18.26828	133083
18.27642	119967
18.28453	97691
18.29267	88188
18.30078	73895
18.30890	61835
18.31703	56661
18.32515	53222
18.33328	50853
18.34140	53304
18.34952	52355
18.35765	50086
18.36577	44331
18.37390	46212
18.38202	47683
18.39013	42810
18.39827	46325
18.40638	46708
18.41450	41948
18.42263	47671
18.43075	49755
18.43888	49382
18.44700	53585
18.45512	63919
18.46325	84176
18.47137	104581
18.47950	130505
18.48762	147484
18.49573	162399
18.50387	154805
18.51198	132723
18.52010	105533
18.52823	82767
18.53635	71252
18.54448	61009
18.55260	56864
18.56072	54171
18.56885	50975
18.57697	48829
18.58510	51683
18.59322	49570
18.60133	47678
18.60947	51434
18.61758	51421
18.62572	49565
18.63383	48453
18.64195	50407
18.65008	50382
18.65820	46170
18.66632	42225
18.67445	45193
18.68257	42054
18.69070	37895
18.69882	40344
18.70693	39057
18.71507	39859
18.72318	42060
18.73132	43196
18.73943	38473
18.74755	36295
18.75568	37715
18.76380	35694
18.77192	34145
18.78005	36640
18.78817	38887
18.79630	35272
18.80442	39184
18.81253	42537
18.82067	53806
18.82878	72738
18.83692	86719
18.84503	91960
18.85315	101870
18.86128	105452
18.86940	113300
18.87753	123489
18.88565	115717
18.89377	119752
18.90190	120057
18.91002	127355
18.91813	129589
18.92627	130122
18.93438	133566
18.94252	136958
18.95063	138594
18.95875	143678
18.96688	137889
18.97500	148637
18.98313	139671
18.99125	142061
18.99937	131632
19.00750	131929
19.01562	132559
19.02375	135006
19.03187	129763
19.03998	130883
19.04812	126758
19.05623	128552
19.06435	126879
19.07248	142606
19.08060	161344
19.08873	206581
19.09685	302304
19.10497	393482
19.11310	459779
19.12122	487072
19.12935	442534
19.13747	368979
19.14558	296081
19.15372	223844
19.16183	178551
19.16995	164096
19.17808	155765
19.18620	142654
19.19433	137594
19.20245	138386
19.21057	134414
19.21870	131029
19.22682	129311
19.23495	117256
19.24307	118355
19.25118	122087
19.25932	119371
19.26743	119260
19.27557	129193
19.28368	124498
19.29180	137099
19.29993	139976
19.30805	145644
19.31617	147970
19.32430	146735
19.33242	130329
19.34055	125522
19.34867	121097
19.35678	128784
19.36492	136660
19.37303	155888
19.38117	169665
19.38928	169139
19.39740	165177
19.40553	155104
19.41365	139134
19.42178	125576
19.42990	119067
19.43802	114673
19.44615	110714
19.45427	109738
19.46238	105736
19.47052	102167
19.47863	108079
19.48677	106954
19.49488	118986
19.50300	128851
19.51113	155950
19.51925	184485
19.52738	196107
19.53550	197980
19.54362	181194
19.55175	158972
19.55987	132928
19.56798	117146
19.57612	104096
19.58423	94559
19.59237	95261
19.60048	97668
19.60860	90938
19.61673	88901
19.62485	91961
19.63298	90162
19.64110	94291
19.64922	109368
19.65735	127823
19.66547	162215
19.67360	198994
19.68172	243512
19.68983	268797
19.69797	267810
19.70608	249112
19.71420	219277
19.72233	201502
19.73045	178389
19.73858	161591
19.74670	150561
19.75482	132580
19.76295	129381
19.77107	118846
19.77920	106779
19.78732	111735
19.79543	111513
19.80357	106734
19.81168	114499
19.81980	104284
19.82793	104427
19.83605	101853
19.84418	97454
19.85230	101359
19.86042	123345
19.86855	207289
19.87667	423629
19.88480	835131
19.89292	1506914
19.90103	2282905
19.90917	2858216
19.91728	2994272
19.92542	2707072
19.93353	2122136
19.94165	1474455
19.94978	1031030
19.95790	762548
19.96602	608079
19.97415	514465
19.98227	460996
19.99040	417819
19.99852	380109
20.00663	361381
20.01477	351813
20.02288	326064
20.03102	302371
20.03913	282218
20.04725	254135
20.05538	231514
20.06350	200822
20.07163	176938
20.07975	156374
20.08787	143064
20.09600	132461
20.10412	125264
20.11223	123160
20.12037	113831
20.12848	109378
20.13662	104277
20.14473	98492
20.15285	98098
20.16098	102957
20.16910	108681
20.17723	119054
20.18535	127940
20.19347	144521
20.20160	155602
20.20972	151793
20.21783	146994
20.22597	142776
20.23408	126344
20.24222	119903
20.25033	130326
20.25845	158145
20.26658	214937
20.27470	275429
20.28283	369314
20.29095	415516
20.29907	443789
20.30720	412764
20.31532	349383
20.32345	279693
20.33157	214721
20.33968	177169
20.34782	142697
20.35593	127963
20.36405	102228
20.37218	101964
20.38030	93810
20.38843	85468
20.39655	81937
20.40467	79143
20.41280	75546
20.42092	74327
20.42905	80584
20.43717	87089
20.44528	92662
20.45342	92924
20.46153	97206
20.46967	96998
20.47778	97979
20.48590	87786
20.49403	80813
20.50215	74079
20.51027	72709
20.51840	73358
20.52652	70193
20.53465	68126
20.54277	65253
20.55088	67083
20.55902	69561
20.56713	67719
20.57527	65426
20.58338	66251
20.59150	61298
20.59963	58270
20.60775	55058
20.61587	58826
20.62400	56349
20.63212	61725
20.64025	62400
20.64837	57385
20.65648	63563
20.66462	61273
20.67273	58954
20.68087	58718
20.68898	57174
20.69710	55744
20.70523	53313
20.71335	57791
20.72148	56668
20.72960	53838
20.73772	55690
20.74585	53028
20.75397	55324
20.76208	56808
20.77022	61585
20.77833	65143
20.78647	66524
20.79458	78753
20.80270	88341
20.81083	120856
20.81895	154152
20.82708	182890
20.83520	186334
20.84332	158608
20.85145	131332
20.85957	102111
20.86770	82304
20.87582	66420
20.88393	61706
20.89207	65359
20.90018	64034
20.90830	60127
20.91643	56785
20.92455	60366
20.93268	60438
20.94080	60569
20.94892	60266
20.95705	57936
20.96517	55616
20.97330	56262
20.98142	58729
20.98953	56125
20.99767	56435
21.00578	52127
21.01390	53111
21.02203	53436
21.03015	55075
21.03828	56968
21.04640	56477
21.05452	60058
21.06265	58722
21.07077	58720
21.07890	64668
21.08702	63388
21.09513	62142
21.10327	60530
21.11138	55932
21.11952	57052
21.12763	58349
21.13575	57484
21.14388	55521
21.15200	65247
21.16012	72876
21.16825	84749
21.17637	87659
21.18450	81712
21.19262	79862
21.20073	72392
21.20887	70810
21.21698	65161
21.22512	63444
21.23323	57425
21.24135	55845
21.24948	58002
21.25760	55809
21.26572	55402
21.27385	57215
21.28197	56397
21.29010	54193
21.29822	52352
21.30633	48845
21.31447	49616
21.32258	51660
21.33072	49430
21.33883	47074
21.34695	45822
21.35508	47729
21.36320	50350
21.37133	46685
21.37945	45987
21.38757	51460
21.39570	53122
21.40382	64279
21.41193	70421
21.42007	78169
21.42818	75229
21.43632	73094
21.44443	67375
21.45255	63628
21.46068	56913
21.46880	54079
21.47693	49350
21.48505	51678
21.49317	50882
21.50130	45841
21.50942	48302
21.51755	46722
21.52567	46490
21.53378	45149
21.54192	45101
21.55003	44567
21.55815	42572
21.56628	44456
21.57440	42588
21.58253	44188
21.59065	50228
21.59877	53734
21.60690	57129
21.61502	59548
21.62315	59916
21.63127	60461
21.63938	66643
21.64752	76379
21.65563	76210
21.66375	80227
21.67188	77658
21.68000	80072
21.68813	73568
21.69625	75812
21.70437	69031
21.71250	62227
21.72062	58154
21.72875	53508
21.73687	53501
21.74498	51844
21.75312	46062
21.76123	48108
21.76937	47214
21.77748	46683
21.78560	44955
21.79373	45989
21.80185	43628
21.80997	50365
21.81810	53603
21.82622	52969
21.83435	60889
21.84247	67073
21.85058	73481
21.85872	75721
21.86683	74084
21.87497	63399
21.88308	58427
21.89120	58217
21.89933	52272
21.90745	48242
21.91558	48606
21.92370	50558
21.93182	43591
21.93995	49186
21.94807	44955
21.95618	39815
21.96432	36428
21.97243	38960
21.98057	37805
21.98868	40425
21.99680	39424
22.00493	38721
22.01305	37160
22.02118	36129
22.02930	40210
22.03742	40070
22.04555	44053
22.05367	37709
22.06178	42029
22.06992	41514
22.07803	40992
22.08617	48578
22.09428	52429
22.10240	62593
22.11053	69168
22.11865	70436
22.12678	69307
22.13490	74712
22.14302	75126
22.15115	72069
22.15927	71283
22.16740	74029
22.17552	82045
22.18363	77294
22.19177	78946
22.19988	78755
22.20800	73172
22.21613	83140
22.22425	80448
22.23238	81046
22.24050	88039
22.24862	86065
22.25675	85586
22.26487	82746
22.27300	83129
22.28112	77662
22.28923	85228
22.29737	81556
22.30548	81249
22.31360	79291
22.32173	74364
22.32985	68633
22.33798	64831
22.34610	61454
22.35422	56017
22.36235	54572
22.37047	53915
22.37860	50116
22.38672	57968
22.39483	60797
22.40297	66601
22.41108	79608
22.41922	88881
22.42733	104935
22.43545	107565
22.44358	99166
22.45170	88105
22.45982	77802
22.46795	68626
22.47607	59925
22.48420	57933
22.49232	61328
22.50043	65730
22.50857	65093
22.51668	66811
22.52482	63991
22.53293	63285
22.54105	60686
22.54918	56280
22.55730	53782
22.56543	52950
22.57355	49668
22.58167	49939
22.58980	48406
22.59792	48521
22.60603	46925
22.61417	54250
22.62228	66501
22.63042	83107
22.63853	95201
22.64665	101685
22.65478	110574
22.66290	114202
22.67103	114790
22.67915	122306
22.68727	127463
22.69540	126013
22.70352	138502
22.71163	136769
22.71977	143442
22.72788	147755
22.73602	142911
22.74413	148850
22.75225	145233
22.76038	146294
22.76850	138902
22.77663	136612
22.78475	146991
22.79287	152338
22.80100	156893
22.80912	172266
22.81725	173468
22.82537	176479
22.83348	171067
22.84162	169216
22.84973	163847
22.85785	145150
22.86598	138821
22.87410	145699
22.88223	144554
22.89035	144918
22.89847	158825
22.90660	162905
22.91472	166643
22.92285	183122
22.93097	202112
22.93908	209029
22.94722	203281
22.95533	196677
22.96347	178082
22.97158	174916
22.97970	157039
22.98783	155352
22.99595	140781
23.00407	137476
23.01220	135699
23.02032	134586
23.02845	126969
23.03657	122943
23.04468	122615
23.05282	116423
23.06093	113639
23.06907	113351
23.07718	114036
23.08530	114214
23.09343	112743
23.10155	111782
23.10967	102940
23.11780	103173
23.12592	103034
23.13405	100101
23.14217	102510
23.15028	100645
23.15842	98040
23.16653	95828
23.17467	98064
23.18278	94980
23.19090	94390
23.19903	96161
23.20715	97970
23.21528	91704
23.22340	90211
23.23152	92123
23.23965	92477
23.24777	89236
23.25588	95745
23.26402	96768
23.27213	99234
23.28027	98392
23.28838	95948
23.29650	91206
23.30463	92454
23.31275	89818
23.32088	92183
23.32900	85904
23.33712	93942
23.34525	106966
23.35337	127722
23.36148	164289
23.36962	229896
23.37773	315390
23.38587	433885
23.39398	550260
23.40210	690525
23.41023	785624
23.41835	866023
23.42648	898910
23.43460	922680
23.44272	927689
23.45085	889141
23.45897	833369
23.46710	785511
23.47522	752049
23.48333	690260
23.49147	637334
23.49958	573831
23.50770	531857
23.51583	496262
23.52395	460045
23.53208	420508
23.54020	396709
23.54832	367576
23.55645	356514
23.56457	334043
23.57270	335986
23.58082	322656
23.58893	323823
23.59707	347996
23.60518	365304
23.61332	366281
23.62143	364540
23.62955	328588
23.63768	296159
23.64580	262518
23.65392	246436
23.66205	237723
23.67017	226581
23.67830	210080
23.68642	202238
23.69453	193331
23.70267	190002
23.71078	171514
23.71892	160777
23.72703	153596
23.73515	145486
23.74328	147986
23.75140	149397
23.75953	192663
23.76765	282940
23.77577	514863
23.78390	850098
23.79202	1280413
23.80013	1642191
23.80827	1847752
23.81638	1782232
23.82452	1516137
23.83263	1206294
23.84075	948447
23.84888	764821
23.85700	611534
23.86513	491385
23.87325	419484
23.88137	358271
23.88950	323044
23.89762	301557
23.90573	269587
23.91387	268658
23.92198	249919
23.93012	232434
23.93823	217093
23.94635	207843
23.95448	184506
23.96260	187891
23.97073	167266
23.97885	162485
23.98697	161443
23.99510	147237
24.00322	142229
24.01135	150913
24.01947	151417
24.02758	151156
24.03572	153441
24.04383	161884
24.05195	157215
24.06008	151092
24.06820	134921
24.07633	127447
24.08445	115376
24.09257	111906
24.10070	108143
24.10882	108213
24.11695	106783
24.12507	102955
24.13318	101324
24.14132	105430
24.14943	105223
24.15755	108727
24.16568	106432
24.17380	105503
24.18193	103565
24.19005	99144
24.19817	99562
24.20630	94812
24.21442	100732
24.22255	97702
24.23067	90785
24.23878	97130
24.24692	95166
24.25503	91403
24.26317	89956
24.27128	86791
24.27940	86540
24.28753	80674
24.29565	78534
24.30377	83018
24.31190	83182
24.32002	92103
24.32815	103009
24.33627	137924
24.34438	156676
24.35252	156988
24.36063	167179
24.36877	180636
24.37688	191017
24.38500	197719
24.39313	211691
24.40125	223848
24.40938	238329
24.41750	249877
24.42562	248970
24.43375	231232
24.44187	217980
24.44998	219201
24.45812	218734
24.46623	216711
24.47437	224430
24.48248	236896
24.49060	247203
24.49873	249592
24.50685	244929
24.51498	246645
24.52310	239153
24.53122	228564
24.53935	232569
24.54747	235088
24.55558	229368
24.56372	218066
24.57183	211597
24.57997	211722
24.58808	209672
24.59620	195687
24.60433	187227
24.61245	184674
24.62058	178883
24.62870	182622
24.63682	182507
24.64495	173416
24.65307	182357
24.66120	175305
24.66932	163649
24.67743	177746
24.68557	170191
24.69368	173513
24.70180	166136
24.70993	162733
24.71805	164227
24.72618	155264
24.73430	161040
24.74242	164511
24.75055	164499
24.75867	159398
24.76680	155387
24.77492	164721
24.78303	165833
24.79117	171076
24.79928	164676
24.80742	154365
24.81553	162489
24.82365	157519
24.83178	165473
24.83990	179137
24.84802	182108
24.85615	209888
24.86427	250651
24.87240	302760
24.88052	387422
24.88863	456318
24.89677	520061
24.90488	528423
24.91302	499837
24.92113	414899
24.92925	324539
24.93738	247237
24.94550	217591
24.95362	187102
24.96175	173038
24.96987	174784
24.97800	157178
24.98612	156991
24.99423	152392
25.00237	160141
25.01048	154148
25.01862	151402
25.02673	144423
25.03485	152480
25.04298	148449
25.05110	143002
25.05923	145032
25.06735	145778
25.07547	149920
25.08360	144930
25.09172	146598
25.09983	159324
25.10797	204669
25.11608	312809
25.12422	532435
25.13233	949295
25.14045	1429959
25.14858	1907887
25.15670	2133434
25.16483	2015408
25.17295	1562164
25.18107	1070067
25.18920	660479
25.19732	399913
25.20543	281144
25.21357	205745
25.22168	170429
25.22982	156245
25.23793	151772
25.24605	153697
25.25418	168073
25.26230	184331
25.27043	196510
25.27855	199215
25.28667	199615
25.29480	183447
25.30292	159069
25.31105	140033
25.31917	121492
25.32728	109916
25.33542	98415
25.34353	91889
25.35165	91326
25.35978	85001
25.36790	78177
25.37603	74182
25.38415	72701
25.39227	74686
25.40040	71327
25.40852	69944
25.41665	69493
25.42477	69231
25.43288	64230
25.44102	64664
25.44913	60004
25.45727	65892
25.46538	63982
25.47350	66943
25.48163	62568
25.48975	65231
25.49787	67770
25.50600	68003
25.51412	62538
25.52225	62327
25.53037	61015
25.53848	57376
25.54662	58232
25.55473	59145
25.56287	57493
25.57098	57017
25.57910	62092
25.58723	58285
25.59535	57739
25.60347	55577
25.61160	59376
25.61972	57730
25.62785	56786
25.63597	57046
25.64408	55073
25.65222	55188
25.66033	56756
25.66847	52867
25.67658	55300
25.68470	54526
25.69283	54243
25.70095	57828
25.70908	68024
25.71720	81374
25.72532	99423
25.73345	118931
25.74157	130017
25.74968	136095
25.75782	136187
25.76593	149892
25.77407	144636
25.78218	150012
25.79030	151955
25.79843	154433
25.80655	163149
25.81468	159924
25.82280	163367
25.83092	168876
25.83905	165811
25.84717	165447
25.85530	165300
25.86342	176320
25.87153	170164
25.87967	158601
25.88778	162765
25.89590	159990
25.90403	165509
25.91215	151748
25.92028	156059
25.92840	157901
25.93652	151669
25.94465	150455
25.95277	157194
25.96090	148973
25.96902	145687
25.97713	146149
25.98527	138753
25.99338	138072
26.00150	139180
26.00963	140315
26.01775	140004
26.02588	138300
26.03400	137260
26.04212	131886
26.05025	129392
26.05837	134370
26.06650	134567
26.07462	132833
26.08273	131383
26.09087	128784
26.09898	128293
26.10712	128047
26.11523	132066
26.12335	126728
26.13148	128724
26.13960	128908
26.14772	127524
26.15585	134556
26.16397	127628
26.17210	130985
26.18022	123159
26.18833	126896
26.19647	126976
26.20458	122466
26.21272	112470
26.22083	111351
26.22895	110462
26.23708	108721
26.24520	108909
26.25333	104690
26.26145	109484
26.26957	108358
26.27770	100846
26.28582	102542
26.29393	103556
26.30207	101801
26.31018	102296
26.31832	99126
26.32643	96483
26.33455	96746
26.34268	98679
26.35080	101465
26.35893	89197
26.36705	97647
26.37517	101034
26.38330	97826
26.39142	104996
26.39953	101047
26.40767	102908
26.41578	109585
26.42392	104914
26.43203	98311
26.44015	90761
26.44828	88500
26.45640	82626
26.46453	87223
26.47265	83467
26.48077	85926
26.48890	85863
26.49702	81661
26.50515	85890
26.51327	80887
26.52138	84193
26.52952	83640
26.53763	78215
26.54575	78250
26.55388	74206
26.56200	74127
26.57013	77398
26.57825	73885
26.58637	70835
26.59450	73334
26.60262	73285
26.61075	72301
26.61887	71201
26.62698	63218
26.63512	66597
26.64323	71406
26.65135	65656
26.65948	67526
26.66760	72099
26.67573	75487
26.68385	72524
26.69197	70445
26.70010	65781
26.70822	69914
26.71635	63287
26.72447	62481
26.73258	64560
26.74072	61135
26.74883	59620
26.75697	60632
26.76508	58604
26.77320	61638
26.78133	62914
26.78945	57338
26.79757	65417
26.80570	56874
26.81382	56978
26.82195	60983
26.83007	60951
26.83818	65335
26.84632	61518
26.85443	60270
26.86257	54630
26.87068	57705
26.87880	56524
26.88693	56239
26.89505	54126
26.90318	54563
26.91130	51378
26.91942	53138
26.92755	51580
26.93567	55214
26.94378	56201
26.95192	58488
26.96003	58357
26.96817	55899
26.97628	63334
26.98440	64651
26.99253	76983
27.00065	104441
27.00878	129585
27.01690	166521
27.02502	205595
27.03315	231609
27.04127	242153
27.04938	236507
27.05752	216815
27.06563	180974
27.07377	160298
27.08188	140466
27.09000	125561
27.09813	111841
27.10625	108147
27.11438	99781
27.12250	101421
27.13062	98716
27.13875	89896
27.14687	87473
27.15500	83252
27.16312	80323
27.17123	78984
27.17937	82302
27.18748	80546
27.19560	79670
27.20373	81793
27.21185	77887
27.21998	77351
27.22810	77131
27.23622	73518
27.24435	71456
27.25247	69924
27.26060	68580
27.26872	62889
27.27683	64742
27.28497	65348
27.29308	63937
27.30122	57418
27.30933	59654
27.31745	57407
27.32558	56296
27.33370	57228
27.34182	59108
27.34995	58604
27.35807	57564
27.36620	53156
27.37432	55808
27.38243	54578
27.39057	57743
27.39868	57118
27.40682	53594
27.41493	53876
27.42305	51569
27.43118	53853
27.43930	56524
27.44742	52553
27.45555	57702
27.46367	50502
27.47180	46774
27.47992	51396
27.48803	48492
27.49617	44602
27.50428	52458
27.51242	49632
27.52053	50009
27.52865	51227
27.53678	51886
27.54490	52714
27.55303	52487
27.56115	55931
27.56927	50142
27.57740	51597
27.58552	63710
27.59363	61457
27.60177	71068
27.60988	67897
27.61802	69351
27.62613	60503
27.63425	54096
27.64238	53920
27.65050	56398
27.65863	49788
27.66675	52328
27.67487	46242
27.68300	47530
27.69112	47612
27.69923	48453
27.70737	47906
27.71548	46198
27.72362	44444
27.73173	44219
27.73985	41651
27.74798	46928
27.75610	43323
27.76423	43673
27.77235	43445
27.78047	47226
27.78860	45706
27.79672	50078
27.80485	45719
27.81297	49458
27.82108	50718
27.82922	50289
27.83733	50271
27.84545	47391
27.85358	47623
27.86170	48310
27.86983	46309
27.87795	44754
27.88607	44058
27.89420	45715
27.90232	44565
27.91045	45653
27.91857	42196
27.92668	42531
27.93482	44866
27.94293	43256
27.95107	41478
27.95918	40955
27.96730	41851
27.97543	41165
27.98355	40896
27.99167	43320
27.99980	46323
28.00792	43367
28.01605	42143
28.02417	44415
28.03228	47551
28.04042	44092
28.04853	46052
28.05667	45263
28.06478	49495
28.07290	51114
28.08103	53514
28.08915	48897
28.09728	51981
28.10540	49646
28.11352	48806
28.12165	48961
28.12977	45249
28.13788	43148
28.14602	42212
28.15413	41838
28.16227	42378
28.17038	42908
28.17850	38243
28.18663	42640
28.19475	46858
28.20288	54472
28.21100	56632
28.21912	64200
28.22725	71580
28.23537	67168
28.24348	63442
28.25162	58895
28.25973	60441
28.26787	48003
28.27598	48073
28.28410	45810
28.29223	47890
28.30035	44879
28.30848	47596
28.31660	48696
28.32472	52607
28.33285	56030
28.34097	57011
28.34910	60496
28.35722	60825
28.36533	67124
28.37347	72769
28.38158	74220
28.38970	80874
28.39783	83069
28.40595	81467
28.41408	83255
28.42220	74427
28.43032	79500
28.43845	76698
28.44657	76902
28.45470	73791
28.46282	74119
28.47093	67928
28.47907	65718
28.48718	59204
28.49530	60362
28.50343	56470
28.51155	60598
28.51968	57910
28.52780	56947
28.53592	51357
28.54405	53660
28.55217	49390
28.56030	53382
28.56842	53754
28.57653	51221
28.58467	46414
28.59278	47908
28.60092	48908
28.60903	49675
28.61715	47272
28.62528	54144
28.63340	51992
28.64152	51559
28.64965	47954
28.65777	55747
28.66590	56612
28.67402	57646
28.68213	58405
28.69027	56572
28.69838	51730
28.70652	50655
28.71463	48542
28.72275	47676
28.73088	45184
28.73900	49370
28.74713	47761
28.75525	47573
28.76337	55988
28.77150	54320
28.77962	60827
28.78773	59593
28.79587	58228
28.80398	62696
28.81212	59585
28.82023	55842
28.82835	53243
28.83648	48006
28.84460	50551
28.85273	51187
28.86085	45174
28.86897	50589
28.87710	52449
28.88522	54433
28.89333	54264
28.90147	59180
28.90958	57996
28.91772	57696
28.92583	51978
28.93395	54725
28.94208	50380
28.95020	49452
28.95833	48302
28.96645	51184
28.97457	53339
28.98270	46960
28.99082	52024
28.99895	51372
29.00707	47152
29.01518	48541
29.02332	40960
29.03143	41797
29.03955	42007
29.04768	43533
29.05580	42670
29.06393	40462
29.07205	43045
29.08017	41809
29.08830	42075
29.09642	46194
29.10455	46983
29.11267	48336
29.12078	44605
29.12892	45757
29.13703	44924
29.14517	43500
29.15328	38408
29.16140	45910
29.16953	45832
29.17765	41867
29.18577	47345
29.19390	56242
29.20202	56846
29.21015	69134
29.21827	72967
29.22638	74534
29.23452	78785
29.24263	69033
29.25077	64956
29.25888	62757
29.26700	68004
29.27513	73785
29.28325	66320
29.29137	59566
29.29950	58125
29.30762	57242
29.31575	48892
29.32387	44408
29.33198	45508
29.34012	42515
29.34823	44066
29.35637	41602
29.36448	40394
29.37260	40961
29.38073	45615
29.38885	41349
29.39698	39854
29.40510	38945
29.41322	42637
29.42135	44525
29.42947	42740
29.43758	43942
29.44572	41317
29.45383	38099
29.46197	38661
29.47008	39009
29.47820	41889
29.48633	46421
29.49445	43030
29.50258	45590
29.51070	45192
29.51882	45710
29.52695	48815
29.53507	45089
29.54318	46819
29.55132	37606
29.55943	39705
29.56757	40113
29.57568	38780
29.58380	40378
29.59193	37704
29.60005	42154
29.60818	37359
29.61630	39854
29.62442	38320
29.63255	41224
29.64067	40889
29.64880	41065
29.65692	39977
29.66503	40028
29.67317	39974
29.68128	44786
29.68940	43131
29.69753	44831
29.70565	47722
29.71378	44545
29.72190	42656
29.73002	42126
29.73815	40823
29.74627	41467
29.75440	39251
29.76252	37953
29.77063	39632
29.77877	41304
29.78688	37638
29.79502	35586
29.80313	35123
29.81125	39658
29.81938	38212
29.82750	41006
29.83562	42607
29.84375	35460
29.85187	36144
29.86000	36111
29.86812	45966
29.87623	48095
29.88437	49897
29.89248	57572
29.90062	64963
29.90873	66461
29.91685	70316
29.92498	61461
29.93310	56292
29.94122	52139
29.94935	48650
29.95747	43895
29.96560	46733
29.97372	44018
29.98183	45589
29.98997	46955
29.99808	46701
30.00622	51913
30.01433	55399
30.02245	56619
30.03058	58373
30.03870	60105
30.04683	60323
30.05495	62709
30.06307	64205
30.07120	61249
30.07932	59143
30.08743	61030
30.09557	59040
30.10368	59634
30.11182	57802
30.11993	59971
30.12805	55370
30.13618	52355
30.14430	53407
30.15243	51954
30.16055	55853
30.16867	53591
30.17680	52412
30.18492	51265
30.19305	50215
30.20117	47721
30.20928	44865
30.21742	46152
30.22553	47056
30.23365	50877
30.24178	44320
30.24990	43259
30.25803	42968
30.26615	43907
30.27427	44199
30.28240	43749
30.29052	39242
30.29865	41180
30.30677	42393
30.31488	37541
30.32302	40714
30.33113	39384
30.33925	41555
30.34738	42949
30.35550	39948
30.36363	39573
30.37175	38718
30.37987	41237
30.38800	39922
30.39612	38876
30.40425	39626
30.41237	37475
30.42048	39983
30.42862	39929
30.43673	37009
30.44487	37902
30.45298	38952
30.46110	37567
30.46923	37896
30.47735	38766
30.48547	42578
30.49360	41309
30.50172	38345
30.50985	37493
30.51797	39209
30.52608	39299
30.53422	38058
30.54233	37488
30.55047	38581
30.55858	35145
30.56670	36535
30.57483	36599
30.58295	36744
30.59107	38780
30.59920	42038
30.60732	45512
30.61545	39069
30.62357	38457
30.63168	36942
30.63982	35554
30.64793	37217
30.65607	39121
30.66418	37192
30.67230	36253
30.68043	39324
30.68855	36379
30.69668	37422
30.70480	35741
30.71292	38742
30.72105	35355
30.72917	36428
30.73728	40224
30.74542	43174
30.75353	39339
30.76167	40109
30.76978	40533
30.77790	39774
30.78603	45977
30.79415	54362
30.80228	65312
30.81040	71419
30.81852	77029
30.82665	76209
30.83477	69669
30.84290	60959
30.85102	56184
30.85913	45775
30.86727	44333
30.87538	38748
30.88350	39726
30.89163	40452
30.89975	37507
30.90788	36310
30.91600	39320
30.92412	38620
30.93225	36141
30.94037	39674
30.94850	37155
30.95662	38622
30.96473	39246
30.97287	38159
30.98098	37089
30.98910	34963
30.99723	33676
31.00535	38060
31.01348	36653
31.02160	38529
31.02972	44521
31.03785	48936
31.04597	45389
31.05410	48346
31.06222	53606
31.07033	53531
31.07847	56087
31.08658	60205
31.09472	65200
31.10283	71548
31.11095	73670
31.11908	73316
31.12720	66646
31.13532	65202
31.14345	65755
31.15157	68657
31.15970	60211
31.16782	63573
31.17593	64852
31.18407	69434
31.19218	72129
31.20032	84276
31.20843	92860
31.21655	108840
31.22468	116876
31.23280	113672
31.24093	114682
31.24905	105572
31.25717	95395
31.26530	77964
31.27342	72713
31.28153	63494
31.28967	60995
31.29778	56897
31.30592	59183
31.31403	53817
31.32215	54176
31.33028	58988
31.33840	59225
31.34653	59885
31.35465	54513
31.36277	55045
31.37090	58961
31.37902	56564
31.38713	53203
31.39527	56735
31.40338	59240
31.41152	55594
31.41963	54623
31.42775	57864
31.43588	52640
31.44400	52304
31.45213	51808
31.46025	50205
31.46837	51425
31.47650	54766
31.48462	49829
31.49275	52513
31.50087	54140
31.50898	52091
31.51712	52564
31.52523	46575
31.53335	49140
31.54148	50896
31.54960	51174
31.55773	51298
31.56585	49613
31.57397	48895
31.58210	52171
31.59022	53747
31.59835	49084
31.60647	48312
31.61458	47296
31.62272	50332
31.63083	47417
31.63897	48796
31.64708	46557
31.65520	51723
31.66333	50568
31.67145	47549
31.67957	50734
31.68770	53676
31.69582	51938
31.70395	50237
31.71207	48215
31.72018	48938
31.72832	46244
31.73643	45114
31.74457	46243
31.75268	47067
31.76080	45355
31.76893	47253
31.77705	46796
31.78517	46833
31.79330	46504
31.80142	46409
31.80955	47421
31.81767	44756
31.82578	47223
31.83392	46216
31.84203	46287
31.85017	47469
31.85828	51410
31.86640	48181
31.87453	51880
31.88265	54444
31.89078	50636
31.89890	51976
31.90702	54323
31.91515	51186
31.92327	54747
31.93138	59361
31.93952	58025
31.94763	61748
31.95577	63240
31.96388	64525
31.97200	59179
31.98013	67110
31.98825	65610
31.99638	72526
32.00450	71574
32.01262	74029
32.02075	69471
32.02887	70258
32.03698	68637
32.04512	66873
32.05323	64266
32.06137	62409
32.06948	64747
32.07760	63373
32.08573	57342
32.09385	59296
32.10198	55727
32.11010	56585
32.11822	56694
32.12635	54593
32.13447	51158
32.14260	52766
32.15072	52259
32.15883	51209
32.16697	49154
32.17508	51511
32.18320	51957
32.19133	49351
32.19945	50199
32.20758	45179
32.21570	49324
32.22382	49428
32.23195	49364
32.24007	46114
32.24820	44518
32.25632	49253
32.26443	50164
32.27257	49170
32.28068	51541
32.28882	50337
32.29693	49541
32.30505	47275
32.31318	45059
32.32130	48260
32.32942	43712
32.33755	42982
32.34567	41904
32.35380	45470
32.36192	48593
32.37003	46947
32.37817	48425
32.38628	45767
32.39442	46428
32.40253	46488
32.41065	47076
32.41878	44281
32.42690	44620
32.43502	41916
32.44315	46385
32.45127	46433
32.45940	42818
32.46752	45526
32.47563	46294
32.48377	40586
32.49188	42072
32.50002	45123
32.50813	43083
32.51625	44328
32.52438	42167
32.53250	43011
32.54063	43324
32.54875	41382
32.55687	43605
32.56500	45179
32.57312	46495
32.58123	45282
32.58937	49974
32.59748	44912
32.60562	44076
32.61373	42367
32.62185	43068
32.62998	41447
32.63810	40783
32.64623	45586
32.65435	49351
32.66247	48829
32.67060	50992
32.67872	48628
32.68685	55214
32.69497	55992
32.70308	53679
32.71122	48489
32.71933	52180
32.72745	48394
32.73558	45818
32.74370	44478
32.75183	44782
32.75995	44357
32.76807	41688
32.77620	42261
32.78432	42596
32.79245	43581
32.80057	41422
32.80868	43874
32.81682	38469
32.82493	44200
32.83305	43852
32.84118	41880
32.84930	35943
32.85743	41686
32.86555	39450
32.87367	38741
32.88180	39985
32.88992	41467
32.89805	40807
32.90617	41790
32.91428	42880
32.92242	45906
32.93053	42456
32.93867	40808
32.94678	41617
32.95490	43270
32.96303	41261
32.97115	40472
32.97927	47075
32.98740	52584
32.99552	56524
33.00365	54435
33.01177	62006
33.01988	61341
33.02802	60614
33.03613	54947
33.04427	47474
33.05238	47388
33.06050	49184
33.06863	49397
33.07675	56623
33.08487	52168
33.09300	55960
33.10112	59443
33.10925	60253
33.11737	62237
33.12548	64223
33.13362	64302
33.14173	61967
33.14987	59194
33.15798	55948
33.16610	49957
33.17423	51272
33.18235	44894
33.19048	44847
33.19860	45543
33.20672	47342
33.21485	41977
33.22297	45746
33.23108	49203
33.23922	48922
33.24733	44936
33.25547	39664
33.26358	48771
33.27170	48679
33.27983	43024
33.28795	41207
33.29608	40907
33.30420	45489
33.31232	45088
33.32045	45411
33.32857	40909
33.33670	41240
33.34482	44721
33.35293	45796
33.36107	44615
33.36918	44410
33.37730	46923
33.38543	49619
33.39355	44955
33.40168	46486
33.40980	45249
33.41792	42271
33.42605	43382
33.43417	41636
33.44230	40347
33.45042	38914
33.45853	40031
33.46667	44129
33.47478	45019
33.48292	43782
33.49103	44105
33.49915	43817
33.50728	47861
33.51540	47423
33.52352	49838
33.53165	45875
33.53977	49765
33.54790	46544
33.55602	50572
33.56413	50320
33.57227	50067
33.58038	51454
33.58852	48936
33.59663	42084
33.60475	45203
33.61288	43518
33.62100	46668
33.62912	44992
33.63725	44411
33.64537	44397
33.65350	45242
33.66162	44902
33.66973	42886
33.67787	43831
33.68598	48019
33.69412	43091
33.70223	44053
33.71035	43903
33.71848	44332
33.72660	44238
33.73473	46292
33.74285	40987
33.75097	44121
33.75910	44263
33.76722	42001
33.77533	41052
33.78347	39669
33.79158	42373
33.79972	39748
33.80783	40489
33.81595	43294
33.82408	43389
33.83220	41493
33.84033	43903
33.84845	42793
33.85657	46611
33.86470	47653
33.87282	47623
33.88093	48149
33.88907	45682
33.89718	44108
33.90532	43418
33.91343	46460
33.92155	46521
33.92968	49322
33.93780	45233
33.94593	42704
33.95405	45075
33.96217	43224
33.97030	42808
33.97842	44043
33.98655	44350
33.99467	46137
34.00278	42667
34.01092	44672
34.01903	40812
34.02715	43585
34.03528	46522
34.04340	44759
34.05153	43975
34.05965	43828
34.06777	42431
34.07590	45279
34.08402	47320
34.09215	45999
34.10027	45130
34.10838	43116
34.11652	48042
34.12463	46654
34.13277	45968
34.14088	44880
34.14900	45715
34.15713	45244
34.16525	47405
34.17337	46685
34.18150	43612
34.18962	50206
34.19775	47281
34.20587	49203
34.21398	52918
34.22212	52496
34.23023	50653
34.23837	50474
34.24648	49998
34.25460	46126
34.26273	50112
34.27085	49292
34.27897	47744
34.28710	53503
34.29522	52104
34.30335	47719
34.31147	48248
34.31958	47797
34.32772	48585
34.33583	50244
34.34397	53190
34.35208	51924
34.36020	49327
34.36833	52781
34.37645	57628
34.38458	52595
34.39270	47358
34.40082	48707
34.40895	50600
34.41707	50323
34.42518	47261
34.43332	49281
34.44143	48568
34.44957	47742
34.45768	48731
34.46580	46667
34.47393	49340
34.48205	45944
34.49018	49258
34.49830	47618
34.50642	53912
34.51455	49347
34.52267	50572
34.53080	60957
34.53892	61947
34.54703	61136
34.55517	68395
34.56328	72508
34.57140	70111
34.57953	67950
34.58765	71572
34.59578	67726
34.60390	67336
34.61202	62940
34.62015	60655
34.62827	62339
34.63640	54182
34.64452	58880
34.65263	55163
34.66077	55203
34.66888	54011
34.67700	54908
34.68513	55617
34.69325	51331
34.70138	51047
34.70950	54244
34.71762	51161
34.72575	52447
34.73387	51607
34.74200	51738
34.75012	51328
34.75823	49158
34.76637	54749
34.77448	53543
34.78262	49449
34.79073	53225
34.79885	50136
34.80698	48017
34.81510	51748
34.82322	55755
34.83135	50230
34.83947	51068
34.84760	52287
34.85572	49748
34.86383	52515
34.87197	52611
34.88008	49539
34.88822	49884
34.89633	48004
34.90445	51308
34.91258	53257
34.92070	53888
34.92882	50560
34.93695	55216
34.94507	54785
34.95320	54714
34.96132	57137
34.96943	57815
34.97757	59605
34.98568	61753
34.99382	60129
35.00193	59239
35.01005	56595
35.01818	54016
35.02630	52030
35.03443	52522
35.04255	53305
35.05067	51110
35.05880	54022
35.06692	49680
35.07503	51356
35.08317	54333
35.09128	50393
35.09942	50836
35.10753	48665
35.11565	48310
35.12378	48011
35.13190	49474
35.14003	52088
35.14815	53817
35.15627	52453
35.16440	52286
35.17252	54484
35.18065	51368
35.18877	48120
35.19688	49522
35.20502	46134
35.21313	47334
35.22125	46713
35.22938	48338
35.23750	49140
35.24563	46828
35.25375	50830
35.26187	51400
35.27000	54878
35.27812	52808
35.28625	56963
35.29437	56594
35.30248	53471
35.31062	52769
35.31873	51654
35.32685	47615
35.33498	47426
35.34310	49512
35.35123	50950
35.35935	43686
35.36747	50158
35.37560	50022
35.38372	51541
35.39185	46169
35.39997	50665
35.40808	46850
35.41622	44622
35.42433	54453
35.43247	51132
35.44058	49624
35.44870	51668
35.45683	54796
35.46495	55410
35.47307	55117
35.48120	58186
35.48932	53436
35.49745	53263
35.50557	54709
35.51368	55449
35.52182	52453
35.52993	55794
35.53807	49672
35.54618	51374
35.55430	52804
35.56243	53014
35.57055	53867
35.57868	51781
35.58680	49862
35.59492	54260
35.60305	53808
35.61117	50063
35.61928	51741
35.62742	51035
35.63553	48901
35.64367	50085
35.65178	51517
35.65990	49022
35.66803	48718
35.67615	50487
35.68428	53377
35.69240	51816
35.70052	50733
35.70865	58432
35.71677	51211
35.72488	57532
35.73302	54708
35.74113	58982
35.74927	57028
35.75738	60337
35.76550	55254
35.77363	59906
35.78175	64744
35.78988	57166
35.79800	57918
35.80612	60849
35.81425	52702
35.82237	52564
35.83050	55414
35.83862	51568
35.84673	54905
35.85487	52397
35.86298	52961
35.87110	54379
35.87923	53187
35.88735	55260
35.89548	50623
35.90360	56963
35.91172	49700
35.91985	51709
35.92797	53587
35.93610	52676
35.94422	54739
35.95233	49219
35.96047	52579
35.96858	54939
35.97670	56299
35.98483	52717
35.99295	53636
36.00108	52196
36.00920	54338
36.01732	54161
36.02545	55089
36.03357	56747
36.04170	60779
36.04982	57909
36.05793	58037
36.06607	54812
36.07418	55094
36.08232	55196
36.09043	54498
36.09855	53622
36.10668	56708
36.11480	53883
36.12292	52444
36.13105	56579
36.13917	54784
36.14730	56316
36.15542	56882
36.16353	52187
36.17167	58544
36.17978	56271
36.18792	54825
36.19603	50504
36.20415	53099
36.21228	53090
36.22040	53027
36.22853	52696
36.23665	55276
36.24477	53573
36.25290	50678
36.26102	49887
36.26913	53128
36.27727	54138
36.28538	54043
36.29352	55769
36.30163	55592
36.30975	57778
36.31788	58647
36.32600	60613
36.33413	64996
36.34225	62763
36.35037	60439
36.35850	59569
36.36662	58595
36.37473	54071
36.38287	58898
36.39098	57723
36.39912	55313
36.40723	55090
36.41535	57376
36.42348	54992
36.43160	53042
36.43973	53089
36.44785	51341
36.45597	59193
36.46410	55097
36.47222	56375
36.48035	50311
36.48847	55629
36.49658	55663
36.50472	52818
36.51283	54492
36.52095	52831
36.52908	53717
36.53720	50777
36.54533	53829
36.55345	54836
36.56157	53262
36.56970	56949
36.57782	53402
36.58595	60781
36.59407	56411
36.60218	55126
36.61032	56331
36.61843	55609
36.62657	60555
36.63468	58853
36.64280	53895
36.65093	59121
36.65905	57918
36.66717	58129
36.67530	61926
36.68342	58562
36.69155	59730
36.69967	62454
36.70778	57768
36.71592	61520
36.72403	58042
36.73217	63046
36.74028	60985
36.74840	63865
36.75653	60751
36.76465	59022
36.77277	62109
36.78090	59726
36.78902	60373
36.79715	59689
36.80527	61639
36.81338	61289
36.82152	61746
36.82963	62725
36.83777	60346
36.84588	58333
36.85400	61208
36.86213	58919
36.87025	59426
36.87838	58922
36.88650	57729
36.89462	60488
36.90275	56301
36.91087	58852
36.91898	58541
36.92712	59485
36.93523	61730
36.94337	64326
36.95148	64896
36.95960	68591
36.96773	70390
36.97585	71024
36.98398	69921
36.99210	68578
37.00022	65698
37.00835	64839
37.01647	65594
37.02460	60254
37.03272	62182
37.04083	55683
37.04897	58164
37.05708	56970
37.06520	62598
37.07333	62149
37.08145	62870
37.08958	60278
37.09770	60451
37.10582	63525
37.11395	61663
37.12207	60308
37.13020	63753
37.13832	58808
37.14643	56344
37.15457	57327
37.16268	64207
37.17080	56670
37.17893	64504
37.18705	58914
37.19518	61390
37.20330	64093
37.21142	62880
37.21955	62789
37.22767	61597
37.23580	63235
37.24392	55805
37.25203	58982
37.26017	60047
37.26828	59074
37.27642	56542
37.28453	59097
37.29265	62528
37.30078	61007
37.30890	64415
37.31702	60494
37.32515	67118
37.33327	64447
37.34140	68064
37.34952	70527
37.35763	75951
37.36577	77128
37.37388	77368
37.38202	77408
37.39013	74823
37.39825	77941
37.40638	73016
37.41450	71446
37.42262	74634
37.43075	75139
37.43887	71914
37.44700	68593
37.45512	73249
37.46323	72471
37.47137	67452
37.47948	68128
37.48762	66849
