Z:\data\JTB-E02\BACandBLUE\JTB-E02-199-06.D Wed Feb 27 08:18:53 2019
Start of data points
2.09528,67970
2.10342,73020
2.11153,85437
2.11965,93510
2.12778,100249
2.13590,104305
2.14403,116037
2.15215,113380
2.16027,107130
2.16840,104662
2.17652,103128
2.18463,93530
2.19277,97144
2.20088,92256
2.20902,83739
2.21713,84965
2.22525,80840
2.23338,79707
2.24150,74766
2.24963,73463
2.25775,73452
2.26587,367274
2.27400,1956722
2.28212,3410315
2.29025,2604080
2.29837,1394516
2.30648,938859
2.31462,735681
2.32273,679612
2.33085,595124
2.33898,563805
2.34710,470644
2.35523,387744
2.36335,340122
2.37147,316910
2.37960,308145
2.38772,313189
2.39585,287278
2.40397,291383
2.41208,340035
2.42022,387100
2.42833,511356
2.43647,399910
2.44458,313783
2.45270,300375
2.46083,273231
2.46895,245710
2.47707,219875
2.48520,205416
2.49332,210825
2.50145,206312
2.50957,195538
2.51768,185936
2.52582,183747
2.53393,178236
2.54207,176976
2.55018,201314
2.55830,215197
2.56643,217014
2.57455,198493
2.58267,165748
2.59080,161642
2.59892,153309
2.60705,159520
2.61517,167615
2.62328,163439
2.63142,152115
2.63953,149536
2.64767,138797
2.65578,138479
2.66390,133608
2.67203,132366
2.68015,130236
2.68828,123753
2.69640,128043
2.70452,123936
2.71265,125571
2.72077,117996
2.72888,114265
2.73702,118321
2.74513,114975
2.75327,108251
2.76138,111192
2.76950,107272
2.77763,106138
2.78575,109220
2.79388,109990
2.80200,112963
2.81012,117476
2.81825,116059
2.82637,108314
2.83448,111558
2.84262,103222
2.85073,98018
2.85887,106702
2.86698,114006
2.87510,106345
2.88323,100572
2.89135,106993
2.89948,104892
2.90760,102069
2.91572,97429
2.92385,98108
2.93197,94040
2.94010,99352
2.94822,97304
2.95633,95303
2.96447,93445
2.97258,92986
2.98070,92648
2.98883,90218
2.99695,91688
3.00508,97863
3.01320,101091
3.02132,100280
3.02945,92775
3.03757,87737
3.04570,89770
3.05382,83504
3.06193,89197
3.07007,90014
3.07818,85142
3.08632,87033
3.09443,88147
3.10255,96668
3.11068,134158
3.11880,156886
3.12692,152059
3.13505,138408
3.14317,126187
3.15130,119554
3.15942,109927
3.16753,101160
3.17567,102319
3.18378,96864
3.19192,96159
3.20003,91591
3.20815,90905
3.21628,90791
3.22440,87623
3.23252,90834
3.24065,93876
3.24877,86507
3.25690,84191
3.26502,80941
3.27313,78792
3.28127,117000
3.28938,502669
3.29752,2930080
3.30563,1.054149E+07
3.31375,2.036744E+07
3.32188,2.426259E+07
3.33000,2.163655E+07
3.33813,1.637789E+07
3.34625,1.203547E+07
3.35437,9138274
3.36250,7211296
3.37062,5894959
3.37873,4885777
3.38687,4202238
3.39498,3605886
3.40312,3161742
3.41123,2832763
3.41935,2532517
3.42748,2297198
3.43560,2112519
3.44373,1941890
3.45185,1805031
3.45997,1685266
3.46810,1567491
3.47622,1480376
3.48435,1387151
3.49247,1326680
3.50058,1256288
3.50872,1207888
3.51683,1156920
3.52495,1070362
3.53308,1038849
3.54120,998248
3.54933,955612
3.55745,900939
3.56557,885706
3.57370,862917
3.58182,826218
3.58995,809483
3.59807,800075
3.60618,759258
3.61432,732934
3.62243,723794
3.63055,717499
3.63868,707188
3.64680,657014
3.65493,665909
3.66305,627577
3.67117,628459
3.67930,602906
3.68742,606096
3.69555,578964
3.70367,579865
3.71178,559108
3.71992,543226
3.72803,529355
3.73617,524571
3.74428,509030
3.75240,492026
3.76053,489308
3.76865,504484
3.77677,467210
3.78490,458348
3.79302,474283
3.80115,469612
3.80927,479152
3.81738,459465
3.82552,448436
3.83363,455988
3.84177,435674
3.84988,433179
3.85800,417843
3.86613,404635
3.87425,405101
3.88238,394458
3.89050,390056
3.89862,380336
3.90675,361454
3.91487,368706
3.92298,374934
3.93112,372689
3.93923,368476
3.94737,362105
3.95548,350966
3.96360,352920
3.97173,335820
3.97985,337809
3.98798,330978
3.99610,328951
4.00422,335403
4.01235,321029
4.02047,328560
4.02858,319938
4.03672,316706
4.04483,310778
4.05297,304251
4.06108,309102
4.06920,307841
4.07733,306125
4.08545,294638
4.09358,292526
4.10170,286647
4.10982,282337
4.11795,288465
4.12607,289073
4.13420,282964
4.14232,316090
4.15043,398500
4.15857,461563
4.16668,455697
4.17480,412077
4.18293,368882
4.19105,331828
4.19918,310522
4.20730,299109
4.21542,285214
4.22355,277134
4.23167,289148
4.23980,300933
4.24792,297598
4.25603,280002
4.26417,275369
4.27228,257489
4.28040,254659
4.28853,252481
4.29665,249837
4.30478,245893
4.31290,246433
4.32102,246982
4.32915,262648
4.33727,268990
4.34540,260818
4.35352,256791
4.36163,247658
4.36977,256139
4.37788,249590
4.38602,249141
4.39413,239639
4.40225,242086
4.41038,239531
4.41850,230488
4.42662,221720
4.43475,235759
4.44287,225703
4.45100,220298
4.45912,220308
4.46723,223045
4.47537,212716
4.48348,219068
4.49162,215303
4.49973,223649
4.50785,219367
4.51598,222392
4.52410,210196
4.53223,212901
4.54035,209351
4.54847,201278
4.55660,206386
4.56472,202607
4.57283,189862
4.58097,202225
4.58908,197623
4.59722,196670
4.60533,194109
4.61345,191156
4.62158,197299
4.62970,191869
4.63783,198015
4.64595,185027
4.65407,183003
4.66220,189029
4.67032,195064
4.67843,197231
4.68657,183911
4.69468,182325
4.70282,183193
4.71093,185391
4.71905,182267
4.72718,174920
4.73530,173873
4.74343,175310
4.75155,180436
4.75967,167088
4.76780,174485
4.77592,169811
4.78405,168083
4.79217,174622
4.80028,166384
4.80842,176576
4.81653,175509
4.82465,170879
4.83278,164991
4.84090,172337
4.84903,169616
4.85715,174252
4.86527,179072
4.87340,194285
4.88152,197647
4.88965,194618
4.89777,187406
4.90588,179207
4.91402,174529
4.92213,171801
4.93027,190407
4.93838,319857
4.94650,892948
4.95463,2579690
4.96275,5783353
4.97087,9224361
4.97900,1.093421E+07
4.98712,1.006771E+07
4.99525,7858792
5.00337,5677468
5.01148,4220604
5.01962,3191548
5.02773,2585119
5.03587,2137254
5.04398,1819558
5.05210,1594286
5.06023,1438807
5.06835,1265813
5.07647,1173429
5.08460,1075136
5.09272,998999
5.10085,943945
5.10897,863848
5.11708,810722
5.12522,791775
5.13333,761422
5.14147,714099
5.14958,676142
5.15770,669358
5.16583,655529
5.17395,633929
5.18208,607664
5.19020,620619
5.19832,604779
5.20645,589765
5.21457,567188
5.22268,539246
5.23082,532708
5.23893,526689
5.24707,531634
5.25518,522339
5.26330,505780
5.27143,489058
5.27955,458226
5.28768,445208
5.29580,429641
5.30392,419355
5.31205,424272
5.32017,420063
5.32828,405100
5.33642,398820
5.34453,404878
5.35267,397267
5.36078,391235
5.36890,375943
5.37703,381278
5.38515,368132
5.39328,364909
5.40140,357844
5.40952,362592
5.41765,347461
5.42577,345526
5.43390,337573
5.44202,333876
5.45013,332772
5.45827,318207
5.46638,329906
5.47450,318068
5.48263,314069
5.49075,312460
5.49888,308696
5.50700,303697
5.51512,307826
5.52325,293709
5.53137,294808
5.53950,291344
5.54762,289793
5.55573,281869
5.56387,296959
5.57198,285984
5.58012,287002
5.58823,284796
5.59635,282917
5.60448,295101
5.61260,283855
5.62072,292437
5.62885,322115
5.63697,335899
5.64510,346803
5.65322,324674
5.66133,325537
5.66947,291885
5.67758,281377
5.68572,310804
5.69383,343424
5.70195,354417
5.71008,362263
5.71820,327053
5.72632,301478
5.73445,269676
5.74257,266479
5.75070,261098
5.75882,249592
5.76693,238355
5.77507,243085
5.78318,239815
5.79132,245967
5.79943,230779
5.80755,232413
5.81568,226296
5.82380,232206
5.83193,231404
5.84005,228539
5.84817,231771
5.85630,229539
5.86442,228446
5.87253,214270
5.88067,213921
5.88878,207803
5.89692,219178
5.90503,214883
5.91315,189799
5.92128,179606
5.92940,160464
5.93753,155127
5.94565,158389
5.95377,156559
5.96190,161014
5.97002,162241
5.97815,190758
5.98627,201820
5.99438,203998
6.00252,196720
6.01063,185980
6.01875,181739
6.02688,178248
6.03500,158855
6.04313,159022
6.05125,155244
6.05937,157813
6.06750,157307
6.07562,159077
6.08375,148323
6.09187,151647
6.09998,147023
6.10812,144993
6.11623,148659
6.12435,147919
6.13248,155341
6.14060,161062
6.14873,144098
6.15685,155572
6.16497,151177
6.17310,158479
6.18122,158224
6.18935,165751
6.19747,158957
6.20558,163192
6.21372,162360
6.22183,166772
6.22997,159971
6.23808,167353
6.24620,170847
6.25433,175037
6.26245,181029
6.27057,172893
6.27870,180484
6.28682,182720
6.29495,183164
6.30307,178207
6.31118,182637
6.31932,188549
6.32743,187788
6.33557,194066
6.34368,190207
6.35180,194296
6.35993,202995
6.36805,205046
6.37617,203522
6.38430,196703
6.39242,203495
6.40055,211524
6.40867,215401
6.41678,211766
6.42492,206486
6.43303,212248
6.44117,219760
6.44928,238895
6.45740,239937
6.46553,239179
6.47365,237981
6.48178,242738
6.48990,244494
6.49802,239508
6.50615,237623
6.51427,242464
6.52238,235020
6.53052,237813
6.53863,234968
6.54677,245263
6.55488,242970
6.56300,235573
6.57113,247200
6.57925,205407
6.58738,183266
6.59550,172259
6.60362,157053
6.61175,163917
6.61987,152237
6.62800,150159
6.63612,151134
6.64423,148078
6.65237,145865
6.66048,145739
6.66860,143896
6.67673,146272
6.68485,147951
6.69298,137400
6.70110,137530
6.70922,133991
6.71735,130968
6.72547,133599
6.73360,141964
6.74172,129483
6.74983,139723
6.75797,133976
6.76608,132171
6.77422,132299
6.78233,128291
6.79045,130973
6.79858,125371
6.80670,122906
6.81482,133497
6.82295,128958
6.83107,125377
6.83920,126531
6.84732,128881
6.85543,114632
6.86357,126331
6.87168,129239
6.87982,145275
6.88793,154662
6.89605,154327
6.90418,129798
6.91230,111857
6.92042,96970
6.92855,88704
6.93667,87507
6.94480,83819
6.95292,80118
6.96103,76979
6.96917,82651
6.97728,77740
6.98542,72841
6.99353,74897
7.00165,68567
7.00978,72027
7.01790,66219
7.02603,73507
7.03415,70415
7.04227,72639
7.05040,77688
7.05852,77457
7.06663,73025
7.07477,75064
7.08288,74860
7.09102,74066
7.09913,68385
7.10725,69429
7.11538,71969
7.12350,67816
7.13163,65583
7.13975,69759
7.14787,65137
7.15600,68447
7.16412,63189
7.17223,65688
7.18037,71905
7.18848,78655
7.19662,84905
7.20473,89479
7.21285,90635
7.22098,79662
7.22910,81858
7.23723,71794
7.24535,67983
7.25347,67862
7.26160,64211
7.26972,65556
7.27785,63678
7.28597,66773
7.29408,68630
7.30222,70063
7.31033,65378
7.31845,66244
7.32658,65394
7.33470,62462
7.34283,61639
7.35095,65027
7.35907,66200
7.36720,62082
7.37532,66805
7.38345,68391
7.39157,62140
7.39968,64495
7.40782,69349
7.41593,71564
7.42405,77990
7.43218,81987
7.44030,92736
7.44843,99082
7.45655,92419
7.46467,87397
7.47280,77945
7.48092,72605
7.48905,68967
7.49717,66809
7.50528,63266
7.51342,64956
7.52153,65599
7.52967,71105
7.53778,63783
7.54590,65887
7.55403,64410
7.56215,66443
7.57027,63445
7.57840,68100
7.58652,66705
7.59465,64061
7.60277,62397
7.61088,62734
7.61902,62066
7.62713,60594
7.63527,64698
7.64338,57587
7.65150,57402
7.65963,64340
7.66775,67465
7.67588,64662
7.68400,63337
7.69212,59244
7.70025,60154
7.70837,62345
7.71648,64686
7.72462,59239
7.73273,61302
7.74087,60032
7.74898,62798
7.75710,61926
7.76523,57283
7.77335,64439
7.78148,58834
7.78960,60409
7.79772,64166
7.80585,63632
7.81397,61912
7.82210,58078
7.83022,59671
7.83833,60956
7.84647,59927
7.85458,57972
7.86270,52342
7.87083,51924
7.87895,57101
7.88708,52519
7.89520,51586
7.90332,54116
7.91145,52259
7.91957,50251
7.92770,50494
7.93582,48288
7.94393,54328
7.95207,54209
7.96018,55913
7.96830,60725
7.97643,67423
7.98455,71097
7.99268,71013
8.00080,63196
8.00892,61587
8.01705,61128
8.02517,62991
8.03330,57961
8.04142,59149
8.04953,63101
8.05767,58387
8.06578,57862
8.07392,60315
8.08203,58079
8.09015,67259
8.09828,62283
8.10640,61090
8.11452,66072
8.12265,58673
8.13077,62753
8.13890,64179
8.14702,63485
8.15513,64458
8.16327,68950
8.17138,75377
8.17952,80699
8.18763,80616
8.19575,73166
8.20388,69597
8.21200,64639
8.22012,67612
8.22825,67334
8.23637,61547
8.24450,59927
8.25262,64311
8.26073,61548
8.26887,61067
8.27698,62463
8.28512,63918
8.29323,62192
8.30135,59927
8.30948,64759
8.31760,65729
8.32573,64053
8.33385,71529
8.34197,77764
8.35010,88849
8.35822,90275
8.36633,91250
8.37447,80279
8.38258,71613
8.39072,66798
8.39883,60672
8.40695,63326
8.41508,63473
8.42320,60253
8.43133,63481
8.43945,60949
8.44757,61991
8.45570,62010
8.46382,58338
8.47195,61491
8.48007,60771
8.48818,61517
8.49632,62985
8.50443,66324
8.51255,67977
8.52068,72261
8.52880,81102
8.53693,96240
8.54505,87686
8.55317,93153
8.56130,75569
8.56942,77326
8.57755,67990
8.58567,65058
8.59378,73109
8.60192,64284
8.61003,66151
8.61815,67693
8.62628,63873
8.63440,70854
8.64253,67118
8.65065,63774
8.65877,64401
8.66690,64235
8.67502,59875
8.68315,64028
8.69127,61927
8.69938,63083
8.70752,64383
8.71563,61297
8.72377,62352
8.73188,60352
8.74000,68377
8.74813,63599
8.75625,69326
8.76437,82933
8.77250,147414
8.78062,334391
8.78875,758878
8.79687,1502676
8.80498,2232949
8.81312,2609827
8.82123,2428243
8.82937,1911649
8.83748,1432757
8.84560,1130720
8.85373,915988
8.86185,763165
8.86998,649805
8.87810,557787
8.88622,488978
8.89435,433429
8.90247,398387
8.91058,363501
8.91872,338046
8.92683,316152
8.93497,309295
8.94308,282406
8.95120,269958
8.95933,265052
8.96745,253050
8.97558,237095
8.98370,230145
8.99182,230603
8.99995,221771
9.00807,218455
9.01618,213321
9.02432,209827
9.03243,197732
9.04057,192825
9.04868,179540
9.05680,181010
9.06493,181801
9.07305,184579
9.08118,170970
9.08930,160361
9.09742,162531
9.10555,161999
9.11367,155410
9.12180,155467
9.12992,155565
9.13803,150880
9.14617,149295
9.15428,146016
9.16240,149650
9.17053,148023
9.17865,148339
9.18678,154719
9.19490,141866
9.20302,143403
9.21115,141311
9.21927,140286
9.22740,136183
9.23552,130789
9.24363,133478
9.25177,123787
9.25988,135264
9.26800,128919
9.27613,122983
9.28425,119257
9.29238,119891
9.30050,115637
9.30862,115862
9.31675,105876
9.32487,112580
9.33300,102906
9.34112,113965
9.34923,117100
9.35737,106242
9.36548,108644
9.37362,100690
9.38173,100862
9.38985,101065
9.39798,96300
9.40610,102415
9.41422,103705
9.42235,99924
9.43047,98105
9.43860,97870
9.44672,94880
9.45483,97826
9.46297,91332
9.47108,101353
9.47922,101044
9.48733,102725
9.49545,91287
9.50358,92371
9.51170,92213
9.51983,98373
9.52795,94680
9.53607,102582
9.54420,104218
9.55232,110429
9.56043,103811
9.56857,102589
9.57668,97640
9.58482,88219
9.59293,102433
9.60105,111657
9.60918,130195
9.61730,128501
9.62543,116145
9.63355,103361
9.64167,87320
9.64980,81458
9.65792,81782
9.66603,77700
9.67417,72017
9.68228,70764
9.69042,70738
9.69853,65950
9.70665,67243
9.71478,68311
9.72290,57826
9.73103,59141
9.73915,62239
9.74727,57132
9.75540,54712
9.76352,61052
9.77165,62624
9.77977,59299
9.78788,59459
9.79602,54341
9.80413,53976
9.81225,60024
9.82038,59045
9.82850,59786
9.83663,60330
9.84475,60619
9.85287,70440
9.86100,68972
9.86912,65663
9.87725,66581
9.88537,62485
9.89348,61388
9.90162,50656
9.90973,54475
9.91787,56359
9.92598,50840
9.93410,56767
9.94223,57222
9.95035,55850
9.95847,65582
9.96660,62689
9.97472,67851
9.98285,70669
9.99097,77314
9.99908,77637
10.00722,86668
10.01533,91516
10.02347,111086
10.03158,121728
10.03970,123833
10.04783,120288
10.05595,114115
10.06407,105295
10.07220,96101
10.08032,91323
10.08845,83593
10.09657,81216
10.10468,69250
10.11282,74577
10.12093,74662
10.12907,70636
10.13718,69256
10.14530,67620
10.15343,66071
10.16155,63070
10.16968,58300
10.17780,67172
10.18592,67123
10.19405,62880
10.20217,61981
10.21028,60850
10.21842,62784
10.22653,64994
10.23467,78477
10.24278,83457
10.25090,89894
10.25903,95931
10.26715,91360
10.27528,83127
10.28340,80725
10.29152,76987
10.29965,72653
10.30777,72312
10.31590,76515
10.32402,68444
10.33213,70598
10.34027,71104
10.34838,64942
10.35650,63390
10.36463,65508
10.37275,60293
10.38088,58996
10.38900,64595
10.39712,58603
10.40525,58222
10.41337,61186
10.42150,61144
10.42962,65860
10.43773,66809
10.44587,57783
10.45398,57915
10.46210,57359
10.47023,56109
10.47835,56333
10.48648,58880
10.49460,59654
10.50272,60348
10.51085,60046
10.51897,57598
10.52710,59398
10.53522,62910
10.54333,60356
10.55147,58184
10.55958,62905
10.56772,57225
10.57583,58287
10.58395,57042
10.59208,62547
10.60020,57355
10.60832,52778
10.61645,55203
10.62457,53550
10.63270,62512
10.64082,55559
10.64893,56296
10.65707,56523
10.66518,56818
10.67332,57988
10.68143,55747
10.68955,59129
10.69768,60947
10.70580,58943
10.71392,59613
10.72205,66151
10.73017,60995
10.73830,60315
10.74642,59552
10.75453,61851
10.76267,65807
10.77078,65554
10.77892,67422
10.78703,68571
10.79515,66257
10.80328,61410
10.81140,61837
10.81953,55965
10.82765,56339
10.83577,59473
10.84390,54057
10.85202,52833
10.86013,54507
10.86827,52316
10.87638,54370
10.88452,54201
10.89263,56154
10.90075,59005
10.90888,56466
10.91700,58348
10.92513,57618
10.93325,60262
10.94137,54540
10.94950,60549
10.95762,57746
10.96575,61543
10.97387,57121
10.98198,59707
10.99012,58321
10.99823,60609
11.00635,55410
11.01448,61253
11.02260,59464
11.03073,52346
11.03885,49798
11.04697,55628
11.05510,55778
11.06322,54284
11.07135,53834
11.07947,50825
11.08758,53568
11.09572,53318
11.10383,48775
11.11195,51388
11.12008,49821
11.12820,55547
11.13633,54474
11.14445,50751
11.15257,52639
11.16070,54100
11.16882,55208
11.17695,66382
11.18507,83593
11.19318,92321
11.20132,113724
11.20943,122968
11.21757,125046
11.22568,119788
11.23380,105161
11.24193,92807
11.25005,84847
11.25817,71504
11.26630,68828
11.27442,62275
11.28255,58441
11.29067,64414
11.29878,57717
11.30692,60198
11.31503,60624
11.32317,59706
11.33128,65185
11.33940,65429
11.34753,57186
11.35565,61267
11.36378,56336
11.37190,58486
11.38002,55977
11.38815,58801
11.39627,59308
11.40438,57799
11.41252,53281
11.42063,49084
11.42877,55704
11.43688,51805
11.44500,53396
11.45313,52759
11.46125,54391
11.46938,53490
11.47750,55155
11.48562,51683
11.49375,50447
11.50187,55897
11.50998,53383
11.51812,52163
11.52623,53113
11.53437,53475
11.54248,48026
11.55060,53081
11.55873,52108
11.56685,54122
11.57498,51135
11.58310,50107
11.59122,55084
11.59935,51428
11.60747,50362
11.61560,48287
11.62372,48523
11.63183,53735
11.63997,48663
11.64808,56947
11.65620,46842
11.66433,51891
11.67245,50300
11.68058,50862
11.68870,47430
11.69682,51783
11.70495,60542
11.71307,59517
11.72120,66185
11.72932,58913
11.73743,65988
11.74557,61071
11.75368,67776
11.76180,60141
11.76993,63123
11.77805,65735
11.78618,67878
11.79430,65894
11.80242,62419
11.81055,61623
11.81867,58060
11.82680,59699
11.83492,60469
11.84303,60780
11.85117,60272
11.85928,61608
11.86742,58428
11.87553,60141
11.88365,61994
11.89178,63796
11.89990,58675
11.90802,53415
11.91615,55278
11.92427,57668
11.93240,53670
11.94052,57339
11.94863,51243
11.95677,56571
11.96488,57141
11.97302,57139
11.98113,53104
11.98925,55941
11.99738,52152
12.00550,52551
12.01363,54827
12.02175,56626
12.02987,54764
12.03800,56175
12.04612,55097
12.05423,54196
12.06237,53526
12.07048,56718
12.07862,58403
12.08673,54028
12.09485,55239
12.10298,55789
12.11110,52814
12.11923,55992
12.12735,56362
12.13547,54253
12.14360,55511
12.15172,60326
12.15983,56307
12.16797,60686
12.17608,59416
12.18422,52517
12.19233,55408
12.20045,55490
12.20858,55958
12.21670,57483
12.22483,63706
12.23295,55627
12.24107,61758
12.24920,61457
12.25732,52917
12.26545,59905
12.27357,56856
12.28168,57350
12.28982,56397
12.29793,56953
12.30605,60789
12.31418,56658
12.32230,60041
12.33043,55118
12.33855,52656
12.34667,56241
12.35480,55423
12.36292,54888
12.37105,53992
12.37917,56486
12.38728,55289
12.39542,55400
12.40353,59394
12.41167,56034
12.41978,63222
12.42790,56065
12.43603,59062
12.44415,69081
12.45227,69680
12.46040,70937
12.46852,78752
12.47665,74160
12.48477,70757
12.49288,68611
12.50102,65305
12.50913,60945
12.51727,62261
12.52538,57437
12.53350,62030
12.54163,57586
12.54975,56039
12.55787,56374
12.56600,57487
12.57412,55625
12.58225,59000
12.59037,57975
12.59848,55023
12.60662,54343
12.61473,58104
12.62287,58207
12.63098,62525
12.63910,59367
12.64723,54236
12.65535,57594
12.66348,50075
12.67160,57930
12.67972,56766
12.68785,55816
12.69597,56088
12.70408,58410
12.71222,62274
12.72033,67755
12.72847,84422
12.73658,102824
12.74470,122070
12.75283,140025
12.76095,148620
12.76908,137690
12.77720,117910
12.78532,98599
12.79345,95995
12.80157,82165
12.80970,80152
12.81782,73889
12.82593,68695
12.83407,71956
12.84218,66491
12.85030,66822
12.85843,63465
12.86655,67657
12.87468,67013
12.88280,68924
12.89092,62524
12.89905,62171
12.90717,61930
12.91530,63335
12.92342,64703
12.93153,67782
12.93967,61930
12.94778,62436
12.95590,64958
12.96403,61245
12.97215,63078
12.98028,62779
12.98840,69004
12.99652,62429
13.00465,64653
13.01277,64026
13.02090,61440
13.02902,64298
13.03713,61511
13.04527,60692
13.05338,62832
13.06152,59809
13.06963,60289
13.07775,58833
13.08588,61505
13.09400,59359
13.10212,62400
13.11025,62112
13.11837,58236
13.12650,61975
13.13462,68556
13.14273,61492
13.15087,59535
13.15898,61196
13.16712,60571
13.17523,61308
13.18335,62110
13.19148,65142
13.19960,74216
13.20773,78574
13.21585,87314
13.22397,93341
13.23210,90386
13.24022,82862
13.24833,81076
13.25647,71687
13.26458,65273
13.27272,65229
13.28083,62565
13.28895,64854
13.29708,60334
13.30520,62852
13.31333,62851
13.32145,58739
13.32957,62047
13.33770,63809
13.34582,61613
13.35393,65645
13.36207,62899
13.37018,59617
13.37832,57495
13.38643,59374
13.39455,63722
13.40268,58529
13.41080,60755
13.41893,54947
13.42705,61334
13.43517,59293
13.44330,60812
13.45142,55842
13.45955,62925
13.46767,59532
13.47578,59865
13.48392,59979
13.49203,59807
13.50015,60374
13.50828,57247
13.51640,60895
13.52453,51677
13.53265,58638
13.54077,60236
13.54890,61071
13.55702,62861
13.56515,61669
13.57327,59814
13.58138,60103
13.58952,58507
13.59763,64186
13.60575,57633
13.61388,60684
13.62200,55910
13.63013,58922
13.63825,52621
13.64637,64003
13.65450,60984
13.66262,57429
13.67075,53065
13.67887,59403
13.68698,55564
13.69512,51551
13.70323,56922
13.71137,54719
13.71948,57355
13.72760,53756
13.73573,55511
13.74385,54637
13.75197,54077
13.76010,54938
13.76822,59980
13.77635,62146
13.78447,62712
13.79258,61801
13.80072,65413
13.80883,61899
13.81697,65316
13.82508,63582
13.83320,63549
13.84133,62967
13.84945,64364
13.85758,62648
13.86570,63177
13.87382,67876
13.88195,65538
13.89007,67312
13.89818,64880
13.90632,62836
13.91443,69887
13.92257,69274
13.93068,71983
13.93880,78642
13.94693,76674
13.95505,76323
13.96318,72348
13.97130,67528
13.97942,68819
13.98755,70641
13.99567,66420
14.00378,69420
14.01192,69639
14.02003,62994
14.02817,64242
14.03628,62168
14.04440,65299
14.05253,71484
14.06065,66749
14.06878,69276
14.07690,72486
14.08502,72935
14.09315,73933
14.10127,78673
14.10940,72926
14.11752,68830
14.12563,63310
14.13377,63948
14.14188,65610
14.15000,64465
14.15813,63995
14.16625,65667
14.17438,67524
14.18250,80692
14.19062,121268
14.19875,208137
14.20687,381103
14.21500,594353
14.22312,821359
14.23123,922257
14.23937,858816
14.24748,672303
14.25562,514748
14.26373,401395
14.27185,336027
14.27998,286653
14.28810,247415
14.29622,211651
14.30435,195580
14.31247,184865
14.32060,162642
14.32872,153234
14.33683,143634
14.34497,136694
14.35308,130852
14.36122,115474
14.36933,102908
14.37745,96797
14.38558,83736
14.39370,75818
14.40182,68151
14.40995,64085
14.41807,64187
14.42620,64247
14.43432,67616
14.44243,63660
14.45057,62651
14.45868,62048
14.46682,62518
14.47493,60077
14.48305,59659
14.49118,56846
14.49930,60354
14.50743,61663
14.51555,54690
14.52367,56764
14.53180,55228
14.53992,56543
14.54803,58255
14.55617,55059
14.56428,52428
14.57242,55269
14.58053,58937
14.58865,54922
14.59678,61311
14.60490,56933
14.61303,56302
14.62115,57108
14.62927,51130
14.63740,51854
14.64552,53864
14.65363,50366
14.66177,47745
14.66988,49699
14.67802,50316
14.68613,53185
14.69425,50619
14.70238,52017
14.71050,50564
14.71863,46443
14.72675,50723
14.73487,52123
14.74300,56995
14.75112,50605
14.75925,51951
14.76737,50920
14.77548,49813
14.78362,46584
14.79173,46509
14.79985,54603
14.80798,50865
14.81610,48069
14.82423,48211
14.83235,56989
14.84047,55498
14.84860,58854
14.85672,58968
14.86485,61063
14.87297,60741
14.88108,60249
14.88922,59201
14.89733,65649
14.90547,61333
14.91358,62154
14.92170,59795
14.92983,63282
14.93795,62034
14.94607,58394
14.95420,56556
14.96232,53735
14.97045,53357
14.97857,53107
14.98668,58771
14.99482,53416
15.00293,52774
15.01107,51029
15.01918,53549
15.02730,55571
15.03543,55950
15.04355,53920
15.05167,59351
15.05980,58041
15.06792,55459
15.07605,50691
15.08417,53820
15.09228,50665
15.10042,48445
15.10853,53986
15.11667,51586
15.12478,55917
15.13290,52326
15.14103,54480
15.14915,53498
15.15728,49245
15.16540,52180
15.17352,51748
15.18165,50772
15.18977,49895
15.19788,51394
15.20602,53395
15.21413,48472
15.22227,54460
15.23038,55451
15.23850,53935
15.24663,50380
15.25475,51238
15.26288,52536
15.27100,46595
15.27912,50117
15.28725,49345
15.29537,51169
15.30350,51842
15.31162,44984
15.31973,45158
15.32787,52456
15.33598,47941
15.34410,47501
15.35223,47126
15.36035,43466
15.36848,44290
15.37660,53047
15.38472,49257
15.39285,48388
15.40097,45804
15.40910,46431
15.41722,50912
15.42533,46457
15.43347,47664
15.44158,48222
15.44970,44974
15.45783,50620
15.46595,48121
15.47408,48671
15.48220,50126
15.49032,47840
15.49845,48863
15.50657,52431
15.51470,56204
15.52282,58392
15.53093,54058
15.53907,54320
15.54718,52244
15.55532,49801
15.56343,47906
15.57155,48102
15.57968,44975
15.58780,49311
15.59592,44485
15.60405,44044
15.61217,46399
15.62030,50512
15.62842,47216
15.63653,44596
15.64467,48969
15.65278,47083
15.66092,50590
15.66903,51156
15.67715,50409
15.68528,48433
15.69340,45064
15.70153,53431
15.70965,49057
15.71777,44074
15.72590,46088
15.73402,48609
15.74213,49017
15.75027,47095
15.75838,51293
15.76652,47894
15.77463,45424
15.78275,53088
15.79088,45870
15.79900,50488
15.80713,50426
15.81525,45905
15.82337,46410
15.83150,44393
15.83962,52382
15.84773,44585
15.85587,45874
15.86398,47884
15.87212,49209
15.88023,48141
15.88835,48074
15.89648,45937
15.90460,45068
15.91273,43873
15.92085,44630
15.92897,46277
15.93710,46550
15.94522,51323
15.95335,51802
15.96147,45937
15.96958,51088
15.97772,48318
15.98583,46606
15.99395,53300
16.00208,62309
16.01020,81239
16.01833,115296
16.02645,163703
16.03457,226651
16.04270,266113
16.05082,264199
16.05895,247410
16.06707,198099
16.07518,156148
16.08332,128943
16.09143,102315
16.09955,89499
16.10768,85490
16.11580,81618
16.12393,79810
16.13205,73217
16.14017,68515
16.14830,65610
16.15642,62584
16.16455,64059
16.17267,61599
16.18078,61794
16.18892,62211
16.19703,58797
16.20517,55546
16.21328,58915
16.22140,55070
16.22953,57748
16.23765,56765
16.24577,54412
16.25390,61108
16.26202,59124
16.27015,57796
16.27827,58034
16.28638,60839
16.29452,58326
16.30263,52853
16.31077,56254
16.31888,57505
16.32700,53218
16.33513,53800
16.34325,55233
16.35138,51251
16.35950,56406
16.36762,52633
16.37575,57334
16.38387,54675
16.39198,52336
16.40012,50162
16.40823,50391
16.41637,48712
16.42448,52050
16.43260,53322
16.44073,49995
16.44885,56735
16.45698,52081
16.46510,52825
16.47322,53576
16.48135,47430
16.48947,51993
16.49758,49444
16.50572,48954
16.51383,49302
16.52197,48444
16.53008,45463
16.53820,47485
16.54633,47808
16.55445,44298
16.56258,46755
16.57070,45462
16.57882,47200
16.58695,45320
16.59507,46297
16.60320,46733
16.61132,41462
16.61943,48030
16.62757,44405
16.63568,46101
16.64380,47481
16.65193,44969
16.66005,48936
16.66818,46596
16.67630,49098
16.68442,44861
16.69255,41070
16.70067,40444
16.70880,45086
16.71692,38146
16.72503,43030
16.73317,39198
16.74128,41101
16.74942,40105
16.75753,42351
16.76565,44716
16.77378,41541
16.78190,42937
16.79002,42904
16.79815,39068
16.80627,42349
16.81440,37335
16.82252,39908
16.83063,41304
16.83877,41733
16.84688,42220
16.85502,39708
16.86313,38620
16.87125,42851
16.87938,40850
16.88750,38140
16.89562,40830
16.90375,38266
16.91187,39726
16.92000,41099
16.92812,42901
16.93623,44327
16.94437,38107
16.95248,46138
16.96062,40218
16.96873,42808
16.97685,41497
16.98498,36695
16.99310,38074
17.00123,41636
17.00935,38778
17.01747,36915
17.02560,41604
17.03372,49062
17.04183,40802
17.04997,43769
17.05808,39552
17.06622,40407
17.07433,36062
17.08245,44014
17.09058,42127
17.09870,42452
17.10683,39406
17.11495,43920
17.12307,44796
17.13120,45395
17.13932,39213
17.14743,42722
17.15557,42414
17.16368,40620
17.17182,37950
17.17993,37895
17.18805,39273
17.19618,39526
17.20430,37452
17.21243,38701
17.22055,38411
17.22867,40030
17.23680,39637
17.24492,36777
17.25305,38194
17.26117,40007
17.26928,40784
17.27742,36696
17.28553,39979
17.29365,40299
17.30178,41864
17.30990,40600
17.31803,40589
17.32615,38670
17.33427,38975
17.34240,43698
17.35052,41523
17.35865,46141
17.36677,48642
17.37488,55252
17.38302,56466
17.39113,58756
17.39927,56026
17.40738,60364
17.41550,53165
17.42363,50793
17.43175,51805
17.43987,48324
17.44800,46336
17.45612,43512
17.46425,43462
17.47237,49644
17.48048,45756
17.48862,47183
17.49673,46210
17.50487,49882
17.51298,51420
17.52110,52472
17.52923,52230
17.53735,52029
17.54548,49568
17.55360,58559
17.56172,49337
17.56985,46942
17.57797,54116
17.58608,49097
17.59422,48147
17.60233,49050
17.61047,42450
17.61858,45087
17.62670,44710
17.63483,43675
17.64295,44290
17.65108,46153
17.65920,44386
17.66732,49614
17.67545,54899
17.68357,52794
17.69168,54438
17.69982,52671
17.70793,53920
17.71607,53517
17.72418,55992
17.73230,57629
17.74043,55168
17.74855,55850
17.75668,56666
17.76480,50769
17.77292,48160
17.78105,49731
17.78917,45110
17.79730,45700
17.80542,49546
17.81353,46021
17.82167,42407
17.82978,47812
17.83790,47395
17.84603,51768
17.85415,53244
17.86228,57157
17.87040,52845
17.87852,52826
17.88665,44505
17.89477,43385
17.90290,42778
17.91102,41706
17.91913,39346
17.92727,37509
17.93538,41757
17.94350,41030
17.95163,38426
17.95975,40431
17.96788,41843
17.97600,43992
17.98412,37693
17.99225,36527
18.00037,36397
18.00850,37592
18.01662,42042
18.02473,38337
18.03287,41120
18.04098,44237
18.04912,41344
18.05723,37637
18.06535,40052
18.07348,45130
18.08160,44724
18.08972,53736
18.09785,55571
18.10597,62764
18.11410,60783
18.12222,60049
18.13033,56581
18.13847,55809
18.14658,52375
18.15472,54717
18.16283,52756
18.17095,52857
18.17908,54794
18.18720,58544
18.19533,50332
18.20345,49917
18.21157,50446
18.21970,52564
18.22782,49317
18.23593,50796
18.24407,53230
18.25218,52961
18.26032,54717
18.26843,58162
18.27655,59729
18.28468,60791
18.29280,60403
18.30093,54808
18.30905,46805
18.31717,49934
18.32530,45360
18.33342,43230
18.34153,42199
18.34967,43406
18.35778,42360
18.36592,43227
18.37403,41741
18.38215,43210
18.39028,41618
18.39840,40874
18.40653,38311
18.41465,38295
18.42277,39826
18.43090,38144
18.43902,37165
18.44715,45368
18.45527,37663
18.46338,41038
18.47152,39346
18.47963,44584
18.48775,40884
18.49588,40841
18.50400,40710
18.51213,38679
18.52025,39307
18.52837,38618
18.53650,38001
18.54462,41236
18.55275,36220
18.56087,40544
18.56898,37640
18.57712,37354
18.58523,39711
18.59337,37462
18.60148,38660
18.60960,41345
18.61773,42261
18.62585,41540
18.63397,44270
18.64210,44096
18.65022,38554
18.65835,38028
18.66647,42355
18.67458,41248
18.68272,38643
18.69083,40348
18.69897,36140
18.70708,36396
18.71520,37582
18.72333,40304
18.73145,40734
18.73957,39789
18.74770,36886
18.75582,37370
18.76395,36362
18.77207,39898
18.78018,36270
18.78832,33209
18.79643,38175
18.80457,34349
18.81268,34769
18.82080,37770
18.82893,37745
18.83705,33790
18.84518,34883
18.85330,37262
18.86142,40519
18.86955,33801
18.87767,42515
18.88578,37240
18.89392,37404
18.90203,37718
18.91017,38434
18.91828,34129
18.92640,37017
18.93453,37057
18.94265,36061
18.95078,36367
18.95890,34048
18.96702,37592
18.97515,38767
18.98327,38482
18.99138,36507
18.99952,34228
19.00763,36541
19.01577,36092
19.02388,39746
19.03200,35818
19.04013,35689
19.04825,36844
19.05638,39774
19.06450,36631
19.07262,33404
19.08075,41069
19.08887,44387
19.09700,41709
19.10512,52173
19.11323,56976
19.12137,59195
19.12948,67148
19.13760,74749
19.14573,92509
19.15385,97032
19.16198,102372
19.17010,101648
19.17822,105508
19.18635,106538
19.19447,108223
19.20260,113230
19.21072,112701
19.21883,110050
19.22697,109193
19.23508,107190
19.24322,107804
19.25133,118428
19.25945,121617
19.26758,128148
19.27570,145247
19.28382,172137
19.29195,222052
19.30007,258346
19.30820,301460
19.31632,303891
19.32443,277733
19.33257,232282
19.34068,203026
19.34882,182643
19.35693,162942
19.36505,151436
19.37318,147178
19.38130,144621
19.38942,135059
19.39755,141323
19.40567,132713
19.41380,126203
19.42192,129088
19.43003,125273
19.43817,128115
19.44628,117475
19.45442,126313
19.46253,122937
19.47065,131791
19.47878,155239
19.48690,170486
19.49503,219754
19.50315,315251
19.51127,453141
19.51940,607700
19.52752,750913
19.53563,743240
19.54377,620254
19.55188,449541
19.56002,310427
19.56813,215815
19.57625,169645
19.58438,142404
19.59250,132148
19.60063,121593
19.60875,125804
19.61687,120573
19.62500,129372
19.63312,156068
19.64125,228025
19.64937,411402
19.65748,726323
19.66562,1242173
19.67373,1870726
19.68185,2393825
19.68998,2534503
19.69810,2203592
19.70623,1648257
19.71435,1142826
19.72247,738304
19.73060,520979
19.73872,384289
19.74685,317665
19.75497,263621
19.76308,226703
19.77122,197614
19.77933,178621
19.78745,165827
19.79558,150737
19.80370,148922
19.81183,142769
19.81995,140236
19.82807,134973
19.83620,131113
19.84432,122523
19.85245,122623
19.86057,119163
19.86868,125557
19.87682,126613
19.88493,144089
19.89307,173514
19.90118,209998
19.90930,269584
19.91743,321369
19.92555,358644
19.93367,404881
19.94180,395024
19.94992,378516
19.95805,368033
19.96617,359275
19.97428,357889
19.98242,330248
19.99053,314189
19.99867,308440
20.00678,302957
20.01490,291891
20.02303,286320
20.03115,263517
20.03927,262392
20.04740,242999
20.05552,216727
20.06365,190325
20.07177,168309
20.07988,155672
20.08802,124762
20.09613,124122
20.10427,123572
20.11238,118252
20.12050,120359
20.12863,116441
20.13675,121109
20.14488,115277
20.15300,107588
20.16112,111324
20.16925,109262
20.17737,101239
20.18548,108261
20.19362,105064
20.20173,103478
20.20987,99138
20.21798,100055
20.22610,96583
20.23423,101500
20.24235,115706
20.25048,152354
20.25860,219269
20.26672,372897
20.27485,605250
20.28297,935943
20.29110,1269127
20.29922,1392342
20.30733,1307358
20.31547,1072385
20.32358,794596
20.33170,536874
20.33983,362060
20.34795,268842
20.35608,216764
20.36420,168887
20.37232,149480
20.38045,138842
20.38857,128515
20.39670,119549
20.40482,119085
20.41293,123389
20.42107,145725
20.42918,177707
20.43730,234650
20.44543,310641
20.45355,360211
20.46168,389233
20.46980,380742
20.47792,329744
20.48605,274535
20.49417,211686
20.50230,165761
20.51042,145395
20.51853,117222
20.52667,104700
20.53478,98609
20.54292,96966
20.55103,99634
20.55915,96627
20.56728,95530
20.57540,85057
20.58352,85345
20.59165,79440
20.59977,79803
20.60790,78552
20.61602,85209
20.62413,83022
20.63227,77616
20.64038,83804
20.64852,79856
20.65663,70658
20.66475,70018
20.67288,72944
20.68100,75726
20.68913,76986
20.69725,73887
20.70537,73434
20.71350,75614
20.72162,68151
20.72973,72321
20.73787,69103
20.74598,65399
20.75412,70439
20.76223,68953
20.77035,63444
20.77848,62764
20.78660,67203
20.79473,67160
20.80285,67611
20.81097,67283
20.81910,72057
20.82722,67826
20.83533,61629
20.84347,63368
20.85158,63733
20.85972,63797
20.86783,61958
20.87595,62561
20.88408,61249
20.89220,60045
20.90033,63127
20.90845,56807
20.91657,59608
20.92470,59840
20.93282,59477
20.94095,57081
20.94907,66342
20.95718,59417
20.96532,62890
20.97343,62488
20.98155,64154
20.98968,63314
20.99780,60785
21.00593,64211
21.01405,63128
21.02217,55452
21.03030,64223
21.03842,54240
21.04655,66196
21.05467,64566
21.06278,54929
21.07092,59114
21.07903,55842
21.08717,67509
21.09528,60842
21.10340,55054
21.11153,59261
21.11965,61005
21.12777,56691
21.13590,59165
21.14402,58866
21.15215,57481
21.16027,62023
21.16838,60916
21.17652,64680
21.18463,69044
21.19277,63045
21.20088,62573
21.20900,67932
21.21713,66312
21.22525,61050
21.23337,57588
21.24150,65302
21.24962,62759
21.25775,65525
21.26587,66506
21.27398,65682
21.28212,63056
21.29023,65278
21.29837,62043
21.30648,62808
21.31460,62870
21.32273,61906
21.33085,64124
21.33898,62311
21.34710,63046
21.35522,62290
21.36335,66291
21.37147,53606
21.37958,58773
21.38772,60857
21.39583,55671
21.40397,58636
21.41208,58055
21.42020,61263
21.42833,61689
21.43645,61125
21.44458,62482
21.45270,67363
21.46082,62120
21.46895,63054
21.47707,59192
21.48518,62260
21.49332,59230
21.50143,59041
21.50957,60930
21.51768,50576
21.52580,52982
21.53393,60257
21.54205,56431
21.55018,53019
21.55830,58353
21.56642,58540
21.57455,58326
21.58267,57073
21.59080,53367
21.59892,57195
21.60703,61688
21.61517,73368
21.62328,87511
21.63140,129623
21.63953,185214
21.64765,240483
21.65578,270128
21.66390,290472
21.67202,257210
21.68015,225712
21.68827,166247
21.69640,122229
21.70452,93092
21.71263,90459
21.72077,79072
21.72888,69540
21.73702,68390
21.74513,69119
21.75325,64837
21.76138,68688
21.76950,71098
21.77762,67052
21.78575,64222
21.79387,67520
21.80200,66354
21.81012,71485
21.81823,86686
21.82637,116425
21.83448,154009
21.84262,203294
21.85073,233070
21.85885,257202
21.86698,230251
21.87510,192390
21.88322,147676
21.89135,115480
21.89947,86045
21.90760,74212
21.91572,70412
21.92383,68225
21.93197,59781
21.94008,62910
21.94822,67470
21.95633,64227
21.96445,63492
21.97258,58961
21.98070,66567
21.98883,60782
21.99695,55124
22.00507,51684
22.01320,55530
22.02132,55157
22.02943,55819
22.03757,53097
22.04568,51209
22.05382,50573
22.06193,52635
22.07005,48371
22.07818,53379
22.08630,56046
22.09443,53238
22.10255,54099
22.11067,52437
22.11880,54816
22.12692,53956
22.13505,52175
22.14317,54837
22.15128,54157
22.15942,53468
22.16753,53356
22.17565,64056
22.18378,56425
22.19190,64574
22.20003,57792
22.20815,57574
22.21627,68604
22.22440,71669
22.23252,80643
22.24065,90534
22.24877,92151
22.25688,91434
22.26502,78964
22.27313,61782
22.28125,56747
22.28938,54902
22.29750,50118
22.30563,50196
22.31375,50081
22.32187,55378
22.33000,49881
22.33812,52655
22.34625,53633
22.35437,50079
22.36248,52734
22.37062,50725
22.37873,48761
22.38687,52605
22.39498,42619
22.40310,42242
22.41123,45170
22.41935,44204
22.42747,46685
22.43560,54132
22.44372,66647
22.45185,76287
22.45997,94378
22.46808,107092
22.47622,109123
22.48433,97959
22.49247,88192
22.50058,82106
22.50870,68886
22.51683,63898
22.52495,55683
22.53307,52829
22.54120,50819
22.54932,50383
22.55745,48153
22.56557,47551
22.57368,46243
22.58182,52246
22.58993,48609
22.59807,53958
22.60618,49333
22.61430,44677
22.62243,47125
22.63055,45076
22.63868,42792
22.64680,40960
22.65492,43671
22.66305,44383
22.67117,44674
22.67928,45472
22.68742,44623
22.69553,44844
22.70367,44588
22.71178,42416
22.71990,44364
22.72803,41070
22.73615,42368
22.74428,46382
22.75240,45243
22.76052,42257
22.76865,39234
22.77677,39360
22.78490,39061
22.79302,42048
22.80113,42263
22.80927,40509
22.81738,42851
22.82550,41650
22.83363,41764
22.84175,46870
22.84988,45347
22.85800,45748
22.86612,52801
22.87425,50564
22.88237,48133
22.89050,50720
22.89862,51843
22.90673,57219
22.91487,60278
22.92298,68546
22.93112,78586
22.93923,87630
22.94735,96407
22.95548,99411
22.96360,98020
22.97172,106264
22.97985,94956
22.98797,104834
22.99610,96922
23.00422,100250
23.01233,92049
23.02047,86371
23.02858,72746
23.03672,67933
23.04483,65192
23.05295,57160
23.06108,56749
23.06920,56760
23.07732,58133
23.08545,55128
23.09357,58728
23.10170,57197
23.10982,53201
23.11793,55668
23.12607,50373
23.13418,49980
23.14232,47655
23.15043,48063
23.15855,46352
23.16668,46751
23.17480,47902
23.18293,48563
23.19105,48976
23.19917,49382
23.20730,48826
23.21542,48029
23.22353,45796
23.23167,44137
23.23978,42692
23.24792,45036
23.25603,46071
23.26415,45689
23.27228,50016
23.28040,46729
23.28853,49299
23.29665,48526
23.30477,48952
23.31290,49808
23.32102,48386
23.32913,48347
23.33727,45169
23.34538,45355
23.35352,48969
23.36163,47178
23.36975,44860
23.37788,50020
23.38600,47174
23.39413,48637
23.40225,46404
23.41037,45595
23.41850,47222
23.42662,51817
23.43475,49571
23.44287,45842
23.45098,46762
23.45912,45362
23.46723,45730
23.47535,41315
23.48348,42142
23.49160,45138
23.49973,41856
23.50785,48723
23.51597,44003
23.52410,45252
23.53222,46408
23.54035,41257
23.54847,52812
23.55658,50184
23.56472,52014
23.57283,54554
23.58097,50637
23.58908,50190
23.59720,44480
23.60533,45846
23.61345,45474
23.62157,47173
23.62970,42696
23.63782,46832
23.64595,46873
23.65407,49586
23.66218,50913
23.67032,55943
23.67843,62837
23.68657,64036
23.69468,67885
23.70280,68667
23.71093,63999
23.71905,63598
23.72717,59487
23.73530,65390
23.74342,84069
23.75155,167109
23.75967,468547
23.76778,1388165
23.77592,3369466
23.78403,6173990
23.79217,8724777
23.80028,9995068
23.80840,9612330
23.81653,7894136
23.82465,5599038
23.83278,3817279
23.84090,2505347
23.84902,1789550
23.85715,1282598
23.86527,950099
23.87338,781722
23.88152,635547
23.88963,570051
23.89777,498447
23.90588,440012
23.91400,403732
23.92213,364421
23.93025,345681
23.93838,313265
23.94650,303642
23.95462,280300
23.96275,270220
23.97087,252434
23.97900,245142
23.98712,231724
23.99523,217650
24.00337,214927
24.01148,204422
24.01960,199264
24.02773,189952
24.03585,185115
24.04398,183196
24.05210,179810
24.06022,176648
24.06835,165249
24.07647,157794
24.08460,154978
24.09272,143974
24.10083,144551
24.10897,145410
24.11708,144571
24.12520,144553
24.13333,156546
24.14145,169250
24.14958,180880
24.15770,194193
24.16582,196088
24.17395,178500
24.18207,162470
24.19020,152671
24.19832,140828
24.20643,152924
24.21457,156198
24.22268,172976
24.23082,194321
24.23893,207773
24.24705,201381
24.25518,182698
24.26330,161302
24.27142,138466
24.27955,125232
24.28767,122183
24.29580,114227
24.30392,113284
24.31203,114735
24.32017,109408
24.32828,109557
24.33642,109652
24.34453,95999
24.35265,101947
24.36078,98689
24.36890,103499
24.37702,103123
24.38515,121538
24.39327,161016
24.40140,211906
24.40952,287737
24.41763,364525
24.42577,385363
24.43388,349917
24.44202,259424
24.45013,184384
24.45825,133911
24.46638,105565
24.47450,98379
24.48263,94645
24.49075,99278
24.49887,106570
24.50700,119284
24.51512,162223
24.52323,175424
24.53137,192345
24.53948,192911
24.54762,174647
24.55573,145992
24.56385,135724
24.57198,117451
24.58010,100394
24.58823,95928
24.59635,91900
24.60447,98341
24.61260,92957
24.62072,98960
24.62885,90280
24.63697,100625
24.64508,96566
24.65322,98599
24.66133,95292
24.66945,104785
24.67758,101221
24.68570,98139
24.69383,102334
24.70195,93669
24.71007,87979
24.71820,83110
24.72632,82792
24.73445,80062
24.74257,79530
24.75068,72998
24.75882,75957
24.76693,74727
24.77505,73546
24.78318,71023
24.79130,74921
24.79943,69605
24.80755,77678
24.81567,70437
24.82380,70910
24.83192,69336
24.84005,68498
24.84817,71514
24.85628,69551
24.86442,69872
24.87253,72167
24.88067,68676
24.88878,65449
24.89690,70988
24.90503,67608
24.91315,66188
24.92127,64968
24.92940,70127
24.93752,64592
24.94565,68731
24.95377,62627
24.96188,61341
24.97002,59842
24.97813,61786
24.98627,66472
24.99438,62096
25.00250,62856
25.01063,63393
25.01875,58235
25.02688,60542
25.03500,59179
25.04312,63910
25.05125,59410
25.05937,60318
25.06748,62177
25.07562,58461
25.08373,67147
25.09187,66331
25.09998,64609
25.10810,60321
25.11623,61551
25.12435,66757
25.13248,63257
25.14060,67670
25.14872,66444
25.15685,71071
25.16497,72959
25.17308,73128
25.18122,76804
25.18933,74775
25.19747,72425
25.20558,75780
25.21370,74804
25.22183,70957
25.22995,73838
25.23808,69745
25.24620,70043
25.25432,70371
25.26245,71712
25.27057,64856
25.27870,68348
25.28682,66903
25.29493,71248
25.30307,73783
25.31118,77774
25.31930,81071
25.32743,81659
25.33555,86689
25.34368,80414
25.35180,77936
25.35992,73414
25.36805,71332
25.37617,65281
25.38430,59216
25.39242,60951
25.40053,57710
25.40867,54646
25.41678,58664
25.42492,57605
25.43303,57154
25.44115,59635
25.44928,62349
25.45740,64376
25.46552,77559
25.47365,88903
25.48177,106609
25.48990,122157
25.49802,150374
25.50613,152527
25.51427,145419
25.52238,132845
25.53052,110247
25.53863,101312
25.54675,92647
25.55488,82032
25.56300,78703
25.57112,75027
25.57925,81699
25.58737,77780
25.59550,73129
25.60362,71601
25.61173,67533
25.61987,68994
25.62798,65170
25.63612,64850
25.64423,64760
25.65235,63109
25.66048,67499
25.66860,64395
25.67673,68331
25.68485,62050
25.69297,64985
25.70110,65001
25.70922,64869
25.71733,65221
25.72547,67267
25.73358,64634
25.74172,60711
25.74983,66325
25.75795,60493
25.76608,60801
25.77420,59821
25.78233,59341
25.79045,63292
25.79857,66519
25.80670,62569
25.81482,63543
25.82293,65764
25.83107,65716
25.83918,64420
25.84732,58872
25.85543,69485
25.86355,64025
25.87168,59334
25.87980,61645
25.88793,59980
25.89605,62159
25.90417,62182
25.91230,59095
25.92042,58069
25.92855,57766
25.93667,65851
25.94478,57549
25.95292,53245
25.96103,58231
25.96915,57153
25.97728,55880
25.98540,51233
25.99353,48972
26.00165,55653
26.00977,54879
26.01790,53393
26.02602,53431
26.03415,53153
26.04227,56884
26.05038,53073
26.05852,55138
26.06663,53546
26.07477,54822
26.08288,55447
26.09100,58343
26.09913,55303
26.10725,57049
26.11537,58868
26.12350,63840
26.13162,68795
26.13975,76247
26.14787,76273
26.15598,86524
26.16412,80029
26.17223,83276
26.18037,82919
26.18848,73021
26.19660,69607
26.20473,69740
26.21285,64703
26.22097,61587
26.22910,61226
26.23722,59389
26.24535,55995
26.25347,57381
26.26158,59930
26.26972,57110
26.27783,64684
26.28597,68869
26.29408,59792
26.30220,59129
26.31033,60485
26.31845,56933
26.32658,57308
26.33470,54571
26.34282,59357
26.35095,54645
26.35907,55600
26.36718,51621
26.37532,50793
26.38343,57130
26.39157,56307
26.39968,57528
26.40780,51701
26.41593,52625
26.42405,55015
26.43218,58624
26.44030,54585
26.44842,54703
26.45655,52581
26.46467,53111
26.47280,51311
26.48092,50853
26.48903,50485
26.49717,52867
26.50528,58157
26.51340,48239
26.52153,49557
26.52965,47982
26.53778,46585
26.54590,47291
26.55402,50017
26.56215,54423
26.57027,47295
26.57840,54068
26.58652,47915
26.59463,50320
26.60277,48103
26.61088,59579
26.61900,50392
26.62713,54952
26.63525,53101
26.64338,56593
26.65150,57793
26.65962,62603
26.66775,71514
26.67587,82648
26.68400,88469
26.69212,90863
26.70023,83536
26.70837,80845
26.71648,71338
26.72462,62862
26.73273,62362
26.74085,61181
26.74898,57820
26.75710,60677
26.76522,62217
26.77335,64210
26.78147,59847
26.78960,59882
26.79772,56416
26.80583,62675
26.81397,69058
26.82208,61944
26.83022,69375
26.83833,70998
26.84645,71569
26.85458,79757
26.86270,82632
26.87082,78208
26.87895,80880
26.88707,89375
26.89520,78807
26.90332,80730
26.91143,81127
26.91957,76578
26.92768,80288
26.93582,89258
26.94393,107694
26.95205,161783
26.96018,360009
26.96830,939005
26.97643,2706353
26.98455,7487221
26.99267,1.64578E+07
27.00080,2.5054E+07
27.00892,2.983909E+07
27.01703,3.11401E+07
27.02517,2.708991E+07
27.03328,2.210434E+07
27.04142,1.667189E+07
27.04953,1.165498E+07
27.05765,8101500
27.06578,5537374
27.07390,3948120
27.08203,2864679
27.09015,2226047
27.09827,1832803
27.10640,1580776
27.11452,1355892
27.12265,1185240
27.13077,1074762
27.13888,952529
27.14702,865409
27.15513,817918
27.16325,756590
27.17138,696094
27.17950,652534
27.18763,607627
27.19575,578026
27.20387,552936
27.21200,509746
27.22012,480388
27.22825,456881
27.23637,447059
27.24448,427459
27.25262,399483
27.26073,398747
27.26885,365563
27.27698,371007
27.28510,343975
27.29323,327138
27.30135,320293
27.30947,317820
27.31760,301915
27.32572,289549
27.33385,291593
27.34197,267850
27.35008,267291
27.35822,271945
27.36633,251780
27.37447,246694
27.38258,242262
27.39070,236655
27.39883,242561
27.40695,234999
27.41507,221774
27.42320,216327
27.43132,211090
27.43945,205681
27.44757,199734
27.45568,200351
27.46382,198398
27.47193,186488
27.48007,183376
27.48818,176889
27.49630,174208
27.50443,179378
27.51255,184616
27.52068,184337
27.52880,189364
27.53692,183137
27.54505,180413
27.55317,188628
27.56128,188726
27.56942,184244
27.57753,167751
27.58567,166313
27.59378,164756
27.60190,154096
27.61003,154033
27.61815,165598
27.62628,174308
27.63440,168792
27.64252,157603
27.65065,163703
27.65877,150915
27.66688,149097
27.67502,138101
27.68313,137303
27.69127,137814
27.69938,136147
27.70750,135505
27.71563,130976
27.72375,128472
27.73188,128071
27.74000,127947
27.74812,127507
27.75625,125848
27.76437,121411
27.77250,120210
27.78062,124789
27.78873,123349
27.79687,122698
27.80498,123598
27.81310,123959
27.82123,116295
27.82935,122248
27.83748,119036
27.84560,122062
27.85372,117929
27.86185,118592
27.86997,106664
27.87810,109369
27.88622,115698
27.89433,110593
27.90247,106976
27.91058,104519
27.91870,106504
27.92683,109974
27.93495,103697
27.94308,93542
27.95120,100636
27.95932,104436
27.96745,97127
27.97557,95336
27.98370,99457
27.99182,96359
27.99993,99741
28.00807,97792
28.01618,94361
28.02432,94580
28.03243,95500
28.04055,95750
28.04868,90264
28.05680,91157
28.06492,96371
28.07305,95389
28.08117,96722
28.08930,90594
28.09742,97433
28.10553,89802
28.11367,89803
28.12178,93627
28.12992,97968
28.13803,96063
28.14615,85180
28.15428,92740
28.16240,91881
28.17053,88297
28.17865,92900
28.18677,92951
28.19490,90969
28.20302,100667
28.21113,107650
28.21927,130171
28.22738,139033
28.23552,147572
28.24363,145665
28.25175,127146
28.25988,121619
28.26800,115175
28.27613,115997
28.28425,146059
28.29237,208406
28.30050,330820
28.30862,562982
28.31675,975465
28.32487,1640013
28.33298,2433618
28.34112,3540823
28.34923,4462237
28.35735,5091052
28.36548,5388964
28.37360,5294787
28.38173,4776755
28.38985,4155217
28.39797,3472055
28.40610,2902418
28.41422,2364744
28.42235,1897661
28.43047,1501123
28.43858,1226711
28.44672,1009652
28.45483,816618
28.46295,712233
28.47108,624089
28.47920,560335
28.48733,500655
28.49545,459308
28.50357,407712
28.51170,385720
28.51982,359913
28.52795,333125
28.53607,316943
28.54418,306428
28.55232,287893
28.56043,288450
28.56857,273949
28.57668,253529
28.58480,250516
28.59293,241457
28.60105,235403
28.60917,218096
28.61730,209397
28.62542,211974
28.63355,213957
28.64167,206508
28.64978,205604
28.65792,205131
28.66603,205226
28.67417,192036
28.68228,191352
28.69040,195834
28.69853,188478
28.70665,172773
28.71477,177153
28.72290,166536
28.73102,171642
28.73915,157084
28.74727,160971
28.75538,168038
28.76352,183792
28.77163,210228
28.77977,243775
28.78788,280071
28.79600,306929
28.80413,296380
28.81225,256230
28.82038,212885
28.82850,174109
28.83662,156188
28.84475,147109
28.85287,148917
28.86098,142454
28.86912,129161
28.87723,131910
28.88537,128182
28.89348,127850
28.90160,130269
28.90973,120398
28.91785,118774
28.92598,127065
28.93410,124083
28.94222,118597
28.95035,123436
28.95847,120337
28.96660,116481
28.97472,125705
28.98283,124392
28.99097,127285
28.99908,121312
29.00720,124174
29.01533,111689
29.02345,114816
29.03158,112990
29.03970,106060
29.04782,111510
29.05595,112091
29.06407,109844
29.07220,108516
29.08032,109338
29.08843,107925
29.09657,116195
29.10468,108948
29.11280,113754
29.12093,107466
29.12905,104902
29.13718,105335
29.14530,103366
29.15342,107068
29.16155,107265
29.16967,108710
29.17780,107164
29.18592,107193
29.19403,103472
29.20217,102411
29.21028,99691
29.21842,103414
29.22653,103926
29.23465,99331
29.24278,97252
29.25090,95525
29.25902,100266
29.26715,100046
29.27527,104299
29.28340,102620
29.29152,102499
29.29963,103750
29.30777,99324
29.31588,101128
29.32402,95780
29.33213,93626
29.34025,98836
29.34838,104955
29.35650,99991
29.36463,99594
29.37275,94453
29.38087,97820
29.38900,94510
29.39712,91505
29.40523,99681
29.41337,95804
29.42148,94147
29.42962,92214
29.43773,93410
29.44585,85154
29.45398,89411
29.46210,86588
29.47023,86158
29.47835,88617
29.48647,89111
29.49460,98517
29.50272,103921
29.51083,112200
29.51897,112046
29.52708,106128
29.53522,102193
29.54333,96206
29.55145,91685
29.55958,89272
29.56770,79086
29.57583,82536
29.58395,75333
29.59207,75032
29.60020,74613
29.60832,77081
29.61645,75728
29.62457,75284
29.63268,77628
29.64082,78760
29.64893,83568
29.65705,80120
29.66518,76810
29.67330,78558
29.68143,74632
29.68955,73615
29.69767,76972
29.70580,77451
29.71392,73878
29.72205,78037
29.73017,74350
29.73828,74805
29.74642,71113
29.75453,76760
29.76265,78299
29.77078,75103
29.77890,75050
29.78703,70756
29.79515,71113
29.80327,73676
29.81140,68577
29.81952,65709
29.82765,66566
29.83577,72603
29.84388,68269
29.85202,66977
29.86013,70132
29.86827,70797
29.87638,74380
29.88450,71567
29.89263,72493
29.90075,82895
29.90887,88188
29.91700,89548
29.92512,98669
29.93325,103766
29.94137,123380
29.94948,157303
29.95762,202228
29.96573,275951
29.97387,369684
29.98198,496384
29.99010,625863
29.99823,762745
30.00635,897584
30.01448,1004494
30.02260,1096922
30.03072,1145022
30.03885,1193334
30.04697,1173036
30.05508,1099107
30.06322,1009484
30.07133,953425
30.07947,818741
30.08758,713555
30.09570,643304
30.10383,568704
30.11195,503770
30.12008,442395
30.12820,383591
30.13632,342304
30.14445,297835
30.15257,286015
30.16068,265257
30.16882,245147
30.17693,222552
30.18507,213974
30.19318,199737
30.20130,177673
30.20943,168662
30.21755,154577
30.22568,161024
30.23380,160945
30.24192,144004
30.25005,141127
30.25817,135939
30.26630,124230
30.27442,123054
30.28253,119516
30.29067,127419
30.29878,109334
30.30690,113286
30.31503,112775
30.32315,113516
30.33128,113818
30.33940,111695
30.34752,110801
30.35565,109599
30.36377,106856
30.37190,99439
30.38002,97292
30.38813,101099
30.39627,95976
30.40438,93139
30.41252,98188
30.42063,93051
30.42875,100557
30.43688,88894
30.44500,92303
30.45312,88534
30.46125,88674
30.46937,86673
30.47750,96092
30.48562,94849
30.49373,88645
30.50187,88319
30.50998,85733
30.51812,80794
30.52623,83401
30.53435,81280
30.54248,84515
30.55060,86434
30.55872,81687
30.56685,78251
30.57497,81770
30.58310,82635
30.59122,71947
30.59933,76094
30.60747,77336
30.61558,80085
30.62372,85285
30.63183,79323
30.63995,76214
30.64808,73359
30.65620,75788
30.66433,75173
30.67245,71733
30.68057,73533
30.68870,76011
30.69682,73368
30.70493,71814
30.71307,72495
30.72118,73633
30.72932,77647
30.73743,77357
30.74555,70483
30.75368,76524
30.76180,77017
30.76993,68156
30.77805,71942
30.78617,72396
30.79430,71225
30.80242,73236
30.81055,77598
30.81867,77867
30.82678,77597
30.83492,85318
30.84303,73332
30.85115,76504
30.85928,73848
30.86740,72468
30.87553,67922
30.88365,69655
30.89177,67975
30.89990,69285
30.90802,66665
30.91615,63585
30.92427,69216
30.93238,65480
30.94052,68424
30.94863,66919
30.95675,67512
30.96488,66285
30.97300,72859
30.98113,75493
30.98925,66770
30.99737,71401
31.00550,68416
31.01362,70207
31.02175,69785
31.02987,74488
31.03798,68761
31.04612,83317
31.05423,72628
31.06237,72323
31.07048,68922
31.07860,67126
31.08673,79272
31.09485,70281
31.10297,81560
31.11110,87124
31.11922,89959
31.12735,96161
31.13547,95177
31.14358,93692
31.15172,97553
31.15983,94970
31.16797,97567
31.17608,109645
31.18420,120725
31.19233,141020
31.20045,180935
31.20857,228214
31.21670,291356
31.22482,360912
31.23295,398327
31.24107,367793
31.24918,327013
31.25732,257539
31.26543,189125
31.27357,147842
31.28168,114464
31.28980,97950
31.29793,86603
31.30605,76107
31.31418,71661
31.32230,71488
31.33042,76275
31.33855,69551
31.34667,70628
31.35478,67464
31.36292,65207
31.37103,61557
31.37917,68494
31.38728,66814
31.39540,67151
31.40353,73015
31.41165,68566
31.41978,71913
31.42790,77686
31.43602,83197
31.44415,89025
31.45227,82729
31.46040,77493
31.46852,75530
31.47663,71223
31.48477,65834
31.49288,67973
31.50100,66951
31.50913,61046
31.51725,62205
31.52538,64071
31.53350,61677
31.54162,66677
31.54975,63620
31.55787,63852
31.56600,62299
31.57412,65122
31.58223,60019
31.59037,63051
31.59848,61768
31.60660,57086
31.61473,59411
31.62285,57957
31.63098,62245
31.63910,64644
31.64722,62291
31.65535,65696
31.66347,69403
31.67160,68327
31.67972,69772
31.68783,64915
31.69597,62380
31.70408,61481
31.71222,62625
31.72033,63087
31.72845,58645
31.73658,60502
31.74470,57429
31.75282,61582
31.76095,57558
31.76907,61502
31.77720,57299
31.78532,61863
31.79343,58325
31.80157,65208
31.80968,68314
31.81782,68147
31.82593,65679
31.83405,66430
31.84218,65467
31.85030,62013
31.85843,65334
31.86655,72448
31.87467,68479
31.88280,66719
31.89092,75099
31.89903,90349
31.90717,109506
31.91528,132144
31.92342,182044
31.93153,232272
31.93965,292983
31.94778,353877
31.95590,415942
31.96403,475184
31.97215,527893
31.98027,534211
31.98840,539443
31.99652,507396
32.00463,474276
32.01277,430224
32.02088,396874
32.02902,358693
32.03713,309910
32.04525,270023
32.05338,244716
32.06150,222402
32.06963,193972
32.07775,189864
32.08587,186249
32.09400,187917
32.10212,181606
32.11025,176371
32.11837,157891
32.12648,144302
32.13462,128504
32.14273,121809
32.15085,112263
32.15898,103277
32.16710,100279
32.17523,96243
32.18335,98403
32.19147,98427
32.19960,94508
32.20772,85082
32.21585,91587
32.22397,92816
32.23208,85631
32.24022,88418
32.24833,75982
32.25645,89372
32.26458,82617
32.27270,82511
32.28083,79183
32.28895,72660
32.29707,78001
32.30520,80361
32.31332,76704
32.32145,76085
32.32957,73200
32.33768,77479
32.34582,77168
32.35393,79034
32.36207,81865
32.37018,78493
32.37830,81075
32.38643,84764
32.39455,81487
32.40267,79343
32.41080,72180
32.41892,70919
32.42705,72718
32.43517,69244
32.44328,71580
32.45142,66286
32.45953,70813
32.46767,68617
32.47578,67777
32.48390,66422
32.49203,70222
32.50015,65215
32.50828,66427
32.51640,63790
32.52452,68615
32.53265,69484
32.54077,65175
32.54888,66608
32.55702,69021
32.56513,70640
32.57327,64015
32.58138,62112
32.58950,61732
32.59763,61848
32.60575,64411
32.61388,62399
32.62200,61584
32.63012,63017
32.63825,61036
32.64637,65340
32.65448,72735
32.66262,87409
32.67073,101774
32.67887,124714
32.68698,140258
32.69510,143403
32.70323,126035
32.71135,112566
32.71948,93306
32.72760,83233
32.73572,70775
32.74385,69197
32.75197,65479
32.76010,67317
32.76822,60289
32.77633,69052
32.78447,62733
32.79258,60518
32.80070,58023
32.80883,60046
32.81695,57783
32.82508,60249
32.83320,59511
32.84132,59794
32.84945,58040
32.85757,60051
32.86570,57240
32.87382,58981
32.88193,56776
32.89007,62650
32.89818,65071
32.90632,54903
32.91443,62161
32.92255,61963
32.93068,59495
32.93880,66502
32.94692,60375
32.95505,63991
32.96317,63545
32.97130,67930
32.97942,61490
32.98753,63745
32.99567,55368
33.00378,61698
33.01192,57366
33.02003,59193
33.02815,57850
33.03628,67620
33.04440,57096
33.05252,53752
33.06065,58485
33.06877,62252
33.07690,55586
33.08502,64581
33.09313,63997
33.10127,62982
33.10938,71215
33.11752,79716
33.12563,95680
33.13375,91936
33.14188,87913
33.15000,76136
33.15813,75090
33.16625,74388
33.17437,66328
33.18250,64518
33.19062,61020
33.19873,58023
33.20687,68673
33.21498,72135
33.22312,70603
33.23123,77077
33.23935,70548
33.24748,64327
33.25560,58686
33.26373,63753
33.27185,61695
33.27997,57041
33.28810,58231
33.29622,57870
33.30433,61156
33.31247,58229
33.32058,60043
33.32872,55480
33.33683,59199
33.34495,58492
33.35308,60004
33.36120,60093
33.36933,53401
33.37745,51199
33.38557,54945
33.39370,61520
33.40182,56144
33.40995,54166
33.41807,54866
33.42618,54514
33.43432,54186
33.44243,56610
33.45055,59034
33.45868,54013
33.46680,55287
33.47493,54777
33.48305,55691
33.49117,61675
33.49930,60092
33.50742,53529
33.51555,57412
33.52367,56236
33.53178,57210
33.53992,56844
33.54803,57366
33.55617,52977
33.56428,57701
33.57240,59014
33.58053,56891
33.58865,56333
33.59677,59771
33.60490,54960
33.61302,57674
33.62115,56579
33.62927,56054
33.63738,56015
33.64552,54130
33.65363,56393
33.66177,55713
33.66988,52810
33.67800,57624
33.68613,58780
33.69425,58531
33.70238,54406
33.71050,53641
33.71862,51587
33.72675,59945
33.73487,53068
33.74298,53051
33.75112,52564
33.75923,54005
33.76737,56120
33.77548,53122
33.78360,61822
33.79173,64303
33.79985,67234
33.80798,69770
33.81610,70425
33.82422,72177
33.83235,63529
33.84047,65634
33.84858,65196
33.85672,71848
33.86483,71651
33.87297,64439
33.88108,64038
33.88920,66186
33.89733,69339
33.90545,61747
33.91358,64245
33.92170,62023
33.92982,62194
33.93795,60546
33.94607,62321
33.95420,55860
33.96232,63144
33.97043,59882
33.97857,62162
33.98668,61482
33.99480,66156
34.00293,51361
34.01105,55987
34.01918,62010
34.02730,56565
34.03542,55452
34.04355,56632
34.05167,58291
34.05980,56747
34.06792,58423
34.07603,58589
34.08417,60524
34.09228,60504
34.10040,61547
34.10853,64695
34.11665,61435
34.12478,58401
34.13290,55703
34.14102,67049
34.14915,61559
34.15727,59291
34.16540,60623
34.17352,57565
34.18163,58607
34.18977,60486
34.19788,60956
34.20602,57623
34.21413,59164
34.22225,54271
34.23038,56082
34.23850,56848
34.24662,62501
34.25475,59165
34.26287,54595
34.27100,53997
34.27912,55920
34.28723,55248
34.29537,58407
34.30348,57222
34.31162,59526
34.31973,54643
34.32785,58613
34.33598,56780
34.34410,57529
34.35223,59331
34.36035,56820
34.36847,57757
34.37660,63503
34.38472,62981
34.39283,55181
34.40097,59854
34.40908,57782
34.41722,54732
34.42533,56489
34.43345,57693
34.44158,57997
34.44970,56480
34.45783,53222
34.46595,53377
34.47407,56772
34.48220,53519
34.49032,60118
34.49843,55836
34.50657,65118
34.51468,75934
34.52282,95118
34.53093,133839
34.53905,183620
34.54718,229310
34.55530,275400
34.56343,311851
34.57155,346915
34.57967,318594
34.58780,300403
34.59592,258639
34.60405,229402
34.61217,195221
34.62028,161468
34.62842,146653
34.63653,134482
34.64465,123687
34.65278,121454
34.66090,108897
34.66903,114041
34.67715,106741
34.68527,101420
34.69340,94964
34.70152,95761
34.70965,95082
34.71777,96372
34.72588,89574
34.73402,95054
34.74213,89575
34.75027,95834
34.75838,86037
34.76650,84356
34.77463,82273
34.78275,83083
34.79087,83569
34.79900,80638
34.80712,75987
34.81525,75257
34.82337,80533
34.83148,77268
34.83962,77194
34.84773,78970
34.85587,75392
34.86398,81449
34.87210,72454
34.88023,73819
34.88835,74180
34.89647,73149
34.90460,67761
34.91272,75228
34.92085,70338
34.92897,68779
34.93708,69492
34.94522,70867
34.95333,73804
34.96147,72567
34.96958,80749
34.97770,82352
34.98583,81625
34.99395,82932
35.00208,81740
35.01020,76060
35.01832,70374
35.02645,70832
35.03457,64229
35.04268,70374
35.05082,66354
35.05893,70694
35.06707,63543
35.07518,68175
35.08330,66517
35.09143,70682
35.09955,66254
35.10768,69620
35.11580,64093
35.12392,69796
35.13205,76245
35.14017,90200
35.14828,93212
35.15642,99380
35.16453,99632
35.17267,113097
35.18078,111428
35.18890,99557
35.19703,87957
35.20515,80240
35.21328,74762
35.22140,75031
35.22952,75565
35.23765,67437
35.24577,68274
35.25390,68268
35.26202,70213
35.27013,66258
35.27827,65194
35.28638,77377
35.29450,76088
35.30263,69273
35.31075,71756
35.31888,73259
35.32700,69656
35.33512,65502
35.34325,62409
35.35137,67715
35.35950,66900
35.36762,64005
35.37573,72229
35.38387,63256
35.39198,61241
35.40012,60538
35.40823,63196
35.41635,64165
35.42448,61177
35.43260,63644
35.44072,62230
35.44885,63683
35.45697,65013
35.46510,62782
35.47322,71473
35.48133,74410
35.48947,67555
35.49758,70535
35.50572,74198
35.51383,68585
35.52195,65408
35.53008,67509
35.53820,65589
35.54632,68692
35.55445,64140
35.56257,63304
35.57070,69254
35.57882,67011
35.58693,71326
35.59507,68898
35.60318,66523
35.61132,72062
35.61943,66039
35.62755,65395
35.63568,67100
35.64380,65794
35.65193,66837
35.66005,68245
35.66817,64542
35.67630,74146
35.68442,83417
35.69253,84023
35.70067,89221
35.70878,91592
35.71692,87399
35.72503,80955
35.73315,78434
35.74128,69041
35.74940,70847
35.75753,65931
35.76565,68395
35.77377,70836
35.78190,65742
35.79002,65760
35.79815,61240
35.80627,68685
35.81438,68072
35.82252,66009
35.83063,67650
35.83875,72253
35.84688,71131
35.85500,71664
35.86313,68945
35.87125,63684
35.87937,66189
35.88750,66062
35.89562,69515
35.90375,68503
35.91187,62176
35.91998,66422
35.92812,60106
35.93623,63386
35.94435,60578
35.95248,62224
35.96060,64661
35.96873,67988
35.97685,66481
35.98497,60975
35.99310,59463
36.00122,62341
36.00935,67718
36.01747,72375
36.02558,76369
36.03372,75895
36.04183,77712
36.04997,75045
36.05808,74500
36.06620,74193
36.07433,71163
36.08245,65184
36.09057,72795
36.09870,74531
36.10682,65170
36.11495,69976
36.12307,71978
36.13118,69954
36.13932,68823
36.14743,71132
36.15557,68696
36.16368,67767
36.17180,78536
36.17993,70301
36.18805,73811
36.19617,74584
36.20430,74217
36.21242,73392
36.22055,69386
36.22867,68744
36.23678,74906
36.24492,74738
36.25303,72848
36.26117,64370
36.26928,65609
36.27740,69816
36.28553,68321
36.29365,75678
36.30178,75274
36.30990,92643
36.31802,110597
36.32615,124698
36.33427,141121
36.34238,143404
36.35052,141746
36.35863,126533
36.36677,109331
36.37488,108750
36.38300,106030
36.39113,105257
36.39925,106431
36.40738,107285
36.41550,100692
36.42362,91298
36.43175,84394
36.43987,76112
36.44800,77262
36.45612,71506
36.46423,71459
36.47237,64433
36.48048,68019
36.48860,63772
36.49673,64928
36.50485,64999
36.51298,64046
36.52110,62644
36.52922,61738
36.53735,68386
36.54547,64521
36.55360,65911
36.56172,66552
36.56983,72311
36.57797,66607
36.58608,64737
36.59420,68671
36.60233,66005
36.61045,64496
36.61858,70671
36.62670,70788
36.63482,71042
36.64295,65716
36.65107,66315
36.65920,67031
36.66732,67593
36.67543,75368
36.68357,76029
36.69168,79258
36.69982,75021
36.70793,74776
36.71605,71548
36.72418,72813
36.73230,71439
36.74042,64607
36.74855,65925
36.75667,66130
36.76480,67239
36.77292,73193
36.78103,65240
36.78917,66648
36.79728,65277
36.80542,64811
36.81353,66979
36.82165,63904
36.82978,66681
36.83790,68582
36.84603,63005
36.85415,62477
36.86227,64647
36.87040,68334
36.87852,65996
36.88663,64743
36.89477,65825
36.90288,63060
36.91102,63345
36.91913,62658
36.92725,66334
36.93538,64569
36.94350,65209
36.95163,65053
36.95975,67169
36.96787,65087
36.97600,65703
36.98412,63890
36.99223,62359
37.00037,63336
37.00848,64791
37.01662,62163
37.02473,68483
37.03285,68050
37.04098,61733
37.04910,62450
37.05723,63324
37.06535,64284
37.07347,69141
37.08160,62114
37.08972,66440
37.09785,67309
37.10597,64476
37.11408,65640
37.12222,71663
37.13033,63461
37.13845,75021
37.14658,68471
37.15470,64938
37.16283,69843
37.17095,67886
37.17907,67559
37.18720,74541
37.19532,73086
37.20345,81546
37.21157,77865
37.21968,76314
37.22782,79861
37.23593,75039
37.24407,78490
37.25218,76354
37.26030,79398
37.26843,77817
37.27655,78740
37.28467,75946
37.29280,76445
37.30092,73510
37.30905,76672
37.31717,76152
37.32528,78275
37.33342,93841
37.34153,113293
37.34967,154564
37.35778,187733
37.36590,212591
37.37403,239970
37.38215,226718
37.39027,210216
37.39840,188827
37.40652,165210
37.41465,148439
37.42277,136114
37.43088,120886
37.43902,116543
37.44713,115306
37.45527,109028
37.46338,107225
37.47150,104876
37.47963,100859
37.48775,103656
