Z:\data\JTB-E02\BACandBLUE\JTB-E02-206-16.D Wed Mar 13 17:00:15 2019
Start of data points
2.09537	62526
2.10348	60822
2.11162	57729
2.11973	57888
2.12785	65927
2.13598	54204
2.14410	54277
2.15223	56507
2.16035	56471
2.16847	52535
2.17660	53789
2.18472	49173
2.19283	48327
2.20097	49563
2.20908	50291
2.21722	52530
2.22533	50652
2.23345	46740
2.24158	52119
2.24970	46647
2.25783	52532
2.26595	145298
2.27407	1335073
2.28220	2640912
2.29032	1391683
2.29845	622147
2.30657	464828
2.31468	397915
2.32282	346549
2.33093	294389
2.33905	280237
2.34718	249904
2.35530	224543
2.36343	208292
2.37155	189542
2.37967	183494
2.38780	174226
2.39592	162576
2.40405	154212
2.41217	168649
2.42028	190424
2.42842	183976
2.43653	160140
2.44465	147848
2.45278	143141
2.46090	140725
2.46903	137480
2.47715	128824
2.48527	129272
2.49340	139255
2.50152	146426
2.50965	123119
2.51777	117060
2.52588	113882
2.53402	109242
2.54213	116153
2.55027	194407
2.55838	770128
2.56650	1370095
2.57463	852420
2.58275	484021
2.59087	373523
2.59900	350521
2.60712	754888
2.61525	1761930
2.62337	1524163
2.63148	862255
2.63962	563205
2.64773	429764
2.65587	350308
2.66398	299102
2.67210	257325
2.68023	225871
2.68835	213297
2.69647	207608
2.70460	189266
2.71272	183547
2.72085	169832
2.72897	167553
2.73708	154976
2.74522	160727
2.75333	163907
2.76147	152848
2.76958	144663
2.77770	149859
2.78583	152430
2.79395	155863
2.80208	147176
2.81020	148759
2.81832	151616
2.82645	157005
2.83457	192764
2.84268	206467
2.85082	170967
2.85893	150337
2.86707	142153
2.87518	133419
2.88330	131852
2.89143	131525
2.89955	125350
2.90768	125796
2.91580	122247
2.92392	122708
2.93205	116538
2.94017	119072
2.94830	115296
2.95642	117671
2.96453	125562
2.97267	125991
2.98078	119430
2.98890	117861
2.99703	128579
3.00515	127938
3.01328	131092
3.02140	127410
3.02952	118461
3.03765	114147
3.04577	107228
3.05390	110915
3.06202	116107
3.07013	127740
3.07827	138587
3.08638	316808
3.09452	900261
3.10263	1997476
3.11075	4127054
3.11888	4710330
3.12700	3263076
3.13512	2157021
3.14325	1667713
3.15137	1330773
3.15950	1076471
3.16762	904225
3.17573	754953
3.18387	649469
3.19198	546250
3.20012	492400
3.20823	436662
3.21635	417175
3.22448	379021
3.23260	331510
3.24072	298343
3.24885	271959
3.25697	262378
3.26510	242662
3.27322	233678
3.28133	229375
3.28947	323545
3.29758	885295
3.30572	2374866
3.31383	3999034
3.32195	4155780
3.33008	3075255
3.33820	2076377
3.34633	1491613
3.35445	1160850
3.36257	942349
3.37070	788100
3.37882	690032
3.38693	606347
3.39507	542022
3.40318	493997
3.41132	477128
3.41943	423704
3.42755	409690
3.43568	365016
3.44380	365888
3.45193	339495
3.46005	338296
3.46817	332433
3.47630	358967
3.48442	353610
3.49253	343863
3.50067	316826
3.50878	292714
3.51692	275720
3.52503	273802
3.53315	264229
3.54128	250161
3.54940	245176
3.55753	240521
3.56565	238369
3.57377	239880
3.58190	237926
3.59002	238133
3.59815	219315
3.60627	218474
3.61438	219388
3.62252	220838
3.63063	240990
3.63875	283299
3.64688	282555
3.65500	251543
3.66313	226165
3.67125	216397
3.67937	226511
3.68750	227756
3.69562	205393
3.70375	207428
3.71187	199454
3.71998	198527
3.72812	186220
3.73623	190016
3.74437	184566
3.75248	186734
3.76060	188813
3.76873	183701
3.77685	183978
3.78497	178518
3.79310	192034
3.80122	356749
3.80935	1188240
3.81747	2797840
3.82558	3512480
3.83372	2681874
3.84183	1745766
3.84997	1279081
3.85808	1053390
3.86620	882735
3.87433	797213
3.88245	705825
3.89057	639820
3.89870	592574
3.90682	534951
3.91495	499175
3.92307	449970
3.93118	438360
3.93932	418072
3.94743	453802
3.95557	748936
3.96368	1460774
3.97180	2077640
3.97993	1922106
3.98805	1315680
3.99618	950001
4.00430	1224111
4.01242	2235211
4.02055	3035630
4.02867	2682513
4.03678	1746328
4.04492	1060485
4.05303	746272
4.06117	603971
4.06928	507282
4.07740	435819
4.08553	403731
4.09365	366229
4.10178	337267
4.10990	312733
4.11802	300955
4.12615	279682
4.13427	281931
4.14240	287109
4.15052	295994
4.15863	312666
4.16677	300656
4.17488	319897
4.18300	332529
4.19113	312963
4.19925	273574
4.20738	297039
4.21550	667984
4.22362	2257879
4.23175	5117612
4.23987	6995286
4.24800	6157092
4.25612	4013776
4.26423	2550578
4.27237	1853040
4.28048	1353157
4.28860	1029675
4.29673	807363
4.30485	666697
4.31298	563750
4.32110	475071
4.32922	428782
4.33735	392620
4.34547	357584
4.35360	322140
4.36172	298053
4.36983	284729
4.37797	275668
4.38608	260187
4.39422	246058
4.40233	237108
4.41045	229607
4.41858	221052
4.42670	214641
4.43482	213071
4.44295	206351
4.45107	195955
4.45920	193555
4.46732	196433
4.47543	188484
4.48357	179447
4.49168	190261
4.49982	188889
4.50793	187232
4.51605	186155
4.52418	171874
4.53230	170259
4.54042	167840
4.54855	173101
4.55667	165899
4.56480	165000
4.57292	169188
4.58103	162337
4.58917	162092
4.59728	160734
4.60542	165667
4.61353	163521
4.62165	153035
4.62978	150120
4.63790	155266
4.64603	152434
4.65415	150726
4.66227	146021
4.67040	141773
4.67852	150008
4.68663	143986
4.69477	145399
4.70288	150403
4.71102	145565
4.71913	143198
4.72725	140103
4.73538	134640
4.74350	137135
4.75163	136781
4.75975	136267
4.76787	131459
4.77600	130692
4.78412	131777
4.79225	133473
4.80037	136239
4.80848	144254
4.81662	150247
4.82473	151169
4.83285	157040
4.84098	175915
4.84910	204941
4.85723	192795
4.86535	170671
4.87347	150719
4.88160	150424
4.88972	137983
4.89785	133562
4.90597	139487
4.91408	130088
4.92222	128241
4.93033	129546
4.93845	140626
4.94658	222477
4.95470	416890
4.96283	703250
4.97095	1000761
4.97907	1079787
4.98720	961880
4.99532	787942
5.00345	617977
5.01157	503366
5.01968	441592
5.02782	390259
5.03593	359654
5.04407	324629
5.05218	300405
5.06030	287328
5.06843	273420
5.07655	268486
5.08467	260964
5.09280	247911
5.10092	235947
5.10905	231471
5.11717	228135
5.12528	223427
5.13342	226546
5.14153	218151
5.14967	206618
5.15778	211591
5.16590	209779
5.17403	212987
5.18215	213587
5.19028	207660
5.19840	204121
5.20652	201900
5.21465	197210
5.22277	199939
5.23088	199515
5.23902	208763
5.24713	218644
5.25527	208713
5.26338	199927
5.27150	177643
5.27963	172667
5.28775	162762
5.29588	172427
5.30400	159338
5.31212	159932
5.32025	163268
5.32837	179776
5.33648	219826
5.34462	254797
5.35273	261854
5.36087	241314
5.36898	199257
5.37710	181948
5.38523	172907
5.39335	164767
5.40148	165160
5.40960	160427
5.41772	163251
5.42585	157278
5.43397	159773
5.44210	151811
5.45022	163009
5.45833	157225
5.46647	156169
5.47458	148336
5.48270	146610
5.49083	150432
5.49895	140352
5.50708	143585
5.51520	152487
5.52332	154529
5.53145	167278
5.53957	156740
5.54770	151184
5.55582	143854
5.56393	141333
5.57207	141467
5.58018	163271
5.58832	209565
5.59643	239398
5.60455	236070
5.61268	213468
5.62080	180612
5.62892	171386
5.63705	172539
5.64517	166716
5.65330	156897
5.66142	144852
5.66953	147370
5.67767	153081
5.68578	170396
5.69392	218686
5.70203	239108
5.71015	221336
5.71828	195578
5.72640	173436
5.73452	154083
5.74265	145995
5.75077	141561
5.75890	137674
5.76702	135887
5.77513	132862
5.78327	125643
5.79138	126300
5.79952	121067
5.80763	127067
5.81575	118731
5.82388	124987
5.83200	122990
5.84013	130433
5.84825	120751
5.85637	124096
5.86450	132209
5.87262	116527
5.88073	122778
5.88887	117153
5.89698	119095
5.90512	118661
5.91323	104544
5.92135	92756
5.92948	91285
5.93760	100493
5.94573	101883
5.95385	120261
5.96197	161338
5.97010	236506
5.97822	360630
5.98633	500247
5.99447	538018
6.00258	487943
6.01072	354614
6.01883	259435
6.02695	201485
6.03508	167427
6.04320	157028
6.05133	151602
6.05945	152617
6.06757	125781
6.07570	129598
6.08382	125519
6.09195	123595
6.10007	112859
6.10818	119251
6.11632	117265
6.12443	117217
6.13255	115600
6.14068	119313
6.14880	117389
6.15693	127485
6.16505	125929
6.17317	135933
6.18130	119840
6.18942	125538
6.19755	127172
6.20567	126837
6.21378	130013
6.22192	132427
6.23003	143104
6.23817	139923
6.24628	140062
6.25440	136355
6.26253	136791
6.27065	142005
6.27877	133784
6.28690	136818
6.29502	144909
6.30315	144345
6.31127	144181
6.31938	149088
6.32752	144829
6.33563	149842
6.34377	154371
6.35188	155034
6.36000	146812
6.36813	155412
6.37625	157765
6.38437	154676
6.39250	156931
6.40062	159343
6.40875	162606
6.41687	162774
6.42498	161324
6.43312	166124
6.44123	165553
6.44937	163411
6.45748	169963
6.46560	171612
6.47373	185591
6.48185	173579
6.48998	174200
6.49810	173690
6.50622	172817
6.51435	180124
6.52247	178258
6.53058	175446
6.53872	181327
6.54683	186916
6.55497	182453
6.56308	182283
6.57120	185563
6.57933	190347
6.58745	189754
6.59558	191991
6.60370	192576
6.61182	193691
6.61995	202472
6.62807	192348
6.63620	218216
6.64432	344792
6.65243	1020572
6.66057	3411097
6.66868	7842479
6.67680	1.195757E+07
6.68493	1.257602E+07
6.69305	9714896
6.70118	6115825
6.70930	3738817
6.71742	2582363
6.72555	1967764
6.73367	1588478
6.74180	1484022
6.74992	1262137
6.75803	1109736
6.76617	955752
6.77428	864584
6.78240	770733
6.79053	713751
6.79865	664979
6.80678	605775
6.81490	567301
6.82302	529147
6.83115	501425
6.83927	462134
6.84740	442132
6.85552	433603
6.86363	413326
6.87177	378467
6.87988	349451
6.88802	318220
6.89613	289424
6.90425	283463
6.91238	265235
6.92050	253596
6.92862	237273
6.93675	232301
6.94487	219848
6.95300	204667
6.96112	208418
6.96923	216112
6.97737	234616
6.98548	253594
6.99362	245160
7.00173	215042
7.00985	179031
7.01798	195433
7.02610	225670
7.03422	254689
7.04235	258032
7.05047	248805
7.05860	251273
7.06672	239496
7.07483	233633
7.08297	227659
7.09108	222268
7.09922	218692
7.10733	217612
7.11545	206315
7.12358	199313
7.13170	196431
7.13983	187803
7.14795	188777
7.15607	183630
7.16420	181411
7.17232	173372
7.18043	174902
7.18857	163773
7.19668	153595
7.20482	164625
7.21293	171080
7.22105	211521
7.22918	311461
7.23730	424296
7.24543	474312
7.25355	435246
7.26167	331171
7.26980	231740
7.27792	193404
7.28605	165227
7.29417	145005
7.30228	134138
7.31042	132448
7.31853	130080
7.32665	130213
7.33478	124805
7.34290	122719
7.35103	117515
7.35915	116955
7.36727	121735
7.37540	118918
7.38352	116610
7.39165	122188
7.39977	121184
7.40788	113721
7.41602	111233
7.42413	111561
7.43225	111544
7.44038	109096
7.44850	108887
7.45663	111509
7.46475	107835
7.47287	107227
7.48100	101469
7.48912	99487
7.49725	99688
7.50537	96583
7.51348	94787
7.52162	94774
7.52973	90012
7.53787	95537
7.54598	92457
7.55410	90983
7.56223	91812
7.57035	85360
7.57847	87543
7.58660	88380
7.59472	89405
7.60285	84885
7.61097	85987
7.61908	83477
7.62722	87412
7.63533	86306
7.64347	85317
7.65158	85237
7.65970	83620
7.66783	85520
7.67595	86015
7.68408	75128
7.69220	78413
7.70032	81856
7.70845	80514
7.71657	81095
7.72468	78325
7.73282	79394
7.74093	73193
7.74907	76804
7.75718	76608
7.76530	82499
7.77343	81265
7.78155	81877
7.78968	82814
7.79780	88489
7.80592	86499
7.81405	83369
7.82217	83393
7.83028	77311
7.83842	78588
7.84653	74878
7.85467	69630
7.86278	71633
7.87090	73359
7.87903	78951
7.88715	81816
7.89528	83771
7.90340	89785
7.91152	80725
7.91965	90362
7.92777	128499
7.93590	211414
7.94402	331416
7.95213	442340
7.96027	468376
7.96838	395438
7.97650	280521
7.98463	184231
7.99275	137763
8.00088	108408
8.00900	100686
8.01712	91069
8.02525	83384
8.03337	74668
8.04150	70522
8.04962	69713
8.05773	71270
8.06587	67742
8.07398	70461
8.08210	71089
8.09023	66531
8.09835	65646
8.10648	69512
8.11460	66812
8.12272	64269
8.13085	71437
8.13897	77095
8.14710	81507
8.15522	80548
8.16333	76303
8.17147	74627
8.17958	70061
8.18772	69746
8.19583	62984
8.20395	65241
8.21208	64774
8.22020	68070
8.22832	65043
8.23645	67970
8.24457	70277
8.25270	64892
8.26082	67543
8.26893	60170
8.27707	59923
8.28518	58945
8.29332	63756
8.30143	61904
8.30955	59678
8.31768	65231
8.32580	69208
8.33393	68036
8.34205	65409
8.35017	65379
8.35830	63221
8.36642	63923
8.37453	66875
8.38267	73528
8.39078	80648
8.39892	81165
8.40703	71204
8.41515	68111
8.42328	57683
8.43140	57699
8.43953	54817
8.44765	55266
8.45577	57409
8.46390	65103
8.47202	68157
8.48015	73244
8.48827	67064
8.49638	66488
8.50452	65413
8.51263	71055
8.52075	128771
8.52888	353655
8.53700	1033132
8.54513	2279249
8.55325	3766820
8.56137	4537414
8.56950	4155434
8.57762	2897852
8.58575	1568483
8.59387	787215
8.60198	418211
8.61012	295179
8.61823	241159
8.62635	228624
8.63448	195647
8.64260	173328
8.65073	166038
8.65885	165599
8.66697	149971
8.67510	134352
8.68322	137777
8.69135	128495
8.69947	127435
8.70758	121259
8.71572	118795
8.72383	113703
8.73197	110882
8.74008	103236
8.74820	102467
8.75633	97324
8.76445	116654
8.77257	188976
8.78070	337419
8.78882	546057
8.79695	725568
8.80507	775165
8.81318	671174
8.82132	489529
8.82943	332454
8.83757	237353
8.84568	195906
8.85380	172370
8.86193	173076
8.87005	164334
8.87817	156055
8.88630	154323
8.89442	138179
8.90255	128083
8.91067	128450
8.91878	125850
8.92692	119951
8.93503	117477
8.94317	109275
8.95128	116627
8.95940	110438
8.96753	105556
8.97565	105570
8.98378	109343
8.99190	101395
9.00002	99103
9.00815	96614
9.01627	105169
9.02438	95224
9.03252	94728
9.04063	98932
9.04877	89974
9.05688	85308
9.06500	87857
9.07313	89597
9.08125	94202
9.08938	85070
9.09750	85208
9.10562	86744
9.11375	83296
9.12187	85563
9.13000	86518
9.13812	82902
9.14623	83312
9.15437	80388
9.16248	79437
9.17060	77421
9.17873	77174
9.18685	78001
9.19498	78401
9.20310	75477
9.21122	74235
9.21935	79391
9.22747	77651
9.23560	81410
9.24372	80016
9.25183	77809
9.25997	76881
9.26808	85386
9.27620	81678
9.28433	78164
9.29245	69947
9.30058	78525
9.30870	70244
9.31682	72175
9.32495	67566
9.33307	72335
9.34120	68958
9.34932	67766
9.35743	66993
9.36557	71505
9.37368	62040
9.38182	63798
9.38993	63898
9.39805	61915
9.40618	69924
9.41430	64961
9.42242	62012
9.43055	67467
9.43867	67805
9.44680	68319
9.45492	68541
9.46303	68543
9.47117	62415
9.47928	61325
9.48742	60451
9.49553	59168
9.50365	64087
9.51178	72441
9.51990	90465
9.52803	103488
9.53615	107329
9.54427	104049
9.55240	103844
9.56052	103575
9.56863	103200
9.57677	90593
9.58488	84249
9.59302	70539
9.60113	67271
9.60925	60293
9.61738	57081
9.62550	51809
9.63363	48120
9.64175	49728
9.64987	45303
9.65800	50951
9.66612	45337
9.67423	43058
9.68237	44444
9.69048	44129
9.69862	46695
9.70673	46963
9.71485	45766
9.72298	44697
9.73110	46603
9.73923	44583
9.74735	46436
9.75547	45016
9.76360	42350
9.77172	44015
9.77985	44391
9.78797	42797
9.79608	43556
9.80422	42767
9.81233	40216
9.82045	42732
9.82858	41198
9.83670	39554
9.84483	41166
9.85295	42868
9.86107	45476
9.86920	46015
9.87732	45546
9.88545	44668
9.89357	45828
9.90168	40765
9.90982	39716
9.91793	41356
9.92605	42546
9.93418	48094
9.94230	44198
9.95043	49786
9.95855	52379
9.96667	55025
9.97480	52909
9.98292	54450
9.99105	52518
9.99917	51389
10.00728	50847
10.01542	49607
10.02353	53616
10.03167	51260
10.03978	50316
10.04790	48392
10.05603	47780
10.06415	43953
10.07227	43069
10.08040	44940
10.08852	46161
10.09665	45258
10.10477	45705
10.11288	44503
10.12102	44520
10.12913	43011
10.13727	41281
10.14538	41420
10.15350	43840
10.16163	42810
10.16975	40937
10.17788	37423
10.18600	43598
10.19412	36928
10.20225	36455
10.21037	40906
10.21848	41267
10.22662	40901
10.23473	45666
10.24287	48497
10.25098	55639
10.25910	72820
10.26723	121406
10.27535	266743
10.28348	659366
10.29160	1498413
10.29972	2720404
10.30785	4313569
10.31597	6824882
10.32408	1.091132E+07
10.33222	1.752238E+07
10.34033	2.629326E+07
10.34847	3.491795E+07
10.35658	3.976433E+07
10.36470	3.778623E+07
10.37283	2.681016E+07
10.38095	1.310547E+07
10.38908	5012355
10.39720	2109001
10.40532	1279631
10.41345	991862
10.42157	809403
10.42970	688857
10.43782	614455
10.44593	537176
10.45407	485804
10.46218	434654
10.47030	393747
10.47843	361996
10.48655	347532
10.49468	328625
10.50280	306109
10.51092	283103
10.51905	268495
10.52717	253966
10.53530	227211
10.54342	227959
10.55153	209714
10.55967	204698
10.56778	195810
10.57592	194248
10.58403	189282
10.59215	189067
10.60028	175560
10.60840	169503
10.61652	162678
10.62465	154223
10.63277	152404
10.64090	142162
10.64902	141444
10.65713	132383
10.66527	137676
10.67338	128210
10.68152	127224
10.68963	124182
10.69775	126358
10.70588	115059
10.71400	110383
10.72212	115806
10.73025	115354
10.73837	106793
10.74650	111973
10.75462	109716
10.76273	111738
10.77087	100760
10.77898	102522
10.78712	100681
10.79523	95710
10.80335	93984
10.81148	92091
10.81960	89468
10.82773	84456
10.83585	83109
10.84397	83521
10.85210	82865
10.86022	81342
10.86833	81279
10.87647	78482
10.88458	77956
10.89272	78577
10.90083	73793
10.90895	75142
10.91708	70254
10.92520	67683
10.93333	72136
10.94145	65823
10.94957	67716
10.95770	72774
10.96582	64462
10.97395	70605
10.98207	65933
10.99018	70612
10.99832	68161
11.00643	67888
11.01455	64145
11.02268	61465
11.03080	58854
11.03893	57365
11.04705	58218
11.05517	56320
11.06330	57224
11.07142	60380
11.07955	55054
11.08767	56673
11.09578	56246
11.10392	55905
11.11203	51743
11.12015	57592
11.12828	53223
11.13640	53845
11.14453	48616
11.15265	45956
11.16077	54343
11.16890	59196
11.17702	69611
11.18515	64448
11.19327	60978
11.20138	61396
11.20952	55775
11.21763	50101
11.22577	50406
11.23388	46468
11.24200	45698
11.25013	43002
11.25825	42760
11.26637	39692
11.27450	41078
11.28262	46420
11.29075	42647
11.29887	41665
11.30698	41642
11.31512	44457
11.32323	48727
11.33137	43377
11.33948	45114
11.34760	43407
11.35573	42205
11.36385	42257
11.37197	41112
11.38010	43352
11.38822	39425
11.39635	39420
11.40447	42273
11.41258	36054
11.42072	35705
11.42883	38415
11.43697	39567
11.44508	37295
11.45320	37292
11.46133	35944
11.46945	38477
11.47758	44232
11.48570	63022
11.49382	84595
11.50195	121205
11.51007	122097
11.51818	118975
11.52632	107086
11.53443	93663
11.54257	87301
11.55068	85780
11.55880	88354
11.56693	73590
11.57505	64268
11.58318	52750
11.59130	51700
11.59942	47746
11.60755	48854
11.61567	51508
11.62380	52119
11.63192	52935
11.64003	51053
11.64817	44114
11.65628	45111
11.66440	43652
11.67253	46949
11.68065	47578
11.68878	59993
11.69690	63019
11.70502	69584
11.71315	74361
11.72127	73149
11.72940	62541
11.73752	54826
11.74563	50536
11.75377	48815
11.76188	41407
11.77000	44691
11.77813	43785
11.78625	50321
11.79438	47321
11.80250	43604
11.81062	45005
11.81875	43852
11.82687	41621
11.83500	43950
11.84312	41043
11.85123	41462
11.85937	39064
11.86748	40102
11.87562	42468
11.88373	40781
11.89185	41984
11.89998	40048
11.90810	38936
11.91622	44589
11.92435	43002
11.93247	45514
11.94060	48550
11.94872	47122
11.95683	43846
11.96497	43288
11.97308	36121
11.98122	40457
11.98933	44308
11.99745	52897
12.00558	61753
12.01370	74780
12.02183	79412
12.02995	79130
12.03807	67696
12.04620	59902
12.05432	52459
12.06243	49618
12.07057	44634
12.07868	44429
12.08682	45397
12.09493	47266
12.10305	43812
12.11118	39180
12.11930	41131
12.12743	44504
12.13555	43529
12.14367	43557
12.15180	44030
12.15992	40326
12.16803	42486
12.17617	43581
12.18428	38359
12.19242	40887
12.20053	39086
12.20865	41383
12.21678	41019
12.22490	39963
12.23303	36565
12.24115	39647
12.24927	39121
12.25740	37694
12.26552	39736
12.27365	39963
12.28177	37714
12.28988	40449
12.29802	36783
12.30613	39105
12.31425	33527
12.32238	37578
12.33050	39565
12.33863	35429
12.34675	33949
12.35487	39227
12.36300	35555
12.37112	38507
12.37925	35485
12.38737	37417
12.39548	36987
12.40362	40189
12.41173	45231
12.41985	46372
12.42798	53416
12.43610	61828
12.44423	58018
12.45235	65386
12.46047	51391
12.46860	50025
12.47672	45849
12.48485	41515
12.49297	39566
12.50108	40289
12.50922	37947
12.51733	38373
12.52547	39725
12.53358	42515
12.54170	41872
12.54983	53795
12.55795	74459
12.56607	87104
12.57420	110233
12.58232	117164
12.59045	99362
12.59857	86349
12.60668	66306
12.61482	56204
12.62293	54556
12.63107	50501
12.63918	50187
12.64730	43589
12.65543	45736
12.66355	46674
12.67168	41160
12.67980	39622
12.68792	36511
12.69605	36337
12.70417	36847
12.71228	37401
12.72042	41068
12.72853	41754
12.73667	44338
12.74478	45918
12.75290	43383
12.76103	40505
12.76915	38468
12.77728	34472
12.78540	32468
12.79352	35567
12.80165	38431
12.80977	32889
12.81788	36052
12.82602	35680
12.83413	35787
12.84227	35414
12.85038	36214
12.85850	36433
12.86663	33502
12.87475	39013
12.88288	35791
12.89100	35413
12.89912	35545
12.90725	30464
12.91537	35573
12.92350	31489
12.93162	34181
12.93973	32954
12.94787	34848
12.95598	30220
12.96410	34271
12.97223	36901
12.98035	41833
12.98848	47502
12.99660	43812
13.00472	47984
13.01285	43136
13.02097	43027
13.02910	39536
13.03722	37766
13.04533	31425
13.05347	36109
13.06158	39107
13.06972	34969
13.07783	36862
13.08595	38549
13.09408	37547
13.10220	42994
13.11032	43288
13.11845	33721
13.12657	35876
13.13470	36273
13.14282	36450
13.15093	36913
13.15907	34023
13.16718	32071
13.17532	40452
13.18343	36654
13.19155	36940
13.19968	43186
13.20780	37964
13.21592	40647
13.22405	44267
13.23217	40382
13.24030	35397
13.24842	36850
13.25653	36495
13.26467	34007
13.27278	41077
13.28092	35521
13.28903	33207
13.29715	32395
13.30528	34424
13.31340	33265
13.32153	33548
13.32965	33786
13.33777	31324
13.34590	36935
13.35402	32738
13.36213	34427
13.37027	31304
13.37838	30701
13.38652	33467
13.39463	35543
13.40275	32506
13.41088	31600
13.41900	33377
13.42713	32490
13.43525	30062
13.44337	35414
13.45150	31745
13.45962	29453
13.46773	31206
13.47587	34355
13.48398	34163
13.49212	32231
13.50023	28985
13.50835	32798
13.51648	36592
13.52460	31504
13.53273	29964
13.54085	29366
13.54897	31886
13.55710	33505
13.56522	37519
13.57335	40458
13.58147	40732
13.58958	37743
13.59772	35791
13.60583	35468
13.61395	36887
13.62208	35241
13.63020	39253
13.63833	35259
13.64645	32808
13.65457	32130
13.66270	31660
13.67082	33910
13.67895	37001
13.68707	33894
13.69518	33261
13.70332	29959
13.71143	31511
13.71957	34679
13.72768	34062
13.73580	33592
13.74393	35372
13.75205	42178
13.76017	56388
13.76830	79579
13.77642	112078
13.78455	148541
13.79267	172505
13.80078	151105
13.80892	139519
13.81703	110556
13.82517	79735
13.83328	66903
13.84140	52786
13.84953	52878
13.85765	50703
13.86578	43217
13.87390	46649
13.88202	43697
13.89015	41222
13.89827	43233
13.90638	38672
13.91452	40953
13.92263	41144
13.93077	41883
13.93888	40520
13.94700	42715
13.95513	47765
13.96325	59512
13.97138	88886
13.97950	122642
13.98762	153007
13.99575	168858
14.00387	166885
14.01198	141550
14.02012	115197
14.02823	97625
14.03637	73172
14.04448	65986
14.05260	67095
14.06073	63333
14.06885	58706
14.07698	58161
14.08510	57251
14.09322	52793
14.10135	53172
14.10947	51349
14.11760	49013
14.12572	47421
14.13383	45969
14.14197	46848
14.15008	47138
14.15820	46169
14.16633	50324
14.17445	51785
14.18258	52165
14.19070	51546
14.19882	57138
14.20695	71228
14.21507	90331
14.22320	108720
14.23132	124565
14.23943	122452
14.24757	121235
14.25568	108837
14.26380	104472
14.27193	92641
14.28005	87963
14.28818	79757
14.29630	76727
14.30442	68747
14.31255	71972
14.32067	66183
14.32880	63308
14.33692	60857
14.34503	64100
14.35317	60825
14.36128	61274
14.36942	54970
14.37753	50121
14.38565	50605
14.39378	49658
14.40190	44545
14.41002	42713
14.41815	41020
14.42627	37455
14.43440	38724
14.44252	40405
14.45063	36705
14.45877	37660
14.46688	35664
14.47502	40613
14.48313	38519
14.49125	40821
14.49938	38543
14.50750	37429
14.51563	39550
14.52375	41884
14.53187	38607
14.54000	46061
14.54812	41890
14.55623	45075
14.56437	34600
14.57248	36129
14.58062	37027
14.58873	37790
14.59685	35363
14.60498	35136
14.61310	31131
14.62123	35436
14.62935	35735
14.63747	32132
14.64560	34751
14.65372	29807
14.66183	30886
14.66997	31488
14.67808	32695
14.68622	29836
14.69433	35658
14.70245	34509
14.71058	33281
14.71870	31656
14.72683	33756
14.73495	34517
14.74307	34203
14.75120	33011
14.75932	33732
14.76745	33093
14.77557	32729
14.78368	34515
14.79182	39177
14.79993	35117
14.80805	39856
14.81618	45398
14.82430	62736
14.83243	81002
14.84055	94790
14.84867	100932
14.85680	90615
14.86492	79619
14.87305	64231
14.88117	60846
14.88928	54026
14.89742	48990
14.90553	45008
14.91367	44304
14.92178	42395
14.92990	41211
14.93803	42193
14.94615	44450
14.95427	48513
14.96240	43273
14.97052	47845
14.97865	46187
14.98677	43842
14.99488	41698
15.00302	45869
15.01113	40307
15.01927	38247
15.02738	41389
15.03550	39937
15.04363	37633
15.05175	35924
15.05987	40561
15.06800	40520
15.07612	39670
15.08425	40929
15.09237	36135
15.10048	37128
15.10862	38235
15.11673	33199
15.12487	34144
15.13298	33531
15.14110	34156
15.14923	32527
15.15735	35271
15.16548	35716
15.17360	36562
15.18172	35335
15.18985	31527
15.19797	34604
15.20608	34411
15.21422	32173
15.22233	35413
15.23047	33875
15.23858	32888
15.24670	36522
15.25483	34450
15.26295	31467
15.27108	30956
15.27920	29704
15.28732	29709
15.29545	34474
15.30357	30756
15.31168	30193
15.31982	28959
15.32793	30568
15.33607	27844
15.34418	30660
15.35230	31115
15.36043	28410
15.36855	28472
15.37668	30095
15.38480	26662
15.39292	30695
15.40105	28624
15.40917	34767
15.41730	30883
15.42542	31220
15.43353	31977
15.44167	30789
15.44978	32446
15.45790	29050
15.46603	30136
15.47415	31695
15.48228	31624
15.49040	30781
15.49852	29437
15.50665	33848
15.51477	42249
15.52290	54911
15.53102	71386
15.53913	107708
15.54727	141916
15.55538	172499
15.56352	167869
15.57163	140454
15.57975	107784
15.58788	81301
15.59600	58140
15.60412	49169
15.61225	42190
15.62037	39662
15.62850	36743
15.63662	47232
15.64473	31585
15.65287	33664
15.66098	35053
15.66912	32925
15.67723	34048
15.68535	36078
15.69348	31153
15.70160	33057
15.70972	31281
15.71785	33410
15.72597	32588
15.73410	31975
15.74222	33211
15.75033	30686
15.75847	35462
15.76658	37017
15.77472	35368
15.78283	41320
15.79095	46397
15.79908	53387
15.80720	60132
15.81533	49926
15.82345	47310
15.83157	43267
15.83970	41407
15.84782	37183
15.85593	37383
15.86407	36386
15.87218	35396
15.88032	37750
15.88843	44252
15.89655	43680
15.90468	42686
15.91280	44340
15.92093	42088
15.92905	41031
15.93717	38461
15.94530	38379
15.95342	40460
15.96155	48288
15.96967	48742
15.97778	53131
15.98592	65416
15.99403	72477
16.00215	64951
16.01028	65986
16.01840	54370
16.02653	56752
16.03465	54036
16.04277	54232
16.05090	49559
16.05902	47171
16.06715	46297
16.07527	41576
16.08338	42538
16.09152	39160
16.09963	37802
16.10775	38669
16.11588	42098
16.12400	38579
16.13213	38119
16.14025	37211
16.14837	35824
16.15650	36036
16.16462	35375
16.17275	40965
16.18087	36508
16.18898	33882
16.19712	36764
16.20523	37518
16.21337	32276
16.22148	36138
16.22960	37267
16.23773	37805
16.24585	32282
16.25397	37881
16.26210	37273
16.27022	35052
16.27835	34040
16.28647	36628
16.29458	36441
16.30272	33242
16.31083	34139
16.31897	36124
16.32708	36421
16.33520	36948
16.34333	43739
16.35145	40397
16.35958	48630
16.36770	58551
16.37582	71596
16.38395	85613
16.39207	91086
16.40018	87370
16.40832	75279
16.41643	60812
16.42457	49759
16.43268	46718
16.44080	49330
16.44893	39363
16.45705	39310
16.46518	38660
16.47330	41153
16.48142	35319
16.48955	45258
16.49767	43733
16.50578	41958
16.51392	42487
16.52203	34597
16.53017	36308
16.53828	37247
16.54640	33767
16.55453	39932
16.56265	33229
16.57078	35687
16.57890	40669
16.58702	37278
16.59515	42498
16.60327	46334
16.61140	49232
16.61952	57675
16.62763	57048
16.63577	55011
16.64388	58755
16.65200	52625
16.66013	46086
16.66825	43400
16.67638	39483
16.68450	40563
16.69262	35686
16.70075	35627
16.70887	37571
16.71700	38165
16.72512	39811
16.73323	35647
16.74137	34987
16.74948	31423
16.75760	35379
16.76573	33321
16.77385	32373
16.78198	31610
16.79010	35017
16.79822	34956
16.80635	35494
16.81447	32334
16.82260	35305
16.83072	34708
16.83883	29664
16.84697	30303
16.85508	28458
16.86322	31674
16.87133	32491
16.87945	27321
16.88758	31337
16.89570	31024
16.90382	36576
16.91195	28411
16.92007	34466
16.92820	24584
16.93632	30193
16.94443	27005
16.95257	28722
16.96068	28710
16.96882	31403
16.97693	34431
16.98505	31472
16.99318	28355
17.00130	28619
17.00943	28648
17.01755	29246
17.02567	32958
17.03380	31525
17.04192	29710
17.05003	32231
17.05817	32462
17.06628	31372
17.07442	32647
17.08253	34196
17.09065	31364
17.09878	39005
17.10690	38333
17.11503	42192
17.12315	44496
17.13127	44154
17.13940	50661
17.14752	44059
17.15563	42767
17.16377	39080
17.17188	34253
17.18002	35598
17.18813	34799
17.19625	31178
17.20438	33091
17.21250	33919
17.22063	31194
17.22875	33286
17.23687	35349
17.24500	31665
17.25312	28958
17.26125	31705
17.26937	31247
17.27748	32660
17.28562	33139
17.29373	33941
17.30185	31043
17.30998	32003
17.31810	34738
17.32623	29690
17.33435	33849
17.34247	35031
17.35060	31850
17.35872	32977
17.36685	37807
17.37497	39883
17.38308	38644
17.39122	37658
17.39933	36125
17.40747	38119
17.41558	36702
17.42370	35852
17.43183	35597
17.43995	39358
17.44807	35081
17.45620	32072
17.46432	33334
17.47245	33058
17.48057	37100
17.48868	34771
17.49682	31493
17.50493	31556
17.51307	33680
17.52118	34314
17.52930	36142
17.53743	32596
17.54555	36164
17.55367	35015
17.56180	37442
17.56992	35008
17.57805	38728
17.58617	33117
17.59428	34482
17.60242	32973
17.61053	33271
17.61867	35073
17.62678	39552
17.63490	46740
17.64303	59231
17.65115	84360
17.65928	125700
17.66740	165642
17.67552	218884
17.68365	228326
17.69177	226595
17.69988	179484
17.70802	142086
17.71613	106684
17.72427	83185
17.73238	77185
17.74050	71174
17.74863	59164
17.75675	59570
17.76488	59199
17.77300	54041
17.78112	53302
17.78925	48958
17.79737	52283
17.80548	46732
17.81362	47062
17.82173	48103
17.82987	48789
17.83798	44457
17.84610	44954
17.85423	44902
17.86235	44803
17.87048	43197
17.87860	39887
17.88672	39564
17.89485	41266
17.90297	36373
17.91110	39811
17.91922	36899
17.92733	36839
17.93547	35675
17.94358	37923
17.95170	32885
17.95983	36811
17.96795	33923
17.97608	35392
17.98420	32754
17.99232	34838
18.00045	35647
18.00857	35517
18.01670	35730
18.02482	34162
18.03293	42798
18.04107	41823
18.04918	41197
18.05732	46137
18.06543	42394
18.07355	37809
18.08168	37779
18.08980	41070
18.09792	46454
18.10605	41203
18.11417	43581
18.12230	48088
18.13042	43947
18.13853	45532
18.14667	48585
18.15478	49226
18.16292	44706
18.17103	48187
18.17915	51461
18.18728	53181
18.19540	54684
18.20352	52175
18.21165	52224
18.21977	45145
18.22790	42769
18.23602	50251
18.24413	41227
18.25227	41338
18.26038	40546
18.26852	38446
18.27663	40128
18.28475	39838
18.29288	33936
18.30100	38738
18.30913	37706
18.31725	35913
18.32537	39999
18.33350	33167
18.34162	30137
18.34973	33897
18.35787	32985
18.36598	33191
18.37412	33087
18.38223	40470
18.39035	35681
18.39848	34993
18.40660	37637
18.41473	31220
18.42285	34110
18.43097	32788
18.43910	34630
18.44722	30129
18.45535	31929
18.46347	28942
18.47158	35086
18.47972	30319
18.48783	31577
18.49595	29198
18.50408	32677
18.51220	33243
18.52033	32502
18.52845	32444
18.53657	29330
18.54470	30309
18.55282	31778
18.56095	31703
18.56907	29764
18.57718	32763
18.58532	34953
18.59343	34094
18.60155	36897
18.60968	38137
18.61780	38568
18.62593	35065
18.63405	38035
18.64217	38888
18.65030	39819
18.65842	39759
18.66655	34962
18.67467	36612
18.68278	33181
18.69092	34451
18.69903	35228
18.70717	30615
18.71528	32229
18.72340	31964
18.73153	32536
18.73965	31942
18.74777	30259
18.75590	31663
18.76402	31694
18.77215	33373
18.78027	31329
18.78838	37051
18.79652	31474
18.80463	28075
18.81277	27921
18.82088	29017
18.82900	30735
18.83713	30303
18.84525	30321
18.85337	33615
18.86150	30931
18.86962	32310
18.87775	35456
18.88587	30573
18.89398	31493
18.90212	29176
18.91023	28663
18.91837	30926
18.92648	34479
18.93460	33566
18.94273	38123
18.95085	42081
18.95898	52800
18.96710	55364
18.97522	58417
18.98335	61489
18.99147	53312
18.99958	50157
19.00772	43822
19.01583	44224
19.02397	43463
19.03208	48474
19.04020	38104
19.04833	42159
19.05645	42375
19.06458	44925
19.07270	40299
19.08082	42182
19.08895	48526
19.09707	61909
19.10520	66552
19.11332	75153
19.12143	77088
19.12957	83418
19.13768	78478
19.14580	72535
19.15393	73648
19.16205	73214
19.17018	74998
19.17830	79078
19.18642	83372
19.19455	86476
19.20267	84688
19.21080	80394
19.21892	74257
19.22703	67236
19.23517	61910
19.24328	53300
19.25142	52670
19.25953	49240
19.26765	48378
19.27578	42291
19.28390	47713
19.29202	49517
19.30015	49380
19.30827	53527
19.31640	56607
19.32452	61589
19.33263	67082
19.34077	63326
19.34888	64678
19.35702	63286
19.36513	56649
19.37325	54350
19.38138	55563
19.38950	49738
19.39762	47598
19.40575	42808
19.41387	48484
19.42200	39966
19.43012	44621
19.43823	40262
19.44637	39418
19.45448	39213
19.46262	38479
19.47073	41695
19.47885	39561
19.48698	41487
19.49510	44125
19.50323	53016
19.51135	61761
19.51947	77721
19.52760	95273
19.53572	100375
19.54383	93180
19.55197	77082
19.56008	63124
19.56822	53371
19.57633	43692
19.58445	41079
19.59258	39451
19.60070	37844
19.60883	36622
19.61695	40484
19.62507	36361
19.63320	38345
19.64132	39580
19.64943	59084
19.65757	77783
19.66568	102477
19.67382	135719
19.68193	161883
19.69005	164786
19.69818	153629
19.70630	136853
19.71443	118899
19.72255	89136
19.73067	75582
19.73880	64523
19.74692	63120
19.75505	59711
19.76317	60289
19.77128	57488
19.77942	43800
19.78753	48050
19.79565	45364
19.80378	47911
19.81190	52034
19.82003	50738
19.82815	49032
19.83627	46315
19.84440	44288
19.85252	42633
19.86065	45064
19.86877	52554
19.87688	80382
19.88502	129507
19.89313	251495
19.90127	437409
19.90938	705775
19.91750	1033018
19.92563	1264613
19.93375	1428793
19.94187	1512899
19.95000	1508565
19.95812	1435574
19.96625	1406224
19.97437	1352524
19.98248	1311317
19.99062	1223729
19.99873	1150417
20.00687	1103170
20.01498	1056088
20.02310	1005948
20.03123	961575
20.03935	887769
20.04747	807883
20.05560	702927
20.06372	587259
20.07185	440588
20.07997	339730
20.08808	268152
20.09622	219289
20.10433	192085
20.11247	173185
20.12058	169306
20.12870	165525
20.13683	157643
20.14495	155838
20.15308	162523
20.16120	156197
20.16932	164451
20.17745	159697
20.18557	152743
20.19368	149320
20.20182	142700
20.20993	135247
20.21807	133299
20.22618	132812
20.23430	120220
20.24243	122053
20.25055	119339
20.25868	122707
20.26680	129079
20.27492	144693
20.28305	161261
20.29117	176845
20.29930	186730
20.30742	184451
20.31553	178488
20.32367	161540
20.33178	136135
20.33990	118250
20.34803	107596
20.35615	87225
20.36428	70988
20.37240	57423
20.38052	53080
20.38865	48675
20.39677	43530
20.40490	43410
20.41302	48581
20.42113	43214
20.42927	48422
20.43738	50346
20.44550	60423
20.45363	69019
20.46175	78358
20.46988	78485
20.47800	83138
20.48612	79472
20.49425	71612
20.50237	68249
20.51050	64681
20.51862	52797
20.52673	49997
20.53487	51161
20.54298	51541
20.55112	48691
20.55923	48707
20.56735	53544
20.57548	50766
20.58360	53107
20.59172	57191
20.59985	46116
20.60797	49349
20.61610	55141
20.62422	50461
20.63233	45806
20.64047	47023
20.64858	44422
20.65672	44226
20.66483	41909
20.67295	44082
20.68108	43285
20.68920	39580
20.69732	45111
20.70545	47943
20.71357	46376
20.72170	40412
20.72982	45499
20.73793	40091
20.74607	42064
20.75418	41547
20.76232	42006
20.77043	40833
20.77855	41760
20.78668	42603
20.79480	44241
20.80293	44904
20.81105	40247
20.81917	45764
20.82730	48963
20.83542	45719
20.84353	45108
20.85167	44303
20.85978	42230
20.86792	40822
20.87603	36502
20.88415	44050
20.89228	41418
20.90040	40248
20.90853	42113
20.91665	42615
20.92477	41086
20.93290	45077
20.94102	40256
20.94915	38882
20.95727	44039
20.96538	44545
20.97352	44132
20.98163	44207
20.98975	39700
20.99788	39211
21.00600	34105
21.01413	40769
21.02225	37501
21.03037	35421
21.03850	40140
21.04662	39886
21.05475	36107
21.06287	38981
21.07098	40594
21.07912	39153
21.08723	37763
21.09535	41164
21.10348	35066
21.11160	40609
21.11973	44101
21.12785	48442
21.13597	62227
21.14410	95615
21.15222	151487
21.16035	229500
21.16847	300151
21.17658	358350
21.18472	346525
21.19283	282921
21.20097	218190
21.20908	150719
21.21720	115864
21.22533	96520
21.23345	78567
21.24157	80963
21.24970	67925
21.25782	63803
21.26595	60600
21.27407	56650
21.28218	58696
21.29032	56712
21.29843	52912
21.30657	56298
21.31468	50192
21.32280	51571
21.33093	51209
21.33905	45175
21.34718	51009
21.35530	40655
21.36342	45130
21.37155	46280
21.37967	47059
21.38778	50147
21.39592	50381
21.40403	45317
21.41217	44051
21.42028	41396
21.42840	44933
21.43653	44466
21.44465	45394
21.45278	44529
21.46090	46259
21.46902	43551
21.47715	45343
21.48527	42905
21.49338	47653
21.50152	44960
21.50963	39052
21.51777	42584
21.52588	46550
21.53400	40778
21.54213	40723
21.55025	46211
21.55838	43493
21.56650	41772
21.57462	42707
21.58275	43733
21.59087	44095
21.59900	42787
21.60712	39873
21.61523	43873
21.62337	40088
21.63148	44773
21.63960	49958
21.64773	53051
21.65585	61304
21.66398	64305
21.67210	65600
21.68022	59313
21.68835	52856
21.69647	50682
21.70460	47513
21.71272	40554
21.72083	42773
21.72897	42177
21.73708	46764
21.74522	44323
21.75333	41775
21.76145	40303
21.76958	39692
21.77770	40438
21.78582	40964
21.79395	40201
21.80207	38425
21.81020	42790
21.81832	42742
21.82643	45202
21.83457	48407
21.84268	55979
21.85082	56785
21.85893	67941
21.86705	68354
21.87518	70472
21.88330	68038
21.89142	58297
21.89955	49520
21.90767	43728
21.91580	51548
21.92392	40065
21.93203	44116
21.94017	38423
21.94828	40689
21.95642	41823
21.96453	40027
21.97265	36925
21.98078	42113
21.98890	36125
21.99703	34148
22.00515	36125
22.01327	34253
22.02140	33798
22.02952	36848
22.03763	36040
22.04577	37418
22.05388	38047
22.06202	33783
22.07013	35426
22.07825	37703
22.08638	39905
22.09450	36991
22.10263	35060
22.11075	36414
22.11887	33881
22.12700	36634
22.13512	34995
22.14323	34273
22.15137	37786
22.15948	38494
22.16762	36447
22.17573	39457
22.18385	39142
22.19198	37957
22.20010	40035
22.20823	45308
22.21635	39974
22.22447	39092
22.23260	36571
22.24072	40255
22.24885	39704
22.25697	38635
22.26508	40524
22.27322	41193
22.28133	36593
22.28945	45438
22.29758	43163
22.30570	52064
22.31383	66286
22.32195	86103
22.33007	119551
22.33820	149462
22.34632	169742
22.35445	172803
22.36257	149282
22.37068	133136
22.37882	97576
22.38693	83715
22.39507	71639
22.40318	60953
22.41130	67691
22.41943	60862
22.42755	54867
22.43567	48007
22.44380	47255
22.45192	46414
22.46005	43430
22.46817	39863
22.47628	40030
22.48442	37382
22.49253	35444
22.50067	38256
22.50878	36247
22.51690	36786
22.52503	38650
22.53315	37062
22.54127	34518
22.54940	38064
22.55752	38621
22.56565	37711
22.57377	34655
22.58188	33708
22.59002	33568
22.59813	36562
22.60627	32452
22.61438	32789
22.62250	34610
22.63063	31603
22.63875	33296
22.64688	32225
22.65500	38856
22.66312	37436
22.67125	39844
22.67937	47828
22.68748	56092
22.69562	57684
22.70373	62387
22.71187	61769
22.71998	57869
22.72810	50823
22.73623	47957
22.74435	47617
22.75248	42033
22.76060	45049
22.76872	39286
22.77685	42979
22.78497	35007
22.79310	35186
22.80122	38048
22.80933	34408
22.81747	31242
22.82558	31729
22.83370	33489
22.84183	40704
22.84995	34009
22.85808	33871
22.86620	39018
22.87432	34405
22.88245	32336
22.89057	38937
22.89870	42189
22.90682	41361
22.91493	44920
22.92307	54354
22.93118	64224
22.93930	69451
22.94743	78824
22.95555	83269
22.96368	78521
22.97180	77013
22.97992	74917
22.98805	75001
22.99617	72894
23.00430	66268
23.01242	65005
23.02053	58240
23.02867	53252
23.03678	51813
23.04492	45948
23.05303	45509
23.06115	42661
23.06928	41896
23.07740	42672
23.08552	42694
23.09365	38447
23.10177	36282
23.10990	38999
23.11802	37296
23.12613	36862
23.13427	36121
23.14238	36437
23.15052	34647
23.15863	33900
23.16675	35244
23.17488	36852
23.18300	35327
23.19112	34025
23.19925	33964
23.20737	36558
23.21550	32977
23.22362	34566
23.23173	34782
23.23987	39353
23.24798	43597
23.25612	52360
23.26423	52127
23.27235	54595
23.28048	55281
23.28860	49378
23.29673	45347
23.30485	51198
23.31297	43086
23.32110	38513
23.32922	37046
23.33733	36836
23.34547	40130
23.35358	43003
23.36172	33898
23.36983	45541
23.37795	41955
23.38608	44743
23.39420	46854
23.40233	40499
23.41045	41718
23.41857	47035
23.42670	43512
23.43482	39923
23.44295	38507
23.45107	38284
23.45918	38598
23.46732	41468
23.47543	40708
23.48355	42254
23.49168	40023
23.49980	42577
23.50793	42001
23.51605	41585
23.52417	40681
23.53230	38867
23.54042	40094
23.54855	42399
23.55667	43364
23.56478	38172
23.57292	44148
23.58103	48335
23.58915	56612
23.59728	61869
23.60540	75546
23.61353	82567
23.62165	93530
23.62977	93669
23.63790	117120
23.64602	171367
23.65415	272346
23.66227	423611
23.67038	572384
23.67852	677121
23.68663	667295
23.69477	577826
23.70288	428149
23.71100	317576
23.71913	220280
23.72725	166104
23.73537	139522
23.74350	112639
23.75162	102324
23.75975	123485
23.76787	193357
23.77598	397483
23.78412	780035
23.79223	1358022
23.80037	1982921
23.80848	2284588
23.81660	2291126
23.82473	1980218
23.83285	1546269
23.84098	1158845
23.84910	794868
23.85722	624931
23.86535	491820
23.87347	404697
23.88158	344240
23.88972	296272
23.89783	256028
23.90597	238731
23.91408	209911
23.92220	193786
23.93033	181432
23.93845	166565
23.94658	158891
23.95470	152523
23.96282	135141
23.97095	137111
23.97907	130538
23.98718	120366
23.99532	117320
24.00343	106450
24.01157	114861
24.01968	107571
24.02780	115342
24.03593	120134
24.04405	139567
24.05218	148789
24.06030	153744
24.06842	146002
24.07655	147604
24.08467	140866
24.09280	121592
24.10092	107318
24.10903	100037
24.11717	91000
24.12528	91633
24.13340	91246
24.14153	96158
24.14965	107033
24.15778	108318
24.16590	111513
24.17402	111257
24.18215	112079
24.19027	97194
24.19840	88655
24.20652	82042
24.21463	82668
24.22277	78271
24.23088	76228
24.23900	80280
24.24713	74496
24.25525	75240
24.26338	74829
24.27150	63856
24.27962	64234
24.28775	60182
24.29587	61397
24.30400	58649
24.31212	64671
24.32023	57525
24.32837	55476
24.33648	59328
24.34462	58169
24.35273	55328
24.36085	55601
24.36898	54291
24.37710	51847
24.38522	58755
24.39335	58343
24.40147	67954
24.40960	74433
24.41772	82449
24.42583	90625
24.43397	86727
24.44208	76293
24.45022	66759
24.45833	57855
24.46645	59899
24.47458	49849
24.48270	52507
24.49083	50785
24.49895	51821
24.50707	58260
24.51520	58756
24.52332	59174
24.53143	63691
24.53957	68630
24.54768	63211
24.55582	56478
24.56393	55953
24.57205	55169
24.58018	53819
24.58830	56197
24.59643	52185
24.60455	54758
24.61267	53687
24.62080	56282
24.62892	49742
24.63705	47986
24.64517	52990
24.65328	52380
24.66142	46332
24.66953	55937
24.67765	49045
24.68578	52105
24.69390	48667
24.70203	49344
24.71015	44194
24.71827	43318
24.72640	45339
24.73452	49266
24.74265	46616
24.75077	45804
24.75888	42705
24.76702	45563
24.77513	45706
24.78325	45147
24.79138	40621
24.79950	41856
24.80763	40623
24.81575	41304
24.82387	42396
24.83200	37346
24.84012	41701
24.84825	38621
24.85637	40937
24.86448	41159
24.87262	41528
24.88073	43528
24.88887	40770
24.89698	41298
24.90510	39938
24.91323	39735
24.92135	45283
24.92947	44121
24.93760	39974
24.94572	42428
24.95385	42189
24.96197	42564
24.97008	42433
24.97822	40342
24.98633	40302
24.99447	36231
25.00258	35394
25.01070	37366
25.01883	43362
25.02695	38165
25.03507	36855
25.04320	38825
25.05132	40743
25.05945	36939
25.06757	36915
25.07568	38145
25.08382	35975
25.09193	36329
25.10007	39377
25.10818	37522
25.11630	41984
25.12443	45487
25.13255	42324
25.14068	44329
25.14880	46010
25.15692	53545
25.16505	55364
25.17317	51677
25.18128	56709
25.18942	52112
25.19753	49512
25.20567	51570
25.21378	45687
25.22190	47212
25.23003	40877
25.23815	41641
25.24628	41987
25.25440	38959
25.26252	39241
25.27065	41021
25.27877	45337
25.28690	42603
25.29502	41433
25.30313	41722
25.31127	46667
25.31938	47301
25.32750	49046
25.33563	47764
25.34375	46692
25.35188	47213
25.36000	40785
25.36812	39724
25.37625	40809
25.38437	37643
25.39250	33620
25.40062	36363
25.40873	35422
25.41687	35794
25.42498	38266
25.43310	37006
25.44123	37097
25.44935	37776
25.45748	40804
25.46560	33828
25.47372	37681
25.48185	36081
25.48997	37581
25.49810	40464
25.50622	46482
25.51433	42220
25.52247	41305
25.53058	37610
25.53872	40352
25.54683	37866
25.55495	39052
25.56308	39255
25.57120	35800
25.57932	33974
25.58745	33185
25.59557	32337
25.60370	34879
25.61182	34628
25.61993	36461
25.62807	37222
25.63618	41519
25.64432	41804
25.65243	46897
25.66055	50787
25.66868	51037
25.67680	55590
25.68493	48784
25.69305	41919
25.70117	41776
25.70930	37034
25.71742	34060
25.72553	40189
25.73367	47785
25.74178	45756
25.74992	48879
25.75803	48858
25.76615	48616
25.77428	44510
25.78240	45311
25.79053	38821
25.79865	41987
25.80677	44767
25.81490	44148
25.82302	44614
25.83113	49090
25.83927	49970
25.84738	52530
25.85552	51376
25.86363	48721
25.87175	49448
25.87988	42051
25.88800	43813
25.89613	39676
25.90425	38645
25.91237	40437
25.92050	40877
25.92862	38627
25.93675	39065
25.94487	35048
25.95298	32890
25.96112	38046
25.96923	34616
25.97735	33981
25.98548	35539
25.99360	33546
26.00173	39659
26.00985	33388
26.01797	31248
26.02610	29699
26.03422	38086
26.04235	32585
26.05047	33043
26.05858	32976
26.06672	36926
26.07483	31264
26.08295	33026
26.09108	34368
26.09920	35164
26.10733	37275
26.11545	35975
26.12357	39231
26.13170	37726
26.13982	43140
26.14795	45870
26.15607	48141
26.16418	46716
26.17232	47218
26.18043	45646
26.18857	49992
26.19668	43762
26.20480	42402
26.21293	42178
26.22105	38371
26.22917	36485
26.23730	33439
26.24542	34388
26.25355	31990
26.26167	31286
26.26978	32798
26.27792	29268
26.28603	35136
26.29417	31685
26.30228	34452
26.31040	32705
26.31853	32927
26.32665	34961
26.33478	32423
26.34290	32526
26.35102	32821
26.35915	36767
26.36727	35982
26.37538	37560
26.38352	33246
26.39163	33207
26.39977	33145
26.40788	35766
26.41600	34347
26.42413	33103
26.43225	28607
26.44038	30270
26.44850	32232
26.45662	31001
26.46475	29767
26.47287	30267
26.48098	32535
26.48912	31773
26.49723	31889
26.50537	31166
26.51348	34211
26.52160	31299
26.52973	28283
26.53785	30234
26.54598	27272
26.55410	31739
26.56222	30410
26.57035	31077
26.57847	30817
26.58660	30267
26.59472	30627
26.60283	30160
26.61097	31794
26.61908	31524
26.62720	31478
26.63533	31645
26.64345	37048
26.65158	30759
26.65970	34941
26.66782	37710
26.67595	39816
26.68407	41717
26.69220	41251
26.70032	40101
26.70843	40441
26.71657	37494
26.72468	34160
26.73282	34219
26.74093	36035
26.74905	40066
26.75718	35720
26.76530	37078
26.77342	42417
26.78155	41466
26.78967	41505
26.79780	36426
26.80592	35378
26.81403	38086
26.82217	37137
26.83028	38686
26.83842	40535
26.84653	36087
26.85465	37633
26.86278	38697
26.87090	39632
26.87902	37993
26.88715	33524
26.89527	37760
26.90340	34886
26.91152	31724
26.91963	33307
26.92777	34637
26.93588	34980
26.94402	35090
26.95213	35107
26.96025	43951
26.96838	62398
26.97650	98008
26.98463	225689
26.99275	497143
27.00087	1092902
27.00900	2263048
27.01712	3740839
27.02523	4532602
27.03337	4583573
27.04148	3829475
27.04962	2785517
27.05773	1801610
27.06585	1123443
27.07398	700187
27.08210	481069
27.09023	365553
27.09835	293022
27.10647	244319
27.11460	214506
27.12272	191559
27.13085	167758
27.13897	156798
27.14708	144150
27.15522	138707
27.16333	130795
27.17145	127009
27.17958	116803
27.18770	110288
27.19583	117339
27.20395	108261
27.21207	99473
27.22020	91328
27.22832	91637
27.23645	84432
27.24457	86631
27.25268	83859
27.26082	84076
27.26893	80490
27.27705	75770
27.28518	78796
27.29330	73487
27.30143	68895
27.30955	72117
27.31767	64767
27.32580	67269
27.33392	62877
27.34205	73479
27.35017	70604
27.35828	63482
27.36642	65824
27.37453	60033
27.38267	60025
27.39078	61199
27.39890	63013
27.40703	57843
27.41515	64170
27.42327	62976
27.43140	63354
27.43952	52323
27.44765	56129
27.45577	58458
27.46388	57843
27.47202	55234
27.48013	49103
27.48827	54647
27.49638	53695
27.50450	52655
27.51263	55387
27.52075	56639
27.52887	58126
27.53700	56240
27.54512	49820
27.55325	51971
27.56137	54197
27.56948	55180
27.57762	49162
27.58573	52578
27.59387	50181
27.60198	55521
27.61010	52061
27.61823	53343
27.62635	56433
27.63448	58101
27.64260	50567
27.65072	53427
27.65885	50025
27.66697	47591
27.67508	47197
27.68322	46280
27.69133	42420
27.69947	46360
27.70758	43527
27.71570	48542
27.72383	45813
27.73195	43868
27.74008	43173
27.74820	43280
27.75632	43382
27.76445	48223
27.77257	41114
27.78070	46574
27.78882	41630
27.79693	39442
27.80507	42767
27.81318	46203
27.82130	42373
27.82943	48249
27.83755	53848
27.84568	49294
27.85380	46520
27.86192	45986
27.87005	48970
27.87817	48653
27.88630	42516
27.89442	44709
27.90253	43991
27.91067	46779
27.91878	39328
27.92690	40872
27.93503	45389
27.94315	43559
27.95128	46944
27.95940	44253
27.96752	41247
27.97565	40922
27.98377	43064
27.99190	40762
28.00002	39556
28.00813	42555
28.01627	39455
28.02438	40649
28.03252	41657
28.04063	39880
28.04875	41933
28.05688	42616
28.06500	43661
28.07312	39379
28.08125	41791
28.08937	39445
28.09750	40227
28.10562	39129
28.11373	40129
28.12187	42984
28.12998	43950
28.13812	49482
28.14623	44484
28.15435	44686
28.16248	41659
28.17060	38117
28.17873	43829
28.18685	41724
28.19497	42087
28.20310	43396
28.21122	47593
28.21933	49327
28.22747	54279
28.23558	50669
28.24372	51417
28.25183	49442
28.25995	49555
28.26808	49270
28.27620	43347
28.28433	45386
28.29245	45038
28.30057	49616
28.30870	42608
28.31682	43572
28.32493	47202
28.33307	48651
28.34118	51187
28.34932	68000
28.35743	63353
28.36555	80148
28.37368	84319
28.38180	94878
28.38993	94710
28.39805	98754
28.40617	100202
28.41430	116592
28.42242	113668
28.43055	116524
28.43867	115961
28.44678	126020
28.45492	133122
28.46303	126546
28.47115	112956
28.47928	106614
28.48740	87298
28.49553	75928
28.50365	76594
28.51177	74436
28.51990	64091
28.52802	59115
28.53615	56458
28.54427	58995
28.55238	59050
28.56052	51496
28.56863	58851
28.57675	54248
28.58488	54108
28.59300	52905
28.60113	49355
28.60925	52011
28.61737	54597
28.62550	51668
28.63362	53858
28.64175	54751
28.64987	55055
28.65798	60409
28.66612	59637
28.67423	62956
28.68237	66035
28.69048	57841
28.69860	55920
28.70673	56648
28.71485	51549
28.72297	50194
28.73110	44524
28.73922	49473
28.74735	49981
28.75547	46311
28.76358	49820
28.77172	50139
28.77983	51216
28.78797	47708
28.79608	56755
28.80420	63306
28.81233	58272
28.82045	48411
28.82858	46554
28.83670	42293
28.84482	46751
28.85295	46000
28.86107	42406
28.86918	41795
28.87732	43331
28.88543	43501
28.89357	39822
28.90168	43600
28.90980	41365
28.91793	42067
28.92605	41775
28.93418	46369
28.94230	42176
28.95042	48836
28.95855	51250
28.96667	53474
28.97480	53136
28.98292	56989
28.99103	51503
28.99917	48400
29.00728	46009
29.01540	43350
29.02353	43342
29.03165	42085
29.03978	43372
29.04790	40393
29.05602	39163
29.06415	40082
29.07227	41582
29.08040	42058
29.08852	41538
29.09663	41137
29.10477	41482
29.11288	42812
29.12100	42249
29.12913	38258
29.13725	39976
29.14538	43820
29.15350	37296
29.16162	42209
29.16975	45012
29.17787	38986
29.18600	43587
29.19412	45184
29.20223	43737
29.21037	43579
29.21848	45206
29.22662	45257
29.23473	53259
29.24285	47384
29.25098	49812
29.25910	48782
29.26722	49563
29.27535	51903
29.28347	53956
29.29160	50586
29.29972	49324
29.30783	42990
29.31597	41276
29.32408	39563
29.33222	38875
29.34033	40081
29.34845	38227
29.35658	40257
29.36470	39004
29.37282	42831
29.38095	42345
29.38907	45069
29.39720	43044
29.40532	42017
29.41343	49185
29.42157	52179
29.42968	51492
29.43782	53998
29.44593	52918
29.45405	50537
29.46218	47471
29.47030	45941
29.47843	41154
29.48655	43966
29.49467	43357
29.50280	44518
29.51092	45318
29.51903	46125
29.52717	44702
29.53528	44220
29.54342	41586
29.55153	42500
29.55965	43286
29.56778	42126
29.57590	43152
29.58403	42277
29.59215	39471
29.60027	37604
29.60840	38299
29.61652	37286
29.62465	37449
29.63277	42070
29.64088	38712
29.64902	42566
29.65713	45178
29.66525	43329
29.67338	43311
29.68150	36735
29.68963	40759
29.69775	38745
29.70587	42965
29.71400	48317
29.72212	50106
29.73025	58514
29.73837	60515
29.74648	72920
29.75462	78664
29.76273	73637
29.77085	78525
29.77898	64064
29.78710	56912
29.79523	52215
29.80335	52495
29.81147	44031
29.81960	39373
29.82772	39847
29.83585	37475
29.84397	42509
29.85208	41541
29.86022	50556
29.86833	67268
29.87647	119339
29.88458	242896
29.89270	423026
29.90083	661882
29.90895	821297
29.91707	882841
29.92520	775843
29.93332	579671
29.94145	368935
29.94957	211172
29.95768	126910
29.96582	98399
29.97393	75109
29.98207	78774
29.99018	79640
29.99830	86254
30.00643	97150
30.01455	95705
30.02268	97917
30.03080	103444
30.03892	97778
30.04705	92767
30.05517	91487
30.06328	89532
30.07142	86540
30.07953	84291
30.08767	79741
30.09578	78874
30.10390	81577
30.11203	76945
30.12015	68423
30.12828	73686
30.13640	74231
30.14452	70543
30.15265	68426
30.16077	65848
30.16888	62633
30.17702	65644
30.18513	58732
30.19327	62399
30.20138	60963
30.20950	54904
30.21763	52267
30.22575	57159
30.23388	52653
30.24200	48899
30.25012	47518
30.25825	53462
30.26637	48240
30.27450	47698
30.28262	50644
30.29073	47758
30.29887	50239
30.30698	48120
30.31510	46806
30.32323	46244
30.33135	48664
30.33948	48115
30.34760	44112
30.35572	51214
30.36385	45267
30.37197	49616
30.38010	44059
30.38822	43099
30.39633	47063
30.40447	41066
30.41258	44389
30.42070	41991
30.42883	44323
30.43695	42632
30.44508	44915
30.45320	43281
30.46132	43161
30.46945	38020
30.47757	41522
30.48570	41155
30.49382	47563
30.50193	42195
30.51007	39427
30.51818	41675
30.52632	46741
30.53443	39517
30.54255	39580
30.55068	42262
30.55880	39161
30.56692	39101
30.57505	40785
30.58317	39405
30.59130	48189
30.59942	39878
30.60753	37995
30.61567	34711
30.62378	39073
30.63192	42354
30.64003	44818
30.64815	39653
30.65628	38474
30.66440	39433
30.67253	39897
30.68065	40657
30.68877	41659
30.69690	49445
30.70502	37306
30.71313	41065
30.72127	36099
30.72938	40268
30.73752	38461
30.74563	42361
30.75375	39824
30.76188	38525
30.77000	40776
30.77813	41754
30.78625	44766
30.79437	53782
30.80250	64537
30.81062	80574
30.81873	94593
30.82687	89753
30.83498	83238
30.84312	72529
30.85123	61230
30.85935	50272
30.86748	48405
30.87560	44469
30.88373	39716
30.89185	44597
30.89997	40385
30.90810	41419
30.91622	42473
30.92435	39195
30.93247	40875
30.94058	42483
30.94872	48883
30.95683	40823
30.96495	41361
30.97308	41514
30.98120	43474
30.98933	42278
30.99745	42792
31.00557	41526
31.01370	53220
31.02182	50981
31.02995	65091
31.03807	66456
31.04618	73763
31.05432	76785
31.06243	75426
31.07057	69281
31.07868	64798
31.08680	71449
31.09493	105314
31.10305	131143
31.11117	171220
31.11930	197889
31.12742	199140
31.13555	179084
31.14367	133790
31.15178	101579
31.15992	72615
31.16803	56590
31.17617	53090
31.18428	48035
31.19240	56989
31.20053	62392
31.20865	65500
31.21677	78616
31.22490	82592
31.23302	89192
31.24115	88042
31.24927	76218
31.25738	72685
31.26552	61181
31.27363	52934
31.28177	43782
31.28988	43354
31.29800	45590
31.30613	38710
31.31425	40411
31.32238	39712
31.33050	44013
31.33862	38664
31.34675	39893
31.35487	40685
31.36298	40704
31.37112	45394
31.37923	49096
31.38737	59241
31.39548	62453
31.40360	58771
31.41173	56314
31.41985	54160
31.42798	50586
31.43610	50150
31.44422	45685
31.45235	45889
31.46047	47145
31.46858	42898
31.47672	45769
31.48483	43316
31.49297	41337
31.50108	39279
31.50920	39390
31.51733	44081
31.52545	39163
31.53358	42831
31.54170	42336
31.54982	43073
31.55795	41545
31.56607	40735
31.57420	39895
31.58232	38853
31.59043	39968
31.59857	40319
31.60668	40323
31.61480	40357
31.62293	35851
31.63105	42600
31.63918	39911
31.64730	39058
31.65542	39862
31.66355	37060
31.67167	45655
31.67980	39230
31.68792	37327
31.69603	41744
31.70417	40416
31.71228	38523
31.72042	43778
31.72853	38878
31.73665	38770
31.74478	37297
31.75290	42837
31.76102	38520
31.76915	36177
31.77727	41067
31.78540	41693
31.79352	41200
31.80163	44680
31.80977	45249
31.81788	47847
31.82602	48317
31.83413	49607
31.84225	47511
31.85038	47688
31.85850	50005
31.86662	48437
31.87475	51422
31.88287	48501
31.89100	46693
31.89912	52455
31.90723	47791
31.91537	55002
31.92348	56547
31.93162	54101
31.93973	55956
31.94785	58343
31.95598	58575
31.96410	58888
31.97223	60054
31.98035	66839
31.98847	62882
31.99660	63944
32.00472	62839
32.01283	68594
32.02097	65294
32.02908	63515
32.03722	65990
32.04533	59859
32.05345	60763
32.06158	55295
32.06970	58749
32.07783	56102
32.08595	56361
32.09407	55232
32.10220	54107
32.11032	57650
32.11845	51580
32.12657	50841
32.13468	45606
32.14282	48294
32.15093	42930
32.15905	46990
32.16718	44088
32.17530	45423
32.18343	43769
32.19155	48747
32.19967	41374
32.20780	44069
32.21592	41421
32.22405	42473
32.23217	43443
32.24028	43556
32.24842	41163
32.25653	42138
32.26465	44028
32.27278	43445
32.28090	45054
32.28903	46691
32.29715	47345
32.30527	52658
32.31340	67642
32.32152	93824
32.32965	151564
32.33777	314238
32.34588	616363
32.35402	1131552
32.36213	1738963
32.37027	2186028
32.37838	2262572
32.38650	1865904
32.39463	1319088
32.40275	815987
32.41087	497117
32.41900	319979
32.42712	227150
32.43525	184838
32.44337	154084
32.45148	135616
32.45962	119693
32.46773	107780
32.47587	95316
32.48398	100452
32.49210	91992
32.50023	85618
32.50835	86596
32.51648	82661
32.52460	86396
32.53272	76555
32.54085	73165
32.54897	72095
32.55708	69230
32.56522	68486
32.57333	71925
32.58147	73109
32.58958	68110
32.59770	64527
32.60583	62109
32.61395	60538
32.62208	60339
32.63020	65951
32.63832	57511
32.64645	60082
32.65457	60066
32.66268	63492
32.67082	65909
32.67893	69688
32.68707	68703
32.69518	72457
32.70330	68649
32.71143	70183
32.71955	64628
32.72768	66773
32.73580	63968
32.74392	58140
32.75205	60412
32.76017	58666
32.76830	54718
32.77642	58959
32.78453	49278
32.79267	52690
32.80078	49999
32.80890	52082
32.81703	54101
32.82515	55560
32.83328	50004
32.84140	52068
32.84952	51716
32.85765	52810
32.86577	47572
32.87390	51129
32.88202	50083
32.89013	55339
32.89827	54042
32.90638	52494
32.91450	46775
32.92263	46894
32.93075	52246
32.93888	55007
32.94700	49332
32.95512	50512
32.96325	43664
32.97137	48798
32.97950	50690
32.98762	51795
32.99573	48196
33.00387	51377
33.01198	51767
33.02012	50382
33.02823	51820
33.03635	46975
33.04448	48997
33.05260	47287
33.06072	46257
33.06885	47496
33.07697	49109
33.08510	50472
33.09322	67470
33.10133	90225
33.10947	127235
33.11758	178246
33.12572	238902
33.13383	271216
33.14195	268209
33.15008	209017
33.15820	148420
33.16633	101503
33.17445	74467
33.18257	62466
33.19070	57620
33.19882	60580
33.20693	59235
33.21507	64437
33.22318	56312
33.23132	58252
33.23943	51009
33.24755	55735
33.25568	50164
33.26380	62200
33.27193	56811
33.28005	51503
33.28817	56652
33.29630	55092
33.30442	55270
33.31253	56879
33.32067	55669
33.32878	56385
33.33692	54832
33.34503	53818
33.35315	56634
33.36128	54417
33.36940	54900
33.37753	56425
33.38565	60062
33.39377	57978
33.40190	57779
33.41002	50517
33.41815	53766
33.42627	55932
33.43438	58115
33.44252	55521
33.45063	63019
33.45875	58967
33.46688	54855
33.47500	54788
33.48313	53490
33.49125	49733
33.49937	55001
33.50750	48558
33.51562	47881
33.52375	50567
33.53187	47359
33.53998	47510
33.54812	46926
33.55623	50511
33.56437	54397
33.57248	51318
33.58060	44370
33.58873	45570
33.59685	48304
33.60497	48466
33.61310	46837
33.62122	46766
33.62935	43465
33.63747	45743
33.64558	47039
33.65372	51155
33.66183	49244
33.66997	50866
33.67808	51684
33.68620	50936
33.69433	54860
33.70245	62030
33.71057	58712
33.71870	59154
33.72682	61036
33.73495	57336
33.74307	56035
33.75118	53968
33.75932	46804
33.76743	49537
33.77557	50574
33.78368	47078
33.79180	49458
33.79993	46940
33.80805	45465
33.81618	47422
33.82430	47845
33.83242	47823
33.84055	49655
33.84867	50092
33.85678	52780
33.86492	51448
33.87303	53732
33.88117	49935
33.88928	51042
33.89740	50255
33.90553	50840
33.91365	49654
33.92178	48237
33.92990	44581
33.93802	48019
33.94615	47553
33.95427	47186
33.96238	48015
33.97052	51897
33.97863	50787
33.98677	46297
33.99488	43216
34.00300	46110
34.01113	49218
34.01925	48929
34.02738	47205
34.03550	54136
34.04362	48949
34.05175	47341
34.05987	48508
34.06800	45829
34.07612	52037
34.08423	49932
34.09237	50203
34.10048	47574
34.10860	46892
34.11673	49826
34.12485	50266
34.13298	46221
34.14110	44463
34.14922	54345
34.15735	48941
34.16547	44202
34.17360	47288
34.18172	44024
34.18983	42480
34.19797	47401
34.20608	46866
34.21422	49108
34.22233	44842
34.23045	43176
34.23858	51407
34.24670	47492
34.25482	45823
34.26295	49015
34.27107	45397
34.27920	46516
34.28732	47436
34.29543	51966
34.30357	49278
34.31168	45799
34.31982	46069
34.32793	45339
34.33605	46835
34.34418	44671
34.35230	47472
34.36043	46066
34.36855	46325
34.37667	45724
34.38480	43385
34.39292	51749
34.40103	41438
34.40917	51830
34.41728	46741
34.42542	46786
34.43353	44814
34.44165	42190
34.44978	44654
34.45790	42162
34.46603	46752
34.47415	49772
34.48227	49766
34.49040	43456
34.49852	43609
34.50663	46775
34.51477	47725
34.52288	54313
34.53102	50607
34.53913	58225
34.54725	63353
34.55538	63919
34.56350	70443
34.57163	74328
34.57975	68521
34.58787	67544
34.59600	60622
34.60412	63943
34.61225	62276
34.62037	59160
34.62848	56713
34.63662	56416
34.64473	54790
34.65285	51081
34.66098	56517
34.66910	48854
34.67723	51045
34.68535	49906
34.69347	50726
34.70160	52231
34.70972	52536
34.71785	45776
34.72597	51910
34.73408	51910
34.74222	45035
34.75033	48613
34.75845	46203
34.76658	47656
34.77470	47772
34.78283	48580
34.79095	45165
34.79907	52178
34.80720	47775
34.81532	48458
34.82345	50423
34.83157	45433
34.83968	48786
34.84782	48650
34.85593	49386
34.86407	47835
34.87218	48272
34.88030	49954
34.88843	47525
34.89655	49241
34.90467	44049
34.91280	48142
34.92092	49467
34.92905	51047
34.93717	53664
34.94528	64789
34.95342	80252
34.96153	122783
34.96967	179973
34.97778	270872
34.98590	355496
34.99403	371379
35.00215	337014
35.01028	254393
35.01840	166415
35.02652	115065
35.03465	85125
35.04277	71778
35.05088	60772
35.05902	59730
35.06713	61811
35.07527	57982
35.08338	61929
35.09150	60060
35.09963	59932
35.10775	59202
35.11588	55012
35.12400	58129
35.13212	59630
35.14025	53675
35.14837	54297
35.15648	54426
35.16462	52213
35.17273	54157
35.18087	56529
35.18898	54466
35.19710	55593
35.20523	51756
35.21335	49874
35.22148	50257
35.22960	53535
35.23772	48262
35.24585	49029
35.25397	53742
35.26210	52909
35.27022	56433
35.27833	58109
35.28647	59201
35.29458	56979
35.30270	57428
35.31083	54584
35.31895	51100
35.32708	50324
35.33520	46749
35.34332	50255
35.35145	45123
35.35957	47925
35.36770	47425
35.37582	46773
35.38393	50353
35.39207	53565
35.40018	49380
35.40832	49240
35.41643	48482
35.42455	48905
35.43268	46866
35.44080	46543
35.44892	55616
35.45705	54109
35.46517	55483
35.47330	56580
35.48142	54832
35.48953	56805
35.49767	55501
35.50578	57581
35.51392	51537
35.52203	55434
35.53015	56577
35.53828	49579
35.54640	50019
35.55452	49919
35.56265	55719
35.57077	51639
35.57890	55440
35.58702	60193
35.59513	58566
35.60327	56379
35.61138	57201
35.61952	58152
35.62763	59130
35.63575	54442
35.64388	51171
35.65200	50980
35.66013	50033
35.66825	54745
35.67637	52876
35.68450	55265
35.69262	54801
35.70073	51309
35.70887	54039
35.71698	54608
35.72512	54228
35.73323	51168
35.74135	48856
35.74948	51645
35.75760	48707
35.76573	51445
35.77385	48579
35.78197	52354
35.79010	50063
35.79822	49465
35.80633	52529
35.81447	50758
35.82258	51382
35.83072	51712
35.83883	57875
35.84695	53657
35.85508	48603
35.86320	52397
35.87133	54742
35.87945	51728
35.88757	53027
35.89570	48983
35.90382	51490
35.91195	57354
35.92007	50093
35.92818	56400
35.93632	51487
35.94443	51650
35.95255	54013
35.96068	55336
35.96880	54475
35.97693	46330
35.98505	51283
35.99317	52213
36.00130	51224
36.00942	52362
36.01755	53177
36.02567	49808
36.03378	54495
36.04192	58133
36.05003	56536
36.05817	56541
36.06628	49062
36.07440	52578
36.08253	52363
36.09065	48391
36.09877	48810
36.10690	52170
36.11502	53295
36.12315	50272
36.13127	56419
36.13938	54431
36.14752	54354
36.15563	57371
36.16377	55254
36.17188	61724
36.18000	59504
36.18813	52587
36.19625	52927
36.20437	51509
36.21250	48905
36.22062	48115
36.22875	49754
36.23687	51853
36.24498	48352
36.25312	49036
36.26123	51863
36.26937	54578
36.27748	46827
36.28560	50843
36.29373	49974
36.30185	52974
36.30998	54712
36.31810	57323
36.32622	60341
36.33435	60475
36.34247	58159
36.35058	61373
36.35872	51592
36.36683	53494
36.37497	54856
36.38308	51725
36.39120	50922
36.39933	54386
36.40745	54452
36.41558	54996
36.42370	52164
36.43182	56196
36.43995	51742
36.44807	49914
36.45620	55851
36.46432	48402
36.47243	48454
36.48057	49652
36.48868	51076
36.49680	54116
36.50493	47562
36.51305	53985
36.52118	49205
36.52930	53902
36.53742	50369
36.54555	48965
36.55367	54725
36.56180	48004
36.56992	45295
36.57803	47118
36.58617	47505
36.59428	49078
36.60240	50034
36.61053	52520
36.61865	52438
36.62678	50098
36.63490	47344
36.64302	51034
36.65115	50847
36.65927	53080
36.66740	50573
36.67552	55222
36.68363	56331
36.69177	49845
36.69988	49913
36.70802	52677
36.71613	56268
36.72425	53495
36.73238	53117
36.74050	49492
36.74862	50884
36.75675	56764
36.76487	49004
36.77300	50505
36.78112	50072
36.78923	54764
36.79737	50585
36.80548	48699
36.81362	55470
36.82173	51331
36.82985	48954
36.83798	50272
36.84610	48671
36.85423	52819
36.86235	51166
36.87047	48766
36.87860	51883
36.88672	52235
36.89483	49892
36.90297	55041
36.91108	52800
36.91922	58514
36.92733	52614
36.93545	50473
36.94358	52165
36.95170	53884
36.95983	51766
36.96795	54134
36.97607	54206
36.98420	53550
36.99232	59146
37.00043	49863
37.00857	49002
37.01668	50513
37.02482	50531
37.03293	49431
37.04105	49252
37.04918	52802
37.05730	52046
37.06543	58045
37.07355	56622
37.08167	52776
37.08980	54958
37.09792	55811
37.10605	55678
37.11417	54337
37.12228	54962
37.13042	53723
37.13853	54487
37.14665	52931
37.15478	55215
37.16290	51541
37.17103	55158
37.17915	56045
37.18727	53445
37.19540	56254
37.20352	57197
37.21165	60990
37.21977	56618
37.22788	59322
37.23602	58283
37.24413	58448
37.25225	60842
37.26038	55653
37.26850	60492
37.27663	60149
37.28475	60733
37.29287	60190
37.30100	63344
37.30912	56796
37.31725	59638
37.32537	54625
37.33348	58690
37.34162	64362
37.34973	65827
37.35787	60273
37.36598	62786
37.37410	64330
37.38223	67144
37.39035	70692
37.39847	68084
37.40660	63400
37.41472	67442
37.42285	61870
37.43097	64326
37.43908	59788
37.44722	60372
37.45533	58084
37.46347	62763
37.47158	61543
37.47970	56591
37.48783	58875
