C:\MassHunter\GCMS\1\data\JJB-E15\Burnoff 11252019.D Mon Nov 25 11:03:48 2019
Start of data points
2.09510,232387
2.10322,232388
2.11135,232806
2.11947,234907
2.12760,226237
2.13572,231994
2.14383,226675
2.15197,221306
2.16008,214193
2.16822,208608
2.17633,200281
2.18445,191261
2.19258,184869
2.20070,184795
2.20882,334311
2.21695,423163
2.22507,334470
2.23320,774681
2.24132,3348285
2.24943,8111776
2.25757,1.705851E+07
2.26568,3.064834E+07
2.27382,4.595972E+07
2.28193,6.132795E+07
2.29005,7.640114E+07
2.29818,9.142913E+07
2.30630,1.029625E+08
2.31443,1.059712E+08
2.32255,1.074521E+08
2.33067,1.071214E+08
2.33880,1.06613E+08
2.34692,1.059572E+08
2.35503,1.051881E+08
2.36317,1.039894E+08
2.37128,1.024832E+08
2.37942,1.013916E+08
2.38753,1.001233E+08
2.39565,9.872726E+07
2.40378,9.773252E+07
2.41190,9.666542E+07
2.42003,9.59203E+07
2.42815,9.534377E+07
2.43627,9.491914E+07
2.44440,9.475357E+07
2.45252,9.499797E+07
2.46065,9.377738E+07
2.46877,9.134755E+07
2.47688,9.059419E+07
2.48502,8.974068E+07
2.49313,8.894284E+07
2.50125,8.844871E+07
2.50938,8.811742E+07
2.51750,8.762507E+07
2.52563,8.728615E+07
2.53375,8.684347E+07
2.54187,8.614474E+07
2.55000,8.609078E+07
2.55812,8.579054E+07
2.56625,8.546691E+07
2.57437,8.54749E+07
2.58248,8.540066E+07
2.59062,8.529171E+07
2.59873,8.528542E+07
2.60687,8.522122E+07
2.61498,8.547967E+07
2.62310,8.532146E+07
2.63123,8.531223E+07
2.63935,8.537555E+07
2.64747,8.534516E+07
2.65560,8.544624E+07
2.66372,8.547673E+07
2.67185,8.560226E+07
2.67997,8.565246E+07
2.68808,8.574096E+07
2.69622,8.568514E+07
2.70433,8.573663E+07
2.71247,8.586214E+07
2.72058,8.56629E+07
2.72870,8.58689E+07
2.73683,8.571843E+07
2.74495,8.570785E+07
2.75307,8.577525E+07
2.76120,8.576128E+07
2.76932,8.559734E+07
2.77745,8.568816E+07
2.78557,8.557038E+07
2.79368,8.55682E+07
2.80182,8.537675E+07
2.80993,8.532979E+07
2.81807,8.519742E+07
2.82618,8.52131E+07
2.83430,8.485534E+07
2.84243,8.48306E+07
2.85055,8.447604E+07
2.85868,8.444174E+07
2.86680,8.424714E+07
2.87492,8.39287E+07
2.88305,8.425132E+07
2.89117,8.37388E+07
2.89928,8.349628E+07
2.90742,8.359877E+07
2.91553,8.307375E+07
2.92367,8.317598E+07
2.93178,8.286354E+07
2.93990,8.297441E+07
2.94803,8.278143E+07
2.95615,8.25165E+07
2.96428,8.252909E+07
2.97240,8.214419E+07
2.98052,8.196488E+07
2.98865,8.162712E+07
2.99677,8.147236E+07
3.00488,8.114411E+07
3.01302,8.098198E+07
3.02113,8.103075E+07
3.02927,8.097095E+07
3.03738,8.096466E+07
3.04550,8.078154E+07
3.05363,8.072067E+07
3.06175,8.059166E+07
3.06988,7.980972E+07
3.07800,7.999133E+07
3.08612,7.967738E+07
3.09425,7.92388E+07
3.10237,7.941246E+07
3.11050,7.947103E+07
3.11862,7.878183E+07
3.12673,7.874185E+07
3.13487,7.826109E+07
3.14298,7.804737E+07
3.15110,7.75209E+07
3.15923,7.765769E+07
3.16735,7.735648E+07
3.17548,7.712888E+07
3.18360,7.683422E+07
3.19172,7.681015E+07
3.19985,7.651702E+07
3.20797,7.656396E+07
3.21610,7.614783E+07
3.22422,7.619661E+07
3.23233,7.5805E+07
3.24047,7.505154E+07
3.24858,7.507078E+07
3.25672,7.47175E+07
3.26483,7.479947E+07
3.27295,7.432064E+07
3.28108,7.427793E+07
3.28920,7.437778E+07
3.29732,7.403743E+07
3.30545,7.368538E+07
3.31357,7.358082E+07
3.32170,7.361384E+07
3.32982,7.334049E+07
3.33793,7.325093E+07
3.34607,7.312414E+07
3.35418,7.24161E+07
3.36232,7.245026E+07
3.37043,7.235472E+07
3.37855,7.205904E+07
3.38668,7.108226E+07
3.39480,7.092621E+07
3.40292,7.077709E+07
3.41105,7.024128E+07
3.41917,6.996585E+07
3.42730,7.020456E+07
3.43542,6.957254E+07
3.44353,6.90859E+07
3.45167,6.931427E+07
3.45978,6.911158E+07
3.46792,6.918067E+07
3.47603,6.85131E+07
3.48415,6.82702E+07
3.49228,6.830498E+07
3.50040,6.796533E+07
3.50853,6.79895E+07
3.51665,6.797839E+07
3.52477,6.754724E+07
3.53290,6.739237E+07
3.54102,6.769042E+07
3.54913,6.726426E+07
3.55727,6.716503E+07
3.56538,6.633234E+07
3.57352,6.672732E+07
3.58163,6.635718E+07
3.58975,6.612287E+07
3.59788,6.608122E+07
3.60600,6.597848E+07
3.61413,6.57376E+07
3.62225,6.533832E+07
3.63037,6.507007E+07
3.63850,6.512559E+07
3.64662,6.469941E+07
3.65475,6.42554E+07
3.66287,6.39835E+07
3.67098,6.383135E+07
3.67912,6.381122E+07
3.68723,6.363471E+07
3.69535,6.382718E+07
3.70348,6.31583E+07
3.71160,6.313379E+07
3.71973,6.278235E+07
3.72785,6.256489E+07
3.73597,6.246582E+07
3.74410,6.234086E+07
3.75222,6.286952E+07
3.76035,6.232924E+07
3.76847,6.247956E+07
3.77658,6.229701E+07
3.78472,6.255552E+07
3.79283,6.257449E+07
3.80095,6.190696E+07
3.80908,6.164339E+07
3.81720,6.143697E+07
3.82533,6.12163E+07
3.83345,6.020454E+07
3.84157,6.082514E+07
3.84970,6.079727E+07
3.85782,5.907502E+07
3.86595,6.07039E+07
3.87407,5.889298E+07
3.88218,5.892238E+07
3.89032,5.861355E+07
3.89843,5.870371E+07
3.90657,5.844682E+07
3.91468,5.822603E+07
3.92280,5.795738E+07
3.93093,5.797723E+07
3.93905,5.778062E+07
3.94717,5.768974E+07
3.95530,5.75247E+07
3.96342,5.75868E+07
3.97155,5.756571E+07
3.97967,5.707956E+07
3.98778,5.672117E+07
3.99592,5.6983E+07
4.00403,5.649919E+07
4.01217,5.567915E+07
4.02028,5.551542E+07
4.02840,5.548427E+07
4.03653,5.535579E+07
4.04465,5.543315E+07
4.05277,5.521825E+07
4.06090,5.521773E+07
4.06902,5.482361E+07
4.07715,5.50193E+07
4.08527,5.502243E+07
4.09338,5.437034E+07
4.10152,5.445009E+07
4.10963,5.481888E+07
4.11777,5.423421E+07
4.12588,5.407216E+07
4.13400,5.406178E+07
4.14213,5.423553E+07
4.15025,5.308398E+07
4.15838,5.327334E+07
4.16650,5.338975E+07
4.17462,5.264756E+07
4.18275,5.2861E+07
4.19087,5.266554E+07
4.19898,5.239515E+07
4.20712,5.171954E+07
4.21523,5.178546E+07
4.22337,5.171167E+07
4.23148,5.171816E+07
4.23960,5.149391E+07
4.24773,5.165753E+07
4.25585,5.144322E+07
4.26398,5.121691E+07
4.27210,5.085421E+07
4.28022,5.096694E+07
4.28835,5.05144E+07
4.29647,5.107246E+07
4.30460,5.045899E+07
4.31272,4.976198E+07
4.32083,5.002016E+07
4.32897,4.968713E+07
4.33708,4.951138E+07
4.34520,4.945216E+07
4.35333,4.913977E+07
4.36145,4.919554E+07
4.36958,4.955402E+07
4.37770,4.909699E+07
4.38582,4.859688E+07
4.39395,4.885662E+07
4.40207,4.829113E+07
4.41020,4.82533E+07
4.41832,4.800916E+07
4.42643,4.761636E+07
4.43457,4.748802E+07
4.44268,4.750138E+07
4.45080,4.746886E+07
4.45893,4.79835E+07
4.46705,4.743144E+07
4.47518,4.745796E+07
4.48330,4.729869E+07
4.49142,4.716366E+07
4.49955,4.735924E+07
4.50767,4.705154E+07
4.51580,4.696885E+07
4.52392,4.646334E+07
4.53203,4.602512E+07
4.54017,4.641946E+07
4.54828,4.602566E+07
4.55642,4.585179E+07
4.56453,4.549607E+07
4.57265,4.544638E+07
4.58078,4.505806E+07
4.58890,4.538452E+07
4.59702,4.510194E+07
4.60515,4.520838E+07
4.61327,4.524457E+07
4.62140,4.500484E+07
4.62952,4.4323E+07
4.63763,4.450909E+07
4.64577,4.429205E+07
4.65388,4.383159E+07
4.66202,4.398152E+07
4.67013,4.383847E+07
4.67825,4.366225E+07
4.68638,4.41521E+07
4.69450,4.376604E+07
4.70263,4.403745E+07
4.71075,4.341827E+07
4.71887,4.335163E+07
4.72700,4.345756E+07
4.73512,4.347916E+07
4.74323,4.29988E+07
4.75137,4.309363E+07
4.75948,4.283539E+07
4.76762,4.175407E+07
4.77573,4.172161E+07
4.78385,4.234698E+07
4.79198,4.180296E+07
4.80010,4.237696E+07
4.80823,4.15665E+07
4.81635,4.245736E+07
4.82447,4.200922E+07
4.83260,4.183623E+07
4.84072,4.148493E+07
4.84883,4.145306E+07
4.85697,4.101071E+07
4.86508,4.120153E+07
4.87322,4.121326E+07
4.88133,4.061872E+07
4.88945,4.069251E+07
4.89758,4.083294E+07
4.90570,4.10188E+07
4.91383,4.08026E+07
4.92195,3.984806E+07
4.93007,4.03685E+07
4.93820,4.056067E+07
4.94632,4.031423E+07
4.95445,4.005894E+07
4.96257,3.988786E+07
4.97068,3.999997E+07
4.97882,4.003564E+07
4.98693,3.953428E+07
4.99505,3.896146E+07
5.00318,3.940599E+07
5.01130,3.912225E+07
5.01943,3.9265E+07
5.02755,3.914901E+07
5.03567,3.910185E+07
5.04380,3.87595E+07
5.05192,3.901907E+07
5.06005,3.855136E+07
5.06817,3.856574E+07
5.07628,3.858063E+07
5.08442,3.864345E+07
5.09253,3.847576E+07
5.10067,3.833698E+07
5.10878,3.855397E+07
5.11690,3.848174E+07
5.12503,3.8133E+07
5.13315,3.787906E+07
5.14127,3.76756E+07
5.14940,3.787872E+07
5.15752,3.707644E+07
5.16565,3.73017E+07
5.17377,3.716943E+07
5.18188,3.709456E+07
5.19002,3.707665E+07
5.19813,3.738466E+07
5.20627,3.654304E+07
5.21438,3.676984E+07
5.22250,3.649012E+07
5.23063,3.654894E+07
5.23875,3.658364E+07
5.24687,3.626042E+07
5.25500,3.616383E+07
5.26312,3.621554E+07
5.27125,3.655132E+07
5.27937,3.599308E+07
5.28748,3.623248E+07
5.29562,3.586066E+07
5.30373,3.514101E+07
5.31187,1.859153E+07
5.31998,577083
5.32810,218950
5.33623,208857
5.34435,206601
5.35248,196294
5.36060,191069
5.36872,190574
5.37685,181683
5.38497,184549
5.39308,185780
5.40122,187064
5.40933,172540
5.41747,162201
5.42558,166152
5.43370,154234
5.44183,154511
5.44995,147182
5.45808,153698
5.46620,142704
5.47432,150056
5.48245,155284
5.49057,149577
5.49868,148603
5.50682,144971
5.51493,151370
5.52307,147086
5.53118,144564
5.53930,141284
5.54743,142117
5.55555,145271
5.56368,139955
5.57180,143508
5.57992,137374
5.58805,135144
5.59617,136746
5.60430,139295
5.61242,150977
5.62053,150196
5.62867,145419
5.63678,140660
5.64490,133599
5.65303,137716
5.66115,132779
5.66928,139085
5.67740,132436
5.68552,131803
5.69365,135598
5.70177,130441
5.70990,135661
5.71802,135291
5.72613,137840
5.73427,134964
5.74238,141861
5.75052,137469
5.75863,142564
5.76675,130194
5.77488,127027
5.78300,124116
5.79112,145400
5.79925,159123
5.80737,181262
5.81550,200358
5.82362,200203
5.83173,175258
5.83987,145469
5.84798,132708
5.85612,130200
5.86423,117683
5.87235,122947
5.88048,123732
5.88860,130149
5.89672,126058
5.90485,143461
5.91297,147252
5.92110,147606
5.92922,134463
5.93733,116396
5.94547,119692
5.95358,105666
5.96172,112662
5.96983,106114
5.97795,99585
5.98608,102737
5.99420,104997
6.00233,95097
6.01045,102435
6.01857,104731
6.02670,93970
6.03482,99846
6.04293,98271
6.05107,100550
6.05918,109182
6.06732,100886
6.07543,102540
6.08355,98823
6.09168,106331
6.09980,99810
6.10793,95170
6.11605,105691
6.12417,101121
6.13230,105723
6.14042,96334
6.14855,97410
6.15667,95631
6.16478,100356
6.17292,91469
6.18103,95219
6.18915,93286
6.19728,94034
6.20540,101159
6.21353,92489
6.22165,91944
6.22977,95189
6.23790,95507
6.24602,100670
6.25415,100032
6.26227,90632
6.27038,95658
6.27852,92052
6.28663,86587
6.29475,87602
6.30288,90200
6.31100,87872
6.31913,92095
6.32725,90831
6.33537,90142
6.34350,91304
6.35162,82651
6.35975,92542
6.36787,88661
6.37598,86793
6.38412,83552
6.39223,86791
6.40037,92600
6.40848,88724
6.41660,84620
6.42473,85519
6.43285,84825
6.44097,92856
6.44910,83101
6.45722,84067
6.46535,87897
6.47347,89228
6.48158,85899
6.48972,82411
6.49783,82413
6.50597,89308
6.51408,82576
6.52220,80832
6.53033,81760
6.53845,88068
6.54657,81890
6.55470,80630
6.56282,82805
6.57095,78753
6.57907,85278
6.58718,81972
6.59532,86888
6.60343,79682
6.61157,79781
6.61968,77622
6.62780,79833
6.63593,80646
6.64405,83059
6.65218,80449
6.66030,83746
6.66842,85358
6.67655,84795
6.68467,76650
6.69278,75401
6.70092,81161
6.70903,77192
6.71717,77798
6.72528,77077
6.73340,76462
6.74153,75945
6.74965,76087
6.75778,76861
6.76590,77731
6.77402,75552
6.78215,74978
6.79027,80088
6.79840,72442
6.80652,79303
6.81463,89407
6.82277,122831
6.83088,168587
6.83900,212486
6.84713,233507
6.85525,252472
6.86338,369216
6.87150,632821
6.87962,938013
6.88775,1013297
6.89587,799837
6.90400,488943
6.91212,258515
6.92023,163284
6.92837,123385
6.93648,120006
6.94462,106052
6.95273,111568
6.96085,117819
6.96898,130840
6.97710,150203
6.98522,162900
6.99335,156921
7.00147,145020
7.00960,119874
7.01772,107156
7.02583,88914
7.03397,88558
7.04208,86952
7.05022,85498
7.05833,78400
7.06645,77238
7.07458,84630
7.08270,79336
7.09082,80466
7.09895,84341
7.10707,86065
7.11520,88982
7.12332,97743
7.13143,100593
7.13957,103869
7.14768,105412
7.15582,93503
7.16393,85151
7.17205,90327
7.18018,80858
7.18830,78131
7.19643,75527
7.20455,74082
7.21267,83103
7.22080,77876
7.22892,74958
7.23703,72747
7.24517,69659
7.25328,72066
7.26142,74307
7.26953,70316
7.27765,70836
7.28578,71278
7.29390,69081
7.30203,69352
7.31015,71463
7.31827,74182
7.32640,66790
7.33452,70183
7.34263,74196
7.35077,76990
7.35888,80560
7.36702,81265
7.37513,86164
7.38325,79273
7.39138,71268
7.39950,78829
7.40763,72717
7.41575,71233
7.42387,78214
7.43200,76312
7.44012,69349
7.44825,70362
7.45637,75043
7.46448,82319
7.47262,102021
7.48073,137413
7.48885,207667
7.49698,310800
7.50510,391493
7.51323,418965
7.52135,367555
7.52947,282788
7.53760,194636
7.54572,134997
7.55385,108405
7.56197,92093
7.57008,81562
7.57822,89485
7.58633,77350
7.59447,75034
7.60258,78815
7.61070,72178
7.61883,69696
7.62695,69824
7.63507,66584
7.64320,70450
7.65132,70306
7.65945,66113
7.66757,71292
7.67568,67015
7.68382,62283
7.69193,67578
7.70007,67411
7.70818,66003
7.71630,64853
7.72443,67458
7.73255,69203
7.74067,62570
7.74880,59776
7.75692,61076
7.76505,65329
7.77317,66917
7.78128,63723
7.78942,62647
7.79753,66803
7.80567,73717
7.81378,87477
7.82190,125970
7.83003,149117
7.83815,155238
7.84628,135087
7.85440,106519
7.86252,88925
7.87065,77563
7.87877,69560
7.88688,67951
7.89502,64339
7.90313,67693
7.91127,60146
7.91938,61731
7.92750,63704
7.93563,65096
7.94375,59908
7.95188,60461
7.96000,63717
7.96812,64719
7.97625,58308
7.98437,64242
7.99250,61883
8.00062,60032
8.00873,59900
8.01687,62762
8.02498,62590
8.03310,62466
8.04123,58473
8.04935,62766
8.05748,55953
8.06560,57840
8.07372,60241
8.08185,60282
8.08997,57280
8.09810,56408
8.10622,58650
8.11433,59826
8.12247,53582
8.13058,54974
8.13870,54204
8.14683,57781
8.15495,56227
8.16308,50041
8.17120,53105
8.17932,56118
8.18745,51546
8.19557,58173
8.20370,54538
8.21182,56689
8.21993,50074
8.22807,58791
8.23618,53282
8.24432,48996
8.25243,51235
8.26055,54592
8.26868,51562
8.27680,55330
8.28492,53375
8.29305,57412
8.30117,53994
8.30930,54820
8.31742,53392
8.32553,54197
8.33367,50193
8.34178,56256
8.34992,51282
8.35803,52609
8.36615,54891
8.37428,49764
8.38240,50147
8.39052,51232
8.39865,48430
8.40677,46633
8.41490,49708
8.42302,52029
8.43113,49526
8.43927,55093
8.44738,49587
8.45552,47640
8.46363,49266
8.47175,53054
8.47988,50270
8.48800,48195
8.49613,46994
8.50425,52216
8.51237,52294
8.52050,52396
8.52862,52917
8.53673,48383
8.54487,48602
8.55298,47305
8.56112,49696
8.56923,53413
8.57735,49244
8.58548,52290
8.59360,48547
8.60173,53947
8.60985,50892
8.61797,49833
8.62610,48667
8.63422,48824
8.64235,50730
8.65047,50653
8.65858,46939
8.66672,49502
8.67483,47385
8.68295,48646
8.69108,48600
8.69920,51050
8.70733,54132
8.71545,56984
8.72357,68730
8.73170,78720
8.73982,84683
8.74795,79177
8.75607,71751
8.76418,65740
8.77232,58458
8.78043,50693
8.78855,49618
8.79668,50320
8.80480,49077
8.81293,46099
8.82105,49840
8.82917,49552
8.83730,46246
8.84542,46018
8.85355,50594
8.86167,48987
8.86978,47412
8.87792,50878
8.88603,47282
8.89417,46487
8.90228,45907
8.91040,45516
8.91853,47218
8.92665,44581
8.93477,48617
8.94290,48600
8.95102,46736
8.95915,45854
8.96727,44980
8.97538,46074
8.98352,50163
8.99163,51080
8.99977,49513
9.00788,45733
9.01600,45743
9.02413,45841
9.03225,50027
9.04038,47386
9.04850,48350
9.05662,46884
9.06475,45239
9.07287,46893
9.08098,43811
9.08912,46416
9.09723,50392
9.10537,47114
9.11348,43937
9.12160,46624
9.12973,48836
9.13785,47627
9.14598,50627
9.15410,50846
9.16222,50153
9.17035,46407
9.17847,44765
9.18658,45670
9.19472,43822
9.20283,49515
9.21097,46430
9.21908,45851
9.22720,45025
9.23533,44093
9.24345,44852
9.25158,43129
9.25970,46492
9.26782,42178
9.27595,42806
9.28407,42490
9.29220,43900
9.30032,41686
9.30843,42784
9.31657,43723
9.32468,44540
9.33280,44145
9.34093,46170
9.34905,40882
9.35718,48037
9.36530,44011
9.37342,43343
9.38155,44344
9.38967,41818
9.39780,41973
9.40592,43251
9.41403,44069
9.42217,41420
9.43028,41533
9.43840,42747
9.44653,45052
9.45465,44187
9.46278,45367
9.47090,43660
9.47902,43897
9.48715,44818
9.49527,51017
9.50340,52922
9.51152,50583
9.51963,52371
9.52777,47387
9.53588,47517
9.54402,44493
9.55213,45240
9.56025,46091
9.56838,41621
9.57650,47114
9.58462,46350
9.59275,56858
9.60087,57151
9.60900,49250
9.61712,46765
9.62523,51626
9.63337,45254
9.64148,43389
9.64962,41108
9.65773,38675
9.66585,39966
9.67398,38527
9.68210,43621
9.69023,47329
9.69835,42521
9.70647,44285
9.71460,44053
9.72272,41781
9.73083,37225
9.73897,40892
9.74708,41965
9.75522,40226
9.76333,40823
9.77145,41534
9.77958,41461
9.78770,37156
9.79583,38907
9.80395,40164
9.81207,42929
9.82020,40448
9.82832,36950
9.83643,35757
9.84457,39643
9.85268,39590
9.86082,41829
9.86893,39336
9.87705,41620
9.88518,47364
9.89330,42973
9.90143,38638
9.90955,40396
9.91767,38338
9.92580,43712
9.93392,44927
9.94205,34851
9.95017,42353
9.95828,42954
9.96642,44777
9.97453,46582
9.98265,56670
9.99078,64408
9.99890,69269
10.00703,60448
10.01515,61568
10.02327,51604
10.03140,47213
10.03952,45463
10.04765,40180
10.05577,39085
10.06388,41444
10.07202,37491
10.08013,37782
10.08827,39891
10.09638,40280
10.10450,38848
10.11263,40287
10.12075,39732
10.12887,38664
10.13700,36897
10.14512,38519
10.15325,40585
10.16137,39863
10.16948,37706
10.17762,39329
10.18573,42354
10.19387,38428
10.20198,38556
10.21010,45180
10.21823,39914
10.22635,42998
10.23447,37827
10.24260,40587
10.25072,40228
10.25885,38537
10.26697,37951
10.27508,40660
10.28322,38106
10.29133,40462
10.29947,38047
10.30758,37560
10.31570,40584
10.32383,38407
10.33195,35465
10.34008,39071
10.34820,37935
10.35632,39837
10.36445,38646
10.37257,37393
10.38068,37862
10.38882,40132
10.39693,38257
10.40507,38198
10.41318,36132
10.42130,38667
10.42943,34536
10.43755,38134
10.44568,38448
10.45380,37403
10.46192,34664
10.47005,37244
10.47817,39408
10.48630,39470
10.49442,37049
10.50253,41863
10.51067,43570
10.51878,51840
10.52690,51921
10.53503,52252
10.54315,48218
10.55128,40481
10.55940,41108
10.56752,38777
10.57565,36220
10.58377,40834
10.59190,42795
10.60002,42964
10.60813,35070
10.61627,45458
10.62438,36137
10.63250,35976
10.64063,34315
10.64875,38845
10.65688,39872
10.66500,35559
10.67312,37270
10.68125,36069
10.68937,40063
10.69750,36286
10.70562,35263
10.71373,38497
10.72187,37124
10.72998,35605
10.73812,37379
10.74623,34445
10.75435,33955
10.76248,35555
10.77060,38662
10.77872,37563
10.78685,35438
10.79497,33151
10.80310,37256
10.81122,34876
10.81933,33900
10.82747,34419
10.83558,32736
10.84372,34306
10.85183,35085
10.85995,34104
10.86808,32624
10.87620,30814
10.88432,34352
10.89245,37403
10.90057,32943
10.90870,35183
10.91682,35912
10.92493,32141
10.93307,32465
10.94118,33589
10.94932,33031
10.95743,34088
10.96555,32048
10.97368,35564
10.98180,35789
10.98993,33798
10.99805,33713
11.00617,36061
11.01430,34031
11.02242,36616
11.03053,35483
11.03867,38298
11.04678,42767
11.05492,51447
11.06303,70167
11.07115,98613
11.07928,123947
11.08740,129850
11.09553,130306
11.10365,111650
11.11177,97315
11.11990,72708
11.12802,58068
11.13615,49434
11.14427,45642
11.15238,43405
11.16052,38861
11.16863,38384
11.17675,37138
11.18488,35198
11.19300,39762
11.20113,36102
11.20925,35638
11.21737,37350
11.22550,33883
11.23362,34449
11.24175,35417
11.24987,43387
11.25798,34313
11.26612,33295
11.27423,31205
11.28235,35475
11.29048,35058
11.29860,41070
11.30673,43629
11.31485,46736
11.32297,51526
11.33110,52795
11.33922,45224
11.34735,44379
11.35547,38288
11.36358,36815
11.37172,37757
11.37983,35792
11.38797,35025
11.39608,34420
11.40420,35734
11.41233,30889
11.42045,33861
11.42857,36443
11.43670,36701
11.44482,33955
11.45295,34569
11.46107,36885
11.46918,34558
11.47732,34714
11.48543,33387
11.49357,34418
11.50168,32157
11.50980,33780
11.51793,38056
11.52605,36096
11.53418,34318
11.54230,30847
11.55042,40796
11.55855,37457
11.56667,45067
11.57478,56828
11.58292,67964
11.59103,94429
11.59917,107937
11.60728,120784
11.61540,116010
11.62353,96457
11.63165,76449
11.63978,58367
11.64790,44933
11.65602,40838
11.66415,44090
11.67227,54504
11.68038,78089
11.68852,113440
11.69663,152607
11.70477,164820
11.71288,158370
11.72100,120453
11.72913,88061
11.73725,60845
11.74538,48186
11.75350,42755
11.76162,40578
11.76975,40737
11.77787,41514
11.78600,40431
11.79412,36706
11.80223,34742
11.81037,35962
11.81848,34539
11.82660,35165
11.83473,36620
11.84285,35859
11.85098,34369
11.85910,35824
11.86722,37088
11.87535,37158
11.88347,33278
11.89160,34401
11.89972,34382
11.90783,32332
11.91597,30884
11.92408,36888
11.93220,31872
11.94033,33262
11.94845,35220
11.95658,38620
11.96470,36934
11.97282,37625
11.98095,34096
11.98907,32546
11.99720,33354
12.00532,33980
12.01343,30812
12.02157,36075
12.02968,31886
12.03782,33616
12.04593,35738
12.05405,39191
12.06218,36349
12.07030,38102
12.07842,37297
12.08655,32930
12.09467,33296
12.10280,31621
12.11092,33513
12.11903,32121
12.12717,31209
12.13528,33678
12.14342,34301
12.15153,27427
12.15965,32365
12.16778,35578
12.17590,38866
12.18403,31176
12.19215,32697
12.20027,33471
12.20840,33138
12.21652,29798
12.22463,28481
12.23277,30825
12.24088,33757
12.24902,36527
12.25713,32663
12.26525,25765
12.27338,34389
12.28150,32929
12.28963,30983
12.29775,30661
12.30587,35309
12.31400,33647
12.32212,31282
12.33025,32824
12.33837,31115
12.34648,32108
12.35462,32872
12.36273,28952
12.37085,30992
12.37898,29906
12.38710,30561
12.39523,30546
12.40335,32209
12.41147,34288
12.41960,31450
12.42772,29443
12.43585,29491
12.44397,31330
12.45208,31808
12.46022,29222
12.46833,28697
12.47645,28741
12.48458,29098
12.49270,27860
12.50083,30331
12.50895,30656
12.51707,30929
12.52520,30246
12.53332,36322
12.54145,42676
12.54957,54198
12.55768,62837
12.56582,59463
12.57393,57555
12.58207,49554
12.59018,40764
12.59830,38472
12.60643,31970
12.61455,30444
12.62267,30499
12.63080,35178
12.63892,36266
12.64705,27667
12.65517,31687
12.66328,27170
12.67142,27580
12.67953,26734
12.68767,26758
12.69578,28826
12.70390,29047
12.71203,29272
12.72015,30803
12.72827,30338
12.73640,33094
12.74452,31747
12.75265,31244
12.76077,29926
12.76888,31816
12.77702,27789
12.78513,30314
12.79327,28163
12.80138,30040
12.80950,31736
12.81763,30128
12.82575,32410
12.83388,30841
12.84200,33806
12.85012,27698
12.85825,29273
12.86637,33756
12.87448,27977
12.88262,28139
12.89073,29461
12.89887,26626
12.90698,27222
12.91510,30370
12.92323,27589
12.93135,31903
12.93948,33469
12.94760,29768
12.95572,29975
12.96385,32550
12.97197,37680
12.98010,39677
12.98822,39438
12.99633,39483
13.00447,39027
13.01258,38580
13.02070,34237
13.02883,27214
13.03695,27252
13.04508,28552
13.05320,28635
13.06132,27691
13.06945,28546
13.07757,27237
13.08570,27575
13.09382,31287
13.10193,28345
13.11007,29009
13.11818,26369
13.12630,28033
13.13443,29430
13.14255,32443
13.15068,26158
13.15880,26188
13.16692,28105
13.17505,24367
13.18317,28864
13.19130,27221
13.19942,27170
13.20753,28867
13.21567,26300
13.22378,26765
13.23192,26793
13.24003,31694
13.24815,28524
13.25628,26631
13.26440,28954
13.27252,29702
13.28065,36276
13.28877,31326
13.29690,30542
13.30502,30374
13.31313,31985
13.32127,30807
13.32938,34175
13.33752,32963
13.34563,34991
13.35375,31217
13.36188,32210
13.37000,35519
13.37813,30162
13.38625,30118
13.39437,30346
13.40250,28974
13.41062,29129
13.41873,28537
13.42687,28883
13.43498,27040
13.44312,29420
13.45123,27734
13.45935,28175
13.46748,26267
13.47560,23442
13.48373,26781
13.49185,26159
13.49997,23901
13.50810,26257
13.51622,27665
13.52433,27695
13.53247,28275
13.54058,27007
13.54872,28814
13.55683,29189
13.56495,30698
13.57308,31026
13.58120,28461
13.58933,30059
13.59745,28866
13.60557,31387
13.61370,30222
13.62182,28441
13.62995,29894
13.63807,32169
13.64618,27947
13.65432,31874
13.66243,28313
13.67055,26450
13.67868,26646
13.68680,30671
13.69493,28194
13.70305,26313
13.71117,26035
13.71930,26140
13.72742,28025
13.73555,27426
13.74367,24887
13.75178,26050
13.75992,25496
13.76803,23998
13.77615,23610
13.78428,28321
13.79240,24870
13.80053,24314
13.80865,25404
13.81677,27887
13.82490,29308
13.83302,24442
13.84115,24360
13.84927,23353
13.85738,23431
13.86552,23661
13.87363,25394
13.88177,25643
13.88988,26473
13.89800,24456
13.90613,25142
13.91425,25867
13.92237,25144
13.93050,24644
13.93862,26673
13.94675,24227
13.95487,26992
13.96298,27983
13.97112,28632
13.97923,25310
13.98737,25524
13.99548,26697
14.00360,32858
14.01173,26682
14.01985,25955
14.02798,26599
14.03610,25599
14.04422,28423
14.05235,27214
14.06047,30009
14.06858,22415
14.07672,26278
14.08483,26353
14.09297,25253
14.10108,24485
14.10920,27780
14.11733,32223
14.12545,33560
14.13358,35688
14.14170,41997
14.14982,56871
14.15795,71252
14.16607,90884
14.17418,98912
14.18232,83162
14.19043,75268
14.19857,53738
14.20668,40870
14.21480,34687
14.22293,30522
14.23105,26509
14.23918,28635
14.24730,28273
14.25542,34188
14.26355,28129
14.27167,23804
14.27980,24270
14.28792,27352
14.29603,26571
14.30417,26985
14.31228,26936
14.32040,26303
14.32853,29002
14.33665,26931
14.34478,26676
14.35290,24178
14.36102,24754
14.36915,29683
14.37727,24434
14.38540,23861
14.39352,25168
14.40163,24139
14.40977,23852
14.41788,23625
14.42602,25307
14.43413,25078
14.44225,26247
14.45038,28661
14.45850,24467
14.46662,27472
14.47475,25684
14.48287,25972
14.49100,24924
14.49912,25741
14.50723,27412
14.51537,26281
14.52348,25002
14.53162,26118
14.53973,24435
14.54785,22155
14.55598,26793
14.56410,26387
14.57222,23136
14.58035,24842
14.58847,26206
14.59660,27048
14.60472,25868
14.61283,25453
14.62097,24422
14.62908,24504
14.63722,26007
14.64533,23908
14.65345,26116
14.66158,23349
14.66970,23688
14.67783,22074
14.68595,23588
14.69407,24530
14.70220,26361
14.71032,28003
14.71843,23855
14.72657,24792
14.73468,25257
14.74282,22241
14.75093,26632
14.75905,29626
14.76718,39918
14.77530,78667
14.78343,160865
14.79155,305630
14.79967,519392
14.80780,704459
14.81592,752956
14.82403,652794
14.83217,444917
14.84028,276469
14.84842,163098
14.85653,109847
14.86465,85067
14.87278,71760
14.88090,65825
14.88903,59689
14.89715,53088
14.90527,52766
14.91340,51299
14.92152,43606
14.92965,43470
14.93777,43866
14.94588,40357
14.95402,38433
14.96213,39646
14.97025,37048
14.97838,39213
14.98650,36722
14.99463,39995
15.00275,37386
15.01087,34758
15.01900,33527
15.02712,32720
15.03525,36209
15.04337,34365
15.05148,31762
15.05962,33431
15.06773,34776
15.07587,35096
15.08398,36489
15.09210,49885
15.10023,72128
15.10835,114588
15.11647,158131
15.12460,201414
15.13272,202783
15.14085,159208
15.14897,121307
15.15708,89261
15.16522,63178
15.17333,57930
15.18147,44554
15.18958,41638
15.19770,39307
15.20583,39053
15.21395,37072
15.22207,37452
15.23020,36389
15.23832,34792
15.24645,30927
15.25457,32798
15.26268,34147
15.27082,33784
15.27893,31243
15.28707,30613
15.29518,29427
15.30330,30710
15.31143,30538
15.31955,33104
15.32768,31683
15.33580,35442
15.34392,32898
15.35205,39008
15.36017,30492
15.36828,33914
15.37642,32759
15.38453,34009
15.39267,34244
15.40078,32069
15.40890,28770
15.41703,29523
15.42515,28831
15.43328,25563
15.44140,27584
15.44952,27461
15.45765,28116
15.46577,31601
15.47390,25824
15.48202,28793
15.49013,31053
15.49827,26361
15.50638,26391
15.51450,26564
15.52263,27888
15.53075,27360
15.53888,29590
15.54700,28207
15.55512,29472
15.56325,26361
15.57137,27057
15.57950,25178
15.58762,23451
15.59573,26186
15.60387,26433
15.61198,22944
15.62010,26434
15.62823,28250
15.63635,26629
15.64448,27464
15.65260,26456
15.66072,25821
15.66885,27124
15.67697,27298
15.68510,23670
15.69322,25594
15.70133,26262
15.70947,27391
15.71758,26946
15.72572,24637
15.73383,28892
15.74195,28065
15.75008,31342
15.75820,31254
15.76632,36061
15.77445,37898
15.78257,40176
15.79070,30478
15.79882,34358
15.80693,29850
15.81507,27380
15.82318,33425
15.83132,27575
15.83943,27426
15.84755,27909
15.85568,24612
15.86380,26972
15.87193,26372
15.88005,25369
15.88817,24981
15.89630,25605
15.90442,26246
15.91253,25478
15.92067,26128
15.92878,23758
15.93692,23864
15.94503,29146
15.95315,26744
15.96128,25035
15.96940,27443
15.97753,26727
15.98565,27989
15.99377,27097
16.00190,27526
16.01002,30746
16.01813,30537
16.02627,31875
16.03438,30129
16.04252,30491
16.05063,32277
16.05875,29221
16.06688,30422
16.07500,26744
16.08313,25190
16.09125,27131
16.09937,24554
16.10750,26048
16.11562,23568
16.12375,25954
16.13187,26185
16.13998,23866
16.14812,24851
16.15623,25619
16.16435,24376
16.17248,25423
16.18060,28732
16.18873,23245
16.19685,25116
16.20497,20970
16.21310,23850
16.22122,25788
16.22935,25854
16.23747,22746
16.24558,24291
16.25372,22381
16.26183,24209
16.26995,23131
16.27808,26604
16.28620,25057
16.29433,25598
16.30245,23501
16.31057,25322
16.31870,24387
16.32682,24965
16.33495,28570
16.34307,26807
16.35118,27685
16.35932,23570
16.36743,28307
16.37557,24637
16.38368,27787
16.39180,24047
16.39993,23387
16.40805,26274
16.41617,27115
16.42430,28910
16.43242,39500
16.44055,51847
16.44867,78830
16.45678,105995
16.46492,106827
16.47303,106697
16.48117,92719
16.48928,63254
16.49740,48251
16.50553,40999
16.51365,34487
16.52178,31134
16.52990,30518
16.53802,28141
16.54615,28567
16.55427,30328
16.56238,30980
16.57052,31619
16.57863,27123
16.58677,26895
16.59488,29574
16.60300,26585
16.61113,29122
16.61925,29551
16.62738,24932
16.63550,29383
16.64362,24831
16.65175,27284
16.65987,22053
16.66798,26076
16.67612,25358
16.68423,26678
16.69237,27953
16.70048,26494
16.70860,25776
16.71673,26196
16.72485,25626
16.73298,26099
16.74110,24184
16.74922,25198
16.75735,27227
16.76547,31923
16.77360,26319
16.78172,22541
16.78983,23166
16.79797,25791
16.80608,25561
16.81420,29762
16.82233,26823
16.83045,32045
16.83858,30316
16.84670,30136
16.85482,27876
16.86295,23352
16.87107,23597
16.87920,24381
16.88732,24745
16.89543,24375
16.90357,25246
16.91168,25900
16.91982,26265
16.92793,23427
16.93605,24339
16.94418,24436
16.95230,23208
16.96042,21643
16.96855,22274
16.97667,24557
16.98480,26710
16.99292,24996
17.00103,24921
17.00917,25375
17.01728,24762
17.02542,26985
17.03353,24832
17.04165,23672
17.04978,21751
17.05790,23154
17.06602,24962
17.07415,26763
17.08227,25457
17.09040,25277
17.09852,24129
17.10663,23802
17.11477,26102
17.12288,23843
17.13102,22973
17.13913,26561
17.14725,22292
17.15538,28089
17.16350,25403
17.17163,23877
17.17975,26933
17.18787,23992
17.19600,21269
17.20412,27153
17.21223,26790
17.22037,22773
17.22848,28849
17.23662,25076
17.24473,26583
17.25285,26093
17.26098,21822
17.26910,23899
17.27723,23202
17.28535,23024
17.29347,22455
17.30160,23357
17.30972,23270
17.31783,24063
17.32597,24167
17.33408,24486
17.34222,28474
17.35033,28521
17.35845,25743
17.36658,26299
17.37470,22622
17.38283,25627
17.39095,24563
17.39907,23050
17.40720,23098
17.41532,24516
17.42345,27425
17.43157,24591
17.43968,23741
17.44782,24509
17.45593,26833
17.46405,21541
17.47218,27608
17.48030,23570
17.48843,19590
17.49655,22415
17.50467,25338
17.51280,24037
17.52092,27448
17.52905,26039
17.53717,22653
17.54528,23905
17.55342,25014
17.56153,24673
17.56967,26080
17.57778,25975
17.58590,31118
17.59403,26365
17.60215,24923
17.61027,26069
17.61840,26249
17.62652,25905
17.63465,24674
17.64277,23744
17.65088,25247
17.65902,24812
17.66713,24222
17.67527,24769
17.68338,25790
17.69150,21916
17.69963,21111
17.70775,21242
17.71588,21622
17.72400,23789
17.73212,25660
17.74025,24697
17.74837,23027
17.75648,23047
17.76462,24195
17.77273,23368
17.78087,22659
17.78898,20541
17.79710,27464
17.80523,22382
17.81335,24317
17.82148,21662
17.82960,20779
17.83772,19939
17.84585,23407
17.85397,23201
17.86208,22906
17.87022,24241
17.87833,20966
17.88647,20730
17.89458,21277
17.90270,22202
17.91083,22965
17.91895,24336
17.92708,21691
17.93520,23275
17.94332,23770
17.95145,24990
17.95957,22052
17.96770,24280
17.97582,27427
17.98393,25564
17.99207,24917
18.00018,26798
18.00830,25730
18.01643,22928
18.02455,25287
18.03268,26037
18.04080,24269
18.04892,22838
18.05705,24107
18.06517,24036
18.07330,26043
18.08142,22182
18.08953,22025
18.09767,22915
18.10578,23431
18.11390,23011
18.12203,24536
18.13015,26316
18.13828,22979
18.14640,23798
18.15452,23128
18.16265,21832
18.17077,19176
18.17890,23406
18.18702,18837
18.19513,23165
18.20327,25667
18.21138,23102
18.21952,24929
18.22763,27376
18.23575,27651
18.24388,25547
18.25200,29201
18.26012,22821
18.26825,22131
18.27637,21575
18.28450,24330
18.29262,25336
18.30073,22941
18.30887,26563
18.31698,21560
18.32512,22816
18.33323,20997
18.34135,22206
18.34948,18542
18.35760,22607
18.36573,22052
18.37385,22392
18.38197,21519
18.39010,23527
18.39822,20939
18.40633,20625
18.41447,22291
18.42258,26555
18.43072,23660
18.43883,23739
18.44695,23315
18.45508,23442
18.46320,29342
18.47133,22768
18.47945,21864
18.48757,24436
18.49570,21074
18.50382,23026
18.51193,22219
18.52007,19068
18.52818,20715
18.53632,19825
18.54443,22500
18.55255,20913
18.56068,19401
18.56880,19820
18.57693,23427
18.58505,22569
18.59317,23470
18.60130,21566
18.60942,19341
18.61755,23053
18.62567,21425
18.63378,21703
18.64192,19161
18.65003,21171
18.65815,20093
18.66628,22906
18.67440,20499
18.68253,21851
18.69065,20192
18.69877,22397
18.70690,20684
18.71502,21423
18.72315,21512
18.73127,24492
18.73938,26919
18.74752,26016
18.75563,24121
18.76377,26076
18.77188,25876
18.78000,26388
18.78813,24316
18.79625,22474
18.80437,22171
18.81250,21062
18.82062,21980
18.82875,21966
18.83687,21067
18.84498,21482
18.85312,19582
18.86123,22202
18.86937,20786
18.87748,21865
18.88560,21586
18.89373,22094
18.90185,21740
18.90997,23209
18.91810,25701
18.92622,23593
18.93435,22040
18.94247,20132
18.95058,21913
18.95872,20162
18.96683,20897
18.97497,21478
18.98308,21831
18.99120,22427
18.99933,18845
19.00745,22617
19.01558,21665
19.02370,20734
19.03182,25543
19.03995,21763
19.04807,23990
19.05618,22537
19.06432,19804
19.07243,26226
19.08057,21300
19.08868,23752
19.09680,22225
19.10493,28519
19.11305,29199
19.12118,29076
19.12930,30971
19.13742,26307
19.14555,25003
19.15367,24752
19.16178,22812
19.16992,20082
19.17803,21293
19.18617,22928
19.19428,21799
19.20240,21745
19.21053,20900
19.21865,20198
19.22678,21964
19.23490,23097
19.24302,25592
19.25115,23673
19.25927,23042
19.26740,27191
19.27552,22889
19.28363,23024
19.29177,23545
19.29988,21003
19.30800,21954
19.31613,21102
19.32425,22620
19.33238,21841
19.34050,21805
19.34862,25523
19.35675,31563
19.36487,44526
19.37300,54453
19.38112,59857
19.38923,54301
19.39737,46101
19.40548,36865
19.41362,27296
19.42173,27706
19.42985,25592
19.43798,25945
19.44610,25023
19.45422,22931
19.46235,24195
19.47047,23143
19.47860,21408
19.48672,22748
19.49483,18403
19.50297,19924
19.51108,23659
19.51922,21389
19.52733,19596
19.53545,20077
19.54358,20252
19.55170,20002
19.55982,20480
19.56795,23735
19.57607,21579
19.58420,18885
19.59232,16676
19.60043,20335
19.60857,21250
19.61668,22863
19.62482,23168
19.63293,21727
19.64105,20345
19.64918,19673
19.65730,20262
19.66543,18086
19.67355,23715
19.68167,17255
19.68980,19517
19.69792,19793
19.70603,21305
19.71417,20839
19.72228,19076
19.73042,17554
19.73853,18885
19.74665,20392
19.75478,18005
19.76290,17434
19.77103,19271
19.77915,21199
19.78727,23424
19.79540,17266
19.80352,20930
19.81165,19636
19.81977,18739
19.82788,19627
19.83602,17647
19.84413,23238
19.85225,19404
19.86038,19162
19.86850,18628
19.87663,20737
19.88475,20154
19.89287,19765
19.90100,18926
19.90912,18665
19.91725,17642
19.92537,17247
19.93348,18270
19.94162,20257
19.94973,16628
19.95785,17448
19.96598,17806
19.97410,18192
19.98223,18038
19.99035,19356
19.99847,18025
20.00660,18108
20.01472,20642
20.02285,18070
20.03097,17149
20.03908,17130
20.04722,19289
20.05533,15182
20.06347,18716
20.07158,16477
20.07970,20309
20.08783,16645
20.09595,17755
20.10407,17849
20.11220,18770
20.12032,17654
20.12845,18485
20.13657,22836
20.14468,21553
20.15282,20300
20.16093,17338
20.16907,20031
20.17718,19758
20.18530,18211
20.19343,17085
20.20155,17563
20.20967,19084
20.21780,19323
20.22592,18918
20.23405,19869
20.24217,20108
20.25028,19668
20.25842,20576
20.26653,19147
20.27467,22030
20.28278,18986
20.29090,18433
20.29903,18628
20.30715,18214
20.31528,18937
20.32340,18000
20.33152,17577
20.33965,15769
20.34777,15517
20.35588,15616
20.36402,18690
20.37213,19499
20.38027,20269
20.38838,20039
20.39650,21685
20.40463,23746
20.41275,22415
20.42088,22799
20.42900,19601
20.43712,19116
20.44525,20035
20.45337,17880
20.46150,22689
20.46962,21539
20.47773,19742
20.48587,18296
20.49398,21447
20.50210,17070
20.51023,16494
20.51835,18020
20.52648,16381
20.53460,16449
20.54272,18160
20.55085,16455
20.55897,18888
20.56710,19023
20.57522,16292
20.58333,16605
20.59147,16449
20.59958,17733
20.60770,18324
20.61583,18344
20.62395,17073
20.63208,17216
20.64020,17693
20.64832,17436
20.65645,17611
20.66457,16346
20.67270,19854
20.68082,19425
20.68893,17001
20.69707,17320
20.70518,18566
20.71332,18120
20.72143,19466
20.72955,17275
20.73768,16876
20.74580,18849
20.75392,23362
20.76205,37298
20.77017,58002
20.77830,104698
20.78642,183255
20.79453,270582
20.80267,322670
20.81078,345813
20.81892,292065
20.82703,215309
20.83515,146794
20.84328,92520
20.85140,64574
20.85953,50165
20.86765,44288
20.87577,39085
20.88390,35224
20.89202,34349
20.90013,32253
20.90827,34193
20.91638,32975
20.92452,29808
20.93263,32956
20.94075,31083
20.94888,32555
20.95700,29307
20.96513,26662
20.97325,26735
20.98137,28772
20.98950,25755
20.99762,26640
21.00573,24453
21.01387,29541
21.02198,27377
21.03012,25747
21.03823,30428
21.04635,26028
21.05448,25744
21.06260,24810
21.07073,27085
21.07885,24041
21.08697,22705
21.09510,21910
21.10322,23513
21.11135,25104
21.11947,25554
21.12758,26350
21.13572,22066
21.14383,23664
21.15195,22625
21.16008,22385
21.16820,21423
21.17633,20319
21.18445,25195
21.19257,22404
21.20070,23380
21.20882,23063
21.21695,22691
21.22507,23220
21.23318,21336
21.24132,21408
21.24943,20831
21.25757,20301
21.26568,20618
21.27380,23191
21.28193,23334
21.29005,19149
21.29817,27411
21.30630,21697
21.31442,21345
21.32255,20350
21.33067,21269
21.33878,22552
21.34692,22251
21.35503,21043
21.36317,20524
21.37128,20024
21.37940,18299
21.38753,20552
21.39565,21115
21.40377,18963
21.41190,21828
21.42002,22873
21.42815,22116
21.43627,20053
21.44438,22183
21.45252,21926
21.46063,18898
21.46877,19551
21.47688,20654
21.48500,23693
21.49313,21489
21.50125,20024
21.50938,21259
21.51750,18619
21.52562,21186
21.53375,23419
21.54187,28275
21.54998,28682
21.55812,29766
21.56623,33300
21.57437,33188
21.58248,34465
21.59060,31953
21.59873,27723
21.60685,24220
21.61498,22857
21.62310,19530
21.63122,18826
21.63935,23965
21.64747,22776
21.65558,21990
21.66372,20060
21.67183,20517
21.67997,20119
21.68808,17810
21.69620,18030
21.70433,20172
21.71245,22700
21.72058,18788
21.72870,18804
21.73682,20645
21.74495,21326
21.75307,23574
21.76120,22867
21.76932,21009
21.77743,23813
21.78557,20048
21.79368,17771
21.80180,19578
21.80993,18960
21.81805,18103
21.82618,20369
21.83430,17423
21.84242,19429
21.85055,19528
21.85867,23571
21.86680,29663
21.87492,36026
21.88303,54753
21.89117,86537
21.89928,122350
21.90742,168705
21.91553,197782
21.92365,207526
21.93178,192813
21.93990,154821
21.94802,112888
21.95615,73387
21.96427,53263
21.97240,38649
21.98052,31618
21.98863,28002
21.99677,29308
22.00488,25919
22.01302,23948
22.02113,25852
22.02925,24315
22.03738,31257
22.04550,28366
22.05362,28762
22.06175,32273
22.06987,34473
22.07800,37450
22.08612,34302
22.09423,31123
22.10237,31210
22.11048,25971
22.11862,26762
22.12673,25801
22.13485,21577
22.14298,18888
22.15110,22686
22.15923,20279
22.16735,24414
22.17547,23877
22.18360,24849
22.19172,31367
22.19983,35832
22.20797,46484
22.21608,50143
22.22422,55507
22.23233,55055
22.24045,49291
22.24858,42919
22.25670,38465
22.26483,33741
22.27295,32493
22.28107,25007
22.28920,23284
22.29732,23194
22.30545,23389
22.31357,22040
22.32168,22410
22.32982,22154
22.33793,21860
22.34605,22147
22.35418,21071
22.36230,19016
22.37043,20471
22.37855,18797
22.38667,22217
22.39480,19743
22.40292,17398
22.41105,20626
22.41917,19460
22.42728,17986
22.43542,23845
22.44353,21177
22.45165,20445
22.45978,20432
22.46790,19631
22.47603,17304
22.48415,18532
22.49227,20068
22.50040,19946
22.50852,21601
22.51665,18325
22.52477,18960
22.53288,21134
22.54102,20377
22.54913,23037
22.55727,23198
22.56538,20973
22.57350,22947
22.58163,18190
22.58975,19886
22.59787,18238
22.60600,19996
22.61412,19423
22.62225,18903
22.63037,18088
22.63848,18086
22.64662,18240
22.65473,18916
22.66287,21223
22.67098,18042
22.67910,18875
22.68723,20215
22.69535,17083
22.70347,16923
22.71160,20246
22.71972,18051
22.72785,22473
22.73597,22508
22.74408,24198
22.75222,19606
22.76033,20963
22.76847,18965
22.77658,21768
22.78470,17568
22.79283,17938
22.80095,18802
22.80908,21052
22.81720,17946
22.82532,17346
22.83345,18892
22.84157,18548
22.84968,19548
22.85782,18785
22.86593,20751
22.87407,17162
22.88218,19731
22.89030,18813
22.89843,18709
22.90655,20093
22.91468,17385
22.92280,18970
22.93092,17371
22.93905,20111
22.94717,18980
22.95530,17718
22.96342,18096
22.97153,17415
22.97967,17409
22.98778,17938
22.99590,19572
23.00403,17874
23.01215,17580
23.02028,18719
23.02840,18036
23.03652,17872
23.04465,18488
23.05277,17512
23.06090,16394
23.06902,17997
23.07713,16581
23.08527,19113
23.09338,17698
23.10150,19336
23.10963,17679
23.11775,17093
23.12588,16758
23.13400,17998
23.14212,19346
23.15025,18582
23.15837,17427
23.16650,18866
23.17462,17634
23.18273,18433
23.19087,16449
23.19898,17569
23.20712,20425
23.21523,17346
23.22335,16415
23.23148,16749
23.23960,16430
23.24772,17758
23.25585,16383
23.26397,17216
23.27210,18375
23.28022,19719
23.28833,13800
23.29647,19320
23.30458,16871
23.31272,20761
23.32083,18293
23.32895,20632
23.33708,18680
23.34520,18518
23.35333,17021
23.36145,17919
23.36957,17378
23.37770,18259
23.38582,19096
23.39393,16183
23.40207,17178
23.41018,20545
23.41832,19362
23.42643,18324
23.43455,18022
23.44268,17873
23.45080,15531
23.45893,17262
23.46705,16822
23.47517,21430
23.48330,19758
23.49142,20905
23.49953,21505
23.50767,19300
23.51578,23483
23.52392,22233
23.53203,26009
23.54015,24757
23.54828,25188
23.55640,25588
23.56453,20102
23.57265,23725
23.58077,22121
23.58890,23743
23.59702,24071
23.60515,30032
23.61327,23738
23.62138,25572
23.62952,26229
23.63763,17899
23.64575,19823
23.65388,25913
23.66200,19722
23.67013,21884
23.67825,18589
23.68637,17435
23.69450,16737
23.70262,15581
23.71075,18486
23.71887,16225
23.72698,18271
23.73512,19621
23.74323,17616
23.75135,18349
23.75948,18819
23.76760,18358
23.77573,20249
23.78385,18626
23.79197,17563
23.80010,17173
23.80822,19001
23.81635,22353
23.82447,17418
23.83258,17370
23.84072,16392
23.84883,17316
23.85697,14458
23.86508,15259
23.87320,15485
23.88133,16450
23.88945,23524
23.89757,16483
23.90570,19657
23.91382,16272
23.92195,15207
23.93007,15959
23.93818,15123
23.94632,17380
23.95443,16568
23.96257,17259
23.97068,16998
23.97880,18585
23.98693,18543
23.99505,17275
24.00318,16672
24.01130,20459
24.01942,20249
24.02755,15104
24.03567,18416
24.04378,18917
24.05192,16137
24.06003,17738
24.06817,19378
24.07628,19631
24.08440,17948
24.09253,17607
24.10065,17473
24.10878,20780
24.11690,19304
24.12502,21327
24.13315,23465
24.14127,26944
24.14940,35162
24.15752,34893
24.16563,40232
24.17377,31719
24.18188,28561
24.19000,25084
24.19813,21746
24.20625,22527
24.21438,20811
24.22250,19000
24.23062,20509
24.23875,22379
24.24687,22563
24.25500,27556
24.26312,28181
24.27123,32214
24.27937,36326
24.28748,38499
24.29560,48061
24.30373,55168
24.31185,46292
24.31998,48544
24.32810,43378
24.33622,32014
24.34435,28866
24.35247,24729
24.36060,24169
24.36872,22765
24.37683,22402
24.38497,20968
24.39308,21920
24.40122,18649
24.40933,19514
24.41745,20980
24.42558,17845
24.43370,19050
24.44182,19263
24.44995,21977
24.45807,18956
24.46620,22002
24.47432,16162
24.48243,17816
24.49057,19119
24.49868,19403
24.50682,18639
24.51493,17551
24.52305,16664
24.53118,17388
24.53930,18946
24.54742,18089
24.55555,19715
24.56367,16748
24.57180,19458
24.57992,17029
24.58803,18559
24.59617,19821
24.60428,19946
24.61242,20612
24.62053,19963
24.62865,21978
24.63678,20914
24.64490,19625
24.65303,18891
24.66115,21719
24.66927,15267
24.67740,19759
24.68552,20273
24.69363,20169
24.70177,21626
24.70988,18944
24.71802,18244
24.72613,19577
24.73425,19043
24.74238,18924
24.75050,17650
24.75863,17901
24.76675,20489
24.77487,16910
24.78300,17427
24.79112,18965
24.79925,16333
24.80737,17834
24.81548,17985
24.82362,18533
24.83173,16747
24.83985,15493
24.84798,16500
24.85610,18801
24.86423,17992
24.87235,17051
24.88047,18616
24.88860,18470
24.89672,17132
24.90485,17580
24.91297,15181
24.92108,20557
24.92922,18277
24.93733,17897
24.94545,16408
24.95358,17792
24.96170,16434
24.96983,16562
24.97795,16149
24.98607,15828
24.99420,18252
25.00232,14996
25.01045,14955
25.01857,19019
25.02668,19081
25.03482,19365
25.04293,17580
25.05107,18097
25.05918,18776
25.06730,19758
25.07543,22929
25.08355,17757
25.09167,18640
25.09980,19306
25.10792,17987
25.11605,17205
25.12417,19152
25.13228,18301
25.14042,17519
25.14853,17559
25.15667,19192
25.16478,17598
25.17290,18090
25.18103,15324
25.18915,16952
25.19728,16987
25.20540,16090
25.21352,18783
25.22165,15772
25.22977,18177
25.23788,17827
25.24602,17525
25.25413,18580
25.26227,15747
25.27038,18775
25.27850,20543
25.28663,17975
25.29475,17294
25.30288,25001
25.31100,16148
25.31912,18652
25.32725,19199
25.33537,19449
25.34348,16986
25.35162,18717
25.35973,16040
25.36787,19218
25.37598,17268
25.38410,18576
25.39223,17652
25.40035,15524
25.40848,15370
25.41660,17556
25.42472,17526
25.43285,18829
25.44097,16428
25.44910,16140
25.45722,16809
25.46533,18726
25.47347,17716
25.48158,16690
25.48970,17743
25.49783,16279
25.50595,18912
25.51408,17495
25.52220,17862
25.53032,16083
25.53845,20087
25.54657,18589
25.55470,16533
25.56282,15781
25.57093,14483
25.57907,17347
25.58718,15726
25.59530,14124
25.60343,15140
25.61155,21330
25.61968,19112
25.62780,17929
25.63592,18159
25.64405,20549
25.65217,13937
25.66030,17536
25.66842,20148
25.67653,16458
25.68467,17624
25.69278,15373
25.70092,17054
25.70903,14572
25.71715,15865
25.72528,18587
25.73340,20492
25.74152,17508
25.74965,13742
25.75777,17668
25.76590,18129
25.77402,16905
25.78213,16335
25.79027,19004
25.79838,19512
25.80652,16336
25.81463,14907
25.82275,15554
25.83088,16573
25.83900,15178
25.84713,18501
25.85525,16065
25.86337,13056
25.87150,15301
25.87962,18405
25.88773,17594
25.89587,15241
25.90398,19176
25.91212,20354
25.92023,17848
25.92835,19903
25.93648,19605
25.94460,18051
25.95273,19932
25.96085,19261
25.96897,15614
25.97710,16446
25.98522,17213
25.99333,18529
26.00147,15242
26.00958,16962
26.01772,14257
26.02583,17360
26.03395,14935
26.04208,18397
26.05020,16977
26.05833,15630
26.06645,16361
26.07457,17359
26.08270,17985
26.09082,17588
26.09895,19984
26.10707,18054
26.11518,15852
26.12332,18389
26.13143,16153
26.13955,19054
26.14768,18501
26.15580,20744
26.16393,17903
26.17205,17296
26.18017,18490
26.18830,16448
26.19642,17007
26.20455,18529
26.21267,16881
26.22078,16089
26.22892,18788
26.23703,16642
26.24517,14467
26.25328,16220
26.26140,16352
26.26953,16306
26.27765,17179
26.28577,15119
26.29390,17989
26.30202,16636
26.31015,14851
26.31827,15543
26.32638,20786
26.33452,17700
26.34263,18180
26.35077,18551
26.35888,20617
26.36700,17673
26.37513,15152
26.38325,15572
26.39137,14853
26.39950,15665
26.40762,16983
26.41575,18368
26.42387,18737
26.43198,15145
26.44012,16435
26.44823,17010
26.45637,15048
26.46448,18051
26.47260,19238
26.48073,17389
26.48885,17120
26.49698,16981
26.50510,17876
26.51322,16920
26.52135,14633
26.52947,14522
26.53758,16055
26.54572,16314
26.55383,15967
26.56197,16786
26.57008,14700
26.57820,19209
26.58633,20045
26.59445,18265
26.60258,16220
26.61070,14778
26.61882,15473
26.62695,15516
26.63507,16208
26.64320,15225
26.65132,15769
26.65943,16386
26.66757,14727
26.67568,14989
26.68380,15217
26.69193,16106
26.70005,18991
26.70818,18133
26.71630,20086
26.72442,23742
26.73255,33390
26.74067,48468
26.74880,83785
26.75692,135029
26.76503,199217
26.77317,277283
26.78128,337177
26.78940,350755
26.79753,310818
26.80565,238060
26.81378,150964
26.82190,95056
26.83002,60810
26.83815,45704
26.84627,37135
26.85440,37915
26.86252,33770
26.87063,35713
26.87877,33589
26.88688,32599
26.89502,32171
26.90313,28655
26.91125,30392
26.91938,27371
26.92750,29009
26.93562,27545
26.94375,26654
26.95187,29537
26.96000,33946
26.96812,27286
26.97623,27343
26.98437,26665
26.99248,29551
27.00062,27924
27.00873,29055
27.01685,24280
27.02498,25061
27.03310,25845
27.04122,25468
27.04935,26493
27.05747,28064
27.06560,24780
27.07372,27165
27.08183,25019
27.08997,24539
27.09808,28205
27.10622,27386
27.11433,36690
27.12245,50669
27.13058,90221
27.13870,156685
27.14683,260643
27.15495,394722
27.16307,552430
27.17120,624135
27.17932,590136
27.18743,461714
27.19557,319906
27.20368,208586
27.21182,128562
27.21993,93946
27.22805,76717
27.23618,61836
27.24430,55542
27.25243,51910
27.26055,48511
27.26867,44815
27.27680,41994
27.28492,42631
27.29305,40515
27.30117,42405
27.30928,37633
27.31742,37738
27.32553,35068
27.33365,34925
27.34178,33495
27.34990,32738
27.35803,31351
27.36615,31540
27.37427,33152
27.38240,40049
27.39052,30109
27.39865,35238
27.40677,32307
27.41488,37408
27.42302,33662
27.43113,28897
27.43925,30121
27.44738,34665
27.45550,28910
27.46363,29177
27.47175,27382
27.47987,26288
27.48800,27927
27.49612,31495
27.50425,27939
27.51237,31200
27.52048,30208
27.52862,25342
27.53673,28950
27.54487,24400
27.55298,22778
27.56110,26763
27.56923,25063
27.57735,23860
27.58547,27535
27.59360,26432
27.60172,30117
27.60985,27166
27.61797,23519
27.62608,25823
27.63422,26314
27.64233,31417
27.65047,25888
27.65858,24551
27.66670,25086
27.67483,24926
27.68295,22959
27.69108,24235
27.69920,23774
27.70732,26179
27.71545,24563
27.72357,26203
27.73168,25376
27.73982,27121
27.74793,24267
27.75607,24496
27.76418,27459
27.77230,25415
27.78043,22624
27.78855,20906
27.79668,22675
27.80480,25134
27.81292,24121
27.82105,25835
27.82917,23066
27.83728,22035
27.84542,23804
27.85353,26442
27.86167,22122
27.86978,24168
27.87790,22763
27.88603,24629
27.89415,24624
27.90228,21707
27.91040,25513
27.91852,22589
27.92665,23495
27.93477,21314
27.94290,24801
27.95102,24096
27.95913,22559
27.96727,23370
27.97538,22537
27.98350,26919
27.99163,24087
27.99975,27032
28.00788,20209
28.01600,22251
28.02412,20226
28.03225,22371
28.04037,22878
28.04850,21894
28.05662,21478
28.06473,24924
28.07287,22400
28.08098,20345
28.08910,23647
28.09723,24109
28.10535,20499
28.11348,24206
28.12160,22735
28.12972,23304
28.13785,20494
28.14597,19882
28.15410,22089
28.16222,20400
28.17033,24435
28.17847,19624
28.18658,20801
28.19472,23447
28.20283,21262
28.21095,22467
28.21908,23994
28.22720,22275
28.23532,19184
28.24345,21746
28.25157,21607
28.25970,24172
28.26782,21788
28.27593,23431
28.28407,23184
28.29218,23738
28.30032,24743
28.30843,22715
28.31655,22530
28.32468,20971
28.33280,20732
28.34093,26227
28.34905,22850
28.35717,25256
28.36530,22745
28.37342,23212
28.38153,25377
28.38967,23482
28.39778,21636
28.40592,27758
28.41403,24569
28.42215,23330
28.43028,22664
28.43840,22540
28.44653,21064
28.45465,25665
28.46277,22835
28.47090,22783
28.47902,21365
28.48715,21780
28.49527,24813
28.50338,22145
28.51152,21707
28.51963,23896
28.52775,21943
28.53588,23036
28.54400,21273
28.55213,19234
28.56025,24546
28.56837,24591
28.57650,21787
28.58462,20794
28.59275,21450
28.60087,23000
28.60898,23457
28.61712,21221
28.62523,20042
28.63335,22880
28.64148,22289
28.64960,21409
28.65773,22932
28.66585,26418
28.67397,21781
28.68210,19477
28.69022,22110
28.69835,23392
28.70647,23104
28.71458,21723
28.72272,21347
28.73083,21597
28.73897,23085
28.74708,24962
28.75520,21074
28.76333,22748
28.77145,21774
28.77957,21700
28.78770,20197
28.79582,26363
28.80395,26130
28.81207,21437
28.82018,23581
28.82832,22052
28.83643,24390
28.84457,26559
28.85268,23238
28.86080,21690
28.86893,23503
28.87705,23913
28.88517,25096
28.89330,27359
28.90142,24704
28.90955,23007
28.91767,21281
28.92578,21739
28.93392,21264
28.94203,26784
28.95017,19702
28.95828,20078
28.96640,23252
28.97453,20655
28.98265,24219
28.99078,23979
28.99890,25441
29.00702,19539
29.01515,17391
29.02327,23290
29.03138,20768
29.03952,26141
29.04763,29152
29.05577,21965
29.06388,22395
29.07200,20339
29.08013,24004
29.08825,20921
29.09638,22185
29.10450,23641
29.11262,22553
29.12075,25395
29.12887,24003
29.13700,21038
29.14512,21779
29.15323,22722
29.16137,21462
29.16948,25231
29.17760,20949
29.18573,22164
29.19385,24028
29.20198,24437
29.21010,25759
29.21822,22560
29.22635,25039
29.23447,23211
29.24260,24138
29.25072,23618
29.25883,23281
29.26697,24238
29.27508,23620
29.28320,25633
29.29133,22192
29.29945,22842
29.30758,20678
29.31570,21633
29.32382,21949
29.33195,20497
29.34007,19149
29.34820,22177
29.35632,23929
29.36443,24151
29.37257,24034
29.38068,20958
29.38882,25123
29.39693,22367
29.40505,23627
29.41318,20874
29.42130,19164
29.42942,23949
29.43755,22717
29.44567,22528
29.45380,21377
29.46192,24117
29.47003,22659
29.47817,22118
29.48628,22003
29.49442,21677
29.50253,22585
29.51065,22569
29.51878,23330
29.52690,24327
29.53503,24966
29.54315,23409
29.55127,24571
29.55940,22611
29.56752,21485
29.57563,20461
29.58377,24941
29.59188,22098
29.60002,23063
29.60813,22450
29.61625,23777
29.62438,21921
29.63250,22507
29.64063,23298
29.64875,22756
29.65687,23972
29.66500,24544
29.67312,24916
29.68123,25141
29.68937,24587
29.69748,23323
29.70562,21384
29.71373,23847
29.72185,21586
29.72998,23164
29.73810,20029
29.74623,22639
29.75435,26241
29.76247,25279
29.77060,23026
29.77872,22582
29.78685,22631
29.79497,20331
29.80308,25052
29.81122,23532
29.81933,24028
29.82745,25048
29.83558,25107
29.84370,27645
29.85183,29327
29.85995,37372
29.86807,49677
29.87620,49481
29.88432,54984
29.89245,55244
29.90057,53828
29.90868,59095
29.91682,59867
29.92493,56830
29.93305,57660
29.94118,56520
29.94930,59863
29.95743,55096
29.96555,57323
29.97367,61307
29.98180,57099
29.98992,55368
29.99805,55133
30.00617,49811
30.01428,51396
30.02242,57093
30.03053,50527
30.03867,52936
30.04678,53524
30.05490,48006
30.06303,51779
30.07115,52210
30.07927,49018
30.08740,46193
30.09552,46759
30.10365,48060
30.11177,54053
30.11988,46937
30.12802,48475
30.13613,46930
30.14427,44734
30.15238,46357
30.16050,45787
30.16863,47665
30.17675,47924
30.18488,42345
30.19300,43891
30.20112,40546
30.20925,41749
30.21737,39657
30.22548,40670
30.23362,40611
30.24173,38708
30.24987,40219
30.25798,39119
30.26610,40565
30.27423,41954
30.28235,39466
30.29048,35409
30.29860,37133
30.30672,34684
30.31485,34485
30.32297,37536
30.33108,38137
30.33922,37758
30.34733,37609
30.35547,36120
30.36358,39683
30.37170,36844
30.37983,35829
30.38795,35502
30.39608,34493
30.40420,32819
30.41232,38816
30.42045,35453
30.42857,38861
30.43670,35943
30.44482,36920
30.45293,36902
30.46107,33418
30.46918,33903
30.47730,31843
30.48543,33778
30.49355,37923
30.50168,34878
30.50980,36673
30.51792,32452
30.52605,34031
30.53417,35511
30.54230,32656
30.55042,32444
30.55853,35991
30.56667,32484
30.57478,35031
30.58292,32614
30.59103,33797
30.59915,31911
30.60728,32794
30.61540,37263
30.62352,33522
30.63165,29061
30.63977,33156
30.64790,33207
30.65602,35083
30.66413,32937
30.67227,33029
30.68038,35467
30.68852,34591
30.69663,31707
30.70475,34317
30.71288,34025
30.72100,30727
30.72912,30012
30.73725,30961
30.74537,32062
30.75350,32901
30.76162,33792
30.76973,34377
30.77787,34474
30.78598,36758
30.79412,34143
30.80223,33741
30.81035,35343
30.81848,33403
30.82660,33484
30.83473,33046
30.84285,33480
30.85097,32219
30.85910,34581
30.86722,32195
30.87533,31056
30.88347,30784
30.89158,30840
30.89972,38173
30.90783,34047
30.91595,30120
30.92408,32306
30.93220,29719
30.94033,30678
30.94845,31763
30.95657,34525
30.96470,32536
30.97282,32172
30.98095,31562
30.98907,29999
30.99718,30250
31.00532,34438
31.01343,31461
31.02155,29725
31.02968,32152
31.03780,30967
31.04593,32695
31.05405,32734
31.06217,30479
31.07030,29870
31.07842,31114
31.08655,30912
31.09467,31085
31.10278,32760
31.11092,30441
31.11903,32691
31.12715,35452
31.13528,31063
31.14340,30962
31.15153,30245
31.15965,28685
31.16777,32581
31.17590,30628
31.18402,34685
31.19215,30653
31.20027,30443
31.20838,29949
31.21652,31159
31.22463,34394
31.23277,29417
31.24088,31071
31.24900,30664
31.25713,32268
31.26525,31160
31.27337,31662
31.28150,30458
31.28962,30531
31.29775,29404
31.30587,29292
31.31398,27631
31.32212,36412
31.33023,30429
31.33837,28355
31.34648,31788
31.35460,31747
31.36273,30279
31.37085,33769
31.37897,25643
31.38710,30055
31.39522,31672
31.40335,29440
31.41147,29819
31.41958,32816
31.42772,25606
31.43583,28795
31.44397,31084
31.45208,32041
31.46020,29172
31.46833,28487
31.47645,32494
31.48458,30416
31.49270,31653
31.50082,29442
31.50895,31569
31.51707,31617
31.52518,30793
31.53332,28896
31.54143,31562
31.54957,32433
31.55768,27382
31.56580,28840
31.57393,29674
31.58205,31116
31.59018,32350
31.59830,30293
31.60642,27775
31.61455,33190
31.62267,27128
31.63080,28163
31.63892,27701
31.64703,24779
31.65517,30289
31.66328,31048
31.67140,29748
31.67953,29058
31.68765,30219
31.69578,33848
31.70390,29542
31.71202,32286
31.72015,34823
31.72827,34390
31.73640,33484
31.74452,35468
31.75263,31873
31.76077,28824
31.76888,31197
31.77700,27768
31.78513,29323
31.79325,29006
31.80138,28511
31.80950,28115
31.81762,29980
31.82575,31672
31.83387,28141
31.84200,27298
31.85012,32193
31.85823,30685
31.86637,30078
31.87448,30989
31.88262,32746
31.89073,27271
31.89885,27578
31.90698,29178
31.91510,28625
31.92322,30031
31.93135,28391
31.93947,28999
31.94760,29644
31.95572,32194
31.96383,29292
31.97197,29115
31.98008,27750
31.98822,29905
31.99633,28413
32.00445,30048
32.01258,29043
32.02070,30555
32.02883,28040
32.03695,30214
32.04507,28114
32.05320,31577
32.06132,27858
32.06943,28945
32.07757,28213
32.08568,27766
32.09382,27828
32.10193,28961
32.11005,29959
32.11818,27693
32.12630,29534
32.13443,28474
32.14255,28505
32.15067,27117
32.15880,27073
32.16692,28651
32.17503,29684
32.18317,26284
32.19128,28140
32.19942,27761
32.20753,29672
32.21565,28795
32.22378,29238
32.23190,29724
32.24003,27317
32.24815,27816
32.25627,26188
32.26440,29926
32.27252,31274
32.28065,25372
32.28877,28224
32.29688,30754
32.30502,33815
32.31313,27388
32.32125,28544
32.32938,28333
32.33750,27814
32.34563,28536
32.35375,28883
32.36187,31710
32.37000,27109
32.37812,28203
32.38625,27210
32.39437,31758
32.40248,27253
32.41062,25765
32.41873,30644
32.42685,26294
32.43498,27235
32.44310,27165
32.45123,29358
32.45935,29188
32.46747,32055
32.47560,28470
32.48372,28345
32.49185,31519
32.49997,30168
32.50808,27735
32.51622,31129
32.52433,26207
32.53247,28744
32.54058,26412
32.54870,25208
32.55683,27294
32.56495,29959
32.57307,29951
32.58120,28906
32.58932,31056
32.59745,30454
32.60557,32806
32.61368,28219
32.62182,31113
32.62993,25904
32.63807,26602
32.64618,26983
32.65430,28001
32.66243,29833
32.67055,30124
32.67868,27239
32.68680,27585
32.69492,26767
32.70305,27602
32.71117,28454
32.71928,29362
32.72742,28071
32.73553,28134
32.74367,27412
32.75178,29693
32.75990,25876
32.76803,29008
32.77615,28016
32.78428,26705
32.79240,28316
32.80052,26545
32.80865,25639
32.81677,27926
32.82488,30666
32.83302,26221
32.84113,22901
32.84927,26642
32.85738,29153
32.86550,28980
32.87363,27440
32.88175,25687
32.88988,29773
32.89800,28020
32.90612,28316
32.91425,25229
32.92237,29136
32.93050,27156
32.93862,30609
32.94673,28157
32.95487,26735
32.96298,26786
32.97110,27544
32.97923,24907
32.98735,26561
32.99548,28872
33.00360,26991
33.01172,27295
33.01985,29810
33.02797,27275
33.03610,27744
33.04422,26585
33.05233,28122
33.06047,29235
33.06858,29561
33.07672,28385
33.08483,25904
33.09295,29741
33.10108,29921
33.10920,33094
33.11732,27931
33.12545,27332
33.13357,27540
33.14170,28055
33.14982,29193
33.15793,29451
33.16607,26409
33.17418,28684
33.18232,27774
33.19043,27975
33.19855,28394
33.20668,27390
33.21480,30172
33.22292,28482
33.23105,31808
33.23917,26269
33.24730,27169
33.25542,27619
33.26353,30432
33.27167,28260
33.27978,30460
33.28792,29521
33.29603,34716
33.30415,29561
33.31228,32352
33.32040,27686
33.32853,28341
33.33665,29461
33.34477,33158
33.35290,30498
33.36102,31095
33.36913,28606
33.37727,32638
33.38538,28853
33.39352,32965
33.40163,28357
33.40975,31046
33.41788,32376
33.42600,32490
33.43413,32270
33.44225,33813
33.45037,29919
33.45850,35017
33.46662,34330
33.47473,31692
33.48287,30457
33.49098,31669
33.49912,33848
33.50723,30484
33.51535,29380
33.52348,32005
33.53160,26615
33.53973,31671
33.54785,25747
33.55597,32871
33.56410,28853
33.57222,32777
33.58035,28335
33.58847,27964
33.59658,30704
33.60472,30973
33.61283,26427
33.62095,29550
33.62908,30700
33.63720,29820
33.64533,25809
33.65345,31288
33.66157,30595
33.66970,30508
33.67782,30764
33.68595,27728
33.69407,29666
33.70218,30986
33.71032,32635
33.71843,29909
33.72657,32172
33.73468,31800
33.74280,29419
33.75093,29102
33.75905,27814
33.76717,28208
33.77530,28969
33.78342,30222
33.79155,31540
33.79967,29216
33.80778,29475
33.81592,28983
33.82403,26613
33.83217,34461
33.84028,29353
33.84840,29610
33.85653,29244
33.86465,27125
33.87278,32416
33.88090,28199
33.88902,26500
33.89715,26079
33.90527,27454
33.91338,28653
33.92152,29799
33.92963,28512
33.93777,34649
33.94588,30843
33.95400,31799
33.96213,31932
33.97025,27541
33.97838,29607
33.98650,29571
33.99462,28641
34.00275,27420
34.01087,26903
34.01898,31160
34.02712,28189
34.03523,30444
34.04337,32157
34.05148,29446
34.05960,31620
34.06773,30945
34.07585,27019
34.08398,30069
34.09210,32759
34.10022,30733
34.10835,30550
34.11647,31238
34.12460,31898
34.13272,34382
34.14083,33221
34.14897,38050
34.15708,40781
34.16520,41692
34.17333,41782
34.18145,48593
34.18958,49603
34.19770,46337
34.20582,42619
34.21395,39914
34.22207,40092
34.23020,36221
34.23832,35803
34.24643,32602
34.25457,34993
34.26268,31297
34.27080,28224
34.27893,33213
34.28705,31588
34.29518,29433
34.30330,29629
34.31142,32719
34.31955,27761
34.32767,33525
34.33580,31170
34.34392,31439
34.35203,31100
34.36017,33061
34.36828,29157
34.37642,32145
34.38453,28374
34.39265,31088
34.40078,30870
34.40890,29763
34.41702,31677
34.42515,28815
34.43327,29099
34.44140,31026
34.44952,33391
34.45763,29447
34.46577,30325
34.47388,30709
34.48202,34871
34.49013,30203
34.49825,32154
34.50638,32339
34.51450,30452
34.52263,27354
34.53075,30626
34.53887,31942
34.54700,28750
34.55512,30399
34.56323,35056
34.57137,28529
34.57948,32315
34.58762,30082
34.59573,29269
34.60385,32355
34.61198,33561
34.62010,28908
34.62823,26916
34.63635,32175
34.64447,28396
34.65260,31461
34.66072,29480
34.66883,29191
34.67697,26922
34.68508,31838
34.69322,30344
34.70133,32128
34.70945,29609
34.71758,31476
34.72570,31288
34.73383,28873
34.74195,29514
34.75007,29801
34.75820,27962
34.76632,32501
34.77445,29891
34.78257,29305
34.79068,28480
34.79882,29766
34.80693,31903
34.81505,32095
34.82318,28840
34.83130,30018
34.83943,33144
34.84755,29639
34.85567,26910
34.86380,32469
34.87192,30393
34.88005,28954
34.88817,28870
34.89628,31051
34.90442,28131
34.91253,32609
34.92067,30112
34.92878,30786
34.93690,30389
34.94503,28368
34.95315,33088
34.96127,28471
34.96940,28605
34.97752,28534
34.98565,28950
34.99377,30839
35.00188,34753
35.01002,31976
35.01813,31042
35.02627,36779
35.03438,33821
35.04250,34181
35.05063,31928
35.05875,32153
35.06687,33814
35.07500,39633
35.08312,31286
35.09125,33354
35.09937,33720
35.10748,33042
35.11562,29782
35.12373,30531
35.13187,34386
35.13998,30066
35.14810,33100
35.15623,31799
35.16435,35450
35.17248,32007
35.18060,32746
35.18872,30934
35.19685,30871
35.20497,30672
35.21308,31243
35.22122,31991
35.22933,33350
35.23747,29356
35.24558,32854
35.25370,34089
35.26183,33155
35.26995,30778
35.27808,32578
35.28620,31155
35.29432,30705
35.30245,33439
35.31057,32612
35.31868,31280
35.32682,31623
35.33493,29112
35.34307,32485
35.35118,32230
35.35930,33110
35.36743,31245
35.37555,31294
35.38368,31399
35.39180,36386
35.39992,32921
35.40805,30596
35.41617,33943
35.42430,29389
35.43242,34861
35.44053,33154
35.44867,30990
35.45678,30080
35.46490,32094
35.47303,33067
35.48115,31000
35.48928,34639
35.49740,33186
35.50552,31135
35.51365,36271
35.52177,35590
35.52990,34680
35.53802,35713
35.54613,32101
35.55427,34594
35.56238,29858
35.57052,34859
35.57863,32592
35.58675,33258
35.59488,34545
35.60300,34807
35.61112,30387
35.61925,34234
35.62737,36006
35.63550,35116
35.64362,31384
35.65173,31074
35.65987,32075
35.66798,34509
35.67612,29733
35.68423,32528
35.69235,30797
35.70048,34848
35.70860,32757
35.71672,33036
35.72485,33346
35.73297,33611
35.74110,36544
35.74922,32479
35.75733,33790
35.76547,33883
35.77358,31817
35.78172,34026
35.78983,33861
35.79795,32094
35.80608,33181
35.81420,34631
35.82233,32239
35.83045,33698
35.83857,33888
35.84670,34076
35.85482,33402
35.86293,33569
35.87107,35439
35.87918,34978
35.88732,31928
35.89543,32805
35.90355,33414
35.91168,35478
35.91980,32809
35.92793,32605
35.93605,34139
35.94417,32802
35.95230,33877
35.96042,35214
35.96855,35990
35.97667,30046
35.98478,35723
35.99292,36136
36.00103,35497
36.00915,33498
36.01728,35800
36.02540,35078
36.03353,34405
36.04165,35384
36.04977,32761
36.05790,31442
36.06602,32683
36.07415,32891
36.08227,36056
36.09038,36298
36.09852,33733
36.10663,39416
36.11475,38046
36.12288,35972
36.13100,36757
36.13913,36990
36.14725,35065
36.15537,34995
36.16350,38707
36.17162,36344
36.17975,34771
36.18787,35329
36.19598,32884
36.20412,36931
36.21223,34221
36.22037,38661
36.22848,38885
36.23660,36903
36.24473,37188
36.25285,38679
36.26097,38660
36.26910,39125
36.27722,38169
36.28535,40394
36.29347,36729
36.30158,37024
36.30972,37654
36.31783,38892
36.32597,36704
36.33408,36958
36.34220,36722
36.35033,32669
36.35845,36379
36.36658,37337
36.37470,35105
36.38282,36960
36.39095,37302
36.39907,43611
36.40718,40789
36.41532,46085
36.42343,41525
36.43157,42182
36.43968,45836
36.44780,41558
36.45593,43187
36.46405,38556
36.47218,37441
36.48030,40368
36.48842,39301
36.49655,37022
36.50467,39164
36.51278,40044
36.52092,38748
36.52903,36082
36.53717,37276
36.54528,40515
36.55340,40036
36.56153,36838
36.56965,41759
36.57778,38520
36.58590,35578
36.59402,39226
36.60215,37792
36.61027,37776
36.61840,39939
36.62652,35848
36.63463,41850
36.64277,41611
36.65088,42579
36.65900,44857
36.66713,44569
36.67525,49070
36.68338,46768
36.69150,45686
36.69962,42459
36.70775,38073
36.71587,40715
36.72400,40511
36.73212,43207
36.74023,38526
36.74837,37899
36.75648,39378
36.76460,39878
36.77273,42117
36.78085,37152
36.78898,41134
36.79710,39104
36.80522,37709
36.81335,39043
36.82147,40180
36.82960,43088
36.83772,37346
36.84583,37431
36.85397,41107
36.86208,38806
36.87022,39874
36.87833,40619
36.88645,44374
36.89458,39963
36.90270,40495
36.91082,38720
36.91895,42485
36.92707,39300
36.93520,41334
36.94332,39527
36.95143,39410
36.95957,42539
36.96768,40301
36.97582,41652
36.98393,42525
36.99205,39847
37.00018,41940
37.00830,40779
37.01643,38756
37.02455,39539
37.03267,44872
37.04080,41141
37.04892,39434
37.05703,40097
37.06517,43059
37.07328,45310
37.08142,42084
37.08953,44445
37.09765,38766
37.10578,43945
37.11390,41809
37.12203,40620
37.13015,39231
37.13827,41110
37.14640,45881
37.15452,44850
37.16263,43224
37.17077,44692
37.17888,43215
37.18702,44579
37.19513,41724
37.20325,41331
37.21138,43569
37.21950,41345
37.22763,40459
37.23575,40606
37.24387,45536
37.25200,48692
37.26012,45796
37.26825,41817
37.27637,46425
37.28448,44425
37.29262,44068
37.30073,48238
37.30885,42915
37.31698,43046
37.32510,43955
37.33323,41132
37.34135,46142
37.34947,47649
37.35760,45360
37.36572,44239
37.37385,44829
37.38197,45940
37.39008,45025
37.39822,46700
37.40633,46087
37.41447,46712
37.42258,44047
37.43070,45229
37.43883,44044
37.44695,41840
37.45507,46256
37.46320,45013
37.47132,48307
37.47945,43932
37.48757,45976
