Z:\data\JTB-E02\BACandBLUE\JTB-E02-201-16.D Fri Mar 01 15:02:52 2019
Start of data points
2.09518,69860
2.10330,71177
2.11142,70409
2.11955,68990
2.12767,71565
2.13578,69641
2.14392,70035
2.15203,72872
2.16017,69707
2.16828,72488
2.17640,70336
2.18453,66818
2.19265,64283
2.20078,67771
2.20890,61725
2.21702,61873
2.22515,62666
2.23327,58342
2.24140,58826
2.24952,56653
2.25763,66037
2.26577,168697
2.27388,881627
2.28200,1313137
2.29013,703519
2.29825,393382
2.30638,308501
2.31450,271427
2.32262,243574
2.33075,217934
2.33887,216153
2.34700,189124
2.35512,170678
2.36323,155517
2.37137,158676
2.37948,153682
2.38760,147020
2.39573,139415
2.40385,137294
2.41198,136525
2.42010,150961
2.42822,147984
2.43635,133295
2.44447,125032
2.45260,121286
2.46072,122419
2.46883,114540
2.47697,113737
2.48508,109652
2.49322,114878
2.50133,124080
2.50945,117264
2.51758,117093
2.52570,110779
2.53382,113352
2.54195,108635
2.55007,122642
2.55820,179594
2.56632,191902
2.57443,150181
2.58257,128797
2.59068,125149
2.59882,127211
2.60693,175563
2.61505,262279
2.62318,218602
2.63130,168156
2.63943,146213
2.64755,137455
2.65567,131001
2.66380,121674
2.67192,117318
2.68003,117053
2.68817,114919
2.69628,106115
2.70442,106092
2.71253,104249
2.72065,101502
2.72878,109687
2.73690,101605
2.74503,101388
2.75315,97481
2.76127,95978
2.76940,105502
2.77752,232151
2.78563,624751
2.79377,679734
2.80188,417959
2.81002,295476
2.81813,256401
2.82625,239573
2.83438,213121
2.84250,190777
2.85063,160453
2.85875,162850
2.86687,159621
2.87500,146447
2.88312,138918
2.89125,142995
2.89937,140451
2.90748,120044
2.91562,119447
2.92373,110547
2.93185,104973
2.93998,108877
2.94810,106050
2.95623,106770
2.96435,105708
2.97247,107521
2.98060,94362
2.98872,106729
2.99685,112439
3.00497,148114
3.01308,180645
3.02122,155469
3.02933,126244
3.03745,111390
3.04558,107788
3.05370,116271
3.06183,121505
3.06995,127955
3.07807,160290
3.08620,514649
3.09432,1469654
3.10245,3647098
3.11057,7302362
3.11868,7400746
3.12682,4708764
3.13493,3147579
3.14307,2441392
3.15118,1918919
3.15930,1534480
3.16743,1298023
3.17555,1140916
3.18367,1194776
3.19180,1759400
3.19992,2190758
3.20805,1747979
3.21617,1303037
3.22428,1061384
3.23242,907171
3.24053,791261
3.24867,694036
3.25678,620325
3.26490,556391
3.27303,519757
3.28115,500048
3.28928,638689
3.29740,1479042
3.30552,3385586
3.31365,5218326
3.32177,5157336
3.32988,3853644
3.33802,2635176
3.34613,2023905
3.35427,1607547
3.36238,1378338
3.37050,1199168
3.37863,1063216
3.38675,963016
3.39488,896013
3.40300,829070
3.41112,800849
3.41925,722145
3.42737,689169
3.43548,635787
3.44362,616666
3.45173,577492
3.45987,533960
3.46798,547312
3.47610,553982
3.48423,526267
3.49235,512788
3.50048,497774
3.50860,468147
3.51672,442502
3.52485,441348
3.53297,455927
3.54110,451915
3.54922,430014
3.55733,391712
3.56547,363828
3.57358,351275
3.58170,348496
3.58983,334012
3.59795,317613
3.60608,311272
3.61420,311128
3.62232,328750
3.63045,321022
3.63857,319424
3.64670,315061
3.65482,340058
3.66293,979519
3.67107,4657198
3.67918,1.202578E+07
3.68732,1.558395E+07
3.69543,1.182958E+07
3.70355,7341299
3.71168,5246962
3.71980,4210350
3.72792,3452805
3.73605,3019130
3.74417,2632391
3.75230,2315431
3.76042,2080685
3.76853,1890790
3.77667,1736210
3.78478,1602011
3.79292,1548577
3.80103,1695054
3.80915,2705061
3.81728,4558609
3.82540,5076116
3.83352,3939876
3.84165,2825847
3.84977,2260096
3.85790,1953524
3.86602,1726852
3.87413,1541462
3.88227,1417537
3.89038,1327248
3.89852,1217257
3.90663,1154178
3.91475,1116969
3.92288,1185437
3.93100,1248527
3.93913,1265609
3.94725,1229991
3.95537,1555649
3.96350,2531667
3.97162,3273975
3.97973,2915300
3.98787,2028255
3.99598,1576282
4.00412,2002792
4.01223,3225250
4.02035,4073776
4.02848,3522787
4.03660,2337968
4.04473,1581816
4.05285,1189863
4.06097,966035
4.06910,864419
4.07722,785617
4.08533,716235
4.09347,651526
4.10158,623869
4.10972,595114
4.11783,584689
4.12595,554877
4.13408,539665
4.14220,574716
4.15033,640498
4.15845,692853
4.16657,670387
4.17470,650389
4.18282,635586
4.19095,590691
4.19907,535202
4.20718,621046
4.21532,1665409
4.22343,5510465
4.23155,1.236558E+07
4.23968,1.742561E+07
4.24780,1.754256E+07
4.25593,1.283509E+07
4.26405,8050072
4.27217,5433249
4.28030,4044462
4.28842,3087978
4.29655,2467030
4.30467,2007564
4.31278,1682372
4.32092,1455725
4.32903,1266358
4.33717,1108960
4.34528,1027262
4.35340,949698
4.36153,898167
4.36965,889524
4.37777,841374
4.38590,784714
4.39402,700215
4.40215,653394
4.41027,620446
4.41838,586949
4.42652,565990
4.43463,515187
4.44277,503780
4.45088,496185
4.45900,483632
4.46713,458486
4.47525,445304
4.48338,421989
4.49150,426883
4.49962,421367
4.50775,419176
4.51587,402504
4.52398,394009
4.53212,392890
4.54023,381353
4.54837,373517
4.55648,381945
4.56460,364620
4.57273,350659
4.58085,350729
4.58898,334501
4.59710,320815
4.60522,325610
4.61335,316444
4.62147,333439
4.62958,408681
4.63772,558779
4.64583,698362
4.65397,682147
4.66208,599481
4.67020,482041
4.67833,431845
4.68645,396364
4.69458,361570
4.70270,335211
4.71082,311061
4.71895,298519
4.72707,285161
4.73520,279625
4.74332,276489
4.75143,277118
4.75957,270787
4.76768,259832
4.77580,254592
4.78393,272536
4.79205,379437
4.80018,730049
4.80830,1213361
4.81642,1401017
4.82455,1180722
4.83267,914793
4.84080,775374
4.84892,721644
4.85703,662105
4.86517,582567
4.87328,512772
4.88140,445912
4.88953,411641
4.89765,403738
4.90578,374263
4.91390,365711
4.92202,342284
4.93015,341708
4.93827,410573
4.94640,665250
4.95452,1332806
4.96263,2384477
4.97077,3234578
4.97888,3299547
4.98702,2732675
4.99513,1954248
5.00325,1408386
5.01138,1077315
5.01950,880128
5.02762,816846
5.03575,823584
5.04387,887831
5.05200,905452
5.06012,831597
5.06823,705719
5.07637,653033
5.08448,596240
5.09262,565897
5.10073,521077
5.10885,507403
5.11698,481368
5.12510,454451
5.13323,448110
5.14135,434494
5.14947,438974
5.15760,469976
5.16572,520723
5.17383,544208
5.18197,542080
5.19008,513995
5.19822,482709
5.20633,503548
5.21445,505220
5.22258,492766
5.23070,478447
5.23883,455424
5.24695,434945
5.25507,421978
5.26320,382718
5.27132,352115
5.27943,340335
5.28757,307277
5.29568,298626
5.30382,292146
5.31193,299264
5.32005,293264
5.32818,309697
5.33630,323428
5.34443,352221
5.35255,373799
5.36067,350767
5.36880,305845
5.37692,299408
5.38505,304711
5.39317,300257
5.40128,308099
5.40942,306835
5.41753,296541
5.42565,290618
5.43378,270362
5.44190,263294
5.45003,266383
5.45815,282306
5.46627,283787
5.47440,280761
5.48252,255860
5.49065,246384
5.49877,246110
5.50688,242067
5.51502,252135
5.52313,260558
5.53127,273589
5.53938,261098
5.54750,254227
5.55563,252153
5.56375,290235
5.57187,332884
5.58000,387347
5.58812,387367
5.59625,350146
5.60437,300979
5.61248,261951
5.62062,249481
5.62873,237697
5.63687,262135
5.64498,263424
5.65310,254184
5.66123,245390
5.66935,229370
5.67747,245021
5.68560,289650
5.69372,358362
5.70185,409824
5.70997,393733
5.71808,341476
5.72622,287840
5.73433,257750
5.74247,232363
5.75058,230204
5.75870,215888
5.76683,218013
5.77495,205578
5.78308,211262
5.79120,197174
5.79932,202045
5.80745,189859
5.81557,190077
5.82368,187944
5.83182,192850
5.83993,193950
5.84807,194343
5.85618,196749
5.86430,191574
5.87243,192801
5.88055,186170
5.88868,183584
5.89680,185398
5.90492,181163
5.91305,172285
5.92117,163709
5.92928,166189
5.93742,166909
5.94553,164077
5.95367,182303
5.96178,219463
5.96990,295062
5.97803,432868
5.98615,618278
5.99428,715019
6.00240,695869
6.01052,543473
6.01865,422449
6.02677,322581
6.03490,273310
6.04302,242294
6.05113,225799
6.05927,210506
6.06738,194011
6.07550,189622
6.08363,184189
6.09175,180166
6.09988,171050
6.10800,175341
6.11612,176258
6.12425,174214
6.13237,227058
6.14050,333550
6.14862,454822
6.15673,522259
6.16487,470538
6.17298,386374
6.18112,313223
6.18923,269956
6.19735,247565
6.20548,237665
6.21360,226477
6.22172,208924
6.22985,201738
6.23797,210809
6.24610,204504
6.25422,204811
6.26233,204032
6.27047,215945
6.27858,218591
6.28672,206030
6.29483,201992
6.30295,202430
6.31108,203849
6.31920,204665
6.32732,216923
6.33545,247029
6.34357,277315
6.35170,301550
6.35982,276535
6.36793,241873
6.37607,225344
6.38418,225199
6.39232,218984
6.40043,220587
6.40855,219247
6.41668,212139
6.42480,214083
6.43293,210810
6.44105,210476
6.44917,209389
6.45730,216704
6.46542,208971
6.47353,223522
6.48167,215979
6.48978,214921
6.49792,213939
6.50603,221082
6.51415,230899
6.52228,213941
6.53040,223515
6.53853,224042
6.54665,217143
6.55477,228385
6.56290,228740
6.57102,241570
6.57915,279301
6.58727,312752
6.59538,324693
6.60352,296590
6.61163,275783
6.61975,239251
6.62788,245473
6.63600,233825
6.64413,253812
6.65225,278551
6.66037,404386
6.66850,638874
6.67662,926239
6.68475,984528
6.69287,825367
6.70098,599140
6.70912,456588
6.71723,387713
6.72535,368379
6.73348,333386
6.74160,316576
6.74973,306022
6.75785,276300
6.76597,246264
6.77410,219546
6.78222,213036
6.79035,197064
6.79847,193248
6.80658,185949
6.81472,184339
6.82283,175031
6.83097,174339
6.83908,166310
6.84720,177122
6.85533,175985
6.86345,171797
6.87157,166673
6.87970,143462
6.88782,139709
6.89595,123067
6.90407,120509
6.91218,125231
6.92032,114885
6.92843,110180
6.93657,112443
6.94468,107556
6.95280,102976
6.96093,115689
6.96905,129038
6.97718,166457
6.98530,192382
6.99342,197477
7.00155,177996
7.00967,158656
7.01778,133572
7.02592,119941
7.03403,118959
7.04217,115964
7.05028,119676
7.05840,122941
7.06653,119931
7.07465,122147
7.08278,121329
7.09090,111302
7.09902,105645
7.10715,102671
7.11527,103818
7.12338,107018
7.13152,113272
7.13963,108832
7.14777,130116
7.15588,162958
7.16400,213060
7.17213,254676
7.18025,239920
7.18838,209904
7.19650,170658
7.20462,153113
7.21275,182314
7.22087,375656
7.22900,931740
7.23712,1906215
7.24523,2838735
7.25337,2991417
7.26148,2282632
7.26960,1421551
7.27773,786881
7.28585,485566
7.29398,327464
7.30210,232889
7.31022,179518
7.31835,149373
7.32647,137923
7.33460,144302
7.34272,143183
7.35083,129531
7.35897,125754
7.36708,121865
7.37520,112036
7.38333,109436
7.39145,115749
7.39958,115180
7.40770,116509
7.41582,108733
7.42395,100459
7.43207,104829
7.44020,102686
7.44832,107751
7.45643,109952
7.46457,110600
7.47268,103005
7.48082,98841
7.48893,100049
7.49705,98981
7.50518,91862
7.51330,96413
7.52142,115901
7.52955,166111
7.53767,265138
7.54580,400478
7.55392,547762
7.56203,653836
7.57017,677527
7.57828,593738
7.58642,454839
7.59453,330843
7.60265,235361
7.61078,173142
7.61890,149095
7.62703,131688
7.63515,117784
7.64327,106185
7.65140,102447
7.65952,100195
7.66763,92215
7.67577,94996
7.68388,91722
7.69202,88049
7.70013,84108
7.70825,85946
7.71638,83636
7.72450,92234
7.73263,86316
7.74075,82599
7.74887,78805
7.75700,79952
7.76512,84460
7.77323,82458
7.78137,91827
7.78948,87199
7.79762,96480
7.80573,99873
7.81385,113199
7.82198,119562
7.83010,103441
7.83823,94672
7.84635,88739
7.85447,81363
7.86260,82943
7.87072,93556
7.87885,93434
7.88697,104893
7.89508,101661
7.90322,103690
7.91133,100088
7.91945,102034
7.92758,122073
7.93570,171405
7.94383,258160
7.95195,338862
7.96007,352058
7.96820,326870
7.97632,252604
7.98445,177896
7.99257,135163
8.00068,112720
8.00882,101266
8.01693,89744
8.02507,81845
8.03318,80900
8.04130,84083
8.04943,77555
8.05755,77150
8.06567,72121
8.07380,73503
8.08192,73834
8.09005,74838
8.09817,72443
8.10628,71782
8.11442,71914
8.12253,72573
8.13067,80376
8.13878,80527
8.14690,94021
8.15503,108918
8.16315,118719
8.17127,111730
8.17940,96477
8.18752,88531
8.19565,81291
8.20377,76198
8.21188,75229
8.22002,73199
8.22813,76983
8.23627,70817
8.24438,76475
8.25250,74540
8.26063,67921
8.26875,68111
8.27688,67294
8.28500,65016
8.29312,66583
8.30125,69172
8.30937,67064
8.31748,77127
8.32562,80507
8.33373,80348
8.34187,79683
8.34998,67216
8.35810,66355
8.36623,70112
8.37435,67239
8.38248,81043
8.39060,77890
8.39872,73158
8.40685,78090
8.41497,66346
8.42308,63990
8.43122,63959
8.43933,65558
8.44747,61361
8.45558,63501
8.46370,63619
8.47183,59223
8.47995,62390
8.48808,63435
8.49620,61822
8.50432,62186
8.51245,60147
8.52057,63761
8.52870,99567
8.53682,201673
8.54493,427168
8.55307,766569
8.56118,1056716
8.56930,1082729
8.57743,852669
8.58555,540095
8.59368,308080
8.60180,184109
8.60992,141969
8.61805,123035
8.62617,113752
8.63430,106261
8.64242,104054
8.65053,93560
8.65867,88792
8.66678,89286
8.67492,86165
8.68303,86568
8.69115,79493
8.69928,88158
8.70740,81938
8.71552,82480
8.72365,82158
8.73177,78720
8.73990,75652
8.74802,66622
8.75613,82078
8.76427,89838
8.77238,146184
8.78052,269817
8.78863,459127
8.79675,649621
8.80488,732646
8.81300,672633
8.82112,522945
8.82925,356769
8.83737,262607
8.84550,217958
8.85362,210107
8.86173,196954
8.86987,204178
8.87798,191992
8.88612,188858
8.89423,179717
8.90235,163173
8.91048,160529
8.91860,147262
8.92673,152746
8.93485,150448
8.94297,172347
8.95110,187975
8.95922,207230
8.96733,200731
8.97547,193261
8.98358,168093
8.99172,163326
8.99983,147963
9.00795,151027
9.01608,133930
9.02420,131330
9.03233,126258
9.04045,121518
9.04857,114718
9.05670,110142
9.06482,106915
9.07295,108948
9.08107,113796
9.08918,110330
9.09732,113890
9.10543,122720
9.11355,129009
9.12168,141630
9.12980,145999
9.13793,137467
9.14605,126199
9.15417,114095
9.16230,113672
9.17042,108639
9.17855,106190
9.18667,104181
9.19478,100703
9.20292,93620
9.21103,100015
9.21915,93500
9.22728,93963
9.23540,95169
9.24353,95750
9.25165,95978
9.25977,97161
9.26790,95673
9.27602,94557
9.28415,96262
9.29227,90616
9.30038,84526
9.30852,85225
9.31663,87281
9.32477,87372
9.33288,83651
9.34100,89792
9.34913,86710
9.35725,78095
9.36537,80370
9.37350,82891
9.38162,82811
9.38975,80528
9.39787,84221
9.40598,85183
9.41412,90287
9.42223,107974
9.43037,116611
9.43848,122503
9.44660,124513
9.45473,126670
9.46285,118928
9.47097,110940
9.47910,100639
9.48722,85361
9.49535,84037
9.50347,85976
9.51158,103393
9.51972,120442
9.52783,146432
9.53597,152692
9.54408,153262
9.55220,126674
9.56033,112825
9.56845,98966
9.57658,84005
9.58470,79854
9.59282,77114
9.60095,72310
9.60907,64508
9.61718,68674
9.62532,62093
9.63343,56010
9.64157,61405
9.64968,57424
9.65780,60327
9.66593,57704
9.67405,54271
9.68218,54770
9.69030,51330
9.69842,56715
9.70655,49462
9.71467,50240
9.72280,54516
9.73092,55591
9.73903,53064
9.74717,58234
9.75528,54246
9.76340,48316
9.77153,49383
9.77965,48281
9.78778,47579
9.79590,47134
9.80402,49226
9.81215,46925
9.82027,49884
9.82840,51315
9.83652,49812
9.84463,48265
9.85277,54841
9.86088,52302
9.86902,53868
9.87713,55752
9.88525,53947
9.89338,60688
9.90150,49781
9.90962,49327
9.91775,49418
9.92587,57195
9.93400,59292
9.94212,71579
9.95023,88896
9.95837,119472
9.96648,145535
9.97462,133249
9.98273,121720
9.99085,103144
9.99898,94794
10.00710,88105
10.01522,83899
10.02335,82839
10.03147,81185
10.03960,76135
10.04772,65417
10.05583,65706
10.06397,63015
10.07208,61160
10.08022,61596
10.08833,61671
10.09645,63295
10.10458,67082
10.11270,63231
10.12083,64758
10.12895,65275
10.13707,59846
10.14520,61306
10.15332,57614
10.16143,53323
10.16957,56951
10.17768,52094
10.18582,56881
10.19393,53434
10.20205,50116
10.21018,55577
10.21830,53097
10.22643,54867
10.23455,56552
10.24267,59640
10.25080,65851
10.25892,71202
10.26703,107581
10.27517,238990
10.28328,579949
10.29142,1292173
10.29953,2448115
10.30765,3930377
10.31578,5737031
10.32390,8515046
10.33203,1.303872E+07
10.34015,1.895768E+07
10.34827,2.446642E+07
10.35640,2.63179E+07
10.36452,2.254475E+07
10.37265,1.425158E+07
10.38077,6944014
10.38888,3089396
10.39702,1599144
10.40513,989910
10.41325,721586
10.42138,585730
10.42950,492173
10.43763,429433
10.44575,394490
10.45387,361283
10.46200,333465
10.47012,312323
10.47825,302429
10.48637,278221
10.49448,256955
10.50262,240058
10.51073,222398
10.51887,213570
10.52698,200444
10.53510,191857
10.54323,196221
10.55135,195659
10.55947,190330
10.56760,183325
10.57572,176384
10.58385,170121
10.59197,171330
10.60008,156726
10.60822,155932
10.61633,144917
10.62447,135546
10.63258,128933
10.64070,131995
10.64883,126198
10.65695,119850
10.66507,120156
10.67320,114391
10.68132,111081
10.68945,118870
10.69757,116437
10.70568,117897
10.71382,115850
10.72193,107404
10.73007,112990
10.73818,111739
10.74630,102049
10.75443,105622
10.76255,105786
10.77068,103766
10.77880,100261
10.78692,101338
10.79505,95377
10.80317,95164
10.81128,92532
10.81942,92667
10.82753,91629
10.83567,94491
10.84378,80961
10.85190,84169
10.86003,81109
10.86815,82291
10.87628,77316
10.88440,76792
10.89252,73784
10.90065,77256
10.90877,74431
10.91690,84034
10.92502,74284
10.93313,71143
10.94127,77885
10.94938,73090
10.95750,70302
10.96563,69193
10.97375,71700
10.98188,70331
10.99000,73158
10.99812,74432
11.00625,68937
11.01437,70111
11.02250,64006
11.03062,65225
11.03873,63502
11.04687,61560
11.05498,56616
11.06310,62442
11.07123,67294
11.07935,67403
11.08748,64246
11.09560,68165
11.10372,71823
11.11185,62646
11.11997,64573
11.12810,59213
11.13622,57877
11.14433,55915
11.15247,53761
11.16058,54836
11.16872,49649
11.17683,53134
11.18495,54399
11.19308,58532
11.20120,59981
11.20932,63999
11.21745,58939
11.22557,54983
11.23370,54103
11.24182,52301
11.24993,51853
11.25807,50867
11.26618,48682
11.27432,50791
11.28243,47832
11.29055,48359
11.29868,51400
11.30680,63355
11.31492,85421
11.32305,139375
11.33117,204189
11.33930,304871
11.34742,370575
11.35553,400194
11.36367,370376
11.37178,300252
11.37992,212120
11.38803,158446
11.39615,123705
11.40428,104677
11.41240,105277
11.42053,100004
11.42865,99140
11.43677,97338
11.44490,89082
11.45302,78888
11.46113,81987
11.46927,85676
11.47738,82857
11.48552,96229
11.49363,133930
11.50175,160740
11.50988,195731
11.51800,197914
11.52613,181944
11.53425,157808
11.54237,143319
11.55050,130174
11.55862,127013
11.56675,119490
11.57487,110913
11.58298,94304
11.59112,95855
11.59923,89251
11.60735,113878
11.61548,141526
11.62360,183588
11.63173,209865
11.63985,216200
11.64797,187198
11.65610,143913
11.66422,117536
11.67235,92949
11.68047,82378
11.68858,83933
11.69672,82254
11.70483,77097
11.71295,77223
11.72108,72798
11.72920,69720
11.73733,66003
11.74545,65150
11.75357,65347
11.76170,64359
11.76982,58695
11.77795,55966
11.78607,56059
11.79418,54614
11.80232,56905
11.81043,53585
11.81857,54039
11.82668,55521
11.83480,51327
11.84293,53375
11.85105,54491
11.85917,52778
11.86730,53929
11.87542,51409
11.88355,49074
11.89167,49280
11.89978,49107
11.90792,47481
11.91603,52191
11.92417,49489
11.93228,56407
11.94040,60110
11.94853,60368
11.95665,55710
11.96478,53424
11.97290,48512
11.98102,43706
11.98915,45521
11.99727,54111
12.00538,62383
12.01352,76601
12.02163,93410
12.02977,90389
12.03788,84260
12.04600,74666
12.05413,66075
12.06225,54040
12.07038,50795
12.07850,51553
12.08662,49636
12.09475,53066
12.10287,56872
12.11098,53638
12.11912,61089
12.12723,71898
12.13537,77770
12.14348,82077
12.15160,78104
12.15973,77384
12.16785,69786
12.17598,53774
12.18410,52644
12.19222,53460
12.20035,55682
12.20847,50201
12.21660,50942
12.22472,57103
12.23283,53707
12.24097,48468
12.24908,54570
12.25720,52630
12.26533,47676
12.27345,50483
12.28158,50055
12.28970,52450
12.29782,48237
12.30595,55420
12.31407,45898
12.32220,50937
12.33032,44153
12.33843,44821
12.34657,50433
12.35468,44744
12.36280,46742
12.37093,44972
12.37905,50237
12.38718,45680
12.39530,42978
12.40342,46889
12.41155,54193
12.41967,63431
12.42780,85161
12.43592,99478
12.44403,113466
12.45217,109590
12.46028,97718
12.46842,80956
12.47653,70522
12.48465,66674
12.49278,61221
12.50090,55982
12.50902,53942
12.51715,51566
12.52527,49742
12.53340,52075
12.54152,56572
12.54963,61265
12.55777,76331
12.56588,94433
12.57402,123127
12.58213,125864
12.59025,122081
12.59838,108758
12.60650,89962
12.61463,69043
12.62275,68589
12.63087,63030
12.63900,65243
12.64712,60103
12.65523,56707
12.66337,58534
12.67148,49930
12.67962,54052
12.68773,49231
12.69585,48598
12.70398,44929
12.71210,50392
12.72023,48996
12.72835,53254
12.73647,52806
12.74460,53503
12.75272,57598
12.76083,54160
12.76897,52192
12.77708,47208
12.78522,43903
12.79333,46069
12.80145,43116
12.80958,44245
12.81770,43243
12.82583,42781
12.83395,43396
12.84207,40023
12.85020,41135
12.85832,39293
12.86645,40279
12.87457,37419
12.88268,40914
12.89082,37265
12.89893,38493
12.90705,39882
12.91518,39363
12.92330,36584
12.93143,39559
12.93955,37118
12.94767,39954
12.95580,38161
12.96392,37210
12.97205,41090
12.98017,45182
12.98828,47624
12.99642,55069
13.00453,52538
13.01267,53410
13.02078,46302
13.02890,44340
13.03703,42615
13.04515,40714
13.05327,42865
13.06140,43654
13.06952,40192
13.07765,43764
13.08577,43849
13.09388,44817
13.10202,45012
13.11013,44579
13.11827,42410
13.12638,45968
13.13450,43791
13.14263,44594
13.15075,39208
13.15887,46552
13.16700,38248
13.17512,44790
13.18325,45992
13.19137,48702
13.19948,55013
13.20762,49306
13.21573,50325
13.22387,51438
13.23198,46189
13.24010,51879
13.24823,50979
13.25635,48228
13.26448,44923
13.27260,43201
13.28072,46406
13.28885,44391
13.29697,42946
13.30508,39622
13.31322,40372
13.32133,37756
13.32947,40973
13.33758,38990
13.34570,40350
13.35383,39301
13.36195,39801
13.37008,36945
13.37820,38560
13.38632,35070
13.39445,41759
13.40257,36662
13.41070,32905
13.41882,37778
13.42693,37098
13.43507,35605
13.44318,36950
13.45130,39845
13.45943,37621
13.46755,36569
13.47568,39953
13.48380,41073
13.49192,38945
13.50005,37395
13.50817,39171
13.51630,40352
13.52442,43365
13.53253,42776
13.54067,45324
13.54878,39946
13.55690,41665
13.56503,39216
13.57315,42942
13.58128,43903
13.58940,45140
13.59752,42525
13.60565,42930
13.61377,47807
13.62190,56562
13.63002,59381
13.63813,60827
13.64627,60550
13.65438,58146
13.66252,48497
13.67063,45212
13.67875,40981
13.68688,39448
13.69500,38979
13.70312,36298
13.71125,40780
13.71937,41794
13.72750,38680
13.73562,38089
13.74373,39451
13.75187,44394
13.75998,56989
13.76812,96797
13.77623,125910
13.78435,188845
13.79248,249290
13.80060,310720
13.80872,341588
13.81685,351171
13.82497,331237
13.83310,321823
13.84122,309818
13.84933,282111
13.85747,245170
13.86558,222294
13.87372,177439
13.88183,143021
13.88995,121990
13.89808,103052
13.90620,91508
13.91433,81828
13.92245,75128
13.93057,67327
13.93870,65334
13.94682,66381
13.95493,71342
13.96307,68537
13.97118,97120
13.97932,120864
13.98743,151707
13.99555,172968
14.00368,179133
14.01180,164569
14.01993,137677
14.02805,115074
14.03617,99188
14.04430,87041
14.05242,75199
14.06055,76076
14.06867,68517
14.07678,63263
14.08492,61709
14.09303,64234
14.10115,63112
14.10928,68697
14.11740,58329
14.12553,54073
14.13365,56541
14.14177,56268
14.14990,56877
14.15802,58941
14.16615,59392
14.17427,64425
14.18238,65116
14.19052,73164
14.19863,79068
14.20675,102055
14.21488,141028
14.22300,181246
14.23113,209515
14.23925,213459
14.24737,205502
14.25550,196667
14.26362,191809
14.27175,166225
14.27987,163057
14.28798,141249
14.29612,123983
14.30423,110523
14.31237,111193
14.32048,93176
14.32860,91535
14.33673,87819
14.34485,92266
14.35297,92390
14.36110,96508
14.36922,86586
14.37735,90942
14.38547,80162
14.39358,67928
14.40172,60933
14.40983,65544
14.41797,71115
14.42608,74089
14.43420,83266
14.44233,86861
14.45045,84325
14.45858,66973
14.46670,66878
14.47482,57912
14.48295,52641
14.49107,52262
14.49918,51315
14.50732,49307
14.51543,50202
14.52357,47187
14.53168,57028
14.53980,54689
14.54793,56266
14.55605,49171
14.56418,44661
14.57230,47361
14.58042,49540
14.58855,44544
14.59667,41178
14.60478,41367
14.61292,43849
14.62103,42046
14.62917,44370
14.63728,42043
14.64540,46118
14.65353,37332
14.66165,43445
14.66978,40626
14.67790,41765
14.68602,38032
14.69415,38382
14.70227,37992
14.71040,42833
14.71852,42046
14.72663,44588
14.73477,41336
14.74288,41156
14.75100,41489
14.75913,44790
14.76725,44405
14.77538,46572
14.78350,47296
14.79162,59853
14.79975,102757
14.80787,251586
14.81600,675319
14.82412,1582906
14.83223,3054851
14.84037,4718644
14.84848,5705975
14.85660,5612792
14.86473,4268246
14.87285,2879466
14.88098,1739516
14.88910,1078693
14.89722,763470
14.90535,566242
14.91347,463697
14.92160,400546
14.92972,368912
14.93783,324429
14.94597,288105
14.95408,257447
14.96222,241591
14.97033,212455
14.97845,204028
14.98658,192455
14.99470,189720
15.00282,177772
15.01095,173609
15.01907,153603
15.02720,149817
15.03532,141448
15.04343,138827
15.05157,132201
15.05968,130465
15.06782,128079
15.07593,116766
15.08405,113159
15.09218,109192
15.10030,106108
15.10843,104167
15.11655,99171
15.12467,102344
15.13280,105394
15.14092,119611
15.14903,130011
15.15717,142122
15.16528,138755
15.17342,125231
15.18153,105628
15.18965,91718
15.19778,83077
15.20590,69162
15.21403,67057
15.22215,69198
15.23027,60794
15.23840,58469
15.24652,57352
15.25465,52262
15.26277,56615
15.27088,50786
15.27902,50927
15.28713,47561
15.29525,52992
15.30338,51510
15.31150,56374
15.31963,49204
15.32775,50428
15.33587,51929
15.34400,48954
15.35212,46846
15.36025,48697
15.36837,47484
15.37648,47579
15.38462,48920
15.39273,48244
15.40085,47450
15.40898,47935
15.41710,49353
15.42523,49341
15.43335,46484
15.44147,43558
15.44960,42776
15.45772,48559
15.46585,51396
15.47397,49504
15.48208,54779
15.49022,66746
15.49833,79780
15.50647,91111
15.51458,100448
15.52270,103183
15.53083,104633
15.53895,100589
15.54707,107385
15.55520,108154
15.56332,102863
15.57145,93442
15.57957,78555
15.58768,66107
15.59582,68944
15.60393,51261
15.61207,53088
15.62018,52217
15.62830,50333
15.63643,51300
15.64455,51341
15.65267,52536
15.66080,47401
15.66892,47859
15.67705,48529
15.68517,51700
15.69328,55559
15.70142,43399
15.70953,42777
15.71767,40593
15.72578,44905
15.73390,47109
15.74203,46575
15.75015,44248
15.75828,57075
15.76640,89872
15.77452,148667
15.78265,289506
15.79077,445076
15.79888,620397
15.80702,693529
15.81513,642977
15.82327,494176
15.83138,343796
15.83950,232743
15.84763,167535
15.85575,130088
15.86388,117923
15.87200,109380
15.88012,109552
15.88825,111334
15.89637,120397
15.90450,125925
15.91262,112151
15.92073,111114
15.92887,98316
15.93698,86721
15.94510,82130
15.95323,77810
15.96135,76974
15.96948,77456
15.97760,86137
15.98572,86810
15.99385,89162
16.00197,86349
16.01010,93177
16.01822,85214
16.02633,87608
16.03447,81201
16.04258,78375
16.05070,77988
16.05883,74013
16.06695,69443
16.07508,60501
16.08320,58953
16.09132,58962
16.09945,57487
16.10757,56211
16.11570,53464
16.12382,57209
16.13193,56905
16.14007,56857
16.14818,62202
16.15632,62836
16.16443,66414
16.17255,60611
16.18068,61365
16.18880,54169
16.19692,52879
16.20505,56679
16.21317,52344
16.22130,51762
16.22942,50779
16.23753,59467
16.24567,49290
16.25378,52634
16.26192,49010
16.27003,48412
16.27815,47123
16.28628,49619
16.29440,54215
16.30253,55941
16.31065,59443
16.31877,56355
16.32690,57712
16.33502,49053
16.34313,56537
16.35127,55401
16.35938,58968
16.36752,74298
16.37563,81183
16.38375,97111
16.39188,100162
16.40000,101383
16.40813,94762
16.41625,80429
16.42437,73180
16.43250,62272
16.44062,59524
16.44873,68803
16.45687,96860
16.46498,172325
16.47312,346338
16.48123,646268
16.48935,951441
16.49748,1159944
16.50560,1107653
16.51373,907838
16.52185,634348
16.52997,393931
16.53810,262704
16.54622,186333
16.55435,155847
16.56247,132322
16.57058,120256
16.57872,111202
16.58683,104823
16.59495,94212
16.60308,99061
16.61120,100989
16.61933,105139
16.62745,98774
16.63557,95084
16.64370,91818
16.65182,84484
16.65995,76279
16.66807,76140
16.67618,72801
16.68432,67250
16.69243,63507
16.70055,64843
16.70868,64653
16.71680,58087
16.72493,58184
16.73305,53481
16.74117,52701
16.74930,51853
16.75742,57741
16.76555,59555
16.77367,64901
16.78178,71388
16.78992,65162
16.79803,59035
16.80617,53635
16.81428,52086
16.82240,52262
16.83053,48029
16.83865,46581
16.84677,46491
16.85490,48588
16.86302,44995
16.87115,43963
16.87927,44901
16.88738,44689
16.89552,42088
16.90363,42893
16.91177,41283
16.91988,42137
16.92800,42867
16.93613,47131
16.94425,39575
16.95238,44141
16.96050,43408
16.96862,43756
16.97675,38596
16.98487,44205
16.99298,46329
17.00112,43122
17.00923,44282
17.01737,46075
17.02548,46618
17.03360,43668
17.04173,44797
17.04985,48299
17.05798,50661
17.06610,59244
17.07422,58272
17.08235,54902
17.09047,57278
17.09858,60497
17.10672,67462
17.11483,68132
17.12297,73725
17.13108,80273
17.13920,75309
17.14733,69748
17.15545,68586
17.16358,62757
17.17170,63976
17.17982,59686
17.18795,59638
17.19607,49418
17.20420,52200
17.21232,59710
17.22043,49864
17.22857,47681
17.23668,51341
17.24480,51535
17.25293,49016
17.26105,51078
17.26918,53343
17.27730,48109
17.28542,47026
17.29355,54934
17.30167,46858
17.30980,45791
17.31792,45137
17.32603,48232
17.33417,47494
17.34228,56183
17.35042,58075
17.35853,61280
17.36665,62304
17.37478,66047
17.38290,63555
17.39102,62366
17.39915,58637
17.40727,55055
17.41540,60902
17.42352,54087
17.43163,57738
17.43977,64392
17.44788,53306
17.45602,55016
17.46413,50400
17.47225,51044
17.48038,47274
17.48850,44444
17.49662,42473
17.50475,45902
17.51287,45809
17.52100,47825
17.52912,46660
17.53723,50397
17.54537,41916
17.55348,50571
17.56162,57558
17.56973,76181
17.57785,120621
17.58598,221323
17.59410,407416
17.60223,690330
17.61035,1038183
17.61847,1309209
17.62660,1331455
17.63472,1169151
17.64283,908542
17.65097,632583
17.65908,489121
17.66722,408500
17.67533,367146
17.68345,347119
17.69158,327088
17.69970,280405
17.70783,227780
17.71595,181405
17.72407,144550
17.73220,130031
17.74032,115705
17.74843,112068
17.75657,97081
17.76468,88583
17.77282,86085
17.78093,80031
17.78905,81997
17.79718,77087
17.80530,78847
17.81343,69283
17.82155,70571
17.82967,75677
17.83780,75336
17.84592,80255
17.85405,80717
17.86217,86917
17.87028,98931
17.87842,100829
17.88653,95080
17.89465,92547
17.90278,77507
17.91090,71717
17.91903,62398
17.92715,55663
17.93527,56873
17.94340,54539
17.95152,50993
17.95965,51448
17.96777,53403
17.97588,53806
17.98402,49451
17.99213,52440
18.00027,51873
18.00838,49975
18.01650,56637
18.02463,64207
18.03275,75215
18.04087,94058
18.04900,119445
18.05712,124062
18.06525,127774
18.07337,166058
18.08148,240473
18.08962,385129
18.09773,570370
18.10587,711950
18.11398,744680
18.12210,695821
18.13023,546869
18.13835,442355
18.14647,343724
18.15460,288475
18.16272,264361
18.17085,226662
18.17897,217248
18.18708,191953
18.19522,177145
18.20333,168628
18.21147,158131
18.21958,145417
18.22770,137977
18.23583,122572
18.24395,117274
18.25208,116091
18.26020,110081
18.26832,105854
18.27645,100524
18.28457,104097
18.29268,87420
18.30082,79363
18.30893,70945
18.31707,62364
18.32518,60535
18.33330,57955
18.34143,60341
18.34955,55921
18.35768,52508
18.36580,50311
18.37392,50206
18.38205,49256
18.39017,52654
18.39830,47796
18.40642,50667
18.41453,48393
18.42267,52476
18.43078,58374
18.43890,61966
18.44703,67385
18.45515,94624
18.46328,135183
18.47140,205816
18.47952,307353
18.48765,420503
18.49577,485157
18.50390,495071
18.51202,431971
18.52013,343072
18.52827,245935
18.53638,171990
18.54450,127353
18.55263,105134
18.56075,89949
18.56888,76866
18.57700,78708
18.58512,68659
18.59325,64833
18.60137,66492
18.60950,67396
18.61762,64501
18.62573,63580
18.63387,63721
18.64198,65085
18.65012,64289
18.65823,57870
18.66635,57163
18.67448,56702
18.68260,51579
18.69072,54541
18.69885,54579
18.70697,71020
18.71510,111914
18.72322,160272
18.73133,198776
18.73947,218387
18.74758,221412
18.75572,241892
18.76383,234637
18.77195,239633
18.78008,240489
18.78820,246940
18.79633,242647
18.80445,253407
18.81257,249207
18.82070,261434
18.82882,247057
18.83693,250545
18.84507,244605
18.85318,247517
18.86132,252231
18.86943,241266
18.87755,248578
18.88568,244873
18.89380,240796
18.90193,247396
18.91005,246777
18.91817,241944
18.92630,242812
18.93442,243564
18.94253,256812
18.95067,261759
18.95878,248570
18.96692,265749
18.97503,253483
18.98315,256739
18.99128,256011
18.99940,252137
19.00753,239640
19.01565,239667
19.02377,235589
19.03190,229846
19.04002,236721
19.04815,215981
19.05627,217637
19.06438,219173
19.07252,213522
19.08063,215957
19.08875,224164
19.09688,239686
19.10500,266043
19.11313,284281
19.12125,295335
19.12937,288047
19.13750,277515
19.14562,261842
19.15375,245163
19.16187,228399
19.16998,221469
19.17812,220658
19.18623,229193
19.19435,224913
19.20248,223548
19.21060,219239
19.21873,210798
19.22685,214646
19.23497,210065
19.24310,206347
19.25122,195987
19.25935,185825
19.26747,193891
19.27558,196373
19.28372,200944
19.29183,206749
19.29997,197779
19.30808,201019
19.31620,202460
19.32433,189590
19.33245,202629
19.34057,191316
19.34870,187772
19.35682,193128
19.36495,198527
19.37307,223915
19.38118,231192
19.38932,256556
19.39743,251631
19.40557,229977
19.41368,220826
19.42180,202431
19.42993,192004
19.43805,176745
19.44618,171898
19.45430,172737
19.46242,176982
19.47055,172675
19.47867,171092
19.48678,160860
19.49492,169232
19.50303,189396
19.51117,208132
19.51928,234335
19.52740,259607
19.53553,277706
19.54365,284909
19.55178,252849
19.55990,227586
19.56802,196912
19.57615,179371
19.58427,164523
19.59238,156263
19.60052,166205
19.60863,147429
19.61677,145556
19.62488,149459
19.63300,154098
19.64113,157483
19.64925,178739
19.65738,237650
19.66550,308837
19.67362,400081
19.68175,493871
19.68987,565221
19.69800,564286
19.70612,521980
19.71423,457038
19.72237,394510
19.73048,336254
19.73860,298798
19.74673,268000
19.75485,242453
19.76298,209570
19.77110,205713
19.77922,186322
19.78735,179277
19.79547,185724
19.80360,186682
19.81172,184867
19.81983,191357
19.82797,185600
19.83608,175599
19.84422,173129
19.85233,173434
19.86045,227196
19.86858,419122
19.87670,916094
19.88482,1969276
19.89295,3735394
19.90107,6171732
19.90920,8253050
19.91732,9116548
19.92543,8960833
19.93357,7631618
19.94168,6170783
19.94982,4679913
19.95793,3722007
19.96605,3162387
19.97418,2832922
19.98230,2586651
19.99042,2318726
19.99855,2151483
20.00667,2017661
20.01480,1929044
20.02292,1848061
20.03103,1735635
20.03917,1599438
20.04728,1477917
20.05542,1289271
20.06353,1095200
20.07165,858250
20.07978,677591
20.08790,550931
20.09603,453180
20.10415,401776
20.11227,367886
20.12040,357753
20.12852,347317
20.13663,324806
20.14477,316043
20.15288,308784
20.16102,309522
20.16913,311137
20.17725,334306
20.18538,340582
20.19350,343688
20.20163,367002
20.20975,349620
20.21787,347119
20.22600,326819
20.23412,314387
20.24223,292743
20.25037,289257
20.25848,297721
20.26662,341748
20.27473,415503
20.28285,494635
20.29098,586237
20.29910,635915
20.30723,619196
20.31535,583120
20.32347,490890
20.33160,417782
20.33972,333428
20.34785,291770
20.35597,250165
20.36408,233617
20.37222,205952
20.38033,176703
20.38845,153938
20.39658,137725
20.40470,134744
20.41283,125337
20.42095,123133
20.42907,125741
20.43720,130764
20.44532,148261
20.45345,160936
20.46157,166307
20.46968,168780
20.47782,172469
20.48593,154469
20.49407,142051
20.50218,131601
20.51030,120049
20.51843,123554
20.52655,113157
20.53467,103736
20.54280,102725
20.55092,109222
20.55905,110627
20.56717,105751
20.57528,93826
20.58342,103833
20.59153,109894
20.59967,99033
20.60778,101266
20.61590,95454
20.62403,98105
20.63215,106389
20.64028,93627
20.64840,96468
20.65652,91386
20.66465,94259
20.67277,93874
20.68088,86437
20.68902,100024
20.69713,93799
20.70527,91814
20.71338,89322
20.72150,89989
20.72963,88861
20.73775,84350
20.74588,87974
20.75400,87673
20.76212,86550
20.77025,91132
20.77837,101804
20.78648,90674
20.79462,108714
20.80273,133286
20.81087,178838
20.81898,235056
20.82710,288003
20.83523,320935
20.84335,297861
20.85148,252606
20.85960,200241
20.86772,157212
20.87585,129937
20.88397,116108
20.89210,105561
20.90022,96431
20.90833,101547
20.91647,91700
20.92458,89943
20.93270,93178
20.94083,88753
20.94895,90039
20.95708,85496
20.96520,80797
20.97332,88443
20.98145,78756
20.98957,82066
20.99770,76170
21.00582,77326
21.01393,76362
21.02207,86464
21.03018,75259
21.03830,82666
21.04643,79870
21.05455,78149
21.06268,77738
21.07080,76503
21.07892,81987
21.08705,78495
21.09517,82970
21.10330,84593
21.11142,86711
21.11953,82127
21.12767,84187
21.13578,91598
21.14392,93421
21.15203,116866
21.16015,154332
21.16828,187074
21.17640,208562
21.18452,204527
21.19265,198419
21.20077,162046
21.20890,141144
21.21702,123402
21.22513,110771
21.23327,114788
21.24138,106717
21.24952,92509
21.25763,93778
21.26575,91789
21.27388,85779
21.28200,87332
21.29013,86368
21.29825,84754
21.30637,83657
21.31450,84209
21.32262,80305
21.33073,80732
21.33887,79181
21.34698,80238
21.35512,81564
21.36323,80778
21.37135,85488
21.37948,75814
21.38760,76678
21.39573,81158
21.40385,81717
21.41197,88685
21.42010,96727
21.42822,106498
21.43633,109434
21.44447,98720
21.45258,95069
21.46072,92582
21.46883,89315
21.47695,80961
21.48508,75925
21.49320,81968
21.50133,79437
21.50945,82430
21.51757,73160
21.52570,71059
21.53382,76668
21.54195,70889
21.55007,66264
21.55818,69973
21.56632,65257
21.57443,78110
21.58255,72732
21.59068,73300
21.59880,80180
21.60693,86428
21.61505,88110
21.62317,84910
21.63130,89180
21.63942,97559
21.64755,97259
21.65567,115715
21.66378,128347
21.67192,131920
21.68003,130623
21.68817,123934
21.69628,119039
21.70440,110560
21.71253,94703
21.72065,82371
21.72877,74151
21.73690,71638
21.74502,63412
21.75315,62718
21.76127,63631
21.76938,58901
21.77752,61425
21.78563,61022
21.79377,59680
21.80188,57144
21.81000,58936
21.81813,57998
21.82625,63054
21.83437,73666
21.84250,83252
21.85062,94197
21.85875,102380
21.86687,111067
21.87498,102711
21.88312,93729
21.89123,86475
21.89937,79422
21.90748,64378
21.91560,62165
21.92373,64267
21.93185,60610
21.93998,58205
21.94810,57444
21.95622,50947
21.96435,51170
21.97247,55565
21.98058,53605
21.98872,49625
21.99683,51049
22.00497,40479
22.01308,50860
22.02120,54793
22.02933,53122
22.03745,53549
22.04558,57170
22.05370,46094
22.06182,49828
22.06995,50880
22.07807,53251
22.08618,50763
22.09432,50496
22.10243,54020
22.11057,49490
22.11868,46768
22.12680,46380
22.13493,44713
22.14305,50171
22.15118,43990
22.15930,47766
22.16742,51814
22.17555,51564
22.18367,46310
22.19180,44814
22.19992,43825
22.20803,44896
22.21617,46582
22.22428,47740
22.23240,53103
22.24053,57832
22.24865,57713
22.25678,54691
22.26490,53276
22.27302,53213
22.28115,62716
22.28927,54626
22.29740,57444
22.30552,60409
22.31363,68878
22.32177,88461
22.32988,94979
22.33802,117653
22.34613,130471
22.35425,144990
22.36238,132227
22.37050,113411
22.37862,101845
22.38675,90107
22.39487,88262
22.40300,94867
22.41112,125232
22.41923,139083
22.42737,160441
22.43548,174193
22.44362,173540
22.45173,165557
22.45985,150046
22.46798,136312
22.47610,127740
22.48422,126975
22.49235,125630
22.50047,128581
22.50860,138850
22.51672,136801
22.52483,134796
22.53297,131613
22.54108,132139
22.54922,131656
22.55733,127709
22.56545,121688
22.57358,118486
22.58170,117694
22.58983,106665
22.59795,108783
22.60607,106505
22.61420,107815
22.62232,108250
22.63043,101992
22.63857,105868
22.64668,106090
22.65482,102992
22.66293,105072
22.67105,104569
22.67918,107579
22.68730,113391
22.69543,115934
22.70355,135431
22.71167,139278
22.71980,154213
22.72792,159707
22.73605,164483
22.74417,157965
22.75228,151911
22.76042,136984
22.76853,122856
22.77665,123121
22.78478,122041
22.79290,126629
22.80103,122274
22.80915,136098
22.81727,147473
22.82540,149053
22.83352,146577
22.84165,141781
22.84977,138087
22.85788,126126
22.86602,118175
22.87413,117196
22.88225,110037
22.89038,110633
22.89850,115402
22.90663,111163
22.91475,115170
22.92287,116276
22.93100,136265
22.93912,151255
22.94725,150766
22.95537,154973
22.96348,137421
22.97162,117011
22.97973,106653
22.98787,92853
22.99598,85479
23.00410,77486
23.01223,74090
23.02035,68601
23.02847,69195
23.03660,65842
23.04472,59241
23.05285,58784
23.06097,61732
23.06908,63000
23.07722,56556
23.08533,66221
23.09347,61585
23.10158,56632
23.10970,62102
23.11783,56346
23.12595,59892
23.13408,57097
23.14220,55530
23.15032,53504
23.15845,56112
23.16657,63841
23.17468,75978
23.18282,92017
23.19093,112127
23.19907,116687
23.20718,115437
23.21530,123990
23.22343,130205
23.23155,128161
23.23968,140574
23.24780,143658
23.25592,160782
23.26405,172405
23.27217,186433
23.28028,186902
23.28842,180302
23.29653,179403
23.30467,159944
23.31278,150638
23.32090,149582
23.32903,149450
23.33715,144596
23.34528,150502
23.35340,162341
23.36152,169927
23.36965,176268
23.37777,203527
23.38590,197931
23.39402,193227
23.40213,197178
23.41027,187861
23.41838,178541
23.42650,178613
23.43463,177137
23.44275,180482
23.45088,166657
23.45900,166811
23.46712,172610
23.47525,161501
23.48337,164836
23.49150,160672
23.49962,151525
23.50773,157203
23.51587,157264
23.52398,146482
23.53210,147588
23.54023,150485
23.54835,149843
23.55648,144091
23.56460,146337
23.57272,148963
23.58085,158576
23.58897,168030
23.59710,181124
23.60522,197353
23.61333,208872
23.62147,215701
23.62958,209470
23.63772,213996
23.64583,229515
23.65395,295242
23.66208,400081
23.67020,524497
23.67832,612872
23.68645,632667
23.69457,567791
23.70270,467817
23.71082,364699
23.71893,303386
23.72707,250432
23.73518,216793
23.74332,192168
23.75143,177506
23.75955,190376
23.76768,267483
23.77580,495102
23.78393,969423
23.79205,1641592
23.80017,2368205
23.80830,2821571
23.81642,2872009
23.82453,2543697
23.83267,2119693
23.84078,1552065
23.84892,1153898
23.85703,850584
23.86515,706298
23.87328,560550
23.88140,488770
23.88953,435335
23.89765,397905
23.90577,363722
23.91390,332965
23.92202,323685
23.93013,316096
23.93827,303047
23.94638,287719
23.95452,285728
23.96263,263717
23.97075,253799
23.97888,240848
23.98700,225571
23.99513,217975
24.00325,210178
24.01137,205276
24.01950,229054
24.02762,252732
24.03575,305608
24.04387,364854
24.05198,374663
24.06012,373904
24.06823,330423
24.07635,260640
24.08448,221418
24.09260,197392
24.10073,181699
24.10885,179789
24.11697,157775
24.12510,159637
24.13322,158944
24.14135,164727
24.14947,178561
24.15758,186699
24.16572,200722
24.17383,188193
24.18197,197660
24.19008,177084
24.19820,177978
24.20633,163463
24.21445,159470
24.22257,163826
24.23070,152702
24.23882,159933
24.24695,152515
24.25507,145431
24.26318,132081
24.27132,135997
24.27943,134910
24.28757,128025
24.29568,128758
24.30380,128960
24.31193,127397
24.32005,124224
24.32817,125648
24.33630,110474
24.34442,106036
24.35255,101200
24.36067,96746
24.36878,90603
24.37692,92705
24.38503,87110
24.39317,89236
24.40128,105498
24.40940,116348
24.41753,138693
24.42565,132160
24.43378,139640
24.44190,121814
24.45002,106954
24.45815,92377
24.46627,84328
24.47438,78175
24.48252,83636
24.49063,87744
24.49877,86853
24.50688,92958
24.51500,95089
24.52313,101037
24.53125,111156
24.53938,122435
24.54750,131551
24.55562,136584
24.56375,143207
24.57187,146278
24.57998,141874
24.58812,129774
24.59623,114651
24.60437,109869
24.61248,104196
24.62060,105359
24.62873,100776
24.63685,97120
24.64498,96952
24.65310,91098
24.66122,84981
24.66935,83760
24.67747,79805
24.68560,79446
24.69372,76047
24.70183,68319
24.70997,72009
24.71808,72657
24.72620,66410
24.73433,68742
24.74245,68210
24.75058,68499
24.75870,74689
24.76682,68292
24.77495,72037
24.78307,73367
24.79120,79339
24.79932,82373
24.80743,82739
24.81557,82683
24.82368,86643
24.83182,92726
24.83993,118245
24.84805,166788
24.85618,205226
24.86430,265097
24.87242,340062
24.88055,409179
24.88867,537288
24.89680,623698
24.90492,706247
24.91303,710687
24.92117,658251
24.92928,559028
24.93742,463309
24.94553,373474
24.95365,329745
24.96178,286997
24.96990,277950
24.97802,257960
24.98615,264146
24.99427,260141
25.00240,258400
25.01052,258650
25.01863,258505
25.02677,252732
25.03488,248014
25.04302,253553
25.05113,261318
25.05925,248671
25.06738,241540
25.07550,249766
25.08363,249964
25.09175,262027
25.09987,257740
25.10800,288858
25.11612,365693
25.12423,548607
25.13237,960931
25.14048,1634638
25.14862,2420361
25.15673,3066277
25.16485,3231692
25.17298,2966513
25.18110,2359389
25.18923,1750195
25.19735,1164050
25.20547,783992
25.21360,537726
25.22172,412784
25.22985,344114
25.23797,333099
25.24608,347540
25.25422,429503
25.26233,581192
25.27045,811468
25.27858,1065798
25.28670,1216751
25.29483,1244077
25.30295,1104782
25.31107,877698
25.31920,652951
25.32732,460948
25.33545,341701
25.34357,286545
25.35168,248575
25.35982,224316
25.36793,210082
25.37605,213307
25.38418,197043
25.39230,196101
25.40043,193562
25.40855,183895
25.41667,178002
25.42480,165191
25.43292,155566
25.44105,146343
25.44917,125076
25.45728,109790
25.46542,101481
25.47353,96792
25.48167,96823
25.48978,94879
25.49790,100634
25.50603,94800
25.51415,91196
25.52227,94746
25.53040,81029
25.53852,82348
25.54665,77316
25.55477,78418
25.56288,75892
25.57102,71756
25.57913,71563
25.58727,73415
25.59538,69360
25.60350,67721
25.61163,72658
25.61975,69875
25.62787,74909
25.63600,77111
25.64412,82622
25.65225,93797
25.66037,97901
25.66848,102698
25.67662,100564
25.68473,89995
25.69287,82111
25.70098,86379
25.70910,75952
25.71723,71094
25.72535,70373
25.73348,72053
25.74160,80055
25.74972,69483
25.75785,74491
25.76597,69457
25.77408,74029
25.78222,66311
25.79033,63146
25.79847,64194
25.80658,62523
25.81470,66151
25.82283,71965
25.83095,100224
25.83908,132450
25.84720,187335
25.85532,236700
25.86345,272541
25.87157,272371
25.87970,289188
25.88782,298437
25.89593,293541
25.90407,317257
25.91218,295539
25.92030,296263
25.92843,299698
25.93655,294814
25.94468,292956
25.95280,304938
25.96092,314099
25.96905,297332
25.97717,289175
25.98530,288984
25.99342,300230
26.00153,291913
26.00967,282897
26.01778,275034
26.02592,279791
26.03403,276477
26.04215,283615
26.05028,284171
26.05840,276756
26.06652,279299
26.07465,263538
26.08277,264599
26.09090,267056
26.09902,273094
26.10713,266423
26.11527,265584
26.12338,253143
26.13152,264902
26.13963,264582
26.14775,257027
26.15588,268691
26.16400,265034
26.17212,262849
26.18025,263046
26.18837,259495
26.19650,261834
26.20462,246138
26.21273,245568
26.22087,243672
26.22898,241823
26.23712,238052
26.24523,240018
26.25335,235427
26.26148,226912
26.26960,229519
26.27773,222471
26.28585,224507
26.29397,227608
26.30210,230306
26.31022,230092
26.31833,219664
26.32647,215116
26.33458,230089
26.34272,227029
26.35083,218672
26.35895,207808
26.36708,214889
26.37520,208905
26.38333,216453
26.39145,229661
26.39957,237297
26.40770,244564
26.41582,237106
26.42393,237549
26.43207,226557
26.44018,223818
26.44832,211256
26.45643,210064
26.46455,199773
26.47268,196759
26.48080,193789
26.48893,190667
26.49705,193758
26.50517,194059
26.51330,194123
26.52142,194884
26.52955,181949
26.53767,179191
26.54578,177316
26.55392,178296
26.56203,173796
26.57015,181158
26.57828,174714
26.58640,165063
26.59453,175139
26.60265,163572
26.61077,168311
26.61890,173146
26.62702,168374
26.63515,163380
26.64327,163132
26.65138,170037
26.65952,163853
26.66763,163337
26.67577,169640
26.68388,168456
26.69200,167275
26.70013,166458
26.70825,163083
26.71637,152253
26.72450,153089
26.73262,154711
26.74075,143958
26.74887,145403
26.75698,140968
26.76512,140970
26.77323,144476
26.78137,136270
26.78948,132447
26.79760,134796
26.80573,137661
26.81385,140289
26.82197,140925
26.83010,142270
26.83822,138119
26.84635,142503
26.85447,136504
26.86258,134491
26.87072,130083
26.87883,123469
26.88697,114978
26.89508,119405
26.90320,115387
26.91133,115346
26.91945,120768
26.92758,109264
26.93570,109353
26.94382,109489
26.95195,111352
26.96007,111434
26.96818,118488
26.97632,123791
26.98443,154256
26.99257,201612
27.00068,294049
27.00880,442547
27.01693,634895
27.02505,876635
27.03318,1059501
27.04130,1125668
27.04942,1105232
27.05755,979505
27.06567,773799
27.07380,608012
27.08192,492726
27.09003,406696
27.09817,341866
27.10628,291303
27.11440,262817
27.12253,249256
27.13065,232165
27.13878,218937
27.14690,204860
27.15502,201666
27.16315,198638
27.17127,196598
27.17940,212502
27.18752,218697
27.19563,224407
27.20377,225392
27.21188,217979
27.22000,196394
27.22813,169958
27.23625,163187
27.24438,144483
27.25250,142940
27.26062,134834
27.26875,131189
27.27687,126712
27.28500,117179
27.29312,117529
27.30123,118639
27.30937,110704
27.31748,107863
27.32562,108749
27.33373,108448
27.34185,110793
27.34998,106856
27.35810,103002
27.36622,104815
27.37435,107347
27.38247,111455
27.39060,108368
27.39872,111449
27.40683,104474
27.41497,99532
27.42308,98278
27.43122,95255
27.43933,90237
27.44745,86246
27.45558,86341
27.46370,92503
27.47182,91715
27.47995,89126
27.48807,80890
27.49620,86380
27.50432,85894
27.51243,85056
27.52057,80748
27.52868,82995
27.53682,84662
27.54493,82065
27.55305,84783
27.56118,81701
27.56930,82789
27.57743,84041
27.58555,88845
27.59367,97443
27.60180,107310
27.60992,105829
27.61803,111295
27.62617,99680
27.63428,101106
27.64242,88805
27.65053,89589
27.65865,84703
27.66678,78704
27.67490,76469
27.68303,74003
27.69115,74896
27.69927,73981
27.70740,73186
27.71552,69507
27.72365,79107
27.73177,72223
27.73988,73594
27.74802,69513
27.75613,71342
27.76425,79375
27.77238,89488
27.78050,105275
27.78863,129804
27.79675,159489
27.80487,163466
27.81300,161326
27.82112,149767
27.82925,125948
27.83737,106326
27.84548,88254
27.85362,92028
27.86173,76188
27.86985,76179
27.87798,72222
27.88610,74049
27.89423,71200
27.90235,66827
27.91047,64481
27.91860,64680
27.92672,65788
27.93485,67276
27.94297,61004
27.95108,62327
27.95922,60105
27.96733,62646
27.97547,63897
27.98358,64702
27.99170,63174
27.99983,70025
28.00795,79051
28.01607,77618
28.02420,74053
28.03232,77872
28.04045,76268
28.04857,70606
28.05668,73270
28.06482,72332
28.07293,73725
28.08107,71000
28.08918,70211
28.09730,67938
28.10543,68007
28.11355,61353
28.12168,62324
28.12980,61372
28.13792,55492
28.14605,64061
28.15417,67584
28.16228,60377
28.17042,62637
28.17853,58561
28.18667,57552
28.19478,60654
28.20290,67975
28.21103,73644
28.21915,88722
28.22728,103443
28.23540,104904
28.24352,100028
28.25165,92486
28.25977,85775
28.26788,79988
28.27602,78062
28.28413,65482
28.29227,61362
28.30038,68950
28.30850,65816
28.31663,73857
28.32475,78053
28.33288,87192
28.34100,102170
28.34912,126878
28.35725,135169
28.36537,148093
28.37350,175358
28.38162,178722
28.38973,195661
28.39787,187848
28.40598,180841
28.41410,188171
28.42223,173945
28.43035,158274
28.43848,151130
28.44660,143991
28.45472,132479
28.46285,112131
28.47097,116239
28.47910,106214
28.48722,100205
28.49533,103167
28.50347,92338
28.51158,92402
28.51972,91226
28.52783,91039
28.53595,86164
28.54408,85318
28.55220,81742
28.56032,75689
28.56845,73463
28.57657,73144
28.58470,71602
28.59282,75466
28.60093,69585
28.60907,74290
28.61718,73777
28.62532,71861
28.63343,71473
28.64155,68253
28.64968,71398
28.65780,73300
28.66592,81748
28.67405,75695
28.68217,76632
28.69030,74360
28.69842,70860
28.70653,71849
28.71467,67792
28.72278,70012
28.73092,68281
28.73903,72386
28.74715,68371
28.75528,65623
28.76340,70506
28.77153,73193
28.77965,78420
28.78777,83043
28.79590,89729
28.80402,92641
28.81213,93457
28.82027,78628
28.82838,74238
28.83652,70416
28.84463,71204
28.85275,65964
28.86088,64066
28.86900,61584
28.87713,63750
28.88525,70057
28.89337,71284
28.90150,73877
28.90962,75584
28.91773,86043
28.92587,75099
28.93398,75540
28.94212,71417
28.95023,77419
28.95835,82190
28.96648,85362
28.97460,83743
28.98273,77816
28.99085,77927
28.99897,72288
29.00710,60640
29.01522,66095
29.02335,61958
29.03147,58033
29.03958,57887
29.04772,62604
29.05583,62023
29.06395,71835
29.07208,75018
29.08020,84340
29.08833,89399
29.09645,88373
29.10457,88038
29.11270,86769
29.12082,80874
29.12895,71573
29.13707,66890
29.14518,66911
29.15332,63209
29.16143,61210
29.16957,65802
29.17768,67026
29.18580,67128
29.19393,69686
29.20205,77624
29.21017,92719
29.21830,103776
29.22642,116950
29.23455,114969
29.24267,113581
29.25078,105306
29.25892,96790
29.26703,101702
29.27517,89589
29.28328,79503
29.29140,79879
29.29953,70354
29.30765,68362
29.31577,61080
29.32390,56176
29.33202,59520
29.34015,57133
29.34827,65428
29.35638,57461
29.36452,58637
29.37263,60404
29.38077,61097
29.38888,60493
29.39700,61159
29.40513,61609
29.41325,57587
29.42138,59276
29.42950,55676
29.43762,55918
29.44575,53360
29.45387,53593
29.46198,54399
29.47012,53735
29.47823,54487
29.48637,55649
29.49448,57477
29.50260,63916
29.51073,61594
29.51885,62785
29.52698,57955
29.53510,61866
29.54322,59614
29.55135,60263
29.55947,55970
29.56760,58576
29.57572,57786
29.58383,54231
29.59197,57118
29.60008,50765
29.60820,58616
29.61633,50728
29.62445,55201
29.63258,60053
29.64070,58782
29.64882,56305
29.65695,55339
29.66507,51655
29.67320,53712
29.68132,48103
29.68943,53642
29.69757,53471
29.70568,54848
29.71380,54401
29.72193,63088
29.73005,53671
29.73818,55124
29.74630,52241
29.75442,50757
29.76255,51649
29.77067,55953
29.77880,52509
29.78692,47551
29.79503,52483
29.80317,48617
29.81128,49810
29.81942,49581
29.82753,53814
29.83565,56297
29.84378,51590
29.85190,51222
29.86002,63036
29.86815,77759
29.87627,127493
29.88440,248940
29.89252,448843
29.90063,744283
29.90877,1016297
29.91688,1138821
29.92502,1119309
29.93313,837146
29.94125,529721
29.94938,323962
29.95750,192208
29.96562,138614
29.97375,102413
29.98187,96136
29.99000,98185
29.99812,103961
30.00623,100124
30.01437,107423
30.02248,110380
30.03062,119718
30.03873,119462
30.04685,123043
30.05498,118545
30.06310,120147
30.07123,119383
30.07935,120097
30.08747,108527
30.09560,109815
30.10372,103329
30.11183,101050
30.11997,93909
30.12808,94681
30.13622,87791
30.14433,88086
30.15245,85701
30.16058,81353
30.16870,79794
30.17683,76097
30.18495,76104
30.19307,72558
30.20120,72051
30.20932,69337
30.21745,71690
30.22557,71989
30.23368,63484
30.24182,65636
30.24993,61506
30.25805,64043
30.26618,67136
30.27430,63382
30.28243,62849
30.29055,57330
30.29867,57359
30.30680,59041
30.31492,62185
30.32305,59775
30.33117,59756
30.33928,61140
30.34742,63419
30.35553,60903
30.36365,56211
30.37178,64689
30.37990,57456
30.38803,63046
30.39615,57511
30.40427,60587
30.41240,59890
30.42052,56569
30.42865,57836
30.43677,63104
30.44488,59415
30.45302,58274
30.46113,62752
30.46927,58791
30.47738,58083
30.48550,58467
30.49363,61014
30.50175,60327
30.50987,63237
30.51800,67456
30.52612,59041
30.53425,63442
30.54237,58270
30.55048,58255
30.55862,55178
30.56673,57891
30.57487,51871
30.58298,52038
30.59110,49558
30.59923,53122
30.60735,51417
30.61548,48323
30.62360,53615
30.63172,54081
30.63985,48639
30.64797,55976
30.65608,51797
30.66422,54181
30.67233,52938
30.68047,49502
30.68858,52849
30.69670,52548
30.70483,53478
30.71295,54041
30.72108,53727
30.72920,53641
30.73732,60698
30.74545,57906
30.75357,56317
30.76168,57174
30.76982,62142
30.77793,71908
30.78607,102466
30.79418,149004
30.80230,245282
30.81043,356911
30.81855,470218
30.82668,527919
30.83480,500921
30.84292,394310
30.85105,278659
30.85917,190266
30.86730,138976
30.87542,101712
30.88353,88984
30.89167,78333
30.89978,75346
30.90790,76252
30.91603,68690
30.92415,65288
30.93228,63472
30.94040,65091
30.94852,75286
30.95665,74211
30.96477,75270
30.97290,69632
30.98102,69565
30.98913,65065
30.99727,68575
31.00538,63079
31.01350,63917
31.02163,71274
31.02975,68146
31.03788,69253
31.04600,69538
31.05412,69015
31.06225,68474
31.07037,68451
31.07850,70155
31.08662,84138
31.09473,106117
31.10287,140686
31.11098,171025
31.11912,201550
31.12723,209831
31.13535,187579
31.14348,154022
31.15160,132008
31.15972,99631
31.16785,78941
31.17597,76231
31.18410,74775
31.19222,76537
31.20033,90270
31.20847,103380
31.21658,124051
31.22472,154573
31.23283,169131
31.24095,177612
31.24908,161475
31.25720,137841
31.26533,114507
31.27345,91188
31.28157,74576
31.28970,67199
31.29782,58497
31.30593,57198
31.31407,56493
31.32218,55661
31.33032,55151
31.33843,60389
31.34655,60746
31.35468,61872
31.36280,65258
31.37093,66616
31.37905,71161
31.38717,75378
31.39530,78762
31.40342,78901
31.41155,78987
31.41967,76356
31.42778,70778
31.43592,62491
31.44403,61050
31.45215,59696
31.46028,61242
31.46840,58772
31.47653,66068
31.48465,74254
31.49277,95470
31.50090,88516
31.50902,95833
31.51715,91102
31.52527,83574
31.53338,75203
31.54152,76369
31.54963,78716
31.55775,79849
31.56588,94010
31.57400,103441
31.58213,113173
31.59025,109918
31.59837,108814
31.60650,99630
31.61462,92334
31.62275,92045
31.63087,87359
31.63898,81680
31.64712,87736
31.65523,86254
31.66337,81202
31.67148,87778
31.67960,94470
31.68773,94891
31.69585,95874
31.70397,90503
31.71210,89496
31.72022,86633
31.72835,82796
31.73647,81236
31.74458,88563
31.75272,81995
31.76083,81966
31.76897,78387
31.77708,85464
31.78520,79213
31.79333,77579
31.80145,82629
31.80957,80301
31.81770,80389
31.82582,81650
31.83395,80249
31.84207,79814
31.85018,82383
31.85832,76126
31.86643,84801
31.87457,84568
31.88268,87257
31.89080,85201
31.89893,93533
31.90705,90944
31.91518,108277
31.92330,106403
31.93142,110658
31.93955,110422
31.94767,111672
31.95578,105737
31.96392,110923
31.97203,116607
31.98017,121939
31.98828,122117
31.99640,123422
32.00453,124428
32.01265,122087
32.02078,109157
32.02890,115736
32.03702,111587
32.04515,105945
32.05327,104208
32.06140,102026
32.06952,91857
32.07763,95808
32.08577,91520
32.09388,91431
32.10200,91257
32.11013,88057
32.11825,86378
32.12638,80157
32.13450,79526
32.14262,75468
32.15075,76990
32.15887,75199
32.16700,67047
32.17512,69996
32.18323,69820
32.19137,68034
32.19948,63984
32.20760,65301
32.21573,68508
32.22385,66693
32.23198,69426
32.24010,64366
32.24822,67637
32.25635,75223
32.26447,70393
32.27260,71839
32.28072,69964
32.28883,77762
32.29697,77033
32.30508,70430
32.31322,65906
32.32133,64928
32.32945,65764
32.33758,60558
32.34570,62819
32.35382,68422
32.36195,62693
32.37007,65826
32.37820,65574
32.38632,62969
32.39443,65054
32.40257,59800
32.41068,63369
32.41882,64958
32.42693,59731
32.43505,57751
32.44318,56277
32.45130,58369
32.45943,62331
32.46755,60282
32.47567,53198
32.48380,56676
32.49192,55497
32.50003,55483
32.50817,52152
32.51628,56395
32.52442,56388
32.53253,54045
32.54065,52482
32.54878,52055
32.55690,54509
32.56503,59057
32.57315,51901
32.58127,55741
32.58940,54745
32.59752,52367
32.60563,56669
32.61377,54743
32.62188,52561
32.63002,45877
32.63813,52174
32.64625,51853
32.65438,52482
32.66250,56674
32.67063,59623
32.67875,66103
32.68687,69333
32.69500,72222
32.70312,69451
32.71125,67107
32.71937,67255
32.72748,63579
32.73562,55020
32.74373,55927
32.75185,55366
32.75998,56700
32.76810,53175
32.77623,53522
32.78435,54558
32.79247,50051
32.80060,50207
32.80872,49066
32.81685,51140
32.82497,48624
32.83308,48706
32.84122,51643
32.84933,44395
32.85745,47510
32.86558,49385
32.87370,50763
32.88183,50564
32.88995,50169
32.89807,52116
32.90620,56862
32.91432,52564
32.92245,54362
32.93057,46797
32.93868,52257
32.94682,49580
32.95493,53034
32.96307,53360
32.97118,54914
32.97930,68634
32.98743,85189
32.99555,111242
33.00367,144727
33.01180,178872
33.01992,198913
33.02805,205863
33.03617,168738
33.04428,133905
33.05242,105036
33.06053,92308
33.06867,75241
33.07678,78742
33.08490,86662
33.09303,79401
33.10115,77977
33.10928,82635
33.11740,95969
33.12552,104105
33.13365,101703
33.14177,106317
33.14988,102349
33.15802,92402
33.16613,83911
33.17427,76598
33.18238,72185
33.19050,68265
33.19863,58708
33.20675,62047
33.21488,58172
33.22300,57660
33.23112,63528
33.23925,63871
33.24737,64878
33.25548,53661
33.26362,55437
33.27173,57778
33.27987,54197
33.28798,53676
33.29610,54324
33.30423,52934
33.31235,55085
33.32048,53561
33.32860,54329
33.33672,52379
33.34485,51021
33.35297,52828
33.36110,52646
33.36922,55718
33.37733,54164
33.38547,57055
33.39358,54751
33.40170,56764
33.40983,53514
33.41795,51669
33.42608,50689
33.43420,53786
33.44232,48593
33.45045,47650
33.45857,48043
33.46670,51554
33.47482,48430
33.48293,56156
33.49107,52536
33.49918,50843
33.50732,56148
33.51543,58378
33.52355,58598
33.53168,57751
33.53980,64698
33.54792,61981
33.55605,65370
33.56417,64007
33.57230,67305
33.58042,66703
33.58853,65359
33.59667,57563
33.60478,54135
33.61292,51004
33.62103,50074
33.62915,48552
33.63728,49287
33.64540,59897
33.65352,56539
33.66165,55513
33.66977,56821
33.67790,57912
33.68602,54657
33.69413,54058
33.70227,47101
33.71038,50533
33.71852,52638
33.72663,48678
33.73475,48659
33.74288,53709
33.75100,52872
33.75913,53538
33.76725,54020
33.77537,55242
33.78350,49997
33.79162,51173
33.79973,51842
33.80787,51366
33.81598,47378
33.82412,50526
33.83223,57572
33.84035,50111
33.84848,61473
33.85660,55532
33.86473,56238
33.87285,55447
33.88097,55831
33.88910,55240
33.89722,54258
33.90535,52063
33.91347,56018
33.92158,54111
33.92972,53433
33.93783,49975
33.94595,50694
33.95408,49754
33.96220,53885
33.97033,48371
33.97845,47624
33.98657,47585
33.99470,48895
34.00282,52248
34.01095,53688
34.01907,53650
34.02718,50977
34.03532,54197
34.04343,54575
34.05155,51208
34.05968,47229
34.06780,55296
34.07593,51178
34.08405,49229
34.09217,47336
34.10030,52979
34.10842,49447
34.11655,44556
34.12467,50835
34.13278,48980
34.14092,48859
34.14903,52051
34.15717,54516
34.16528,50512
34.17340,48164
34.18153,52979
34.18965,53983
34.19777,51421
34.20590,46607
34.21402,48756
34.22215,49858
34.23027,54199
34.23838,56897
34.24652,46294
34.25463,51722
34.26277,52608
34.27088,48795
34.27900,52870
34.28713,52057
34.29525,50549
34.30337,50582
34.31150,46328
34.31962,49781
34.32775,52214
34.33587,54333
34.34398,49573
34.35212,51887
34.36023,62251
34.36837,52173
34.37648,52415
34.38460,50844
34.39273,47567
34.40085,48688
34.40898,50031
34.41710,54347
34.42522,51520
34.43335,46222
34.44147,50125
34.44958,53840
34.45772,48538
34.46583,50140
34.47397,52172
34.48208,49735
34.49020,47008
34.49833,52845
34.50645,50213
34.51458,47788
34.52270,50285
34.53082,55718
34.53895,55396
34.54707,67170
34.55520,63730
34.56332,74358
34.57143,76941
34.57957,76772
34.58768,75894
34.59580,78976
34.60393,71461
34.61205,74102
34.62018,68336
34.62830,61822
34.63642,63049
34.64455,66668
34.65267,65093
34.66080,62342
34.66892,71933
34.67703,57029
34.68517,57098
34.69328,55551
34.70140,56905
34.70953,56431
34.71765,54721
34.72578,57299
34.73390,59352
34.74202,56626
34.75015,53347
34.75827,60602
34.76640,59730
34.77452,55148
34.78263,50888
34.79077,56671
34.79888,54635
34.80702,56280
34.81513,59819
34.82325,50865
34.83138,60172
34.83950,53989
34.84762,52885
34.85575,55308
34.86387,53598
34.87200,54582
34.88012,55230
34.88823,54747
34.89637,55001
34.90448,53760
34.91262,55460
34.92073,54155
34.92885,57960
34.93698,57773
34.94510,63436
34.95323,81553
34.96135,108998
34.96947,173301
34.97760,253945
34.98572,335547
34.99383,367325
35.00197,336968
35.01008,259482
35.01822,185939
35.02633,136074
35.03445,94016
35.04258,77922
35.05070,66558
35.05883,71615
35.06695,65409
35.07507,63984
35.08320,63733
35.09132,61762
35.09943,59011
35.10757,64474
35.11568,67120
35.12382,62789
35.13193,57963
35.14005,61245
35.14818,57438
35.15630,60025
35.16443,57954
35.17255,65605
35.18067,65978
35.18880,63789
35.19692,59373
35.20505,57924
35.21317,57220
35.22128,59702
35.22942,55909
35.23753,53962
35.24565,57823
35.25378,53602
35.26190,56455
35.27003,53584
35.27815,58861
35.28627,61005
35.29440,59550
35.30252,64075
35.31065,57581
35.31877,54133
35.32688,53802
35.33502,53112
35.34313,56046
35.35125,54517
35.35938,52880
35.36750,57333
35.37563,53500
35.38375,51187
35.39187,52824
35.40000,56211
35.40812,55822
35.41625,56169
35.42437,55970
35.43248,59838
35.44062,57214
35.44873,56261
35.45687,59798
35.46498,53782
35.47310,58641
35.48123,58558
35.48935,60080
35.49747,61834
35.50560,61545
35.51372,67503
35.52185,62366
35.52997,66536
35.53808,54639
35.54622,57556
35.55433,57688
35.56247,58352
35.57058,58157
35.57870,56200
35.58683,62142
35.59495,58690
35.60308,56212
35.61120,56129
35.61932,52211
35.62745,58746
35.63557,57158
35.64368,53901
35.65182,54867
35.65993,55122
35.66807,59245
35.67618,56981
35.68430,59700
35.69243,58180
35.70055,58932
35.70868,59499
35.71680,58808
35.72492,66398
35.73305,57432
35.74117,61178
35.74928,59390
35.75742,56128
35.76553,57220
35.77367,60591
35.78178,63841
35.78990,61913
35.79803,68180
35.80615,61525
35.81428,59534
35.82240,59039
35.83052,57643
35.83865,59371
35.84677,59427
35.85490,52608
35.86302,55018
35.87113,51443
35.87927,57560
35.88738,59968
35.89550,57112
35.90363,57017
35.91175,55021
35.91988,58436
35.92800,55109
35.93612,54307
35.94425,54715
35.95237,51602
35.96050,54257
35.96862,54444
35.97673,56959
35.98487,50701
35.99298,55673
36.00112,55078
36.00923,59484
36.01735,52268
36.02548,64440
36.03360,58387
36.04172,64851
36.04985,59214
36.05797,62106
36.06610,57172
36.07422,55738
36.08233,60531
36.09047,51925
36.09858,57061
36.10672,55744
36.11483,55602
36.12295,55226
36.13108,58152
36.13920,60530
36.14732,63744
36.15545,64229
36.16357,60141
36.17170,63629
36.17982,62914
36.18793,58361
36.19607,56554
36.20418,55863
36.21232,58262
36.22043,56665
36.22855,59274
36.23668,57162
36.24480,54695
36.25293,52781
36.26105,51248
36.26917,64648
36.27730,54056
36.28542,59891
36.29353,63698
36.30167,58669
36.30978,57874
36.31792,65104
36.32603,64653
36.33415,73154
36.34228,72353
36.35040,67049
36.35853,70153
36.36665,71117
36.37477,59807
36.38290,59876
36.39102,66119
36.39913,65290
36.40727,56953
36.41538,57402
36.42352,57772
36.43163,61264
36.43975,57250
36.44788,58519
36.45600,63729
36.46413,58606
36.47225,54959
36.48037,55969
36.48850,55166
36.49662,57171
36.50475,54363
36.51287,57897
36.52098,58578
36.52912,56409
36.53723,56423
36.54535,54918
36.55348,56537
36.56160,51845
36.56973,56982
36.57785,63344
36.58597,59515
36.59410,55688
36.60222,58094
36.61035,55803
36.61847,59971
36.62658,65933
36.63472,57423
36.64283,57643
36.65097,55081
36.65908,58147
36.66720,60442
36.67533,55789
36.68345,62861
36.69157,64018
36.69970,62053
36.70782,62710
36.71595,57332
36.72407,57777
36.73218,61046
36.74032,59788
36.74843,61354
36.75657,60091
36.76468,61894
36.77280,62142
36.78093,58471
36.78905,56826
36.79718,59896
36.80530,65826
36.81342,60207
36.82155,60545
36.82967,58881
36.83778,57945
36.84592,60980
36.85403,60451
36.86217,59845
36.87028,56818
36.87840,61601
36.88653,58719
36.89465,57849
36.90278,59724
36.91090,57540
36.91902,61947
36.92715,59792
36.93527,64875
36.94338,71378
36.95152,81498
36.95963,106486
36.96777,139614
36.97588,172136
36.98400,177801
36.99213,176441
37.00025,157513
37.00838,134886
37.01650,108804
37.02462,92152
37.03275,85460
37.04087,82638
37.04900,83145
37.05712,81461
37.06523,85441
37.07337,81214
37.08148,84298
37.08960,82105
37.09773,84911
37.10585,93809
37.11398,87712
37.12210,85954
37.13022,81593
37.13835,83483
37.14647,91016
37.15460,85214
37.16272,84978
37.17083,91405
37.17897,87380
37.18708,84854
37.19520,88988
37.20333,85146
37.21145,80839
37.21958,81546
37.22770,81676
37.23582,80416
37.24395,86125
37.25207,86829
37.26020,82343
37.26832,81620
37.27643,76173
37.28457,81927
37.29268,81729
37.30082,81981
37.30893,79228
37.31705,80949
37.32518,75954
37.33330,80138
37.34142,76493
37.34955,83453
37.35767,82996
37.36580,86633
37.37392,93638
37.38203,92930
37.39017,84097
37.39828,84820
37.40642,90257
37.41453,91928
37.42265,89088
37.43078,82309
37.43890,86021
37.44703,87984
37.45515,85551
37.46327,87471
37.47140,85045
37.47952,78232
37.48763,82191
