C:\MassHunter\GCMS\1\data\JTB-E02\BACandBLUE\JTB-E18-012-07.D Wed Jun 19 08:28:33 2019
Start of data points
2.09525	68574
2.10338	67917
2.11150	66831
2.11963	69850
2.12775	64459
2.13587	60130
2.14400	61813
2.15212	61680
2.16025	60697
2.16837	57481
2.17648	57495
2.18462	57752
2.19273	53742
2.20085	55306
2.20898	54850
2.21710	55074
2.22523	55004
2.23335	53776
2.24147	54480
2.24960	53759
2.25772	52662
2.26585	47819
2.27397	96698
2.28208	697586
2.29022	1573309
2.29833	788085
2.30645	339392
2.31458	255875
2.32270	209753
2.33083	190178
2.33895	167410
2.34707	161663
2.35520	150349
2.36332	136244
2.37145	130382
2.37957	120776
2.38768	118372
2.39582	119937
2.40393	113938
2.41207	110082
2.42018	109489
2.42830	107091
2.43643	108122
2.44455	106561
2.45267	100802
2.46080	100487
2.46892	102086
2.47705	93545
2.48517	96963
2.49328	97040
2.50142	93831
2.50953	98593
2.51767	92523
2.52578	89071
2.53390	94197
2.54203	93332
2.55015	95747
2.55828	96678
2.56640	173554
2.57452	317473
2.58265	253770
2.59077	181194
2.59888	149632
2.60702	146846
2.61513	454641
2.62327	1454156
2.63138	1301572
2.63950	624683
2.64763	392383
2.65575	291136
2.66388	231784
2.67200	196579
2.68012	176260
2.68825	158191
2.69637	150001
2.70448	137041
2.71262	129287
2.72073	130658
2.72887	126011
2.73698	119559
2.74510	113541
2.75323	114854
2.76135	106740
2.76948	106539
2.77760	105394
2.78572	136906
2.79385	412870
2.80197	708464
2.81010	482454
2.81822	293281
2.82633	251270
2.83447	253957
2.84258	213734
2.85070	177357
2.85883	157392
2.86695	146358
2.87508	133591
2.88320	129704
2.89132	119180
2.89945	112993
2.90757	108898
2.91570	109372
2.92382	105420
2.93193	106448
2.94007	101830
2.94818	101239
2.95632	95276
2.96443	96696
2.97255	117644
2.98068	133021
2.98880	120220
2.99692	106640
3.00505	109541
3.01317	110036
3.02130	101255
3.02942	99037
3.03753	97837
3.04567	93370
3.05378	90040
3.06192	84948
3.07003	86599
3.07815	86701
3.08628	115755
3.09440	730765
3.10252	3441581
3.11065	6254644
3.11877	6889710
3.12690	6715769
3.13502	4604310
3.14313	2834998
3.15127	2064678
3.15938	1636725
3.16752	1308430
3.17563	1110331
3.18375	978096
3.19188	939076
3.20000	1161620
3.20813	1785135
3.21625	1815506
3.22437	1314837
3.23250	997097
3.24062	860451
3.24873	767858
3.25687	655632
3.26498	588327
3.27312	539198
3.28123	476754
3.28935	432706
3.29748	440011
3.30560	647561
3.31373	1552909
3.32185	3151034
3.32997	4066864
3.33810	3573175
3.34622	2498325
3.35433	1822082
3.36247	1459987
3.37058	1225642
3.37872	1056026
3.38683	960324
3.39495	874607
3.40308	800519
3.41120	753635
3.41933	705673
3.42745	676883
3.43557	652034
3.44370	632756
3.45182	624832
3.45995	599471
3.46807	563424
3.47618	570617
3.48432	597780
3.49243	603851
3.50055	562824
3.50868	531497
3.51680	511622
3.52493	476627
3.53305	438083
3.54117	402171
3.54930	393997
3.55742	374482
3.56555	341348
3.57367	319207
3.58178	353060
3.58992	469947
3.59803	499203
3.60617	446206
3.61428	398344
3.62240	395299
3.63053	406243
3.63865	427436
3.64677	445767
3.65490	436668
3.66302	426401
3.67115	499815
3.67927	1392705
3.68738	5511384
3.69552	1.185008E+07
3.70363	1.273756E+07
3.71177	8502073
3.71988	5276232
3.72800	3922262
3.73613	3221842
3.74425	2764402
3.75238	2423360
3.76050	2168611
3.76862	1942273
3.77675	1777619
3.78487	1674107
3.79298	1558207
3.80112	1452436
3.80923	1389300
3.81737	1478886
3.82548	2005378
3.83360	2680716
3.84173	2572517
3.84985	1984683
3.85798	1631692
3.86610	1431239
3.87422	1287952
3.88235	1181102
3.89047	1109513
3.89858	1031827
3.90672	979014
3.91483	901214
3.92297	859632
3.93108	850982
3.93920	956309
3.94733	1032108
3.95545	1094952
3.96358	1807705
3.97170	5115679
3.97982	1.100057E+07
3.98795	1.41875E+07
3.99607	1.131682E+07
4.00420	7096472
4.01232	7241744
4.02043	1.746612E+07
4.02857	3.564064E+07
4.03668	4.567357E+07
4.04480	3.962046E+07
4.05293	2.340066E+07
4.06105	1.207999E+07
4.06918	7674869
4.07730	5586231
4.08542	4460754
4.09355	3662961
4.10167	3131027
4.10980	2687153
4.11792	2406715
4.12603	2149402
4.13417	1967008
4.14228	1816839
4.15040	1736600
4.15853	1780479
4.16665	1850309
4.17478	1785216
4.18290	1579020
4.19102	1409035
4.19915	1308542
4.20727	1184776
4.21540	1107531
4.22352	1290969
4.23163	2892017
4.23977	7800649
4.24788	1.464617E+07
4.25602	1.816622E+07
4.26413	1.594228E+07
4.27225	9927714
4.28038	6062304
4.28850	4348441
4.29662	3357107
4.30475	2731015
4.31287	2328959
4.32100	2040994
4.32912	1823620
4.33723	1673514
4.34537	1533419
4.35348	1443600
4.36162	1356551
4.36973	1303275
4.37785	1269892
4.38598	1263747
4.39410	1193791
4.40222	1102990
4.41035	1008826
4.41847	947000
4.42660	908305
4.43472	876378
4.44283	828987
4.45097	785561
4.45908	743656
4.46722	721901
4.47533	687530
4.48345	645588
4.49158	633146
4.49970	611638
4.50783	610383
4.51595	580414
4.52407	583207
4.53220	577274
4.54032	566933
4.54843	568309
4.55657	571089
4.56468	574633
4.57282	572774
4.58093	569865
4.58905	555670
4.59718	541736
4.60530	519118
4.61343	509795
4.62155	496086
4.62967	499032
4.63780	511429
4.64592	613730
4.65405	796822
4.66217	940653
4.67028	903467
4.67842	738632
4.68653	635968
4.69465	586158
4.70278	567243
4.71090	533862
4.71903	507786
4.72715	475857
4.73527	461985
4.74340	444931
4.75152	438957
4.75965	432001
4.76777	423121
4.77588	419145
4.78402	407277
4.79213	398641
4.80027	396485
4.80838	452776
4.81650	576823
4.82463	733020
4.83275	775025
4.84087	672294
4.84900	583559
4.85712	554323
4.86525	582219
4.87337	565017
4.88148	539621
4.88962	500473
4.89773	478279
4.90587	449173
4.91398	426877
4.92210	412936
4.93023	394329
4.93835	393509
4.94647	396208
4.95460	464716
4.96272	737307
4.97085	1363834
4.97897	2229150
4.98708	2773868
4.99522	2692078
5.00333	2150020
5.01147	1586118
5.01958	1240190
5.02770	1015260
5.03583	886405
5.04395	872394
5.05208	903140
5.06020	974461
5.06832	972589
5.07645	896479
5.08457	799472
5.09268	718634
5.10082	649548
5.10893	605708
5.11707	570417
5.12518	524710
5.13330	507250
5.14143	490549
5.14955	481425
5.15768	492684
5.16580	522009
5.17392	575554
5.18205	647504
5.19017	689090
5.19828	667332
5.20642	605470
5.21453	585148
5.22267	583955
5.23078	600689
5.23890	575757
5.24703	542123
5.25515	529490
5.26328	509293
5.27140	484266
5.27952	458877
5.28765	452897
5.29577	439343
5.30390	420468
5.31202	405682
5.32013	404551
5.32827	402799
5.33638	401848
5.34450	398308
5.35263	426282
5.36075	438589
5.36888	429382
5.37700	415352
5.38512	403812
5.39325	386784
5.40137	397090
5.40950	403083
5.41762	403959
5.42573	408302
5.43387	401003
5.44198	386338
5.45012	360149
5.45823	369020
5.46635	366618
5.47448	388260
5.48260	384237
5.49072	370316
5.49885	357622
5.50697	359918
5.51510	336484
5.52322	337475
5.53133	325911
5.53947	330962
5.54758	332222
5.55572	341586
5.56383	331343
5.57195	350785
5.58008	414170
5.58820	487309
5.59632	550397
5.60445	537569
5.61257	475259
5.62070	405128
5.62882	366163
5.63693	341861
5.64507	350479
5.65318	356927
5.66132	358766
5.66943	357623
5.67755	346409
5.68568	340757
5.69380	340525
5.70193	359101
5.71005	390850
5.71817	391353
5.72630	370214
5.73442	346571
5.74253	324409
5.75067	316751
5.75878	303047
5.76692	306493
5.77503	295366
5.78315	288673
5.79128	284189
5.79940	288543
5.80753	282285
5.81565	281613
5.82377	289237
5.83190	274624
5.84002	279408
5.84815	279708
5.85627	277119
5.86438	278774
5.87252	283288
5.88063	270562
5.88875	271503
5.89688	263372
5.90500	264214
5.91313	230720
5.92125	207071
5.92937	199381
5.93750	209279
5.94562	207974
5.95375	213304
5.96187	212657
5.96998	229672
5.97812	251660
5.98623	288551
5.99435	320478
6.00248	357591
6.01060	388328
6.01873	376850
6.02685	342457
6.03497	304885
6.04310	274218
6.05122	253252
6.05935	242089
6.06747	223853
6.07558	218372
6.08372	196337
6.09183	196166
6.09997	198282
6.10808	195005
6.11620	182387
6.12433	191217
6.13245	189275
6.14057	215283
6.14870	266890
6.15682	392446
6.16495	516216
6.17307	570394
6.18118	490599
6.18932	411100
6.19743	335438
6.20557	283596
6.21368	263261
6.22180	257154
6.22993	252841
6.23805	240098
6.24617	240233
6.25430	231729
6.26242	242321
6.27055	245476
6.27867	248172
6.28678	261061
6.29492	247960
6.30303	236248
6.31117	233027
6.31928	220933
6.32740	223028
6.33553	228792
6.34365	244534
6.35178	277728
6.35990	303954
6.36802	309340
6.37615	283291
6.38427	263611
6.39238	254184
6.40052	242835
6.40863	230631
6.41677	236939
6.42488	232571
6.43300	221805
6.44113	224506
6.44925	219374
6.45738	224939
6.46550	217190
6.47362	208529
6.48175	214460
6.48987	221436
6.49800	217752
6.50612	230197
6.51423	223415
6.52237	222211
6.53048	219842
6.53860	221657
6.54673	223937
6.55485	221859
6.56298	228198
6.57110	217722
6.57922	236832
6.58735	266231
6.59547	317094
6.60360	377224
6.61172	378931
6.61983	334624
6.62797	292944
6.63608	265484
6.64420	254743
6.65233	260768
6.66045	244609
6.66858	279701
6.67670	406950
6.68482	635931
6.69295	821880
6.70107	820723
6.70920	651552
6.71732	466308
6.72543	367998
6.73357	311601
6.74168	293177
6.74982	288100
6.75793	278425
6.76605	272347
6.77418	267978
6.78230	233499
6.79042	216463
6.79855	208469
6.80667	197556
6.81480	194557
6.82292	180771
6.83103	176724
6.83917	176523
6.84728	180673
6.85542	171599
6.86353	193329
6.87165	225375
6.87978	263527
6.88790	295734
6.89603	276569
6.90415	225669
6.91227	176856
6.92040	138652
6.92852	125082
6.93663	119450
6.94477	117275
6.95288	111093
6.96102	114475
6.96913	106883
6.97725	111586
6.98538	123545
6.99350	144530
7.00163	154447
7.00975	150336
7.01787	134356
7.02600	122468
7.03412	107451
7.04223	112467
7.05037	110829
7.05848	107941
7.06662	114137
7.07473	113348
7.08285	125681
7.09098	125103
7.09910	114548
7.10723	105844
7.11535	98815
7.12347	98193
7.13160	97483
7.13972	95655
7.14785	98730
7.15597	112638
7.16408	159728
7.17222	253013
7.18033	352415
7.18845	404390
7.19658	376197
7.20470	288746
7.21283	216263
7.22095	185482
7.22907	216033
7.23720	413851
7.24532	897853
7.25345	1697441
7.26157	2262170
7.26968	2240358
7.27782	1630095
7.28593	998271
7.29407	598081
7.30218	423880
7.31030	351302
7.31843	263317
7.32655	187022
7.33467	164918
7.34280	155232
7.35092	143117
7.35905	137959
7.36717	128544
7.37528	121053
7.38342	127511
7.39153	125715
7.39967	131713
7.40778	132670
7.41590	129808
7.42403	120553
7.43215	115856
7.44027	117500
7.44840	111480
7.45652	106185
7.46465	109596
7.47277	115716
7.48088	111327
7.48902	110610
7.49713	104409
7.50527	103355
7.51338	102200
7.52150	105563
7.52963	116923
7.53775	160676
7.54588	257549
7.55400	410638
7.56212	610443
7.57025	793221
7.57837	890132
7.58648	848300
7.59462	687658
7.60273	510821
7.61087	350266
7.61898	252217
7.62710	199764
7.63523	166072
7.64335	139970
7.65148	137931
7.65960	114832
7.66772	108552
7.67585	105431
7.68397	98515
7.69208	99733
7.70022	96708
7.70833	97655
7.71647	95291
7.72458	91556
7.73270	94875
7.74083	96985
7.74895	88764
7.75708	94844
7.76520	89373
7.77332	90197
7.78145	90213
7.78957	96636
7.79770	101102
7.80582	99823
7.81393	112079
7.82207	125568
7.83018	131958
7.83830	129290
7.84643	120350
7.85455	105882
7.86268	106507
7.87080	97244
7.87892	101251
7.88705	105470
7.89517	109940
7.90330	121911
7.91142	120394
7.91953	113836
7.92767	109793
7.93578	100971
7.94392	105373
7.95203	123061
7.96015	139149
7.96828	151450
7.97640	149995
7.98452	138022
7.99265	120068
8.00077	106627
8.00890	96344
8.01702	88169
8.02513	84142
8.03327	85381
8.04138	81625
8.04952	79576
8.05763	84689
8.06575	81653
8.07388	80962
8.08200	80516
8.09012	76531
8.09825	75384
8.10637	72870
8.11450	77631
8.12262	73915
8.13073	76425
8.13887	78223
8.14698	80968
8.15512	86956
8.16323	101533
8.17135	116393
8.17948	117771
8.18760	105315
8.19573	101021
8.20385	82548
8.21197	83881
8.22010	77590
8.22822	77569
8.23633	74267
8.24447	74050
8.25258	72133
8.26072	69673
8.26883	71638
8.27695	67371
8.28508	72591
8.29320	70386
8.30133	69933
8.30945	66223
8.31757	66087
8.32570	75481
8.33382	76897
8.34195	78676
8.35007	78941
8.35818	77902
8.36632	76597
8.37443	73353
8.38255	70427
8.39068	74658
8.39880	78609
8.40693	73587
8.41505	77126
8.42317	75395
8.43130	68928
8.43942	66389
8.44755	67052
8.45567	66048
8.46378	65942
8.47192	62955
8.48003	65453
8.48815	68630
8.49628	64779
8.50440	70974
8.51253	62698
8.52065	62000
8.52877	64022
8.53690	70120
8.54502	93033
8.55315	152378
8.56127	270795
8.56938	396954
8.57752	462785
8.58563	412106
8.59377	310028
8.60188	198968
8.61000	142871
8.61813	124317
8.62625	116144
8.63437	104981
8.64250	103659
8.65062	98394
8.65875	90775
8.66687	81848
8.67498	79640
8.68312	79251
8.69123	75067
8.69937	74150
8.70748	74941
8.71560	81252
8.72373	80790
8.73185	84070
8.73997	76467
8.74810	73226
8.75622	74859
8.76435	77295
8.77247	98142
8.78058	156493
8.78872	268626
8.79683	426880
8.80497	562856
8.81308	571945
8.82120	514894
8.82933	406842
8.83745	303878
8.84558	237127
8.85370	201685
8.86182	181275
8.86995	176028
8.87807	188925
8.88618	189798
8.89432	188949
8.90243	189337
8.91057	189026
8.91868	177343
8.92680	168539
8.93493	164799
8.94305	169931
8.95118	175662
8.95930	201418
8.96742	215677
8.97555	221987
8.98367	210560
8.99180	203751
8.99992	194250
9.00803	200704
9.01617	178936
9.02428	175871
9.03240	164207
9.04053	147110
9.04865	145223
9.05678	139393
9.06490	135382
9.07302	135665
9.08115	132006
9.08927	127570
9.09740	130349
9.10552	134951
9.11363	148070
9.12177	159455
9.12988	186443
9.13802	191247
9.14613	186899
9.15425	173708
9.16238	157794
9.17050	149521
9.17862	140221
9.18675	130506
9.19487	123964
9.20300	114286
9.21112	121569
9.21923	108601
9.22737	115119
9.23548	110986
9.24362	116952
9.25173	110752
9.25985	111261
9.26798	108769
9.27610	112914
9.28422	112086
9.29235	111895
9.30047	110831
9.30860	109458
9.31672	106224
9.32483	105273
9.33297	101319
9.34108	107707
9.34922	102587
9.35733	102602
9.36545	101245
9.37358	99725
9.38170	99095
9.38983	102491
9.39795	97005
9.40607	98123
9.41420	102145
9.42232	101192
9.43043	118146
9.43857	141697
9.44668	155380
9.45482	169161
9.46293	178870
9.47105	160648
9.47918	141117
9.48730	127356
9.49543	113940
9.50355	102986
9.51167	107721
9.51980	106108
9.52792	113690
9.53603	125294
9.54417	136416
9.55228	127901
9.56042	120330
9.56853	107706
9.57665	97317
9.58478	94553
9.59290	93518
9.60103	94237
9.60915	94682
9.61727	87608
9.62540	81041
9.63352	72588
9.64165	66728
9.64977	63789
9.65788	61516
9.66602	59886
9.67413	62566
9.68225	57750
9.69038	58719
9.69850	62813
9.70663	59431
9.71475	53274
9.72287	55666
9.73100	58828
9.73912	59518
9.74725	55208
9.75537	56914
9.76348	57347
9.77162	56834
9.77973	54773
9.78787	51246
9.79598	54554
9.80410	54459
9.81223	53878
9.82035	52465
9.82847	50723
9.83660	50387
9.84472	54544
9.85285	51422
9.86097	56205
9.86908	55706
9.87722	54901
9.88533	56779
9.89347	58826
9.90158	60779
9.90970	61356
9.91783	58327
9.92595	57952
9.93407	62023
9.94220	70639
9.95032	95134
9.95845	145017
9.96657	220689
9.97468	278320
9.98282	292567
9.99093	255369
9.99907	207839
10.00718	154532
10.01530	122450
10.02343	117280
10.03155	99596
10.03968	91054
10.04780	87895
10.05592	75045
10.06405	73410
10.07217	78769
10.08028	75465
10.08842	76287
10.09653	75259
10.10467	72703
10.11278	73583
10.12090	70251
10.12903	73919
10.13715	66075
10.14528	72369
10.15340	64099
10.16152	64326
10.16965	66260
10.17777	63174
10.18590	66009
10.19402	62379
10.20213	60039
10.21027	62620
10.21838	56801
10.22650	60584
10.23463	65323
10.24275	64141
10.25088	67027
10.25900	68406
10.26712	74511
10.27525	103863
10.28337	200616
10.29150	460935
10.29962	1048379
10.30773	1899926
10.31587	3007781
10.32398	4118391
10.33210	5788938
10.34023	8360910
10.34835	1.138563E+07
10.35648	1.363621E+07
10.36460	1.322646E+07
10.37272	1.049348E+07
10.38085	6960441
10.38897	4615685
10.39710	3144478
10.40522	2251005
10.41333	1606351
10.42147	1149013
10.42958	816614
10.43772	633082
10.44583	521379
10.45395	474909
10.46208	463594
10.47020	438312
10.47832	405744
10.48645	376592
10.49457	346233
10.50270	331367
10.51082	312241
10.51893	301117
10.52707	274328
10.53518	265636
10.54332	260777
10.55143	252056
10.55955	238756
10.56768	231454
10.57580	229358
10.58392	222647
10.59205	209325
10.60017	211013
10.60830	199587
10.61642	194918
10.62453	181052
10.63267	174942
10.64078	167888
10.64892	169567
10.65703	158409
10.66515	155978
10.67328	150723
10.68140	148940
10.68953	153046
10.69765	145547
10.70577	147580
10.71390	139605
10.72202	143017
10.73013	140005
10.73827	134698
10.74638	125502
10.75452	132465
10.76263	127222
10.77075	125815
10.77888	128097
10.78700	125927
10.79513	120628
10.80325	115153
10.81137	115259
10.81950	112720
10.82762	117352
10.83575	120599
10.84387	109868
10.85198	107953
10.86012	108581
10.86823	103622
10.87635	95485
10.88448	102546
10.89260	97053
10.90073	92969
10.90885	89872
10.91697	91255
10.92510	89723
10.93322	90640
10.94135	89941
10.94947	81203
10.95758	83158
10.96572	83132
10.97383	87989
10.98195	84778
10.99008	87177
10.99820	91451
11.00633	89813
11.01445	91837
11.02257	87402
11.03070	81626
11.03882	83562
11.04695	78928
11.05507	77283
11.06318	74953
11.07132	77943
11.07943	76828
11.08757	77733
11.09568	77882
11.10380	85730
11.11193	81119
11.12005	78985
11.12817	77074
11.13630	70130
11.14442	65454
11.15255	63429
11.16067	65796
11.16878	67413
11.17692	71657
11.18503	67510
11.19317	68920
11.20128	70997
11.20940	70674
11.21753	61179
11.22565	65889
11.23378	66011
11.24190	60416
11.25002	56672
11.25815	56700
11.26627	51297
11.27438	52234
11.28252	51454
11.29063	47730
11.29877	51566
11.30688	59050
11.31500	84380
11.32313	124213
11.33125	215720
11.33938	361627
11.34750	533060
11.35562	670857
11.36375	713550
11.37187	636758
11.37998	482926
11.38812	332233
11.39623	213704
11.40437	156677
11.41248	135798
11.42060	126380
11.42873	125952
11.43685	116275
11.44498	109753
11.45310	106863
11.46122	91068
11.46935	93500
11.47747	84163
11.48560	84649
11.49372	96862
11.50183	110838
11.50997	135751
11.51808	142686
11.52620	147739
11.53433	131222
11.54245	115157
11.55058	109622
11.55870	106386
11.56682	96125
11.57495	93676
11.58307	86043
11.59120	88384
11.59932	81158
11.60743	89803
11.61557	108054
11.62368	142393
11.63182	175843
11.63993	191194
11.64805	188549
11.65618	163886
11.66430	128422
11.67242	105741
11.68055	93990
11.68867	86572
11.69680	86496
11.70492	83958
11.71303	85403
11.72117	79316
11.72928	86519
11.73742	80982
11.74553	74198
11.75365	68648
11.76178	68327
11.76990	64342
11.77802	62692
11.78615	63887
11.79427	64800
11.80240	70180
11.81052	63832
11.81863	62851
11.82677	57362
11.83488	58179
11.84302	65379
11.85113	59729
11.85925	64896
11.86738	61438
11.87550	59949
11.88363	56309
11.89175	55772
11.89987	53161
11.90800	50789
11.91612	49185
11.92423	60211
11.93237	61887
11.94048	68638
11.94862	66117
11.95673	66267
11.96485	64146
11.97298	61120
11.98110	63508
11.98923	75798
11.99735	139020
12.00547	290889
12.01360	515699
12.02172	803984
12.02983	962072
12.03797	926894
12.04608	748818
12.05422	529241
12.06233	348130
12.07045	236639
12.07858	182747
12.08670	152954
12.09483	147114
12.10295	133547
12.11107	140547
12.11920	134482
12.12732	129725
12.13545	149287
12.14357	154334
12.15168	152132
12.15982	146715
12.16793	131232
12.17605	120271
12.18418	102841
12.19230	93951
12.20043	90280
12.20855	88612
12.21667	89918
12.22480	90584
12.23292	77115
12.24105	86465
12.24917	82390
12.25728	89907
12.26542	82583
12.27353	76108
12.28167	78137
12.28978	76044
12.29790	77318
12.30603	73032
12.31415	71031
12.32227	69870
12.33040	69110
12.33852	67154
12.34665	64780
12.35477	66187
12.36288	66508
12.37102	64701
12.37913	66699
12.38727	65069
12.39538	68031
12.40350	74017
12.41163	86025
12.41975	97603
12.42787	109799
12.43600	124666
12.44412	130017
12.45225	123690
12.46037	111451
12.46848	105104
12.47662	95451
12.48473	86585
12.49287	79018
12.50098	72646
12.50910	77690
12.51723	70625
12.52535	67619
12.53348	65661
12.54160	67397
12.54972	72365
12.55785	82305
12.56597	90619
12.57408	99319
12.58222	107982
12.59033	111118
12.59847	103628
12.60658	86886
12.61470	77983
12.62283	72373
12.63095	72084
12.63908	65624
12.64720	65213
12.65532	61243
12.66345	62673
12.67157	60136
12.67970	59051
12.68782	55555
12.69593	52294
12.70407	50354
12.71218	49490
12.72030	48646
12.72843	51119
12.73655	56649
12.74468	62177
12.75280	64852
12.76092	67915
12.76905	60591
12.77717	57949
12.78530	51347
12.79342	48223
12.80153	48904
12.80967	45476
12.81778	45322
12.82590	41725
12.83403	40866
12.84215	43761
12.85028	44568
12.85840	44404
12.86652	42330
12.87465	46011
12.88277	40747
12.89090	39402
12.89902	37338
12.90713	40310
12.91527	37543
12.92338	39119
12.93152	39626
12.93963	38158
12.94775	44124
12.95588	41383
12.96400	53903
12.97212	85701
12.98025	155370
12.98837	269179
12.99650	384573
13.00462	448307
13.01273	389810
13.02087	299261
13.02898	203051
13.03712	132713
13.04523	98915
13.05335	83424
13.06148	73368
13.06960	70903
13.07772	68828
13.08585	59810
13.09397	61143
13.10210	60616
13.11022	56662
13.11833	58338
13.12647	53605
13.13458	53542
13.14272	48512
13.15083	50567
13.15895	52101
13.16708	50214
13.17520	50527
13.18333	54125
13.19145	54187
13.19957	50800
13.20770	53785
13.21582	53091
13.22393	58500
13.23207	49998
13.24018	54794
13.24832	51608
13.25643	50066
13.26455	56674
13.27268	49685
13.28080	48919
13.28893	47459
13.29705	46847
13.30517	45308
13.31330	45244
13.32142	44155
13.32955	44182
13.33767	40056
13.34578	44462
13.35392	40626
13.36203	41704
13.37015	41741
13.37828	41718
13.38640	40659
13.39453	39837
13.40265	39825
13.41077	40699
13.41890	44676
13.42702	39132
13.43515	41662
13.44327	39694
13.45138	37907
13.45952	36674
13.46763	36815
13.47575	39639
13.48388	39258
13.49200	42686
13.50013	40764
13.50825	42346
13.51637	38318
13.52450	42588
13.53262	42494
13.54075	46419
13.54887	42772
13.55698	41739
13.56512	43406
13.57323	43154
13.58137	41235
13.58948	39043
13.59760	43249
13.60573	46699
13.61385	50766
13.62197	49663
13.63010	52788
13.63822	58465
13.64635	55158
13.65447	46501
13.66258	49067
13.67072	43015
13.67883	37263
13.68697	38138
13.69508	41460
13.70320	39644
13.71133	38902
13.71945	39064
13.72758	44651
13.73570	44201
13.74382	56868
13.75195	120918
13.76007	307511
13.76818	733577
13.77632	1458408
13.78443	2351971
13.79257	3095127
13.80068	3210127
13.80880	2703302
13.81693	1992283
13.82505	1326671
13.83318	904588
13.84130	705706
13.84942	632358
13.85755	565519
13.86567	500725
13.87378	442456
13.88192	365918
13.89003	312354
13.89817	271808
13.90628	239847
13.91440	220987
13.92253	204124
13.93065	194070
13.93878	179816
13.94690	182980
13.95502	172629
13.96315	183028
13.97127	209755
13.97940	232620
13.98752	281120
13.99563	306830
14.00377	322332
14.01188	299460
14.02000	255925
14.02813	209636
14.03625	174412
14.04438	157263
14.05250	148417
14.06062	135438
14.06875	138705
14.07687	134281
14.08500	133182
14.09312	132429
14.10123	124027
14.10937	120823
14.11748	113203
14.12560	112792
14.13373	118795
14.14185	130805
14.14998	151857
14.15810	185742
14.16622	208370
14.17435	217721
14.18247	209828
14.19060	200624
14.19872	196213
14.20683	222213
14.21497	256771
14.22308	298501
14.23122	303168
14.23933	293513
14.24745	272149
14.25558	261026
14.26370	246439
14.27182	219392
14.27995	202031
14.28807	188454
14.29620	164075
14.30432	147143
14.31243	142723
14.32057	134282
14.32868	123203
14.33682	122725
14.34493	115023
14.35305	111900
14.36118	103141
14.36930	90483
14.37743	84966
14.38555	71292
14.39367	66135
14.40180	63704
14.40992	68724
14.41803	76907
14.42617	76701
14.43428	81200
14.44242	88238
14.45053	80218
14.45865	83280
14.46678	76312
14.47490	70450
14.48303	67672
14.49115	66332
14.49927	70317
14.50740	66555
14.51552	69788
14.52365	73311
14.53177	82103
14.53988	93405
14.54802	92525
14.55613	89392
14.56425	75261
14.57238	63560
14.58050	62298
14.58863	54100
14.59675	54176
14.60487	51965
14.61300	52327
14.62112	50585
14.62925	51355
14.63737	49255
14.64548	50596
14.65362	49242
14.66173	49439
14.66985	46181
14.67798	45832
14.68610	46532
14.69423	44014
14.70235	44641
14.71047	45916
14.71860	47633
14.72672	47801
14.73485	49841
14.74297	50637
14.75108	56055
14.75922	51866
14.76733	60275
14.77547	56064
14.78358	61825
14.79170	65615
14.79983	104633
14.80795	242783
14.81607	648758
14.82420	1571493
14.83232	3043340
14.84045	4701963
14.84857	5633218
14.85668	5415944
14.86482	4301322
14.87293	2855386
14.88107	1724547
14.88918	1028607
14.89730	677665
14.90543	513270
14.91355	404629
14.92167	354041
14.92980	301763
14.93792	272113
14.94605	255070
14.95417	232079
14.96228	228852
14.97042	204895
14.97853	187253
14.98667	173012
14.99478	166939
15.00290	161292
15.01103	154515
15.01915	150375
15.02728	142587
15.03540	130736
15.04352	131157
15.05165	123590
15.05977	117944
15.06788	114274
15.07602	114453
15.08413	110399
15.09227	107264
15.10038	104872
15.10850	102174
15.11663	92297
15.12475	95556
15.13288	107064
15.14100	104745
15.14912	114180
15.15725	117459
15.16537	117591
15.17350	109845
15.18162	91948
15.18973	83114
15.19787	71369
15.20598	64460
15.21410	59934
15.22223	59074
15.23035	56274
15.23848	54128
15.24660	55630
15.25472	51045
15.26285	50555
15.27097	50034
15.27910	52350
15.28722	50036
15.29533	49975
15.30347	43670
15.31158	47533
15.31970	47819
15.32783	49663
15.33595	45339
15.34408	45721
15.35220	43801
15.36032	46070
15.36845	46049
15.37657	45942
15.38470	47628
15.39282	46048
15.40093	45786
15.40907	45473
15.41718	44021
15.42532	45401
15.43343	44814
15.44155	42687
15.44968	42319
15.45780	42172
15.46592	44194
15.47405	49770
15.48217	57050
15.49030	76278
15.49842	92707
15.50653	112667
15.51467	131577
15.52278	141166
15.53092	139485
15.53903	132588
15.54715	137649
15.55528	146253
15.56340	138395
15.57153	127470
15.57965	110213
15.58777	93524
15.59590	73481
15.60402	59859
15.61213	55768
15.62027	52253
15.62838	51749
15.63652	51248
15.64463	44868
15.65275	44266
15.66088	53046
15.66900	49122
15.67713	46039
15.68525	46419
15.69337	42498
15.70150	45371
15.70962	40488
15.71773	40143
15.72587	43454
15.73398	42663
15.74212	44065
15.75023	44600
15.75835	54620
15.76648	66197
15.77460	104020
15.78273	181556
15.79085	272016
15.79897	361817
15.80710	401512
15.81522	358312
15.82335	282614
15.83147	207931
15.83958	145548
15.84772	107568
15.85583	88780
15.86395	81876
15.87208	73031
15.88020	68856
15.88833	65682
15.89645	70030
15.90457	66303
15.91270	63092
15.92082	60438
15.92895	59386
15.93707	52605
15.94518	56953
15.95332	59232
15.96143	79057
15.96955	104319
15.97768	142257
15.98580	172244
15.99393	181005
16.00205	182253
16.01017	155733
16.01830	132430
16.02642	109395
16.03455	98923
16.04267	88787
16.05078	79326
16.05892	75006
16.06703	68285
16.07517	61956
16.08328	60285
16.09140	56006
16.09953	53336
16.10765	54076
16.11577	55442
16.12390	54605
16.13202	55712
16.14015	61222
16.14827	59268
16.15638	62037
16.16452	63840
16.17263	63114
16.18077	58599
16.18888	61175
16.19700	54324
16.20513	50609
16.21325	51768
16.22138	51251
16.22950	50550
16.23762	49571
16.24575	50783
16.25387	48719
16.26198	51335
16.27012	48231
16.27823	45481
16.28637	50881
16.29448	51262
16.30260	55514
16.31073	58590
16.31885	53573
16.32698	54531
16.33510	56821
16.34322	57310
16.35135	60657
16.35947	81578
16.36758	118656
16.37572	162934
16.38383	215953
16.39197	252093
16.40008	237531
16.40820	206399
16.41633	162218
16.42445	127487
16.43258	99126
16.44070	80531
16.44882	85312
16.45695	122219
16.46507	214210
16.47320	408904
16.48132	716137
16.48943	1081892
16.49757	1266168
16.50568	1171372
16.51380	908375
16.52193	608661
16.53005	377793
16.53818	245172
16.54630	182709
16.55442	147220
16.56255	129337
16.57067	117257
16.57880	110231
16.58692	105102
16.59503	107520
16.60317	108248
16.61128	109860
16.61942	124911
16.62753	123067
16.63565	115565
16.64378	114434
16.65190	98318
16.66002	90432
16.66815	78613
16.67627	75330
16.68440	74289
16.69252	76015
16.70063	69891
16.70877	65313
16.71688	65054
16.72502	59917
16.73313	59472
16.74125	58029
16.74938	59543
16.75750	62654
16.76562	63416
16.77375	72149
16.78187	70600
16.79000	66848
16.79812	65225
16.80623	58656
16.81437	56985
16.82248	52247
16.83062	51935
16.83873	48479
16.84685	45611
16.85498	46949
16.86310	47674
16.87123	46257
16.87935	45319
16.88747	47114
16.89560	47440
16.90372	44011
16.91183	46617
16.91997	42171
16.92808	51254
16.93622	42129
16.94433	43741
16.95245	43267
16.96058	44766
16.96870	44539
16.97683	46443
16.98495	45601
16.99307	42490
17.00120	43699
17.00932	45164
17.01745	44711
17.02557	45446
17.03368	47379
17.04182	44279
17.04993	46723
17.05805	53768
17.06618	55296
17.07430	54740
17.08243	50868
17.09055	51720
17.09867	48749
17.10680	43550
17.11492	46048
17.12305	44512
17.13117	48709
17.13928	49111
17.14742	52136
17.15553	50838
17.16365	49837
17.17178	49870
17.17990	46451
17.18803	44022
17.19615	42608
17.20427	42190
17.21240	42276
17.22052	43697
17.22865	39605
17.23677	41402
17.24488	42195
17.25302	41032
17.26113	44696
17.26927	43334
17.27738	41250
17.28550	42388
17.29363	48374
17.30175	41081
17.30987	46067
17.31800	43981
17.32612	53782
17.33425	57658
17.34237	62269
17.35048	68621
17.35862	73666
17.36673	73144
17.37487	71425
17.38298	62289
17.39110	64684
17.39923	63256
17.40735	62082
17.41547	57497
17.42360	60859
17.43172	58880
17.43985	55452
17.44797	54561
17.45608	52174
17.46422	51980
17.47233	54081
17.48047	48003
17.48858	50189
17.49670	49200
17.50483	45379
17.51295	49510
17.52108	47930
17.52920	47778
17.53732	49447
17.54545	46528
17.55357	48245
17.56168	52781
17.56982	64934
17.57793	94508
17.58607	156729
17.59418	252155
17.60230	392242
17.61043	559763
17.61855	682719
17.62668	669640
17.63480	601228
17.64292	462373
17.65105	356804
17.65917	290519
17.66730	275153
17.67542	282732
17.68353	269349
17.69167	255530
17.69978	215549
17.70790	171678
17.71603	139259
17.72415	118547
17.73228	108109
17.74040	95490
17.74852	90198
17.75665	82003
17.76477	75061
17.77290	73997
17.78102	80536
17.78913	78811
17.79727	93517
17.80538	145211
17.81350	255694
17.82163	447907
17.82975	686651
17.83788	850456
17.84600	915016
17.85412	791356
17.86225	616343
17.87037	465352
17.87850	336884
17.88662	238886
17.89473	199412
17.90287	164895
17.91098	140887
17.91912	124575
17.92723	111241
17.93535	101388
17.94348	97282
17.95160	95673
17.95972	90736
17.96785	84933
17.97597	81546
17.98410	80082
17.99222	74303
18.00033	76777
18.00847	75219
18.01658	80985
18.02472	85198
18.03283	102493
18.04095	119268
18.04908	123191
18.05720	147673
18.06533	183911
18.07345	323323
18.08157	598293
18.08970	1025675
18.09782	1582739
18.10593	1906713
18.11407	1907427
18.12218	1666277
18.13032	1262384
18.13843	915796
18.14655	680969
18.15468	534074
18.16280	447880
18.17093	389685
18.17905	348818
18.18717	319623
18.19530	283339
18.20342	256685
18.21153	242715
18.21967	237719
18.22778	245601
18.23592	301945
18.24403	361858
18.25215	440245
18.26028	482717
18.26840	498691
18.27653	489468
18.28465	485913
18.29277	470532
18.30090	455304
18.30902	440012
18.31715	425950
18.32527	428095
18.33338	425663
18.34152	420268
18.34963	421980
18.35775	413583
18.36588	399123
18.37400	405163
18.38213	393578
18.39025	397856
18.39837	388576
18.40650	377044
18.41462	383531
18.42275	381882
18.43087	377356
18.43898	383019
18.44712	389939
18.45523	399473
18.46335	437157
18.47148	481612
18.47960	528633
18.48773	567685
18.49585	591537
18.50397	572417
18.51210	513725
18.52022	464321
18.52835	412083
18.53647	364238
18.54458	342144
18.55272	338294
18.56083	329200
18.56897	326780
18.57708	314173
18.58520	303917
18.59333	306400
18.60145	300917
18.60957	298599
18.61770	290551
18.62582	298365
18.63395	301938
18.64207	285862
18.65018	286141
18.65832	279081
18.66643	269045
18.67457	266163
18.68268	259592
18.69080	258723
18.69893	253233
18.70705	256880
18.71518	237363
18.72330	236297
18.73142	228088
18.73955	238418
18.74767	228965
18.75578	228315
18.76392	226315
18.77203	223839
18.78017	228609
18.78828	210263
18.79640	218263
18.80453	211224
18.81265	207840
18.82078	218183
18.82890	212308
18.83702	208072
18.84515	210315
18.85327	198575
18.86140	204715
18.86952	209274
18.87763	196693
18.88577	196438
18.89388	192604
18.90200	192643
18.91013	187581
18.91825	186712
18.92638	191988
18.93450	198561
18.94262	194332
18.95075	206073
18.95887	207382
18.96700	204907
18.97512	213305
18.98323	200083
18.99137	191078
18.99948	192921
19.00760	179984
19.01573	175003
19.02385	170822
19.03198	171648
19.04010	167314
19.04822	169116
19.05635	157794
19.06447	168279
19.07260	168709
19.08072	187772
19.08883	227015
19.09697	273334
19.10508	341872
19.11322	385429
19.12133	401917
19.12945	375732
19.13758	324607
19.14570	266929
19.15382	237592
19.16195	212540
19.17007	195438
19.17820	183133
19.18632	171688
19.19443	177565
19.20257	164788
19.21068	162346
19.21882	156695
19.22693	149828
19.23505	149397
19.24318	147765
19.25130	150044
19.25942	140693
19.26755	137308
19.27567	135626
19.28380	131865
19.29192	139205
19.30003	138605
19.30817	139802
19.31628	138811
19.32442	142931
19.33253	134166
19.34065	137297
19.34878	142381
19.35690	149980
19.36503	175263
19.37315	195465
19.38127	214154
19.38940	227107
19.39752	226520
19.40563	189374
19.41377	178290
19.42188	148571
19.43002	143018
19.43813	141215
19.44625	129384
19.45438	128582
19.46250	125561
19.47063	120996
19.47875	124293
19.48687	135461
19.49500	153315
19.50312	184848
19.51123	226722
19.51937	269947
19.52748	283812
19.53562	256121
19.54373	215285
19.55185	177400
19.55998	148305
19.56810	136643
19.57623	124727
19.58435	122950
19.59247	112482
19.60060	106788
19.60872	106722
19.61685	108187
19.62497	102158
19.63308	103997
19.64122	118895
19.64933	139196
19.65745	182307
19.66558	242725
19.67370	293780
19.68183	339543
19.68995	375006
19.69807	372909
19.70620	347706
19.71432	309328
19.72245	264474
19.73057	239939
19.73868	214766
19.74682	195492
19.75493	172170
19.76307	153115
19.77118	138094
19.77930	139916
19.78743	139455
19.79555	142778
19.80367	146858
19.81180	147853
19.81992	147669
19.82805	135978
19.83617	137575
19.84428	122254
19.85242	130681
19.86053	174502
19.86867	319674
19.87678	695512
19.88490	1416876
19.89303	2525333
19.90115	3776809
19.90928	4751092
19.91740	4825682
19.92552	4268557
19.93365	3275149
19.94177	2265484
19.94988	1502481
19.95802	1052262
19.96613	831525
19.97427	702347
19.98238	614755
19.99050	551875
19.99863	518658
20.00675	463258
20.01488	429216
20.02300	418328
20.03112	396760
20.03925	365953
20.04737	326214
20.05548	292636
20.06362	257656
20.07173	221269
20.07987	198030
20.08798	191589
20.09610	186189
20.10423	174134
20.11235	159680
20.12048	147537
20.12860	139118
20.13672	124393
20.14485	122574
20.15297	122133
20.16110	133507
20.16922	145213
20.17733	173051
20.18547	191195
20.19358	215398
20.20170	214712
20.20983	225442
20.21795	217901
20.22608	196541
20.23420	178131
20.24232	173584
20.25045	168745
20.25857	192474
20.26670	225812
20.27482	266602
20.28293	315287
20.29107	353200
20.29918	366230
20.30730	346275
20.31543	306105
20.32355	265051
20.33168	216286
20.33980	176583
20.34792	153047
20.35605	131976
20.36417	118778
20.37230	108759
20.38042	103431
20.38853	92532
20.39667	88395
20.40478	85359
20.41292	85286
20.42103	93836
20.42915	99390
20.43728	102426
20.44540	112959
20.45352	126121
20.46165	133580
20.46977	134889
20.47790	140745
20.48602	142975
20.49413	132519
20.50227	125108
20.51038	102786
20.51852	93552
20.52663	83823
20.53475	89519
20.54288	81577
20.55100	81044
20.55913	74006
20.56725	78484
20.57537	79309
20.58350	76300
20.59162	74530
20.59973	69758
20.60787	70545
20.61598	76398
20.62412	68716
20.63223	70589
20.64035	71099
20.64848	69199
20.65660	71111
20.66473	72332
20.67285	71262
20.68097	69619
20.68910	68816
20.69722	67355
20.70533	61243
20.71347	69653
20.72158	62645
20.72972	62608
20.73783	61994
20.74595	67060
20.75408	63453
20.76220	64861
20.77033	66749
20.77845	72391
20.78657	80294
20.79470	112926
20.80282	151675
20.81095	213205
20.81907	281321
20.82718	329662
20.83532	314844
20.84343	289944
20.85155	217649
20.85968	164203
20.86780	127450
20.87593	101167
20.88405	84690
20.89217	79968
20.90030	76835
20.90842	77079
20.91655	73101
20.92467	74909
20.93278	67671
20.94092	70070
20.94903	72971
20.95717	70855
20.96528	71098
20.97340	68221
20.98153	66439
20.98965	63829
20.99777	63105
21.00590	64392
21.01402	59750
21.02215	61576
21.03027	61475
21.03838	63550
21.04652	69288
21.05463	64462
21.06277	71414
21.07088	68922
21.07900	71889
21.08713	76779
21.09525	68058
21.10337	70118
21.11150	65060
21.11962	64198
21.12775	62267
21.13587	69211
21.14398	77096
21.15212	90316
21.16023	109451
21.16837	116328
21.17648	123530
21.18460	120287
21.19273	110945
21.20085	92714
21.20898	84837
21.21710	76766
21.22522	73395
21.23335	72011
21.24147	68977
21.24958	66433
21.25772	65138
21.26583	67101
21.27397	61731
21.28208	60835
21.29020	63793
21.29833	59066
21.30645	62946
21.31458	61959
21.32270	60198
21.33082	57763
21.33895	59858
21.34707	61617
21.35518	58025
21.36332	57689
21.37143	63873
21.37957	62974
21.38768	65738
21.39580	72664
21.40393	84459
21.41205	105273
21.42018	105329
21.42830	105065
21.43642	98455
21.44455	86654
21.45267	81595
21.46080	75316
21.46892	71402
21.47703	68615
21.48517	68109
21.49328	68076
21.50140	58719
21.50953	59577
21.51765	62196
21.52578	64205
21.53390	64434
21.54202	56936
21.55015	61573
21.55827	58385
21.56640	58226
21.57452	54121
21.58263	64772
21.59077	71710
21.59888	66234
21.60702	78406
21.61513	78046
21.62325	77991
21.63138	84317
21.63950	92566
21.64762	100811
21.65575	99776
21.66387	103143
21.67200	108183
21.68012	106750
21.68823	104401
21.69637	88742
21.70448	82425
21.71262	79172
21.72073	74991
21.72885	71230
21.73698	63968
21.74510	62664
21.75322	64051
21.76135	62667
21.76947	61489
21.77760	63673
21.78572	66938
21.79383	67927
21.80197	69769
21.81008	69008
21.81822	72792
21.82633	78905
21.83445	85986
21.84258	85158
21.85070	93370
21.85883	88585
21.86695	92336
21.87507	78808
21.88320	76186
21.89132	66545
21.89943	69023
21.90757	64575
21.91568	60574
21.92382	60749
21.93193	60191
21.94005	56694
21.94818	58920
21.95630	52480
21.96443	53164
21.97255	50935
21.98067	49203
21.98880	53990
21.99692	45000
22.00505	48073
22.01317	47645
22.02128	50434
22.02942	53142
22.03753	54986
22.04565	59498
22.05378	57368
22.06190	55897
22.07003	53567
22.07815	54695
22.08627	51778
22.09440	50464
22.10252	49427
22.11065	47117
22.11877	54382
22.12688	53040
22.13502	50881
22.14313	51087
22.15125	50511
22.15938	52172
22.16750	54039
22.17563	54091
22.18375	51255
22.19187	50721
22.20000	51583
22.20812	49348
22.21625	52337
22.22437	54210
22.23248	61147
22.24062	56475
22.24873	54779
22.25687	55964
22.26498	56866
22.27310	56574
22.28123	55323
22.28935	56953
22.29747	55699
22.30560	58664
22.31372	57998
22.32185	59382
22.32997	58402
22.33808	61953
22.34622	60422
22.35433	57491
22.36247	57440
22.37058	58986
22.37870	60021
22.38683	60227
22.39495	67754
22.40308	84354
22.41120	109030
22.41932	123505
22.42745	146807
22.43557	153913
22.44368	134958
22.45182	120249
22.45993	102396
22.46807	95313
22.47618	82918
22.48430	79056
22.49243	89780
22.50055	92572
22.50868	95992
22.51680	101706
22.52492	102430
22.53305	97387
22.54117	88382
22.54928	83770
22.55742	74654
22.56553	77315
22.57367	69176
22.58178	70146
22.58990	61843
22.59803	67503
22.60615	60770
22.61428	60120
22.62240	61286
22.63052	59084
22.63865	57113
22.64677	57879
22.65490	56770
22.66302	61677
22.67113	58944
22.67927	61765
22.68738	60961
22.69550	60599
22.70363	59333
22.71175	64344
22.71988	70985
22.72800	75130
22.73612	74191
22.74425	59561
22.75237	67539
22.76050	61156
22.76862	57443
22.77673	61172
22.78487	62830
22.79298	67177
22.80110	73535
22.80923	89184
22.81735	95797
22.82548	93824
22.83360	90890
22.84172	80876
22.84985	74060
22.85797	73634
22.86610	74774
22.87422	74325
22.88233	77123
22.89047	89298
22.89858	90807
22.90672	100992
22.91483	112889
22.92295	130858
22.93108	147989
22.93920	159330
22.94732	164684
22.95545	150822
22.96357	135295
22.97170	126049
22.97982	116192
22.98793	112324
22.99607	109568
23.00418	99888
23.01232	98817
23.02043	94526
23.02855	91206
23.03668	87340
23.04480	84011
23.05293	81091
23.06105	82275
23.06917	86913
23.07730	81655
23.08542	85217
23.09353	78942
23.10167	80601
23.10978	78941
23.11792	79637
23.12603	80355
23.13415	76867
23.14228	79111
23.15040	75989
23.15853	71894
23.16665	75267
23.17477	72045
23.18290	76545
23.19102	72049
23.19913	76062
23.20727	73460
23.21538	72262
23.22352	71986
23.23163	73030
23.23975	76625
23.24788	76430
23.25600	78087
23.26413	78278
23.27225	83498
23.28037	86120
23.28850	84308
23.29662	77866
23.30475	72716
23.31287	72447
23.32098	71437
23.32912	74766
23.33723	81277
23.34535	98949
23.35348	134459
23.36160	189873
23.36973	262702
23.37785	382737
23.38597	519229
23.39410	647741
23.40222	764209
23.41035	893266
23.41847	951402
23.42658	1007380
23.43472	1018148
23.44283	991645
23.45097	938548
23.45908	891361
23.46720	830443
23.47533	789133
23.48345	713074
23.49157	640222
23.49970	607922
23.50782	568015
23.51595	501859
23.52407	461158
23.53218	437300
23.54032	393935
23.54843	373702
23.55657	356064
23.56468	342593
23.57280	335742
23.58093	327065
23.58905	341562
23.59717	354162
23.60530	365466
23.61342	360583
23.62155	350162
23.62967	315672
23.63778	285848
23.64592	253718
23.65403	253321
23.66217	259406
23.67028	253287
23.67840	260959
23.68653	233264
23.69465	220067
23.70278	197737
23.71090	175742
23.71902	158811
23.72715	157712
23.73527	154332
23.74338	153111
23.75152	182639
23.75963	280987
23.76777	501348
23.77588	934212
23.78400	1654842
23.79213	2387471
23.80025	2939341
23.80838	2966363
23.81650	2667888
23.82462	2177128
23.83275	1679196
23.84087	1282700
23.84898	968779
23.85712	792028
23.86523	639526
23.87337	536832
23.88148	453818
23.88960	404176
23.89773	377584
23.90585	352034
23.91398	325711
23.92210	308331
23.93022	281000
23.93835	274516
23.94647	254111
23.95460	239222
23.96272	231862
23.97083	215863
23.97897	201815
23.98708	192562
23.99520	198780
24.00333	214856
24.01145	289968
24.01958	445741
24.02770	677634
24.03582	943738
24.04395	1124113
24.05207	1090944
24.06020	872483
24.06832	623793
24.07643	420757
24.08457	283434
24.09268	213378
24.10082	175965
24.10893	156708
24.11705	153465
24.12518	144086
24.13330	144953
24.14142	150955
24.14955	142545
24.15767	141676
24.16580	138342
24.17392	138917
24.18203	136935
24.19017	137192
24.19828	134408
24.20642	138928
24.21453	132839
24.22265	134469
24.23078	128497
24.23890	124002
24.24703	114153
24.25515	118858
24.26327	105134
24.27140	99842
24.27952	93705
24.28763	98863
24.29577	105484
24.30388	118337
24.31202	137775
24.32013	164028
24.32825	172969
24.33638	180942
24.34450	199943
24.35263	194032
24.36075	198106
24.36887	199934
24.37700	216296
24.38512	232898
24.39323	255659
24.40137	287728
24.40948	299848
24.41762	280426
24.42573	272973
24.43385	247586
24.44198	225863
24.45010	215814
24.45823	212733
24.46635	211949
24.47447	219167
24.48260	226643
24.49072	237530
24.49885	242029
24.50697	256994
24.51508	252485
24.52322	248638
24.53133	248476
24.53945	232874
24.54758	229901
24.55570	231348
24.56383	227024
24.57195	222308
24.58007	216948
24.58820	203950
24.59632	205938
24.60445	184755
24.61257	191049
24.62068	180090
24.62882	181978
24.63693	176345
24.64505	176754
24.65318	165776
24.66130	171634
24.66943	169480
24.67755	170449
24.68567	166331
24.69380	171839
24.70192	165881
24.71005	162110
24.71817	162471
24.72628	161344
24.73442	159597
24.74253	158958
24.75067	156686
24.75878	162999
24.76690	165511
24.77503	162306
24.78315	155094
24.79127	166721
24.79940	166033
24.80752	162581
24.81565	160550
24.82377	166478
24.83188	161800
24.84002	179777
24.84813	200484
24.85627	237282
24.86438	298991
24.87250	384615
24.88063	493365
24.88875	617618
24.89688	715410
24.90500	707694
24.91312	643181
24.92125	523752
24.92937	413271
24.93748	309729
24.94562	242773
24.95373	201253
24.96187	178778
24.96998	171131
24.97810	165364
24.98623	156106
24.99435	158620
25.00248	143528
25.01060	142935
25.01872	143752
25.02685	140954
25.03497	139877
25.04308	145070
25.05122	125153
25.05933	131189
25.06747	131769
25.07558	137673
25.08370	131612
25.09183	144170
25.09995	168193
25.10808	240635
25.11620	427686
25.12432	823901
25.13245	1499029
25.14057	2266672
25.14870	2876967
25.15682	3126036
25.16493	2851152
25.17307	2238499
25.18118	1537542
25.18930	967879
25.19743	559992
25.20555	349401
25.21368	240108
25.22180	185636
25.22992	152095
25.23805	153821
25.24617	157415
25.25430	173256
25.26242	199490
25.27053	213682
25.27867	230173
25.28678	217408
25.29492	198646
25.30303	169676
25.31115	142107
25.31928	131388
25.32740	109673
25.33552	108211
25.34365	97371
25.35177	94005
25.35990	89014
25.36802	83514
25.37613	78552
25.38427	77009
25.39238	74200
25.40052	82143
25.40863	73756
25.41675	81053
25.42488	74239
25.43300	70600
25.44112	72787
25.44925	67887
25.45737	72462
25.46550	65895
25.47362	76270
25.48173	69845
25.48987	77232
25.49798	73802
25.50612	70227
25.51423	67963
25.52235	62680
25.53048	70795
25.53860	67037
25.54673	68085
25.55485	63099
25.56297	63786
25.57110	70894
25.57922	69596
25.58733	68303
25.59547	73511
25.60358	78915
25.61172	98081
25.61983	119974
25.62795	137723
25.63608	152275
25.64420	150369
25.65233	158044
25.66045	165252
25.66857	165784
25.67670	172324
25.68482	172287
25.69293	171403
25.70107	169363
25.70918	177360
25.71732	179646
25.72543	182842
25.73355	173436
25.74168	177971
25.74980	175920
25.75793	175530
25.76605	183212
25.77417	185394
25.78230	180207
25.79042	183794
25.79855	182025
25.80667	184142
25.81478	185640
25.82292	188518
25.83103	187096
25.83915	208736
25.84728	205689
25.85540	220327
25.86353	219553
25.87165	200874
25.87977	183217
25.88790	179597
25.89602	167678
25.90415	161348
25.91227	145563
25.92038	152989
25.92852	150274
25.93663	154449
25.94477	142909
25.95288	146146
25.96100	145028
25.96913	136180
25.97725	142377
25.98537	133272
25.99350	133517
26.00162	129170
26.00975	134663
26.01787	126142
26.02598	131250
26.03412	123746
26.04223	123350
26.05037	120934
26.05848	124197
26.06660	122114
26.07473	123931
26.08285	124161
26.09097	125535
26.09910	124132
26.10722	122398
26.11535	114562
26.12347	124127
26.13158	126301
26.13972	121835
26.14783	122525
26.15597	119896
26.16408	127577
26.17220	120050
26.18033	118564
26.18845	118792
26.19658	115515
26.20470	114860
26.21282	106978
26.22095	106554
26.22907	109658
26.23718	102089
26.24532	103840
26.25343	97267
26.26157	96580
26.26968	94385
26.27780	95662
26.28593	94554
26.29405	96635
26.30218	90177
26.31030	93751
26.31842	88489
26.32655	90184
26.33467	86488
26.34280	91631
26.35092	83792
26.35903	83132
26.36717	87601
26.37528	87495
26.38340	97546
26.39153	106912
26.39965	114414
26.40778	115222
26.41590	110745
26.42402	109001
26.43215	103940
26.44027	98920
26.44840	90261
26.45652	87543
26.46463	87991
26.47277	85499
26.48088	87893
26.48900	90018
26.49713	84083
26.50525	82863
26.51338	75156
26.52150	70001
26.52962	76494
26.53775	69142
26.54587	71864
26.55400	68156
26.56212	67832
26.57023	71683
26.57837	68605
26.58648	64711
26.59462	67841
26.60273	70115
26.61085	68822
26.61898	65363
26.62710	65918
26.63522	66218
26.64335	63375
26.65147	67020
26.65960	75047
26.66772	79511
26.67583	75967
26.68397	76228
26.69208	73253
26.70022	70774
26.70833	68354
26.71645	64033
26.72458	68755
26.73270	62641
26.74083	64871
26.74895	66330
26.75707	62503
26.76520	67658
26.77332	63723
26.78143	63831
26.78957	64581
26.79768	65337
26.80582	63495
26.81393	67037
26.82205	66787
26.83018	68160
26.83830	71822
26.84643	62072
26.85455	61598
26.86267	64481
26.87080	58869
26.87892	60882
26.88703	59667
26.89517	64320
26.90328	54969
26.91142	60243
26.91953	57100
26.92765	60771
26.93578	61303
26.94390	60240
26.95203	62602
26.96015	66274
26.96827	68437
26.97640	73862
26.98452	104813
26.99265	144200
27.00077	202974
27.00888	299425
27.01702	408043
27.02513	508130
27.03325	566298
27.04138	581455
27.04950	556815
27.05763	482122
27.06575	409305
27.07387	339208
27.08200	279377
27.09012	247940
27.09825	207643
27.10637	184494
27.11448	174119
27.12262	160818
27.13073	154924
27.13885	138016
27.14698	141195
27.15510	131452
27.16323	132185
27.17135	128737
27.17947	127366
27.18760	137826
27.19572	133360
27.20385	127897
27.21197	127664
27.22008	117240
27.22822	116219
27.23633	109892
27.24447	104697
27.25258	104222
27.26070	108881
27.26883	94045
27.27695	88940
27.28507	92401
27.29320	82844
27.30132	85284
27.30945	77466
27.31757	81179
27.32568	77839
27.33382	80161
27.34193	78122
27.35007	76694
27.35818	77908
27.36630	79727
27.37443	75225
27.38255	72911
27.39068	78042
27.39880	72225
27.40692	72439
27.41505	60745
27.42317	66448
27.43128	64186
27.43942	63338
27.44753	69758
27.45567	63766
27.46378	62980
27.47190	66562
27.48003	61175
27.48815	62885
27.49628	66033
27.50440	65775
27.51252	63056
27.52065	66013
27.52877	63170
27.53688	72274
27.54502	64628
27.55313	63408
27.56127	65530
27.56938	64781
27.57750	68011
27.58563	74061
27.59375	87175
27.60188	88758
27.61000	94613
27.61812	87105
27.62625	83242
27.63437	75626
27.64250	65176
27.65062	64406
27.65873	61508
27.66687	59286
27.67498	58331
27.68310	60514
27.69123	56835
27.69935	62925
27.70748	59494
27.71560	61147
27.72372	55668
27.73185	58510
27.73997	56286
27.74810	52598
27.75622	53547
27.76433	54784
27.77247	57283
27.78058	61874
27.78872	58264
27.79683	62149
27.80495	61825
27.81308	59662
27.82120	63279
27.82932	63044
27.83745	61629
27.84557	58673
27.85370	59716
27.86182	52852
27.86993	57504
27.87807	58146
27.88618	52459
27.89432	52395
27.90243	58976
27.91055	55780
27.91868	50634
27.92680	52307
27.93492	52256
27.94305	50861
27.95117	49133
27.95930	51299
27.96742	47808
27.97553	50734
27.98367	50756
27.99178	51409
27.99992	48723
28.00803	51341
28.01615	56520
28.02428	57978
28.03240	56857
28.04053	59637
28.04865	66872
28.05677	64129
28.06490	65517
28.07302	64834
28.08113	66837
28.08927	63688
28.09738	62676
28.10552	64888
28.11363	62278
28.12175	60676
28.12988	59954
28.13800	53985
28.14613	51577
28.15425	46410
28.16237	49009
28.17050	47787
28.17862	56045
28.18673	54589
28.19487	67220
28.20298	75514
28.21112	85788
28.21923	92245
28.22735	92311
28.23548	91926
28.24360	93472
28.25173	84146
28.25985	67558
28.26797	66917
28.27610	61768
28.28422	60032
28.29235	54499
28.30047	65409
28.30858	68342
28.31672	70816
28.32483	80853
28.33295	86662
28.34108	95291
28.34920	104096
28.35733	110030
28.36545	123002
28.37357	125741
28.38170	137908
28.38982	140471
28.39795	142017
28.40607	145026
28.41418	144277
28.42232	135993
28.43043	125649
28.43857	125550
28.44668	112971
28.45480	107715
28.46293	103579
28.47105	96469
28.47917	92710
28.48730	89269
28.49542	85577
28.50355	87784
28.51167	89491
28.51978	85593
28.52792	76276
28.53603	76352
28.54417	73698
28.55228	77247
28.56040	64798
28.56853	69233
28.57665	67662
28.58477	67139
28.59290	65541
28.60102	65498
28.60915	65686
28.61727	63795
28.62538	68676
28.63352	70396
28.64163	69450
28.64977	73749
28.65788	72716
28.66600	75967
28.67413	73838
28.68225	72490
28.69038	71860
28.69850	70455
28.70662	64333
28.71475	62724
28.72287	59922
28.73098	56533
28.73912	61384
28.74723	57835
28.75537	71712
28.76348	76140
28.77160	83142
28.77973	87963
28.78785	91309
28.79598	83115
28.80410	78694
28.81222	76451
28.82035	72279
28.82847	69571
28.83660	66252
28.84472	63216
28.85283	61824
28.86097	61324
28.86908	61058
28.87720	63033
28.88533	65359
28.89345	72928
28.90158	71862
28.90970	72349
28.91782	68935
28.92595	67270
28.93407	62309
28.94220	62850
28.95032	60593
28.95843	63274
28.96657	66578
28.97468	59080
28.98280	62549
28.99093	60600
28.99905	56880
29.00718	53461
29.01530	53409
29.02342	52266
29.03155	50477
29.03967	53385
29.04780	54121
29.05592	50514
29.06403	51640
29.07217	54221
29.08028	52965
29.08842	51753
29.09653	55756
29.10465	56876
29.11278	55887
29.12090	56887
29.12902	55903
29.13715	48242
29.14527	49962
29.15340	52041
29.16152	51074
29.16963	51585
29.17777	56762
29.18588	61710
29.19402	69278
29.20213	75404
29.21025	89545
29.21838	97577
29.22650	104879
29.23462	105594
29.24275	106125
29.25087	116121
29.25900	124912
29.26712	138146
29.27523	148587
29.28337	139225
29.29148	119258
29.29962	93443
29.30773	80640
29.31585	66876
29.32398	56603
29.33210	57552
29.34023	56487
29.34835	49858
29.35647	49272
29.36460	49583
29.37272	52125
29.38083	48335
29.38897	48668
29.39708	47514
29.40522	49340
29.41333	53025
29.42145	48041
29.42958	53168
29.43770	53192
29.44583	52408
29.45395	51673
29.46207	52004
29.47020	46924
29.47832	49988
29.48645	50621
29.49457	51430
29.50268	57822
29.51082	56955
29.51893	57306
29.52705	58338
29.53518	55866
29.54330	59204
29.55143	53258
29.55955	49404
29.56767	49794
29.57580	48288
29.58392	47835
29.59205	46428
29.60017	46030
29.60828	46057
29.61642	42585
29.62453	46675
29.63267	46791
29.64078	47958
29.64890	45003
29.65703	45933
29.66515	44270
29.67327	49157
29.68140	50525
29.68952	52484
29.69765	49408
29.70577	56472
29.71388	54353
29.72202	50835
29.73013	49647
29.73827	51112
29.74638	47669
29.75450	47201
29.76263	47659
29.77075	46423
29.77887	47244
29.78700	43538
29.79512	46177
29.80325	43492
29.81137	43244
29.81948	47535
29.82762	42573
29.83573	40754
29.84387	44152
29.85198	40856
29.86010	44771
29.86823	47697
29.87635	50912
29.88448	63879
29.89260	73534
29.90072	79424
29.90885	89686
29.91697	81092
29.92508	82377
29.93322	66249
29.94133	60270
29.94947	54558
29.95758	51767
29.96570	53874
29.97383	58508
29.98195	63056
29.99008	64139
29.99820	70957
30.00632	78919
30.01445	78972
30.02257	89580
30.03068	91719
30.03882	93572
30.04693	89773
30.05507	94462
30.06318	98087
30.07130	96668
30.07943	93608
30.08755	91320
30.09568	88770
30.10380	88521
30.11192	88573
30.12005	80702
30.12817	84614
30.13630	85762
30.14442	78793
30.15253	79867
30.16067	74703
30.16878	79399
30.17690	76410
30.18503	71054
30.19315	70534
30.20128	77070
30.20940	67280
30.21752	70448
30.22565	66121
30.23377	62685
30.24190	61826
30.25002	59462
30.25813	64151
30.26627	55912
30.27438	55756
30.28252	58463
30.29063	57194
30.29875	50695
30.30688	51966
30.31500	52360
30.32312	51021
30.33125	51597
30.33937	55526
30.34750	52222
30.35562	56408
30.36373	51719
30.37187	50836
30.37998	47303
30.38812	53125
30.39623	51553
30.40435	51078
30.41248	46586
30.42060	49144
30.42872	51160
30.43685	49615
30.44497	46574
30.45310	45730
30.46122	47893
30.46933	45182
30.47747	49861
30.48558	49538
30.49372	45862
30.50183	47784
30.50995	49282
30.51808	49446
30.52620	49628
30.53433	47103
30.54245	50539
30.55057	46047
30.55870	45951
30.56682	48859
30.57493	55092
30.58307	63612
30.59118	75103
30.59932	77535
30.60743	85232
30.61555	81962
30.62368	87228
30.63180	96611
30.63993	96334
30.64805	99671
30.65617	95932
30.66430	102009
30.67242	101882
30.68055	100307
30.68867	102032
30.69678	105147
30.70492	108064
30.71303	106570
30.72115	111477
30.72928	106091
30.73740	109734
30.74553	109359
30.75365	108100
30.76177	107441
30.76990	115201
30.77802	117975
30.78615	124778
30.79427	136279
30.80238	154197
30.81052	174548
30.81863	168307
30.82675	159235
30.83488	145912
30.84300	135720
30.85113	126820
30.85925	121949
30.86737	114327
30.87550	107204
30.88362	110153
30.89175	112544
30.89987	102704
30.90798	100142
30.91612	106258
30.92423	102834
30.93237	106357
30.94048	100270
30.94860	99092
30.95673	106867
30.96485	99214
30.97297	96413
30.98110	98620
30.98922	101405
30.99735	98385
31.00547	99032
31.01358	96535
31.02172	96332
31.02983	97725
31.03797	94767
31.04608	97157
31.05420	96616
31.06233	102369
31.07045	98701
31.07857	104707
31.08670	110265
31.09482	116495
31.10295	122427
31.11107	126757
31.11918	128329
31.12732	119914
31.13543	115464
31.14357	107041
31.15168	96988
31.15980	99651
31.16793	105150
31.17605	101908
31.18418	123620
31.19230	139081
31.20042	172634
31.20855	219365
31.21667	263111
31.22478	311695
31.23292	316529
31.24103	293589
31.24917	244414
31.25728	196405
31.26540	145354
31.27353	126000
31.28165	104510
31.28978	88134
31.29790	81154
31.30602	85673
31.31415	79663
31.32227	81321
31.33040	75670
31.33852	77517
31.34663	78533
31.35477	81548
31.36288	81848
31.37100	80111
31.37913	78467
31.38725	79777
31.39538	79891
31.40350	78560
31.41162	73048
31.41975	78124
31.42787	72206
31.43600	75003
31.44412	68703
31.45223	72474
31.46037	69208
31.46848	67457
31.47660	67336
31.48473	69517
31.49285	66407
31.50098	69189
31.50910	68187
31.51722	65730
31.52535	65025
31.53347	74466
31.54160	68160
31.54972	63212
31.55783	66681
31.56597	71334
31.57408	64816
31.58222	65099
31.59033	62590
31.59845	61983
31.60658	63382
31.61470	62025
31.62282	63310
31.63095	63447
31.63907	61735
31.64720	61460
31.65532	63755
31.66343	67428
31.67157	66178
31.67968	69656
31.68782	65762
31.69593	68218
31.70405	61280
31.71218	63254
31.72030	57814
31.72843	56783
31.73655	56021
31.74467	58188
31.75280	55687
31.76092	54745
31.76903	56985
31.77717	58849
31.78528	57617
31.79342	58453
31.80153	60186
31.80965	63244
31.81778	62856
31.82590	61382
31.83403	62051
31.84215	56959
31.85027	64039
31.85840	61031
31.86652	66294
31.87463	67447
31.88277	67111
31.89088	71887
31.89902	72524
31.90713	79722
31.91525	77885
31.92338	87067
31.93150	85888
31.93963	88267
31.94775	95532
31.95587	96844
31.96400	96409
31.97212	97977
31.98025	106711
31.98837	100498
31.99648	104320
32.00462	100392
32.01273	110918
32.02085	101345
32.02898	96932
32.03710	95013
32.04523	92595
32.05335	94768
32.06147	87519
32.06960	89871
32.07772	90579
32.08585	87851
32.09397	93324
32.10208	78390
32.11022	76126
32.11833	80382
32.12647	72146
32.13458	67250
32.14270	67249
32.15083	66307
32.15895	65098
32.16707	63325
32.17520	66574
32.18332	65528
32.19145	64496
32.19957	65072
32.20768	65805
32.21582	64243
32.22393	64014
32.23207	61700
32.24018	62295
32.24830	64826
32.25643	63795
32.26455	60547
32.27267	65981
32.28080	67263
32.28892	70528
32.29705	64465
32.30517	63738
32.31328	56252
32.32142	56418
32.32953	59947
32.33767	59246
32.34578	60838
32.35390	60328
32.36203	56459
32.37015	54147
32.37828	60823
32.38640	54525
32.39452	52937
32.40265	57126
32.41077	60442
32.41888	55145
32.42702	55534
32.43513	56907
32.44327	54805
32.45138	52503
32.45950	51792
32.46763	53491
32.47575	50982
32.48388	55565
32.49200	56848
32.50012	54953
32.50825	57125
32.51637	51450
32.52448	54340
32.53262	53925
32.54073	53523
32.54887	52781
32.55698	53637
32.56510	52832
32.57323	54702
32.58135	56731
32.58948	54528
32.59760	51236
32.60572	51327
32.61385	58496
32.62197	50631
32.63010	50944
32.63822	50524
32.64633	52912
32.65447	60077
32.66258	71782
32.67070	75895
32.67883	76476
32.68695	70857
32.69508	70813
32.70320	66858
32.71132	69222
32.71945	63758
32.72757	60910
32.73570	57594
32.74382	57371
32.75193	54015
32.76007	57263
32.76818	52157
32.77632	53301
32.78443	51919
32.79255	51730
32.80068	49144
32.80880	51069
32.81692	52566
32.82505	53962
32.83317	51039
32.84130	51129
32.84942	49334
32.85753	50518
32.86567	50318
32.87378	52015
32.88192	54862
32.89003	51361
32.89815	50547
32.90628	53484
32.91440	47408
32.92252	49770
32.93065	51953
32.93877	53647
32.94690	52786
32.95502	52498
32.96313	48858
32.97127	56540
32.97938	56466
32.98752	65386
32.99563	71663
33.00375	78912
33.01188	89949
33.02000	77491
33.02813	76484
33.03625	66815
33.04437	62062
33.05250	65459
33.06062	65923
33.06873	60345
33.07687	65909
33.08498	70762
33.09312	72431
33.10123	73171
33.10935	78113
33.11748	91358
33.12560	79623
33.13373	84998
33.14185	79646
33.14997	69033
33.15810	64185
33.16622	58926
33.17435	60815
33.18247	57811
33.19058	55615
33.19872	58060
33.20683	59672
33.21495	58829
33.22308	49934
33.23120	53106
33.23933	52668
33.24745	54801
33.25557	55600
33.26370	51653
33.27182	50931
33.27995	52689
33.28807	53388
33.29618	50771
33.30432	56596
33.31243	54373
33.32055	49895
33.32868	49766
33.33680	55927
33.34493	55641
33.35305	55645
33.36117	56251
33.36930	59143
33.37742	57137
33.38555	57760
33.39367	60524
33.40178	50762
33.40992	52274
33.41803	47765
33.42617	53901
33.43428	52285
33.44240	49044
33.45053	56038
33.45865	48665
33.46677	50517
33.47490	48761
33.48302	49086
33.49115	52833
33.49927	53193
33.50738	54974
33.51552	53245
33.52363	53199
33.53177	53884
33.53988	54859
33.54800	61977
33.55613	60788
33.56425	64408
33.57237	63546
33.58050	64755
33.58862	59302
33.59675	52777
33.60487	54530
33.61298	56913
33.62112	52366
33.62923	53152
33.63737	53697
33.64548	57466
33.65360	58966
33.66173	58400
33.66985	56798
33.67798	56687
33.68610	55194
33.69422	51624
33.70235	52780
33.71047	54963
33.71858	52722
33.72672	50371
33.73483	46994
33.74297	46467
33.75108	46996
33.75920	46130
33.76733	48335
33.77545	49727
33.78358	46633
33.79170	49987
33.79982	47085
33.80795	48342
33.81607	55343
33.82420	50255
33.83232	53873
33.84043	52178
33.84857	53602
33.85668	54417
33.86480	46632
33.87293	58572
33.88105	55426
33.88918	56657
33.89730	52793
33.90542	52339
33.91355	51287
33.92167	48538
33.92980	56567
33.93792	52279
33.94603	57693
33.95417	55250
33.96228	53068
33.97040	49586
33.97853	51401
33.98665	54615
33.99478	53005
34.00290	57281
34.01102	55832
34.01915	53912
34.02727	52684
34.03540	54155
34.04352	54723
34.05163	55400
34.05977	51489
34.06788	56483
34.07602	58577
34.08413	53739
34.09225	58382
34.10038	57404
34.10850	60326
34.11662	59893
34.12475	60853
34.13287	64558
34.14100	65758
34.14912	61753
34.15723	65778
34.16537	66006
34.17348	67793
34.18162	72083
34.18973	66025
34.19785	66854
34.20598	69037
34.21410	61909
34.22223	68727
34.23035	67487
34.23847	68727
34.24660	65445
34.25472	68370
34.26283	66728
34.27097	66611
34.27908	66532
34.28722	65953
34.29533	73760
34.30345	65092
34.31158	67592
34.31970	69509
34.32783	68147
34.33595	68253
34.34407	64104
34.35220	68555
34.36032	69262
34.36843	66076
34.37657	64862
34.38468	65245
34.39282	61072
34.40093	62246
34.40905	61287
34.41718	60897
34.42530	60102
34.43343	60761
34.44155	59948
34.44967	58452
34.45780	60587
34.46592	60000
34.47405	62424
34.48217	59960
34.49028	58180
34.49842	59735
34.50653	68020
34.51465	68157
34.52278	76556
34.53090	81188
34.53903	93253
34.54715	102082
34.55527	107422
34.56340	103366
34.57152	105921
34.57965	102504
34.58777	97746
34.59588	93095
34.60402	89334
34.61213	83514
34.62025	81263
34.62838	79579
34.63650	74582
34.64463	79738
34.65275	72684
34.66087	72025
34.66900	68433
34.67712	68326
34.68525	67412
34.69337	71206
34.70148	65507
34.70962	65817
34.71773	61668
34.72587	59426
34.73398	67502
34.74210	61330
34.75023	62302
34.75835	64167
34.76647	64636
34.77460	64158
34.78272	65840
34.79085	66671
34.79897	67938
34.80708	70094
34.81522	67134
34.82333	64108
34.83147	66126
34.83958	68424
34.84770	63435
34.85583	68386
34.86395	70423
34.87208	63477
34.88020	69226
34.88832	68647
34.89645	64936
34.90457	65919
34.91268	70248
34.92082	74649
34.92893	76927
34.93707	75429
34.94518	82893
34.95330	81724
34.96143	85585
34.96955	80975
34.97768	87420
34.98580	82993
34.99392	82002
35.00205	83269
35.01017	79917
35.01830	76420
35.02642	78224
35.03453	73748
35.04267	69906
35.05078	72516
35.05890	70109
35.06703	71131
35.07515	69081
35.08328	67840
35.09140	63873
35.09952	61431
35.10765	65228
35.11577	67332
35.12390	61623
35.13202	63816
35.14013	65189
35.14827	65710
35.15638	64631
35.16450	68543
35.17263	70331
35.18075	69308
35.18888	66176
35.19700	66455
35.20512	63196
35.21325	56354
35.22137	59814
35.22950	60004
35.23762	61669
35.24573	63266
35.25387	61639
35.26198	64117
35.27012	63710
35.27823	59648
35.28635	60300
35.29448	59679
35.30260	61703
35.31072	58735
35.31885	58216
35.32697	56297
35.33510	57448
35.34322	56125
35.35133	61528
35.35947	56534
35.36758	58249
35.37572	55117
35.38383	58141
35.39195	63892
35.40008	64830
35.40820	60873
35.41632	60672
35.42445	59481
35.43257	59307
35.44070	60243
35.44882	60149
35.45693	61700
35.46507	65305
35.47318	67131
35.48132	64240
35.48943	62679
35.49755	63894
35.50568	63918
35.51380	62992
35.52193	61440
35.53005	61899
35.53817	63553
35.54630	57215
35.55442	58887
35.56253	59566
35.57067	59475
35.57878	62083
35.58692	58435
35.59503	61977
35.60315	60759
35.61128	55673
35.61940	58332
35.62753	60060
35.63565	59914
35.64377	58417
35.65190	64215
35.66002	62000
35.66815	60669
35.67627	64522
35.68438	67847
35.69252	65015
35.70063	63937
35.70875	63456
35.71688	66935
35.72500	62547
35.73313	67283
35.74125	67904
35.74937	72953
35.75750	75111
35.76562	73915
35.77375	75963
35.78187	77379
35.78998	68566
35.79812	64282
35.80623	67043
35.81435	60224
35.82248	67301
35.83060	61115
35.83873	66264
35.84685	59592
35.85497	62955
35.86310	61992
35.87122	62275
35.87935	61239
35.88747	56920
35.89558	60952
35.90372	66057
35.91183	57690
35.91997	55469
35.92808	62656
35.93620	55208
35.94433	58917
35.95245	62128
35.96057	59241
35.96870	59913
35.97682	56081
35.98495	57741
35.99307	60261
36.00118	61523
36.00932	61968
36.01743	65787
36.02557	63200
36.03368	67476
36.04180	68705
36.04993	60274
36.05805	65150
36.06618	64815
36.07430	63408
36.08242	63081
36.09055	67046
36.09867	59287
36.10678	62949
36.11492	60856
36.12303	59867
36.13117	63423
36.13928	65862
36.14740	66573
36.15553	71701
36.16365	72765
36.17178	76939
36.17990	77867
36.18802	81727
36.19615	83485
36.20427	81294
36.21238	84219
36.22052	90971
36.22863	83459
36.23677	83510
36.24488	84621
36.25300	91229
36.26113	93882
36.26925	92646
36.27738	90051
36.28550	93805
36.29362	95495
36.30175	107512
36.30987	110872
36.31800	107084
36.32612	116506
36.33423	108607
36.34237	107216
36.35048	105157
36.35860	102276
36.36673	95568
36.37485	97136
36.38298	94829
36.39110	97160
36.39922	96184
36.40735	97825
36.41547	96561
36.42360	91676
36.43172	91461
36.43983	90488
36.44797	96376
36.45608	92501
36.46420	91690
36.47233	87035
36.48045	89760
36.48858	89399
36.49670	92732
36.50482	90495
36.51295	86614
36.52107	86757
36.52920	87352
36.53732	85460
36.54543	90490
36.55357	88361
36.56168	88695
36.56982	87156
36.57793	86718
36.58605	82719
36.59418	85395
36.60230	84744
36.61042	87058
36.61855	83882
36.62667	88273
36.63480	82028
36.64292	83585
36.65103	83966
36.65917	81443
36.66728	83924
36.67542	87990
36.68353	85431
36.69165	78801
36.69978	79417
36.70790	78355
36.71603	79809
36.72415	84277
36.73227	82487
36.74040	86265
36.74852	79034
36.75663	79538
36.76477	79078
36.77288	76955
36.78102	76212
36.78913	78159
36.79725	77061
36.80538	74432
36.81350	75009
36.82163	79677
36.82975	78757
36.83787	77420
36.84600	75248
36.85412	79090
36.86223	75445
36.87037	79627
36.87848	80210
36.88662	74782
36.89473	76061
36.90285	77693
36.91098	81175
36.91910	77588
36.92723	81339
36.93535	81581
36.94347	83234
36.95160	86817
36.95972	91601
36.96785	94039
36.97597	96258
36.98408	97384
36.99222	87781
37.00033	85028
37.00845	81761
37.01658	83903
37.02470	77009
37.03283	77501
37.04095	75704
37.04907	75924
37.05720	77760
37.06532	78699
37.07345	72879
37.08157	78112
37.08968	78670
37.09782	77021
37.10593	83168
37.11407	77516
37.12218	78605
37.13030	77289
37.13843	83246
37.14655	74494
37.15467	75038
37.16280	77480
37.17092	79556
37.17905	78132
37.18717	75249
37.19528	75897
37.20342	77868
37.21153	79367
37.21967	80145
37.22778	78627
37.23590	79300
37.24403	76986
37.25215	77281
37.26027	73756
37.26840	77873
37.27652	72598
37.28465	72617
37.29277	79942
37.30088	73561
37.30902	75279
37.31713	85571
37.32527	84132
37.33338	90796
37.34150	98619
37.34963	104997
37.35775	115909
37.36588	112953
37.37400	111254
37.38212	108036
37.39025	103617
37.39837	105994
37.40648	100288
37.41462	95044
37.42273	101075
37.43087	102978
37.43898	99208
37.44710	97999
37.45523	98808
37.46335	96395
37.47148	93153
37.47960	90377
37.48772	93124
