C:\MassHunter\GCMS\1\data\20191125_ALKANES\JTB-E18-40-06.D Mon Nov 25 12:07:32 2019
Start of data points
2.09523,273016
2.10335,280955
2.11148,275787
2.11960,265108
2.12772,266490
2.13585,261124
2.14397,256634
2.15208,253445
2.16022,251181
2.16833,236911
2.17647,236870
2.18458,240035
2.19270,227457
2.20083,222765
2.20895,232269
2.21708,226540
2.22520,232073
2.23332,228700
2.24145,222935
2.24957,218984
2.25768,237788
2.26582,648411
2.27393,1799348
2.28207,1654049
2.29018,843027
2.29830,520498
2.30643,3807312
2.31455,3.674281E+07
2.32268,9.33034E+07
2.33080,1.077255E+08
2.33892,1.008872E+08
2.34705,8.770306E+07
2.35517,8.039238E+07
2.36330,7.91822E+07
2.37142,7.567019E+07
2.37953,7.133742E+07
2.38767,6.616321E+07
2.39578,6.105398E+07
2.40390,5.591128E+07
2.41203,5.103156E+07
2.42015,4.605225E+07
2.42828,4.158347E+07
2.43640,3.775286E+07
2.44452,3.40706E+07
2.45265,3.077316E+07
2.46077,2.947694E+07
2.46890,2.948161E+07
2.47702,2.629249E+07
2.48513,2.320615E+07
2.49327,2.138627E+07
2.50138,2.010759E+07
2.50952,1.884212E+07
2.51763,1.779405E+07
2.52575,1.70925E+07
2.53388,1.652382E+07
2.54200,1.565532E+07
2.55012,1.501784E+07
2.55825,1.402256E+07
2.56637,1.338527E+07
2.57450,1.286013E+07
2.58262,1.233843E+07
2.59073,1.184817E+07
2.59887,1.145518E+07
2.60698,1.103102E+07
2.61512,1.0665E+07
2.62323,1.047868E+07
2.63135,1.009831E+07
2.63948,9966860
2.64760,9670561
2.65572,9414750
2.66385,9169097
2.67197,8890631
2.68010,8782635
2.68822,8422089
2.69633,8253560
2.70447,8080359
2.71258,7856327
2.72072,7659234
2.72883,7503950
2.73695,7264879
2.74508,7100162
2.75320,6967368
2.76133,6817037
2.76945,6698536
2.77757,6607954
2.78570,6486503
2.79382,6385753
2.80193,6224751
2.81007,6090238
2.81818,6032163
2.82632,5857661
2.83443,5719091
2.84255,5659105
2.85068,5547184
2.85880,5425910
2.86693,5369385
2.87505,5256869
2.88317,5188452
2.89130,5148313
2.89942,4960347
2.90755,4943800
2.91567,4838808
2.92378,4807138
2.93192,4768194
2.94003,4644950
2.94815,4555023
2.95628,4556673
2.96440,4457020
2.97253,4417564
2.98065,4373641
2.98877,4281127
2.99690,4276677
3.00502,4155498
3.01315,4108801
3.02127,4061671
3.02938,3995148
3.03752,3965330
3.04563,3882571
3.05375,3855954
3.06188,3832375
3.07000,3799920
3.07813,3736415
3.08625,3705627
3.09437,3707361
3.10250,3639727
3.11062,3550334
3.11875,3576134
3.12687,3499067
3.13498,3465477
3.14312,3358661
3.15123,3380953
3.15937,3351606
3.16748,3281649
3.17560,3234464
3.18373,3214842
3.19185,3149436
3.19997,3078461
3.20810,3066457
3.21622,3038441
3.22435,3029547
3.23247,2989861
3.24058,2962850
3.24872,2955356
3.25683,2941869
3.26497,2918426
3.27308,2909784
3.28120,2914182
3.28933,3016405
3.29745,3311427
3.30557,3434126
3.31370,3468663
3.32182,3384244
3.32995,3234303
3.33807,3183409
3.34618,3099691
3.35432,3019671
3.36243,2950888
3.37057,2901225
3.37868,2891090
3.38680,2841796
3.39493,2820436
3.40305,2827456
3.41118,2774009
3.41930,2730639
3.42742,2751118
3.43555,2693451
3.44367,2621263
3.45178,2628951
3.45992,2572489
3.46803,2566500
3.47617,2559254
3.48428,2526250
3.49240,2510259
3.50053,2440166
3.50865,2467316
3.51678,2425808
3.52490,2411787
3.53302,2370565
3.54115,2368806
3.54927,2353839
3.55740,2309633
3.56552,2289561
3.57363,2305828
3.58177,2242081
3.58988,2255357
3.59800,2217779
3.60613,2209552
3.61425,2152971
3.62238,2156490
3.63050,2135405
3.63862,2111344
3.64675,2079945
3.65487,2102239
3.66300,2057691
3.67112,2079313
3.67923,2031594
3.68737,2029508
3.69548,1995262
3.70362,1991385
3.71173,1960574
3.71985,1960455
3.72798,1901540
3.73610,1940106
3.74422,1916632
3.75235,1890877
3.76047,1861173
3.76860,1838850
3.77672,1861274
3.78483,1825309
3.79297,1829390
3.80108,1808365
3.80922,1798910
3.81733,1751033
3.82545,1755390
3.83358,1748325
3.84170,1745250
3.84982,1718304
3.85795,1709169
3.86607,1688671
3.87420,1689016
3.88232,1699462
3.89043,1674510
3.89857,1650717
3.90668,1615276
3.91482,1644880
3.92293,1608488
3.93105,1632912
3.93918,1585007
3.94730,1596323
3.95543,1570859
3.96355,1542867
3.97167,1568754
3.97980,1533722
3.98792,1527966
3.99603,1525606
4.00417,1518037
4.01228,1510713
4.02042,1473156
4.02853,1478628
4.03665,1461501
4.04478,1457046
4.05290,1442299
4.06103,1450743
4.06915,1442268
4.07727,1420825
4.08540,1431541
4.09352,1435433
4.10163,1393810
4.10977,1389161
4.11788,1379357
4.12602,1367424
4.13413,1391578
4.14225,1446444
4.15038,1445133
4.15850,1444090
4.16663,1378719
4.17475,1339692
4.18287,1328493
4.19100,1322734
4.19912,1303105
4.20725,1292181
4.21537,1296021
4.22348,1265815
4.23162,1281199
4.23973,1282843
4.24785,1257126
4.25598,1239097
4.26410,1243129
4.27223,1236110
4.28035,1222550
4.28847,1225663
4.29660,1216128
4.30472,1207877
4.31285,1179576
4.32097,1198225
4.32908,1182615
4.33722,1183487
4.34533,1165183
4.35347,1166467
4.36158,1171824
4.36970,1173476
4.37783,1147656
4.38595,1135398
4.39407,1127366
4.40220,1099671
4.41032,1130827
4.41845,1120708
4.42657,1100942
4.43468,1111425
4.44282,1076445
4.45093,1100639
4.45907,1077121
4.46718,1090280
4.47530,1084255
4.48343,1097785
4.49155,1107844
4.49967,1125764
4.50780,1147398
4.51592,1120730
4.52405,1159568
4.53217,1114590
4.54028,1098960
4.54842,1099672
4.55653,1086373
4.56467,1095095
4.57278,1072432
4.58090,1053619
4.58903,1066274
4.59715,1025998
4.60528,1022545
4.61340,1023102
4.62152,1007280
4.62965,998962
4.63777,963895
4.64588,984472
4.65402,970639
4.66213,954919
4.67027,943437
4.67838,949919
4.68650,938950
4.69463,927772
4.70275,934022
4.71088,919132
4.71900,929699
4.72712,906850
4.73525,919323
4.74337,906140
4.75150,903824
4.75962,883962
4.76773,887847
4.77587,906886
4.78398,870479
4.79210,881629
4.80023,887492
4.80835,889425
4.81648,880609
4.82460,934285
4.83272,919669
4.84085,919492
4.84897,915960
4.85710,906479
4.86522,874613
4.87333,861488
4.88147,870097
4.88958,843709
4.89770,863099
4.90583,845171
4.91395,886119
4.92208,967982
4.93020,1134953
4.93832,1301972
4.94645,1405740
4.95457,1422064
4.96270,1365714
4.97082,1310333
4.97893,1265029
4.98707,1229219
4.99518,1205848
5.00332,1164010
5.01143,1159795
5.01955,1156921
5.02768,1126608
5.03580,1116864
5.04392,1106495
5.05205,1094626
5.06017,1081347
5.06830,1064103
5.07642,1061049
5.08453,1031690
5.09267,1018987
5.10078,1015707
5.10892,1016661
5.11703,989890
5.12515,1006577
5.13328,983525
5.14140,994386
5.14952,988166
5.15765,974749
5.16577,959470
5.17390,961543
5.18202,954959
5.19013,944778
5.19827,958107
5.20638,948067
5.21452,931434
5.22263,942800
5.23075,924974
5.23888,919946
5.24700,933152
5.25513,903864
5.26325,882653
5.27137,885746
5.27950,869644
5.28762,885308
5.29573,859548
5.30387,860388
5.31198,718385
5.32012,387698
5.32823,346478
5.33635,342353
5.34448,348268
5.35260,343412
5.36073,334109
5.36885,324179
5.37697,323428
5.38510,327402
5.39322,323672
5.40135,325821
5.40947,325731
5.41758,308728
5.42572,310341
5.43383,317354
5.44195,298353
5.45008,304250
5.45820,301155
5.46633,295517
5.47445,300516
5.48257,298173
5.49070,308850
5.49882,298081
5.50695,294037
5.51507,286579
5.52318,282626
5.53132,294286
5.53943,287707
5.54755,288010
5.55568,279998
5.56380,284001
5.57193,279215
5.58005,271148
5.58817,280941
5.59630,271716
5.60442,277857
5.61255,278980
5.62067,276596
5.62878,284517
5.63692,279188
5.64503,272547
5.65317,271287
5.66128,262026
5.66940,263371
5.67753,272638
5.68565,271617
5.69377,271308
5.70190,270093
5.71002,280312
5.71815,281506
5.72627,286300
5.73438,288066
5.74252,297193
5.75063,297249
5.75877,290350
5.76688,298100
5.77500,294726
5.78313,301374
5.79125,299428
5.79938,296154
5.80750,301715
5.81562,298886
5.82375,296255
5.83187,293529
5.83998,277521
5.84812,279599
5.85623,278292
5.86437,268353
5.87248,260079
5.88060,273495
5.88873,261119
5.89685,262319
5.90498,255308
5.91310,224406
5.92122,196457
5.92935,190842
5.93747,184825
5.94558,188431
5.95372,186710
5.96183,188901
5.96997,186317
5.97808,189725
5.98620,182838
5.99433,188551
6.00245,188254
6.01058,186891
6.01870,175946
6.02682,181176
6.03495,183859
6.04307,177509
6.05120,178555
6.05932,175724
6.06743,170564
6.07557,179240
6.08368,181010
6.09180,176147
6.09993,181564
6.10805,177922
6.11618,176394
6.12430,174092
6.13242,177358
6.14055,177515
6.14867,180098
6.15680,187423
6.16492,187440
6.17303,183711
6.18117,184448
6.18928,190955
6.19740,188313
6.20553,188400
6.21365,190464
6.22178,188684
6.22990,194995
6.23802,203745
6.24615,200417
6.25427,193912
6.26240,200256
6.27052,198387
6.27863,198512
6.28677,200933
6.29488,209229
6.30302,208044
6.31113,207758
6.31925,201520
6.32738,206205
6.33550,206109
6.34362,202588
6.35175,196126
6.35987,182651
6.36800,176562
6.37612,182315
6.38423,173728
6.39237,174631
6.40048,171618
6.40862,172538
6.41673,165090
6.42485,163503
6.43298,161164
6.44110,167198
6.44923,165774
6.45735,164643
6.46547,168567
6.47360,161548
6.48172,160403
6.48983,157931
6.49797,160107
6.50608,149293
6.51422,157571
6.52233,163602
6.53045,154594
6.53858,157386
6.54670,160895
6.55483,152205
6.56295,149676
6.57107,156831
6.57920,148897
6.58732,157392
6.59543,145377
6.60357,151028
6.61168,144636
6.61982,152325
6.62793,141918
6.63605,147238
6.64418,143580
6.65230,146072
6.66043,144067
6.66855,145588
6.67667,140576
6.68480,141460
6.69292,140984
6.70105,141064
6.70917,137048
6.71728,140587
6.72542,140279
6.73353,144033
6.74165,137919
6.74978,135171
6.75790,138983
6.76603,133361
6.77415,132075
6.78227,141990
6.79040,136371
6.79852,136250
6.80665,138313
6.81477,132978
6.82288,134981
6.83102,138535
6.83913,140519
6.84727,120704
6.85538,108797
6.86350,95089
6.87163,105793
6.87975,120216
6.88787,129422
6.89600,129711
6.90412,114243
6.91225,90139
6.92037,83191
6.92848,76746
6.93662,77522
6.94473,80118
6.95287,78603
6.96098,78211
6.96910,73572
6.97723,73983
6.98535,77425
6.99347,73233
7.00160,71196
7.00972,70162
7.01785,66615
7.02597,68494
7.03408,71727
7.04222,73115
7.05033,71818
7.05847,68370
7.06658,76159
7.07470,68795
7.08283,71619
7.09095,68343
7.09908,71458
7.10720,69433
7.11532,69281
7.12345,68257
7.13157,67706
7.13968,64960
7.14782,71312
7.15593,64940
7.16407,66780
7.17218,69417
7.18030,66644
7.18843,67495
7.19655,64862
7.20468,64998
7.21280,71995
7.22092,65619
7.22905,69763
7.23717,61975
7.24530,64816
7.25342,64113
7.26153,64586
7.26967,66604
7.27778,68474
7.28590,65297
7.29403,69643
7.30215,66572
7.31028,67126
7.31840,59576
7.32652,61352
7.33465,60418
7.34277,62318
7.35090,62499
7.35902,61769
7.36713,61588
7.37527,64258
7.38338,63763
7.39150,61779
7.39963,61317
7.40775,65294
7.41588,62134
7.42400,62565
7.43212,60670
7.44025,62970
7.44837,64859
7.45650,62037
7.46462,66655
7.47273,75219
7.48087,72944
7.48898,78493
7.49712,77631
7.50523,76495
7.51335,78380
7.52148,80046
7.52960,80144
7.53772,73034
7.54585,74832
7.55397,67254
7.56210,68662
7.57022,67244
7.57833,63050
7.58647,58395
7.59458,63295
7.60272,63616
7.61083,64913
7.61895,60999
7.62708,61090
7.63520,59089
7.64332,64335
7.65145,55281
7.65957,62249
7.66770,61331
7.67582,55456
7.68393,59444
7.69207,63648
7.70018,57380
7.70832,59378
7.71643,57903
7.72455,57607
7.73268,63616
7.74080,61264
7.74893,58378
7.75705,58470
7.76517,58671
7.77330,57473
7.78142,61523
7.78953,54639
7.79767,57712
7.80578,55854
7.81392,53072
7.82203,56433
7.83015,59351
7.83828,66248
7.84640,76162
7.85453,82492
7.86265,80158
7.87077,79602
7.87890,64267
7.88702,59566
7.89515,55633
7.90327,56046
7.91138,57836
7.91952,55720
7.92763,54392
7.93575,53955
7.94388,54391
7.95200,55592
7.96013,54778
7.96825,57832
7.97637,55832
7.98450,65378
7.99262,53099
8.00075,54537
8.00887,57754
8.01698,53242
8.02512,52245
8.03323,54654
8.04135,54541
8.04948,56518
8.05760,51553
8.06573,51590
8.07385,51928
8.08197,56273
8.09010,55152
8.09822,59234
8.10635,54542
8.11447,53941
8.12258,53810
8.13072,51058
8.13883,56418
8.14697,51561
8.15508,50559
8.16320,53715
8.17133,51237
8.17945,52854
8.18757,51000
8.19570,52427
8.20382,54592
8.21195,51336
8.22007,56727
8.22818,50441
8.23632,51739
8.24443,52928
8.25257,48616
8.26068,59433
8.26880,53318
8.27693,53013
8.28505,47062
8.29318,47644
8.30130,52225
8.30942,50276
8.31755,54337
8.32567,54845
8.33378,52444
8.34192,50639
8.35003,52251
8.35817,51227
8.36628,52699
8.37440,51539
8.38253,54024
8.39065,50395
8.39878,51059
8.40690,52069
8.41502,54787
8.42315,50184
8.43127,47219
8.43938,41947
8.44752,43648
8.45563,44407
8.46377,45739
8.47188,47188
8.48000,43870
8.48813,43191
8.49625,44496
8.50438,44713
8.51250,46859
8.52062,44404
8.52875,39060
8.53687,41702
8.54500,40254
8.55312,42547
8.56123,46222
8.56937,45115
8.57748,44123
8.58560,51048
8.59373,52880
8.60185,68635
8.60998,81399
8.61810,86817
8.62622,84021
8.63435,79503
8.64247,79619
8.65060,61027
8.65872,53829
8.66683,48783
8.67497,48328
8.68308,46223
8.69120,47138
8.69933,44791
8.70745,48700
8.71558,53532
8.72370,76831
8.73182,109439
8.73995,173781
8.74807,232486
8.75620,273468
8.76432,302001
8.77243,300248
8.78057,295787
8.78868,287269
8.79682,261288
8.80493,259244
8.81305,251772
8.82118,237558
8.82930,235767
8.83742,218556
8.84555,213002
8.85367,212350
8.86180,212855
8.86992,193702
8.87803,194753
8.88617,190756
8.89428,183692
8.90242,185626
8.91053,183208
8.91865,172669
8.92678,167781
8.93490,166555
8.94303,162535
8.95115,167532
8.95927,158105
8.96740,155219
8.97552,152029
8.98363,151872
8.99177,150096
8.99988,143116
9.00802,144933
9.01613,141624
9.02425,140790
9.03238,139560
9.04050,131439
9.04863,138166
9.05675,131879
9.06487,126135
9.07300,124769
9.08112,129148
9.08925,123416
9.09737,121628
9.10548,119141
9.11362,117655
9.12173,113797
9.12985,114654
9.13798,119538
9.14610,117759
9.15423,112489
9.16235,113770
9.17047,108218
9.17860,110970
9.18672,110282
9.19485,104802
9.20297,109637
9.21108,104606
9.21922,105339
9.22733,102963
9.23545,99681
9.24358,100215
9.25170,93833
9.25983,98586
9.26795,97310
9.27607,98351
9.28420,99257
9.29232,91482
9.30045,94255
9.30857,94827
9.31668,88869
9.32482,92199
9.33293,80696
9.34107,91303
9.34918,84737
9.35730,85386
9.36543,87325
9.37355,84084
9.38167,77910
9.38980,84427
9.39792,79754
9.40605,77287
9.41417,74931
9.42228,72650
9.43042,78250
9.43853,74491
9.44667,79482
9.45478,81231
9.46290,71296
9.47103,80285
9.47915,72428
9.48727,71011
9.49540,67677
9.50352,66228
9.51165,62608
9.51977,50962
9.52788,43333
9.53602,38062
9.54413,32141
9.55227,36604
9.56038,35482
9.56850,35736
9.57663,40444
9.58475,37884
9.59288,37495
9.60100,35313
9.60912,35068
9.61725,34604
9.62537,35515
9.63348,32664
9.64162,32812
9.64973,30663
9.65787,30341
9.66598,32562
9.67410,34912
9.68223,32176
9.69035,32441
9.69848,33927
9.70660,30631
9.71472,30872
9.72285,30479
9.73097,32636
9.73910,29909
9.74722,31956
9.75533,31789
9.76347,30632
9.77158,27484
9.77970,35095
9.78783,29478
9.79595,28712
9.80408,28028
9.81220,30563
9.82032,28395
9.82845,33024
9.83657,32176
9.84470,30740
9.85282,29763
9.86093,32584
9.86907,30707
9.87718,32698
9.88530,30524
9.89343,31179
9.90155,29812
9.90968,29936
9.91780,26848
9.92592,28519
9.93405,29039
9.94217,26301
9.95030,33791
9.95842,30205
9.96653,28284
9.97467,27921
9.98278,35926
9.99092,34406
9.99903,34668
10.00715,35615
10.01528,37395
10.02340,41161
10.03152,34663
10.03965,34223
10.04777,32306
10.05590,32544
10.06402,37853
10.07213,34392
10.08027,33174
10.08838,33583
10.09652,33169
10.10463,34436
10.11275,30059
10.12088,29686
10.12900,33117
10.13713,31498
10.14525,36989
10.15337,30251
10.16150,28365
10.16962,32641
10.17773,28593
10.18587,33378
10.19398,31341
10.20212,34054
10.21023,28250
10.21835,29014
10.22648,31430
10.23460,27741
10.24273,29581
10.25085,29183
10.25897,28108
10.26710,29985
10.27522,30805
10.28333,32647
10.29147,30215
10.29958,33095
10.30772,31856
10.31583,32788
10.32395,31896
10.33208,33394
10.34020,31902
10.34833,33074
10.35645,29876
10.36457,30540
10.37270,30731
10.38082,32015
10.38895,31552
10.39707,29711
10.40518,29451
10.41332,27798
10.42143,32653
10.42955,28932
10.43768,29355
10.44580,28517
10.45393,29811
10.46205,31078
10.47017,26414
10.47830,27134
10.48642,27293
10.49455,27773
10.50267,27172
10.51078,26662
10.51892,29690
10.52703,27659
10.53515,32677
10.54328,30196
10.55140,27741
10.55953,30486
10.56765,34034
10.57577,26619
10.58390,29838
10.59202,28462
10.60015,28075
10.60827,27244
10.61638,27561
10.62452,31467
10.63263,31411
10.64077,26163
10.64888,27844
10.65700,26365
10.66513,27242
10.67325,31386
10.68137,30031
10.68950,27523
10.69762,29012
10.70575,31960
10.71387,28795
10.72198,27236
10.73012,29347
10.73823,27103
10.74637,24479
10.75448,27809
10.76260,28408
10.77073,33108
10.77885,30281
10.78698,29657
10.79510,30820
10.80322,29042
10.81135,28792
10.81947,30451
10.82758,29201
10.83572,28962
10.84383,24539
10.85197,28427
10.86008,27255
10.86820,30781
10.87633,29523
10.88445,29289
10.89258,25359
10.90070,30714
10.90882,27268
10.91695,27461
10.92507,27407
10.93318,26490
10.94132,24970
10.94943,26067
10.95757,27148
10.96568,24944
10.97380,25942
10.98193,24901
10.99005,25558
10.99818,24034
11.00630,24403
11.01442,27019
11.02255,25652
11.03067,22522
11.03880,24724
11.04692,23903
11.05503,24720
11.06317,24859
11.07128,26170
11.07940,27081
11.08753,31165
11.09565,28535
11.10378,32589
11.11190,30764
11.12002,27885
11.12815,24891
11.13627,23822
11.14440,24606
11.15252,24735
11.16063,23708
11.16877,24191
11.17688,25859
11.18502,25583
11.19313,25893
11.20125,23303
11.20938,24942
11.21750,25257
11.22562,26952
11.23375,23070
11.24187,23211
11.25000,28219
11.25812,22177
11.26623,22949
11.27437,28662
11.28248,24191
11.29062,24004
11.29873,22934
11.30685,24122
11.31498,25046
11.32310,23327
11.33122,28641
11.33935,23449
11.34747,24880
11.35560,25508
11.36372,23220
11.37183,23939
11.37997,22352
11.38808,27010
11.39622,24452
11.40433,23672
11.41245,22974
11.42058,24559
11.42870,23701
11.43683,26175
11.44495,22933
11.45307,24238
11.46120,21098
11.46932,22150
11.47743,24359
11.48557,24745
11.49368,24286
11.50182,23014
11.50993,24758
11.51805,23116
11.52618,20581
11.53430,21179
11.54243,22779
11.55055,25545
11.55867,24875
11.56680,25341
11.57492,22005
11.58305,26992
11.59117,23102
11.59928,27314
11.60742,27955
11.61553,28527
11.62365,28819
11.63178,24216
11.63990,23315
11.64803,25285
11.65615,20615
11.66427,21290
11.67240,24447
11.68052,23731
11.68865,23132
11.69677,26163
11.70488,27027
11.71302,30180
11.72113,37526
11.72925,28672
11.73738,31855
11.74550,32212
11.75363,27309
11.76175,29635
11.76987,32124
11.77800,28250
11.78612,32196
11.79425,29420
11.80237,28886
11.81048,26342
11.81862,28954
11.82673,27925
11.83487,27279
11.84298,29672
11.85110,29072
11.85923,25311
11.86735,25037
11.87547,27199
11.88360,28427
11.89172,25406
11.89985,26871
11.90797,26290
11.91608,25427
11.92422,25833
11.93233,25201
11.94047,23741
11.94858,30497
11.95670,29184
11.96483,26407
11.97295,24328
11.98107,25488
11.98920,27604
11.99732,27754
12.00545,29263
12.01357,24586
12.02168,23161
12.02982,23033
12.03793,31693
12.04607,26843
12.05418,26267
12.06230,27784
12.07043,25853
12.07855,25308
12.08668,26047
12.09480,25463
12.10292,24826
12.11105,24746
12.11917,21574
12.12728,23980
12.13542,25153
12.14353,27680
12.15167,27668
12.15978,27164
12.16790,27632
12.17603,25915
12.18415,24139
12.19228,25223
12.20040,25613
12.20852,24988
12.21665,19952
12.22477,27876
12.23290,23661
12.24102,27378
12.24913,22662
12.25727,23675
12.26538,21838
12.27350,25711
12.28163,23718
12.28975,22825
12.29788,25805
12.30600,24293
12.31412,24835
12.32225,24599
12.33037,27898
12.33850,24481
12.34662,26146
12.35473,30192
12.36287,27251
12.37098,28091
12.37910,24973
12.38723,22699
12.39535,21284
12.40348,24346
12.41160,24723
12.41972,23201
12.42785,26458
12.43597,23725
12.44410,22492
12.45222,26406
12.46033,25012
12.46847,24529
12.47658,24969
12.48472,27177
12.49283,27171
12.50095,23940
12.50908,25406
12.51720,24601
12.52532,24602
12.53345,26194
12.54157,23030
12.54970,23934
12.55782,20703
12.56593,23047
12.57407,24235
12.58218,23561
12.59032,21840
12.59843,21214
12.60655,24321
12.61468,23061
12.62280,23780
12.63093,20540
12.63905,24702
12.64717,20743
12.65530,22629
12.66342,23302
12.67153,22075
12.67967,22098
12.68778,21951
12.69592,19150
12.70403,21591
12.71215,22654
12.72028,25725
12.72840,22506
12.73653,23967
12.74465,21251
12.75277,23490
12.76090,23731
12.76902,24935
12.77713,22948
12.78527,22729
12.79338,21083
12.80152,20440
12.80963,23924
12.81775,21295
12.82588,22132
12.83400,22621
12.84213,25867
12.85025,20980
12.85837,23835
12.86650,19648
12.87462,24389
12.88275,20898
12.89087,21186
12.89898,22363
12.90712,22058
12.91523,21687
12.92335,24192
12.93148,22324
12.93960,22257
12.94773,21651
12.95585,18710
12.96397,24071
12.97210,21733
12.98022,21515
12.98835,24249
12.99647,23068
13.00458,23375
13.01272,21084
13.02083,22692
13.02895,21973
13.03708,23728
13.04520,21067
13.05333,22716
13.06145,22481
13.06957,21379
13.07770,20433
13.08582,22322
13.09395,24122
13.10207,24828
13.11018,25184
13.11832,20492
13.12643,22059
13.13457,27687
13.14268,22577
13.15080,24833
13.15893,22923
13.16705,23759
13.17517,28532
13.18330,23841
13.19142,24266
13.19955,23076
13.20767,22650
13.21578,25022
13.22392,21559
13.23203,22013
13.24017,23894
13.24828,21765
13.25640,24322
13.26453,22785
13.27265,21586
13.28078,21415
13.28890,21766
13.29702,23250
13.30515,20603
13.31327,23540
13.32138,28985
13.32952,23499
13.33763,24861
13.34577,26072
13.35388,23955
13.36200,24393
13.37013,18788
13.37825,22293
13.38638,22591
13.39450,21140
13.40262,22470
13.41075,19628
13.41887,25144
13.42698,21648
13.43512,20860
13.44323,20539
13.45137,20162
13.45948,21513
13.46760,19887
13.47573,20849
13.48385,24907
13.49198,20196
13.50010,22112
13.50822,23678
13.51635,21997
13.52447,23303
13.53260,19834
13.54072,25401
13.54883,25995
13.55697,21972
13.56508,20772
13.57320,18023
13.58133,18988
13.58945,23026
13.59758,18225
13.60570,20777
13.61382,21789
13.62195,18915
13.63007,20076
13.63820,25294
13.64632,22091
13.65443,22075
13.66257,22087
13.67068,21501
13.67882,22670
13.68693,20745
13.69505,22130
13.70318,21814
13.71130,21110
13.71942,20633
13.72755,21036
13.73567,17996
13.74380,21235
13.75192,22123
13.76003,19635
13.76817,20555
13.77628,22028
13.78442,22917
13.79253,21320
13.80065,23165
13.80878,20072
13.81690,22124
13.82502,19421
13.83315,22962
13.84127,20456
13.84940,20185
13.85752,21598
13.86563,20262
13.87377,20736
13.88188,20398
13.89002,27023
13.89813,23823
13.90625,20096
13.91438,19818
13.92250,22179
13.93063,22614
13.93875,21172
13.94687,19546
13.95500,27619
13.96312,21804
13.97123,18974
13.97937,20142
13.98748,24022
13.99562,24701
14.00373,24138
14.01185,19736
14.01998,18929
14.02810,18984
14.03623,20680
14.04435,24072
14.05247,23000
14.06060,21150
14.06872,21479
14.07683,21179
14.08497,25317
14.09308,26208
14.10122,27992
14.10933,37280
14.11745,53385
14.12558,84255
14.13370,118081
14.14183,155263
14.14995,183777
14.15807,192491
14.16620,187136
14.17432,170311
14.18245,152027
14.19057,146557
14.19868,131661
14.20682,123441
14.21493,115192
14.22305,108286
14.23118,99163
14.23930,94531
14.24743,90270
14.25555,89559
14.26367,81162
14.27180,77557
14.27992,71144
14.28805,65237
14.29617,54730
14.30428,45519
14.31242,38615
14.32053,34314
14.32867,27930
14.33678,25702
14.34490,26727
14.35303,32337
14.36115,26134
14.36927,26962
14.37740,25723
14.38552,25995
14.39365,26455
14.40177,24695
14.40988,24778
14.41802,27511
14.42613,23240
14.43427,24656
14.44238,24328
14.45050,24786
14.45863,24906
14.46675,23194
14.47488,24504
14.48300,22800
14.49112,21176
14.49925,26793
14.50737,24159
14.51548,20393
14.52362,24670
14.53173,21517
14.53987,21930
14.54798,21458
14.55610,24861
14.56423,21285
14.57235,20948
14.58048,22932
14.58860,21079
14.59672,22769
14.60485,23435
14.61297,22445
14.62108,22771
14.62922,23539
14.63733,23353
14.64547,25148
14.65358,23529
14.66170,23269
14.66983,22585
14.67795,22265
14.68608,22120
14.69420,26332
14.70232,19979
14.71045,21551
14.71857,20084
14.72670,21069
14.73482,21216
14.74293,20943
14.75107,21860
14.75918,20501
14.76730,21263
14.77543,24843
14.78355,29118
14.79168,37013
14.79980,58713
14.80792,67486
14.81605,85665
14.82417,80080
14.83230,72038
14.84042,57332
14.84853,51507
14.85667,39551
14.86478,38368
14.87290,33338
14.88103,33710
14.88915,33539
14.89728,31628
14.90540,28670
14.91352,30029
14.92165,30363
14.92977,27538
14.93790,28500
14.94602,28649
14.95413,26558
14.96227,27859
14.97038,26363
14.97852,26356
14.98663,27642
14.99475,25913
15.00288,28849
15.01100,25440
15.01912,29568
15.02725,24057
15.03537,25732
15.04350,24072
15.05162,25845
15.05973,25905
15.06787,24854
15.07598,25064
15.08412,25797
15.09223,25610
15.10035,25848
15.10848,31935
15.11660,37504
15.12473,40498
15.13285,43720
15.14097,40222
15.14910,38679
15.15722,33910
15.16533,28300
15.17347,26650
15.18158,25810
15.18972,27070
15.19783,26018
15.20595,23865
15.21408,28844
15.22220,22352
15.23033,27420
15.23845,25920
15.24657,26038
15.25470,20015
15.26282,22934
15.27093,21677
15.27907,23029
15.28718,21242
15.29532,21182
15.30343,23878
15.31155,21804
15.31968,22518
15.32780,18422
15.33593,20730
15.34405,19751
15.35217,20467
15.36030,20172
15.36842,24727
15.37655,22530
15.38467,21474
15.39278,25438
15.40092,19323
15.40903,26096
15.41715,22473
15.42528,21219
15.43340,20884
15.44153,19913
15.44965,20188
15.45777,19489
15.46590,21066
15.47402,20059
15.48215,17841
15.49027,20110
15.49838,20116
15.50652,19408
15.51463,23541
15.52277,20434
15.53088,19532
15.53900,21936
15.54713,19982
15.55525,21336
15.56337,21537
15.57150,25230
15.57962,19821
15.58775,22806
15.59587,20885
15.60398,21695
15.61212,21887
15.62023,26518
15.62837,23557
15.63648,20319
15.64460,22615
15.65273,22237
15.66085,21798
15.66897,20150
15.67710,16931
15.68522,24100
15.69335,20613
15.70147,18336
15.70958,19276
15.71772,21215
15.72583,23953
15.73397,16505
15.74208,20909
15.75020,22308
15.75833,25533
15.76645,24412
15.77458,21980
15.78270,22114
15.79082,24309
15.79895,21133
15.80707,21984
15.81518,20581
15.82332,25359
15.83143,23041
15.83957,24217
15.84768,19673
15.85580,17979
15.86393,20684
15.87205,22817
15.88018,19028
15.88830,21426
15.89642,21564
15.90455,18517
15.91267,17520
15.92078,19882
15.92892,18276
15.93703,22294
15.94517,21080
15.95328,20665
15.96140,22266
15.96953,20264
15.97765,20562
15.98578,21446
15.99390,20360
16.00202,23833
16.01015,19978
16.01827,22126
16.02640,23270
16.03452,26132
16.04263,26300
16.05077,24555
16.05888,28812
16.06700,22960
16.07513,23215
16.08325,21451
16.09138,25260
16.09950,21235
16.10762,26942
16.11575,21833
16.12387,23789
16.13200,20484
16.14012,21023
16.14823,21006
16.15637,24689
16.16448,23181
16.17262,20004
16.18073,21686
16.18885,26035
16.19698,23827
16.20510,21310
16.21322,21524
16.22135,21776
16.22947,22646
16.23760,21689
16.24572,23583
16.25383,21092
16.26197,21350
16.27008,25095
16.27822,23293
16.28633,23648
16.29445,22913
16.30258,24082
16.31070,23581
16.31882,20745
16.32695,23438
16.33507,22288
16.34320,24534
16.35132,24448
16.35943,21893
16.36757,22528
16.37568,21821
16.38382,23295
16.39193,21019
16.40005,22953
16.40818,26741
16.41630,21034
16.42443,23643
16.43255,22785
16.44067,23193
16.44880,23726
16.45692,27177
16.46503,33455
16.47317,30973
16.48128,33425
16.48942,29803
16.49753,25858
16.50565,24761
16.51378,23855
16.52190,23814
16.53003,24596
16.53815,24227
16.54627,23565
16.55440,20354
16.56252,26147
16.57065,21473
16.57877,21915
16.58688,22620
16.59502,19301
16.60313,19898
16.61125,19421
16.61938,21099
16.62750,24594
16.63563,22239
16.64375,20684
16.65187,19259
16.66000,21385
16.66812,21353
16.67625,20678
16.68437,22151
16.69248,24508
16.70062,21968
16.70873,23146
16.71685,24275
16.72498,18767
16.73310,20682
16.74123,21119
16.74935,19844
16.75747,22060
16.76560,19539
16.77372,20734
16.78185,19217
16.78997,18977
16.79808,21800
16.80622,20883
16.81433,22103
16.82247,17314
16.83058,19677
16.83870,21771
16.84683,20620
16.85495,20960
16.86307,16537
16.87120,19895
16.87932,22007
16.88745,20693
16.89557,18786
16.90368,18514
16.91182,17573
16.91993,15963
16.92807,21301
16.93618,18500
16.94430,19557
16.95243,19239
16.96055,21472
16.96868,22109
16.97680,18869
16.98492,18935
16.99305,22911
17.00117,17441
17.00928,20721
17.01742,17673
17.02553,22829
17.03367,17875
17.04178,20380
17.04990,19890
17.05803,21522
17.06615,19220
17.07428,21703
17.08240,19633
17.09052,19721
17.09865,20354
17.10677,22741
17.11488,21594
17.12302,20109
17.13113,18506
17.13927,22312
17.14738,19668
17.15550,25220
17.16363,24952
17.17175,22090
17.17988,20419
17.18800,22217
17.19612,23563
17.20425,20590
17.21237,19611
17.22050,21383
17.22862,20506
17.23673,19734
17.24487,21710
17.25298,21748
17.26110,20235
17.26923,22919
17.27735,19829
17.28548,20754
17.29360,23273
17.30172,20777
17.30985,20724
17.31797,22720
17.32610,23970
17.33422,22779
17.34233,23812
17.35047,24983
17.35858,26479
17.36670,25672
17.37483,27762
17.38295,25232
17.39108,27486
17.39920,27031
17.40732,24392
17.41545,32327
17.42357,24877
17.43170,25175
17.43982,26057
17.44793,25947
17.45607,27056
17.46418,26754
17.47232,23626
17.48043,23326
17.48855,22923
17.49668,22514
17.50480,23583
17.51292,23683
17.52105,23723
17.52917,23884
17.53730,24995
17.54542,23648
17.55353,26771
17.56167,25230
17.56978,25115
17.57792,23037
17.58603,25442
17.59415,23242
17.60228,21180
17.61040,23321
17.61853,25166
17.62665,23446
17.63477,27441
17.64290,23199
17.65102,20871
17.65913,25545
17.66727,25100
17.67538,25156
17.68352,27809
17.69163,29836
17.69975,25851
17.70788,23345
17.71600,26640
17.72413,27156
17.73225,25140
17.74037,24441
17.74850,21868
17.75662,23125
17.76473,23998
17.77287,28018
17.78098,24658
17.78912,22684
17.79723,24867
17.80535,21274
17.81348,22632
17.82160,22050
17.82973,23056
17.83785,24317
17.84597,24208
17.85410,22449
17.86222,22938
17.87035,22740
17.87847,20461
17.88658,21854
17.89472,20183
17.90283,20208
17.91095,23169
17.91908,18914
17.92720,21862
17.93533,20727
17.94345,21814
17.95157,24776
17.95970,23601
17.96782,20811
17.97595,19229
17.98407,19910
17.99218,21553
18.00032,21952
18.00843,22425
18.01657,22378
18.02468,24587
18.03280,21407
18.04093,23881
18.04905,21795
18.05717,21888
18.06530,21940
18.07342,21245
18.08155,21348
18.08967,21876
18.09778,21814
18.10592,20054
18.11403,22436
18.12217,24368
18.13028,22378
18.13840,21205
18.14653,22815
18.15465,23194
18.16277,23150
18.17090,22988
18.17902,23588
18.18715,23613
18.19527,20303
18.20338,19340
18.21152,23105
18.21963,22200
18.22777,23102
18.23588,24123
18.24400,21149
18.25213,23978
18.26025,26920
18.26838,21434
18.27650,18864
18.28462,23295
18.29275,23275
18.30087,23713
18.30898,22446
18.31712,19994
18.32523,20576
18.33337,20606
18.34148,22900
18.34960,23448
18.35773,24627
18.36585,19199
18.37398,20751
18.38210,21108
18.39022,20729
18.39835,17658
18.40647,18043
18.41458,19413
18.42272,19811
18.43083,19472
18.43897,22949
18.44708,22292
18.45520,21674
18.46333,19974
18.47145,17993
18.47958,21630
18.48770,18778
18.49582,20659
18.50395,18063
18.51207,19463
18.52020,18889
18.52832,19400
18.53643,19066
18.54457,17569
18.55268,19192
18.56080,20919
18.56893,20813
18.57705,19732
18.58518,25689
18.59330,19647
18.60142,20363
18.60955,21573
18.61767,23556
18.62580,19794
18.63392,20932
18.64203,19302
18.65017,19637
18.65828,20439
18.66642,18487
18.67453,20016
18.68265,20139
18.69078,20617
18.69890,17225
18.70702,18773
18.71515,19425
18.72327,21342
18.73140,19746
18.73952,20406
18.74763,22110
18.75577,17888
18.76388,21410
18.77202,20525
18.78013,20349
18.78825,20926
18.79638,20042
18.80450,21873
18.81263,19338
18.82075,21603
18.82887,23372
18.83700,22275
18.84512,23858
18.85323,23561
18.86137,25502
18.86948,23551
18.87762,22991
18.88573,23131
18.89385,27436
18.90198,24480
18.91010,24830
18.91823,27150
18.92635,22999
18.93447,24708
18.94260,25279
18.95072,29652
18.95883,25546
18.96697,21761
18.97508,24277
18.98322,28223
18.99133,27129
18.99945,23815
19.00758,27301
19.01570,26284
19.02383,24914
19.03195,26433
19.04007,25630
19.04820,26276
19.05632,24931
19.06445,29152
19.07257,27542
19.08068,31298
19.08882,30068
19.09693,30663
19.10505,31944
19.11318,30473
19.12130,36167
19.12943,34655
19.13755,28503
19.14567,30912
19.15380,28981
19.16192,33640
19.17005,29017
19.17817,25709
19.18628,28099
19.19442,27056
19.20253,27134
19.21065,30129
19.21878,27309
19.22690,26482
19.23503,24061
19.24315,28510
19.25127,27980
19.25940,27833
19.26752,29660
19.27565,31867
19.28377,33052
19.29188,29008
19.30002,32064
19.30813,36288
19.31627,34319
19.32438,31826
19.33250,30912
19.34063,27711
19.34875,28771
19.35687,29472
19.36500,30327
19.37312,27253
19.38125,29939
19.38937,28468
19.39748,36579
19.40562,47455
19.41373,70866
19.42187,104034
19.42998,140782
19.43810,164653
19.44623,161366
19.45435,147140
19.46248,109369
19.47060,77235
19.47872,53024
19.48685,44495
19.49497,36873
19.50308,38396
19.51122,32714
19.51933,33844
19.52747,38270
19.53558,30521
19.54370,27568
19.55183,27512
19.55995,28185
19.56808,25065
19.57620,23869
19.58432,28483
19.59245,26633
19.60057,27125
19.60868,27240
19.61682,33464
19.62493,37788
19.63307,53908
19.64118,63222
19.64930,76509
19.65743,83022
19.66555,78490
19.67368,76407
19.68180,74929
19.68992,64555
19.69805,58537
19.70617,53572
19.71430,44090
19.72242,44979
19.73053,41468
19.73867,34161
19.74678,32456
19.75490,28363
19.76303,27157
19.77115,25447
19.77928,27709
19.78740,25301
19.79552,26061
19.80365,26422
19.81177,24852
19.81990,29332
19.82802,26305
19.83613,27150
19.84427,28767
19.85238,28829
19.86052,28499
19.86863,32065
19.87675,32604
19.88488,36915
19.89300,44237
19.90112,55642
19.90925,56327
19.91737,51666
19.92550,50401
19.93362,53526
19.94173,47945
19.94987,46503
19.95798,46802
19.96612,42035
19.97423,43145
19.98235,39264
19.99048,38508
19.99860,35382
20.00672,39202
20.01485,36046
20.02297,37599
20.03110,32198
20.03922,33543
20.04733,30991
20.05547,30211
20.06358,29728
20.07172,25543
20.07983,25840
20.08795,24646
20.09608,24440
20.10420,25041
20.11233,24653
20.12045,28076
20.12857,23701
20.13670,24281
20.14482,23859
20.15293,24867
20.16107,24862
20.16918,25392
20.17732,26266
20.18543,24986
20.19355,28141
20.20168,24600
20.20980,26883
20.21793,31482
20.22605,39072
20.23417,50612
20.24230,65428
20.25042,71575
20.25853,75099
20.26667,74026
20.27478,67988
20.28292,61749
20.29103,56689
20.29915,45322
20.30728,41746
20.31540,37195
20.32353,34994
20.33165,33228
20.33977,29818
20.34790,26988
20.35602,28787
20.36415,27510
20.37227,27372
20.38038,28790
20.38852,32882
20.39663,32194
20.40475,39960
20.41288,40985
20.42100,41174
20.42913,39877
20.43725,36606
20.44537,35538
20.45350,33532
20.46162,28336
20.46975,29805
20.47787,26808
20.48598,27416
20.49412,23025
20.50223,22658
20.51037,26973
20.51848,23109
20.52660,22902
20.53473,21272
20.54285,22281
20.55097,23334
20.55910,22821
20.56722,25295
20.57535,22434
20.58347,21814
20.59158,21041
20.59972,25239
20.60783,25626
20.61597,22447
20.62408,21767
20.63220,23655
20.64033,21742
20.64845,21675
20.65657,26051
20.66470,21612
20.67282,23332
20.68095,24049
20.68907,21275
20.69718,22097
20.70532,21641
20.71343,18016
20.72157,21291
20.72968,23386
20.73780,22055
20.74593,22154
20.75405,22789
20.76218,23068
20.77030,28213
20.77842,29243
20.78655,35405
20.79467,34092
20.80278,38479
20.81092,40625
20.81903,41976
20.82717,41324
20.83528,35639
20.84340,30359
20.85153,24598
20.85965,26350
20.86778,23917
20.87590,27616
20.88402,23478
20.89215,25688
20.90027,23606
20.90840,30206
20.91652,23820
20.92463,28322
20.93277,23220
20.94088,24000
20.94900,24615
20.95713,20201
20.96525,23394
20.97338,23157
20.98150,21652
20.98962,19921
20.99775,22404
21.00587,20104
21.01400,20866
21.02212,22975
21.03023,22544
21.03837,21280
21.04648,24362
21.05460,21672
21.06273,22656
21.07085,20604
21.07898,21637
21.08710,20509
21.09522,20541
21.10335,21573
21.11147,19544
21.11960,21634
21.12772,21855
21.13583,21321
21.14397,25877
21.15208,25585
21.16022,26291
21.16833,23552
21.17645,22611
21.18458,24872
21.19270,24031
21.20082,21467
21.20895,27372
21.21707,22730
21.22520,22892
21.23332,26293
21.24143,20531
21.24957,20899
21.25768,25237
21.26582,24090
21.27393,24468
21.28205,25123
21.29018,26106
21.29830,20948
21.30643,20326
21.31455,18874
21.32267,27159
21.33080,23433
21.33892,22240
21.34703,21677
21.35517,20762
21.36328,26185
21.37142,21791
21.37953,23249
21.38765,22210
21.39578,21221
21.40390,22618
21.41203,20674
21.42015,24138
21.42827,20590
21.43640,21592
21.44452,19353
21.45263,21656
21.46077,23258
21.46888,24680
21.47702,23002
21.48513,18234
21.49325,22969
21.50138,22385
21.50950,23535
21.51763,23554
21.52575,22202
21.53387,22993
21.54200,22366
21.55012,23765
21.55825,24006
21.56637,27664
21.57448,38350
21.58262,38677
21.59073,41841
21.59885,41300
21.60698,34432
21.61510,35391
21.62323,31346
21.63135,33308
21.63947,27492
21.64760,27027
21.65572,23571
21.66385,24304
21.67197,22552
21.68008,22802
21.68822,25036
21.69633,21132
21.70445,20478
21.71258,26831
21.72070,22506
21.72883,23691
21.73695,23636
21.74507,23985
21.75320,31067
21.76132,29656
21.76945,34789
21.77757,36887
21.78568,40057
21.79382,40353
21.80193,37293
21.81007,31100
21.81818,30548
21.82630,27804
21.83443,21908
21.84255,24099
21.85067,23619
21.85880,24369
21.86692,23033
21.87505,23674
21.88317,28019
21.89128,26354
21.89942,26084
21.90753,24394
21.91567,25366
21.92378,30413
21.93190,24983
21.94003,24342
21.94815,24590
21.95628,24541
21.96440,26679
21.97252,22049
21.98065,24672
21.98877,22367
21.99688,21828
22.00502,23152
22.01313,22145
22.02127,20310
22.02938,24812
22.03750,21628
22.04563,20421
22.05375,22030
22.06188,23251
22.07000,22394
22.07812,22923
22.08625,25031
22.09437,22062
22.10248,23818
22.11062,25283
22.11873,21243
22.12687,23120
22.13498,20764
22.14310,23694
22.15123,24135
22.15935,29943
22.16748,27972
22.17560,24364
22.18372,28972
22.19185,24905
22.19997,25201
22.20810,22320
22.21622,23371
22.22433,23587
22.23247,23921
22.24058,23691
22.24870,18906
22.25683,23508
22.26495,26245
22.27308,21223
22.28120,19418
22.28932,25182
22.29745,22808
22.30557,22290
22.31370,23836
22.32182,24529
22.32993,22190
22.33807,22892
22.34618,20887
22.35432,23088
22.36243,21529
22.37055,21832
22.37868,22787
22.38680,21653
22.39492,21270
22.40305,22577
22.41117,22017
22.41930,22730
22.42742,21163
22.43553,20724
22.44367,27743
22.45178,23019
22.45992,23997
22.46803,23622
22.47615,21522
22.48428,25426
22.49240,22437
22.50052,20422
22.50865,21497
22.51677,23608
22.52490,25549
22.53302,22590
22.54113,21538
22.54927,22448
22.55738,20799
22.56552,22059
22.57363,22270
22.58175,21093
22.58988,19831
22.59800,16790
22.60613,20412
22.61425,18961
22.62237,17722
22.63050,21231
22.63862,20583
22.64673,17985
22.65487,19477
22.66298,21247
22.67112,19254
22.67923,20154
22.68735,24479
22.69548,22059
22.70360,23384
22.71173,19213
22.71985,18904
22.72797,21194
22.73610,22736
22.74422,23362
22.75233,21959
22.76047,24047
22.76858,24034
22.77672,22903
22.78483,23096
22.79295,18562
22.80108,22035
22.80920,20269
22.81733,21245
22.82545,18334
22.83357,21039
22.84170,20146
22.84982,24241
22.85795,25668
22.86607,28184
22.87418,28639
22.88232,32896
22.89043,40100
22.89855,48058
22.90668,57195
22.91480,70919
22.92293,83929
22.93105,97262
22.93917,90794
22.94730,92217
22.95542,87771
22.96355,82447
22.97167,71980
22.97978,68877
22.98792,61557
22.99603,49990
23.00417,46126
23.01228,39400
23.02040,36040
23.02853,32664
23.03665,29355
23.04477,28445
23.05290,30309
23.06102,29660
23.06915,28690
23.07727,27824
23.08538,25560
23.09352,28213
23.10163,24355
23.10977,26928
23.11788,24485
23.12600,26019
23.13413,22727
23.14225,28644
23.15037,26013
23.15850,23613
23.16662,23304
23.17475,23451
23.18287,24620
23.19098,24156
23.19912,24501
23.20723,22300
23.21537,23462
23.22348,22766
23.23160,22931
23.23973,25455
23.24785,23463
23.25598,24875
23.26410,23485
23.27222,26111
23.28035,20299
23.28847,20709
23.29658,22502
23.30472,24890
23.31283,24188
23.32097,21394
23.32908,20803
23.33720,22347
23.34533,20264
23.35345,25704
23.36158,23076
23.36970,20893
23.37782,22821
23.38595,22783
23.39407,22041
23.40220,20255
23.41032,20412
23.41843,23650
23.42657,19361
23.43468,20896
23.44280,21591
23.45093,19517
23.45905,22228
23.46718,20602
23.47530,20865
23.48342,22082
23.49155,20737
23.49967,26409
23.50780,22471
23.51592,22950
23.52403,22993
23.53217,20383
23.54028,22553
23.54840,22652
23.55653,23956
23.56465,28580
23.57278,27156
23.58090,24352
23.58902,22560
23.59715,22746
23.60527,25346
23.61340,22510
23.62152,29184
23.62963,26401
23.63777,26187
23.64588,25847
23.65402,31417
23.66213,30446
23.67025,28091
23.67838,31156
23.68650,28264
23.69462,29850
23.70275,28910
23.71087,27160
23.71900,30777
23.72712,31072
23.73523,45781
23.74337,68621
23.75148,116441
23.75962,190940
23.76773,273039
23.77585,347726
23.78398,394903
23.79210,377957
23.80023,346102
23.80835,285149
23.81647,239731
23.82460,189824
23.83272,151005
23.84083,137231
23.84897,106524
23.85708,101903
23.86522,89894
23.87333,79406
23.88145,74119
23.88958,70972
23.89770,64270
23.90583,61249
23.91395,58162
23.92207,52473
23.93020,49537
23.93832,48120
23.94643,46478
23.95457,47415
23.96268,46791
23.97082,43947
23.97893,40188
23.98705,41775
23.99518,39786
24.00330,40394
24.01143,38685
24.01955,40863
24.02767,36398
24.03580,38338
24.04392,41296
24.05205,44094
24.06017,40357
24.06828,44788
24.07642,38205
24.08453,38678
24.09265,36228
24.10078,34232
24.10890,37549
24.11703,36397
24.12515,37505
24.13327,41558
24.14140,43273
24.14952,45300
24.15765,39248
24.16577,41376
24.17388,36985
24.18202,34287
24.19013,34019
24.19827,33120
24.20638,34767
24.21450,33631
24.22263,33398
24.23075,31951
24.23887,33574
24.24700,29705
24.25512,27907
24.26325,27065
24.27137,29401
24.27948,36330
24.28762,44647
24.29573,60431
24.30387,86016
24.31198,114971
24.32010,133958
24.32823,128808
24.33635,99984
24.34447,70592
24.35260,53852
24.36072,41769
24.36885,36803
24.37697,31554
24.38508,31369
24.39322,32462
24.40133,34162
24.40947,33906
24.41758,34097
24.42570,34940
24.43383,42010
24.44195,41086
24.45008,37362
24.45820,39912
24.46632,33818
24.47445,31976
24.48257,34712
24.49068,31657
24.49882,33259
24.50693,27101
24.51507,28805
24.52318,27624
24.53130,27855
24.53943,30022
24.54755,30521
24.55568,28305
24.56380,29239
24.57192,27150
24.58005,26409
24.58817,27390
24.59628,28157
24.60442,29730
24.61253,28663
24.62067,28519
24.62878,30405
24.63690,32880
24.64503,28087
24.65315,29857
24.66128,31590
24.66940,27713
24.67752,29911
24.68565,26540
24.69377,28226
24.70190,27718
24.71002,25515
24.71813,25719
24.72627,22012
24.73438,26159
24.74250,26423
24.75063,26150
24.75875,22991
24.76688,22965
24.77500,26393
24.78312,24319
24.79125,23251
24.79937,24503
24.80750,23597
24.81562,27132
24.82373,24752
24.83187,24341
24.83998,23753
24.84812,25065
24.85623,25410
24.86435,24286
24.87248,22055
24.88060,23822
24.88872,22512
24.89685,24833
24.90497,25375
24.91310,24168
24.92122,22689
24.92933,22292
24.93747,23166
24.94558,24402
24.95372,26815
24.96183,21591
24.96995,24228
24.97808,22582
24.98620,23295
24.99432,21862
25.00245,27387
25.01057,21997
25.01870,24607
25.02682,21142
25.03493,23063
25.04307,22522
25.05118,23617
25.05932,21705
25.06743,23120
25.07555,21486
25.08368,22293
25.09180,22448
25.09993,24567
25.10805,27924
25.11617,29427
25.12430,31579
25.13242,35383
25.14053,37482
25.14867,35223
25.15678,36285
25.16492,34169
25.17303,32310
25.18115,24704
25.18928,31356
25.19740,24328
25.20553,26813
25.21365,24596
25.22177,23376
25.22990,22137
25.23802,24950
25.24615,26650
25.25427,22796
25.26238,26539
25.27052,25422
25.27863,28700
25.28675,33754
25.29488,34040
25.30300,38604
25.31113,39835
25.31925,37674
25.32737,37748
25.33550,36453
25.34362,33019
25.35175,27031
25.35987,28088
25.36798,26790
25.37612,27397
25.38423,29486
25.39235,35089
25.40048,28461
25.40860,29512
25.41673,27047
25.42485,26509
25.43297,24016
25.44110,22984
25.44922,26850
25.45735,21628
25.46547,27927
25.47358,22289
25.48172,21469
25.48983,21300
25.49797,23448
25.50608,21075
25.51420,21293
25.52233,21233
25.53045,22883
25.53857,23280
25.54670,19460
25.55482,21013
25.56295,19638
25.57107,18708
25.57918,20450
25.58732,20347
25.59543,21397
25.60357,23201
25.61168,22667
25.61980,20876
25.62793,18271
25.63605,20821
25.64417,18472
25.65230,19246
25.66042,17806
25.66855,19926
25.67667,17516
25.68478,19487
25.69292,20878
25.70103,19634
25.70917,17839
25.71728,20143
25.72540,23585
25.73353,19828
25.74165,20454
25.74978,19718
25.75790,20974
25.76602,20670
25.77415,19688
25.78227,19889
25.79038,21635
25.79852,18388
25.80663,19186
25.81477,20785
25.82288,19068
25.83100,19523
25.83913,19271
25.84725,16893
25.85538,17939
25.86350,18856
25.87162,20950
25.87975,19588
25.88787,18846
25.89600,19069
25.90412,20692
25.91223,20040
25.92037,19987
25.92848,20414
25.93660,21478
25.94473,22117
25.95285,24107
25.96098,25678
25.96910,24982
25.97722,22281
25.98535,21075
25.99347,19654
26.00160,18192
26.00972,20468
26.01783,17308
26.02597,17997
26.03408,24490
26.04220,20147
26.05033,19532
26.05845,20141
26.06658,17821
26.07470,16203
26.08282,19065
26.09095,21828
26.09907,22236
26.10720,24224
26.11532,23258
26.12343,28697
26.13157,30270
26.13968,30709
26.14782,34383
26.15593,33934
26.16405,34026
26.17218,31768
26.18030,29975
26.18842,27241
26.19655,23591
26.20467,24473
26.21280,21740
26.22092,21148
26.22903,19282
26.23717,22928
26.24528,23419
26.25342,17802
26.26153,19881
26.26965,19212
26.27778,19326
26.28590,19378
26.29403,19679
26.30215,20947
26.31027,17898
26.31840,25862
26.32652,18850
26.33463,19037
26.34277,20424
26.35088,16557
26.35902,17813
26.36713,22998
26.37525,20757
26.38338,18920
26.39150,19325
26.39963,18748
26.40775,21191
26.41587,20079
26.42400,18318
26.43212,19113
26.44023,18679
26.44837,19766
26.45648,18469
26.46462,18977
26.47273,19301
26.48085,19359
26.48898,19411
26.49710,18779
26.50523,17946
26.51335,19555
26.52147,17284
26.52960,18689
26.53772,18115
26.54585,19375
26.55397,17617
26.56208,20140
26.57022,23289
26.57833,21769
26.58645,21254
26.59458,21717
26.60270,21246
26.61083,18695
26.61895,19882
26.62707,22498
26.63520,20919
26.64332,18396
26.65145,20171
26.65957,17589
26.66768,19622
26.67582,18121
26.68393,18313
26.69207,18767
26.70018,19764
26.70830,17174
26.71643,20127
26.72455,20299
26.73267,23673
26.74080,22031
26.74892,21907
26.75705,25087
26.76517,25730
26.77328,32013
26.78142,32284
26.78953,30516
26.79767,29091
26.80578,27107
26.81390,27358
26.82203,23266
26.83015,20758
26.83827,20280
26.84640,18919
26.85452,18144
26.86265,19632
26.87077,17792
26.87888,18241
26.88702,17359
26.89513,20127
26.90327,18459
26.91138,20081
26.91950,23496
26.92763,18205
26.93575,20301
26.94388,26883
26.95200,36526
26.96012,52627
26.96825,72721
26.97637,101248
26.98448,138568
26.99262,147822
27.00073,157020
27.00887,157706
27.01698,143552
27.02510,120531
27.03323,100582
27.04135,86183
27.04948,73778
27.05760,61626
27.06572,56494
27.07385,49455
27.08197,47342
27.09008,42288
27.09822,37136
27.10633,38791
27.11447,35987
27.12258,37202
27.13070,37343
27.13883,43194
27.14695,44147
27.15508,46613
27.16320,53952
27.17132,54065
27.17945,49825
27.18757,47969
27.19570,43568
27.20382,39710
27.21193,36544
27.22007,32057
27.22818,32186
27.23630,30547
27.24443,28296
27.25255,29061
27.26068,28619
27.26880,29717
27.27692,26679
27.28505,29396
27.29317,27411
27.30130,23779
27.30942,24464
27.31753,26956
27.32567,25651
27.33378,26368
27.34192,23940
27.35003,25064
27.35815,26505
27.36628,24021
27.37440,26739
27.38252,23921
27.39065,26098
27.39877,25387
27.40690,25935
27.41502,24036
27.42313,25214
27.43127,25413
27.43938,26139
27.44752,25860
27.45563,25779
27.46375,23156
27.47188,21915
27.48000,20861
27.48812,25110
27.49625,23034
27.50437,22418
27.51250,23627
27.52062,28297
27.52873,24635
27.53687,23175
27.54498,24379
27.55312,22086
27.56123,21845
27.56935,23461
27.57748,20977
27.58560,21083
27.59373,20351
27.60185,21372
27.60997,22155
27.61810,19765
27.62622,20378
27.63433,20965
27.64247,21675
27.65058,23037
27.65872,21854
27.66683,21641
27.67495,22058
27.68308,20445
27.69120,20174
27.69933,19541
27.70745,19167
27.71557,19372
27.72370,20993
27.73182,17085
27.73995,23339
27.74807,24553
27.75618,21158
27.76432,22330
27.77243,20864
27.78055,21653
27.78868,20923
27.79680,20280
27.80493,19490
27.81305,23595
27.82117,23665
27.82930,24943
27.83742,22424
27.84555,21984
27.85367,23928
27.86178,24892
27.86992,22839
27.87803,20400
27.88615,25364
27.89428,22124
27.90240,26228
27.91053,25246
27.91865,24613
27.92677,27182
27.93490,24457
27.94302,19471
27.95115,19341
27.95927,19575
27.96738,20338
27.97552,25828
27.98363,21398
27.99177,21329
27.99988,23026
28.00800,18933
28.01613,19280
28.02425,21323
28.03237,18220
28.04050,19286
28.04862,21174
28.05675,19952
28.06487,20146
28.07298,20089
28.08112,24519
28.08923,21915
28.09737,27127
28.10548,28642
28.11360,30992
28.12173,27348
28.12985,26583
28.13797,22538
28.14610,21984
28.15422,20850
28.16235,20128
28.17047,22221
28.17858,19752
28.18672,19141
28.19483,21267
28.20297,23492
28.21108,19677
28.21920,18509
28.22733,19291
28.23545,20005
28.24358,25799
28.25170,27092
28.25982,33213
28.26795,47014
28.27607,58270
28.28418,76356
28.29232,81492
28.30043,95027
28.30857,104362
28.31668,110778
28.32480,98208
28.33293,99638
28.34105,103309
28.34918,92113
28.35730,85725
28.36542,74818
28.37355,68638
28.38167,60197
28.38980,59164
28.39792,56344
28.40603,51097
28.41417,51129
28.42228,43554
28.43040,41109
28.43853,39828
28.44665,35747
28.45478,35825
28.46290,36752
28.47102,36860
28.47915,30931
28.48727,33511
28.49540,30180
28.50352,32283
28.51163,32756
28.51977,29689
28.52788,31467
28.53600,30392
28.54413,28972
28.55225,26183
28.56038,26772
28.56850,30104
28.57662,27347
28.58475,26874
28.59287,27138
28.60100,29676
28.60912,26439
28.61723,30015
28.62537,30180
28.63348,37144
28.64162,41575
28.64973,53299
28.65785,58441
28.66598,72639
28.67410,93090
28.68222,95391
28.69035,88512
28.69847,80123
28.70660,64680
28.71472,47784
28.72283,35188
28.73097,31206
28.73908,29154
28.74722,27144
28.75533,27204
28.76345,25274
28.77158,24778
28.77970,28889
28.78783,24336
28.79595,25358
28.80407,22990
28.81220,24579
28.82032,23326
28.82843,25116
28.83657,22151
28.84468,22174
28.85282,22463
28.86093,23341
28.86905,24514
28.87718,26493
28.88530,26373
28.89343,20178
28.90155,22891
28.90967,28524
28.91780,23231
28.92592,25918
28.93403,26549
28.94217,27842
28.95028,29847
28.95842,28531
28.96653,30393
28.97465,27076
28.98278,27180
28.99090,25238
28.99903,25100
29.00715,24211
29.01527,26073
29.02340,19682
29.03152,24579
29.03965,22341
29.04777,22122
29.05588,24074
29.06402,21106
29.07213,21464
29.08025,24908
29.08838,22338
29.09650,21661
29.10463,25247
29.11275,24106
29.12087,21809
29.12900,23303
29.13712,22416
29.14525,23678
29.15337,25297
29.16148,28568
29.16962,24988
29.17773,27094
29.18585,25968
29.19398,25043
29.20210,23047
29.21023,21109
29.21835,24408
29.22647,24221
29.23460,25610
29.24272,22514
29.25085,20784
29.25897,22133
29.26708,23207
29.27522,23546
29.28333,23923
29.29147,23493
29.29958,23478
29.30770,20686
29.31583,21701
29.32395,25545
29.33207,21286
29.34020,19695
29.34832,21377
29.35645,23016
29.36457,24348
29.37268,23886
29.38082,27835
29.38893,27784
29.39707,26668
29.40518,28131
29.41330,23948
29.42143,23634
29.42955,23778
29.43768,20593
29.44580,23301
29.45392,25189
29.46205,26315
29.47017,24620
29.47828,25931
29.48642,28555
29.49453,29690
29.50267,28943
29.51078,28268
29.51890,28076
29.52703,28556
29.53515,25438
29.54328,26776
29.55140,24651
29.55952,22036
29.56765,21160
29.57577,22216
29.58390,20567
29.59202,21404
29.60013,23439
29.60827,22866
29.61638,22215
29.62450,24177
29.63263,25592
29.64075,21098
29.64888,24122
29.65700,21867
29.66512,22576
29.67325,19812
29.68137,22200
29.68950,20310
29.69762,23312
29.70573,22891
29.71387,19661
29.72198,20255
29.73010,22254
29.73823,17572
29.74635,20754
29.75448,22090
29.76260,21847
29.77072,24227
29.77885,20696
29.78697,19390
29.79510,20447
29.80322,19243
29.81133,20433
29.81947,20640
29.82758,20916
29.83572,20093
29.84383,23951
29.85195,23875
29.86008,25070
29.86820,30547
29.87632,38998
29.88445,44225
29.89257,52198
29.90070,58935
29.90882,68217
29.91693,76219
29.92507,80779
29.93318,86334
29.94132,86573
29.94943,89773
29.95755,90701
29.96568,87439
29.97380,81915
29.98192,79328
29.99005,81038
29.99817,75134
30.00630,68209
30.01442,66453
30.02253,65959
30.03067,62237
30.03878,57399
30.04692,50049
30.05503,57414
30.06315,51575
30.07128,51523
30.07940,45384
30.08753,42372
30.09565,39711
30.10377,35368
30.11190,41997
30.12002,36039
30.12813,34696
30.13627,36525
30.14438,33587
30.15252,32305
30.16063,31631
30.16875,33364
30.17688,32193
30.18500,36701
30.19313,30301
30.20125,32470
30.20937,30357
30.21750,28303
30.22562,28788
30.23375,27710
30.24187,29552
30.24998,33803
30.25812,30568
30.26623,32555
30.27435,31508
30.28248,29012
30.29060,31359
30.29873,27578
30.30685,27927
30.31497,27975
30.32310,26651
30.33122,24833
30.33935,26412
30.34747,27840
30.35558,23810
30.36372,24697
30.37183,29982
30.37995,26285
30.38808,24872
30.39620,26101
30.40433,26877
30.41245,27105
30.42057,26759
30.42870,26186
30.43682,26060
30.44495,28389
30.45307,26843
30.46118,30778
30.46932,24002
30.47743,30774
30.48557,23117
30.49368,24695
30.50180,26684
30.50993,29242
30.51805,23009
30.52617,24325
30.53430,24518
30.54242,24920
30.55055,26959
30.55867,23236
30.56678,23125
30.57492,22831
30.58303,23717
30.59117,26259
30.59928,22782
30.60740,26703
30.61553,23615
30.62365,21978
30.63178,26100
30.63990,24146
30.64802,23861
30.65615,25836
30.66427,24995
30.67238,23330
30.68052,23951
30.68863,24513
30.69677,21948
30.70488,25212
30.71300,23534
30.72113,22826
30.72925,22144
30.73738,22169
30.74550,22449
30.75362,24323
30.76175,25030
30.76987,25407
30.77798,24859
30.78612,27924
30.79423,29213
30.80237,30797
30.81048,28657
30.81860,25653
30.82673,23626
30.83485,23553
30.84298,25532
30.85110,19480
30.85922,22651
30.86735,19867
30.87547,24485
30.88360,23486
30.89172,22498
30.89983,25325
30.90797,23604
30.91608,23597
30.92420,26977
30.93233,22733
30.94045,22880
30.94858,24261
30.95670,24387
30.96482,23759
30.97295,21931
30.98107,22521
30.98920,22009
30.99732,22630
31.00543,22812
31.01357,23320
31.02168,25425
31.02980,24631
31.03793,23869
31.04605,25361
31.05418,22565
31.06230,26347
31.07042,27858
31.07855,31806
31.08667,31088
31.09480,35750
31.10292,30634
31.11103,25811
31.11917,25416
31.12728,25181
31.13542,25151
31.14353,24461
31.15165,27484
31.15978,31553
31.16790,32691
31.17602,40276
31.18415,46352
31.19227,56803
31.20040,65627
31.20852,64701
31.21663,63917
31.22477,52416
31.23288,45093
31.24102,36517
31.24913,29761
31.25725,26868
31.26538,25459
31.27350,25250
31.28163,27646
31.28975,22314
31.29787,29114
31.30600,27947
31.31412,26819
31.32223,25212
31.33037,28796
31.33848,25078
31.34662,25607
31.35473,26821
31.36285,22971
31.37098,24074
31.37910,25505
31.38723,24982
31.39535,24575
31.40347,26421
31.41160,24352
31.41972,24989
31.42783,27686
31.43597,25247
31.44408,26823
31.45222,24787
31.46033,23028
31.46845,24863
31.47658,22846
31.48470,19183
31.49283,21495
31.50095,21625
31.50907,22846
31.51720,23062
31.52532,25272
31.53345,23323
31.54157,24231
31.54968,24457
31.55782,23755
31.56593,24455
31.57405,20615
31.58218,21582
31.59030,22407
31.59843,23349
31.60655,25556
31.61467,23084
31.62280,23290
31.63092,23579
31.63905,24586
31.64717,22189
31.65528,24316
31.66342,27730
31.67153,24413
31.67967,21440
31.68778,22335
31.69590,24036
31.70403,26032
31.71215,30403
31.72027,24715
31.72840,23857
31.73652,21604
31.74465,24421
31.75277,23538
31.76088,25546
31.76902,24803
31.77713,25390
31.78527,29485
31.79338,32923
31.80150,30609
31.80963,32861
31.81775,39266
31.82587,50394
31.83400,60739
31.84212,73948
31.85025,85075
31.85837,94576
31.86648,106255
31.87462,98191
31.88273,101565
31.89087,100253
31.89898,92409
31.90710,96347
31.91523,86187
31.92335,75905
31.93148,73728
31.93960,71614
31.94772,71545
31.95585,65235
31.96397,68582
31.97208,71300
31.98022,60859
31.98833,60138
31.99647,57400
32.00458,47147
32.01270,43672
32.02083,43796
32.02895,40196
32.03708,40326
32.04520,39858
32.05332,41460
32.06145,40461
32.06957,39068
32.07770,35418
32.08582,32295
32.09393,34503
32.10207,32284
32.11018,33025
32.11830,30260
32.12643,30205
32.13455,30781
32.14268,31238
32.15080,29174
32.15892,31500
32.16705,27230
32.17517,31530
32.18330,29050
32.19142,31612
32.19953,31545
32.20767,28951
32.21578,31197
32.22390,33422
32.23203,26729
32.24015,32549
32.24828,28082
32.25640,29381
32.26452,27316
32.27265,32363
32.28077,24636
32.28890,26866
32.29702,29005
32.30513,27169
32.31327,30527
32.32138,27359
32.32952,28962
32.33763,26857
32.34575,27489
32.35388,27985
32.36200,27425
32.37012,29197
32.37825,28644
32.38637,25872
32.39450,28263
32.40262,24345
32.41073,28526
32.41887,27004
32.42698,27160
32.43512,33891
32.44323,28389
32.45135,26054
32.45948,28104
32.46760,24373
32.47572,29961
32.48385,23655
32.49197,25276
32.50010,26325
32.50822,24749
32.51633,25599
32.52447,26149
32.53258,31372
32.54072,38434
32.54883,51166
32.55695,64644
32.56508,83193
32.57320,95917
32.58133,86550
32.58945,73474
32.59757,55213
32.60570,40819
32.61382,36087
32.62193,29934
32.63007,28687
32.63818,28701
32.64632,30157
32.65443,29425
32.66255,29836
32.67068,29795
32.67880,30229
32.68693,30886
32.69505,33486
32.70317,35594
32.71130,32197
32.71942,33928
32.72755,31538
32.73567,31421
32.74378,29024
32.75192,28617
32.76003,25395
32.76815,26537
32.77628,29068
32.78440,27539
32.79253,30933
32.80065,29505
32.80877,26200
32.81690,28961
32.82502,26632
32.83315,25352
32.84127,27975
32.84938,31188
32.85752,25529
32.86563,26070
32.87375,27725
32.88188,26970
32.89000,27995
32.89813,26122
32.90625,25047
32.91437,32044
32.92250,26862
32.93062,28060
32.93875,28801
32.94687,26564
32.95498,25987
32.96312,26719
32.97123,25249
32.97937,27901
32.98748,31552
32.99560,28877
33.00373,25150
33.01185,25001
33.01997,27425
33.02810,30191
33.03622,26680
33.04435,26201
33.05247,30185
33.06058,28257
33.06872,28433
33.07683,36589
33.08497,38825
33.09308,40861
33.10120,37990
33.10933,39284
33.11745,46573
33.12558,39949
33.13370,31327
33.14182,31709
33.14995,28431
33.15807,26657
33.16618,28324
33.17432,29446
33.18243,28234
33.19057,27012
33.19868,29295
33.20680,27361
33.21493,27534
33.22305,29932
33.23118,29424
33.23930,29048
33.24742,29923
33.25555,29131
33.26367,28717
33.27178,29169
33.27992,29669
33.28803,27432
33.29617,27496
33.30428,26563
33.31240,26695
33.32053,26101
33.32865,26018
33.33678,28878
33.34490,24807
33.35302,24693
33.36115,28729
33.36927,29976
33.37740,28638
33.38552,28484
33.39363,24555
33.40177,26999
33.40988,24034
33.41800,26331
33.42613,30533
33.43425,29724
33.44238,27399
33.45050,27193
33.45862,28098
33.46675,27915
33.47487,26733
33.48300,27687
33.49112,28894
33.49923,30423
33.50737,27026
33.51548,28024
33.52360,27071
33.53173,27521
33.53985,26934
33.54798,29779
33.55610,29900
33.56422,25279
33.57235,25795
33.58047,30965
33.58860,27267
33.59672,27876
33.60483,26870
33.61297,28960
33.62108,31618
33.62922,29447
33.63733,31325
33.64545,23907
33.65358,28722
33.66170,28643
33.66982,28954
33.67795,29312
33.68607,29730
33.69420,32215
33.70232,27061
33.71043,27782
33.71857,28989
33.72668,29175
33.73482,29571
33.74293,30963
33.75105,28441
33.75918,29383
33.76730,31288
33.77543,28240
33.78355,29161
33.79167,29528
33.79980,31300
33.80792,28854
33.81603,30065
33.82417,26280
33.83228,33277
33.84042,27090
33.84853,32026
33.85665,29749
33.86478,28141
33.87290,29934
33.88103,29511
33.88915,30399
33.89727,29446
33.90540,26716
33.91352,30352
33.92163,26952
33.92977,28111
33.93788,28806
33.94602,26614
33.95413,27898
33.96225,27004
33.97038,26692
33.97850,24034
33.98663,26898
33.99475,25861
34.00287,28596
34.01100,26488
34.01912,27358
34.02725,26746
34.03537,27231
34.04348,26947
34.05162,26613
34.05973,26359
34.06785,28301
34.07598,29800
34.08410,28729
34.09223,27678
34.10035,27693
34.10847,30824
34.11660,29640
34.12472,31602
34.13285,28599
34.14097,26444
34.14908,30113
34.15722,26807
34.16533,28559
34.17347,29703
34.18158,27858
34.18970,29759
34.19783,27394
34.20595,26672
34.21407,28542
34.22220,29072
34.23032,28341
34.23845,29694
34.24657,29098
34.25468,27451
34.26282,27433
34.27093,26500
34.27907,28794
34.28718,30293
34.29530,28840
34.30343,30737
34.31155,31364
34.31967,30527
34.32780,27715
34.33592,31054
34.34405,26838
34.35217,31407
34.36028,25137
34.36842,28944
34.37653,27450
34.38467,26168
34.39278,27690
34.40090,30673
34.40903,33989
34.41715,39741
34.42528,50100
34.43340,65125
34.44152,88304
34.44965,103613
34.45777,122199
34.46588,130625
34.47402,131611
34.48213,122464
34.49027,119528
34.49838,106486
34.50650,93808
34.51463,87710
34.52275,78343
34.53088,73757
34.53900,63458
34.54712,55834
34.55525,56918
34.56337,54776
34.57148,51150
34.57962,44430
34.58773,45552
34.59587,46906
34.60398,47347
34.61210,44144
34.62023,44508
34.62835,42550
34.63648,40063
34.64460,44691
34.65272,39532
34.66085,41586
34.66897,37389
34.67710,38254
34.68522,38397
34.69333,39424
34.70147,35867
34.70958,39235
34.71770,34178
34.72583,36230
34.73395,35778
34.74208,36167
34.75020,33793
34.75832,38259
34.76645,41946
34.77457,34208
34.78270,37397
34.79082,36150
34.79893,36329
34.80707,34766
34.81518,33377
34.82332,35325
34.83143,38996
34.83955,34061
34.84768,36087
34.85580,37614
34.86392,34972
34.87205,35220
34.88017,36633
34.88830,31554
34.89642,35052
34.90453,34604
34.91267,34053
34.92078,35169
34.92892,33867
34.93703,35828
34.94515,35154
34.95328,34814
34.96140,39748
34.96953,36421
34.97765,32237
34.98577,36048
34.99390,36163
35.00202,35175
35.01013,34171
35.01827,35002
35.02638,38737
35.03452,37547
35.04263,37740
35.05075,39145
35.05888,41861
35.06700,38264
35.07513,37743
35.08325,37097
35.09137,36537
35.09950,36793
35.10762,33013
35.11573,35107
35.12387,32343
35.13198,37296
35.14012,32900
35.14823,34368
35.15635,34001
35.16448,35148
35.17260,38068
35.18073,33538
35.18885,36350
35.19697,33685
35.20510,32667
35.21322,31965
35.22135,36434
35.22947,35327
35.23758,42286
35.24572,35328
35.25383,37098
35.26195,38539
35.27008,41026
35.27820,36459
35.28633,36830
35.29445,36193
35.30257,35453
35.31070,32047
35.31882,35823
35.32695,33077
35.33507,33681
35.34318,32985
35.35132,32397
35.35943,33924
35.36755,37510
35.37568,33400
35.38380,37069
35.39193,34405
35.40005,35856
35.40817,34377
35.41630,36931
35.42442,41120
35.43255,45407
35.44067,44970
35.44878,44592
35.45692,46289
35.46503,48509
35.47317,46718
35.48128,44164
35.48940,42482
35.49753,42583
35.50565,39994
35.51377,41303
35.52190,37882
35.53002,39868
35.53815,45565
35.54627,44863
35.55438,47568
35.56252,57423
35.57063,56303
35.57877,53635
35.58688,49117
35.59500,45983
35.60313,44411
35.61125,40021
35.61938,40080
35.62750,40501
35.63562,40485
35.64375,37823
35.65187,35713
35.65998,40386
35.66812,39273
35.67623,41261
35.68437,38350
35.69248,41942
35.70060,38358
35.70873,37683
35.71685,41271
35.72498,39893
35.73310,42129
35.74122,40476
35.74935,37850
35.75747,40096
35.76558,41584
35.77372,41457
35.78183,38638
35.78997,37987
35.79808,37303
35.80620,40309
35.81433,39557
35.82245,44648
35.83058,39818
35.83870,39628
35.84682,40213
35.85495,41554
35.86307,40337
35.87120,42826
35.87932,40172
35.88743,41656
35.89557,45292
35.90368,41145
35.91180,44310
35.91993,42474
35.92805,42708
35.93618,44128
35.94430,44094
35.95242,40635
35.96055,42226
35.96867,43351
35.97680,46421
35.98492,48910
35.99303,53697
36.00117,56445
36.00928,60549
36.01742,57922
36.02553,57472
36.03365,57973
36.04178,52894
36.04990,55454
36.05802,52637
36.06615,52390
36.07427,45590
36.08240,49591
36.09052,47287
36.09863,47185
36.10677,46125
36.11488,45977
36.12302,45993
36.13113,48910
36.13925,48923
36.14738,46756
36.15550,50403
36.16362,50767
36.17175,55495
36.17987,61284
36.18800,82752
36.19612,107656
36.20423,125950
36.21237,138796
36.22048,138895
36.22862,119895
36.23673,100368
36.24485,86347
36.25298,61983
36.26110,58628
36.26923,54658
36.27735,50690
36.28547,53488
36.29360,49282
36.30172,58119
36.30983,52785
36.31797,46294
36.32608,53478
36.33422,52906
36.34233,50908
36.35045,50667
36.35858,49221
36.36670,48730
36.37483,49596
36.38295,48621
36.39107,50618
36.39920,49587
36.40732,52946
36.41543,52694
36.42357,49500
36.43168,50106
36.43982,52740
36.44793,52614
36.45605,51895
36.46418,50606
36.47230,49091
36.48043,50471
36.48855,48778
36.49667,50691
36.50480,49817
36.51292,49741
36.52105,51788
36.52917,55253
36.53728,61093
36.54542,58214
36.55353,54492
36.56165,60414
36.56978,55353
36.57790,55402
36.58603,54944
36.59415,54782
36.60227,51867
36.61040,51938
36.61852,50983
36.62665,53522
36.63477,52475
36.64288,54141
36.65102,54686
36.65913,55079
36.66727,52475
36.67538,56207
36.68350,49240
36.69163,52861
36.69975,54537
36.70787,53162
36.71600,52230
36.72412,51476
36.73225,51372
36.74037,51848
36.74848,48393
36.75662,52454
36.76473,54640
36.77287,50861
36.78098,54141
36.78910,53470
36.79723,53926
36.80535,53551
36.81347,53288
36.82160,54785
36.82972,49621
36.83785,50375
36.84597,50323
36.85408,54105
36.86222,54425
36.87033,49251
36.87847,50576
36.88658,50432
36.89470,49267
36.90283,51787
36.91095,52899
36.91908,50477
36.92720,52705
36.93532,58554
36.94345,55062
36.95157,51852
36.95968,55942
36.96782,50500
36.97593,51344
36.98407,53852
36.99218,52643
37.00030,53926
37.00843,53573
37.01655,58198
37.02468,55248
37.03280,51448
37.04092,53728
37.04905,51448
37.05717,53741
37.06530,50006
37.07342,61821
37.08153,62245
37.08967,58408
37.09778,58872
37.10590,58373
37.11403,59323
37.12215,57039
37.13028,55424
37.13840,57951
37.14652,55547
37.15465,54173
37.16277,51740
37.17090,55590
37.17902,58080
37.18713,54769
37.19527,64424
37.20338,55735
37.21150,69022
37.21963,77709
37.22775,95943
37.23588,124583
37.24400,151247
37.25212,170443
37.26025,182067
37.26837,181962
37.27650,165692
37.28462,152984
37.29273,131572
37.30087,123415
37.30898,107386
37.31712,110391
37.32523,94091
37.33335,92943
37.34148,86829
37.34960,90824
37.35772,84877
37.36585,80935
37.37397,78388
37.38210,80329
37.39022,77200
37.39833,75253
37.40647,76056
37.41458,78368
37.42272,73975
37.43083,73629
37.43895,73838
37.44708,74667
37.45520,71909
37.46333,69767
37.47145,65124
37.47957,64752
37.48770,65977
