C:\MassHunter\GCMS\1\data\JTB-E18\JTB-E18-039-08.D Wed Nov 20 12:38:07 2019
Start of data points
2.09513	359985
2.10327	348246
2.11138	337249
2.11952	332402
2.12763	318299
2.13575	307612
2.14388	300819
2.15200	293921
2.16012	278979
2.16825	266546
2.17637	263013
2.18450	258362
2.19262	253836
2.20073	246925
2.20887	236044
2.21698	229290
2.22512	220823
2.23323	211269
2.24135	213412
2.24948	207757
2.25760	197588
2.26573	222390
2.27385	991567
2.28197	3839503
2.29010	3101708
2.29822	1282845
2.30633	877443
2.31447	727231
2.32258	652907
2.33072	576453
2.33883	516224
2.34695	470924
2.35508	427258
2.36320	391783
2.37133	366782
2.37945	350372
2.38757	371594
2.39570	343681
2.40382	324281
2.41193	316059
2.42007	309728
2.42818	316200
2.43632	299728
2.44443	291068
2.45255	291638
2.46068	274981
2.46880	253067
2.47693	246821
2.48505	236382
2.49317	246047
2.50130	251167
2.50942	240267
2.51755	236959
2.52567	236133
2.53378	229806
2.54192	226524
2.55003	243538
2.55815	292191
2.56628	345306
2.57440	279328
2.58253	240395
2.59065	222198
2.59877	221377
2.60690	319785
2.61502	669384
2.62315	651386
2.63127	409199
2.63938	296624
2.64752	274143
2.65563	250538
2.66377	235244
2.67188	224226
2.68000	223540
2.68813	217597
2.69625	209643
2.70437	198801
2.71250	197611
2.72062	200243
2.72875	196351
2.73687	190923
2.74498	186531
2.75312	179186
2.76123	180096
2.76937	180404
2.77748	183430
2.78560	213227
2.79373	236751
2.80185	206298
2.80997	212143
2.81810	244187
2.82622	356371
2.83435	623997
2.84247	686272
2.85058	430693
2.85872	313026
2.86683	284564
2.87497	248011
2.88308	230804
2.89120	217759
2.89933	206672
2.90745	201429
2.91558	191828
2.92370	179628
2.93182	182357
2.93995	170102
2.94807	172249
2.95618	173628
2.96432	173109
2.97243	174097
2.98057	168605
2.98868	166663
2.99680	169447
3.00493	176782
3.01305	181009
3.02118	176722
3.02930	197022
3.03742	232379
3.04555	268653
3.05367	499282
3.06178	1066130
3.06992	1272125
3.07803	890334
3.08617	947315
3.09428	1886487
3.10240	3189519
3.11053	4920721
3.11865	4663525
3.12678	2742994
3.13490	1704220
3.14302	1280327
3.15115	975032
3.15927	780597
3.16740	712136
3.17552	705538
3.18363	821488
3.19177	1543853
3.19988	2130700
3.20800	1603828
3.21613	1087555
3.22425	854816
3.23238	706520
3.24050	575259
3.24862	512063
3.25675	437597
3.26487	398699
3.27300	369568
3.28112	497853
3.28923	1205173
3.29737	2924576
3.30548	4527263
3.31362	4382481
3.32173	3077153
3.32985	2043928
3.33798	1520039
3.34610	1230425
3.35422	1029184
3.36235	903402
3.37047	820430
3.37860	793424
3.38672	761115
3.39483	709985
3.40297	716634
3.41108	926475
3.41922	1184301
3.42733	1110476
3.43545	833553
3.44358	660060
3.45170	585904
3.45982	559616
3.46795	516854
3.47607	505246
3.48420	487138
3.49232	445827
3.50043	439335
3.50857	415810
3.51668	409553
3.52482	393571
3.53293	402204
3.54105	417835
3.54918	402195
3.55730	385518
3.56543	398465
3.57355	449508
3.58167	471319
3.58980	439227
3.59792	387552
3.60603	374605
3.61417	396253
3.62228	615003
3.63042	1107681
3.63853	1581861
3.64665	1490192
3.65478	1091566
3.66290	1550099
3.67103	5337155
3.67915	1.10354E+07
3.68727	1.209411E+07
3.69540	8582259
3.70352	5573972
3.71165	4187541
3.71977	3378590
3.72788	2778329
3.73602	2376657
3.74413	2057561
3.75225	1812891
3.76038	1666716
3.76850	1514980
3.77663	1371182
3.78475	1300808
3.79287	1239331
3.80100	1305136
3.80912	1769709
3.81725	2327389
3.82537	2200330
3.83348	1711673
3.84162	1345641
3.84973	1164982
3.85785	1039235
3.86598	933898
3.87410	856610
3.88223	806201
3.89035	738857
3.89847	717142
3.90660	692211
3.91472	719958
3.92285	851060
3.93097	935941
3.93908	930940
3.94722	967447
3.95533	1466133
3.96347	2406582
3.97158	2723640
3.97970	2134248
3.98783	1438721
3.99595	1283700
4.00407	1894104
4.01220	2859543
4.02032	3058161
4.02845	2251555
4.03657	1470303
4.04468	1025265
4.05282	824671
4.06093	695237
4.06907	621743
4.07718	545727
4.08530	522369
4.09343	497458
4.10155	472056
4.10967	452596
4.11780	428332
4.12592	501844
4.13405	841016
4.14217	1596859
4.15028	2147433
4.15842	1898392
4.16653	1260274
4.17467	826508
4.18278	635739
4.19090	538484
4.19903	585593
4.20715	1552801
4.21528	5789006
4.22340	1.277739E+07
4.23152	1.895973E+07
4.23965	2.135469E+07
4.24777	1.737911E+07
4.25588	1.055451E+07
4.26402	6463838
4.27213	4553172
4.28027	3338864
4.28838	2589515
4.29650	2108895
4.30463	1730548
4.31275	1479610
4.32088	1319511
4.32900	1167734
4.33712	1070397
4.34525	982094
4.35337	946971
4.36150	922794
4.36962	893460
4.37773	814392
4.38587	741433
4.39398	694777
4.40210	667316
4.41023	618976
4.41835	593757
4.42648	565280
4.43460	540258
4.44272	528538
4.45085	516965
4.45897	501285
4.46710	489206
4.47522	480643
4.48333	462267
4.49147	455032
4.49958	454984
4.50772	440687
4.51583	427350
4.52395	414273
4.53208	418528
4.54020	415030
4.54832	409211
4.55645	399327
4.56457	385045
4.57270	373182
4.58082	368399
4.58893	354064
4.59707	346340
4.60518	346380
4.61332	355303
4.62143	408866
4.62955	542817
4.63768	712115
4.64580	763051
4.65392	652520
4.66205	540848
4.67017	464787
4.67830	421623
4.68642	402510
4.69453	368835
4.70267	352893
4.71078	332219
4.71892	329885
4.72703	317524
4.73515	313971
4.74328	303544
4.75140	294114
4.75953	293141
4.76765	283070
4.77577	297063
4.78390	306769
4.79202	407827
4.80013	580620
4.80827	668543
4.81638	613847
4.82452	514188
4.83263	461957
4.84075	452060
4.84888	450666
4.85700	424556
4.86513	381596
4.87325	345839
4.88137	325821
4.88950	313010
4.89762	315763
4.90573	352757
4.91387	572075
4.92198	1103779
4.93012	1876679
4.93823	2458484
4.94635	2403851
4.95448	1878545
4.96260	1302420
4.97073	952449
4.97885	768893
4.98697	662625
4.99510	603346
5.00322	568302
5.01135	537103
5.01947	563430
5.02758	647141
5.03572	778591
5.04383	837448
5.05195	776949
5.06008	703749
5.06820	626310
5.07633	566613
5.08445	544321
5.09257	525126
5.10070	524032
5.10882	563029
5.11695	561408
5.12507	562034
5.13318	513561
5.14132	487298
5.14943	495643
5.15757	544516
5.16568	595059
5.17380	612856
5.18193	630681
5.19005	631974
5.19817	612049
5.20630	572903
5.21442	540303
5.22255	499548
5.23067	485101
5.23878	484258
5.24692	448920
5.25503	422807
5.26317	376321
5.27128	364038
5.27940	358865
5.28753	339152
5.29565	340500
5.30377	322321
5.31190	331446
5.32002	334944
5.32815	333422
5.33627	342567
5.34438	335249
5.35252	330155
5.36063	326393
5.36877	313794
5.37688	307291
5.38500	309320
5.39313	319353
5.40125	315046
5.40938	313787
5.41750	306875
5.42562	304816
5.43375	286168
5.44187	297118
5.44998	314088
5.45812	306192
5.46623	294733
5.47437	284651
5.48248	274210
5.49060	263870
5.49873	275609
5.50685	276932
5.51498	278938
5.52310	267221
5.53122	263132
5.53935	267855
5.54747	271723
5.55560	315460
5.56372	365892
5.57183	399969
5.57997	402394
5.58808	358606
5.59620	318506
5.60433	294899
5.61245	290011
5.62058	286748
5.62870	305423
5.63682	294100
5.64495	292170
5.65307	289934
5.66120	282373
5.66932	286096
5.67743	306013
5.68557	325282
5.69368	329588
5.70180	309915
5.70993	302778
5.71805	295134
5.72618	294771
5.73430	278579
5.74242	271725
5.75055	268481
5.75867	260876
5.76680	268878
5.77492	270700
5.78303	259863
5.79117	257091
5.79928	269177
5.80742	326855
5.81553	439964
5.82365	583242
5.83178	671110
5.83990	661578
5.84802	543175
5.85615	437927
5.86427	346899
5.87240	304195
5.88052	288219
5.88863	267350
5.89677	273789
5.90488	262807
5.91302	284251
5.92113	337495
5.92925	388032
5.93738	404309
5.94550	382989
5.95362	362284
5.96175	357334
5.96987	409621
5.97800	469793
5.98612	513074
5.99423	449932
6.00237	379919
6.01048	308852
6.01862	258829
6.02673	250386
6.03485	225899
6.04298	216855
6.05110	199720
6.05923	194042
6.06735	190548
6.07547	193171
6.08360	189047
6.09172	189570
6.09983	186580
6.10797	196711
6.11608	214489
6.12422	281521
6.13233	390687
6.14045	519411
6.14858	532727
6.15670	461742
6.16483	373928
6.17295	318441
6.18107	297578
6.18920	282057
6.19732	276401
6.20545	268699
6.21357	249491
6.22168	239212
6.22982	231732
6.23793	224703
6.24605	235170
6.25418	231581
6.26230	230610
6.27043	225801
6.27855	226249
6.28667	217895
6.29480	216648
6.30292	215096
6.31105	234758
6.31917	275583
6.32728	334195
6.33542	388021
6.34353	403982
6.35165	348792
6.35978	315439
6.36790	275089
6.37603	261965
6.38415	253381
6.39227	251919
6.40040	252258
6.40852	249888
6.41665	240706
6.42477	245891
6.43288	251248
6.44102	241599
6.44913	246532
6.45727	250933
6.46538	249320
6.47350	260624
6.48163	265663
6.48975	258609
6.49787	251498
6.50600	253408
6.51412	270349
6.52225	279373
6.53037	274060
6.53848	270606
6.54662	278711
6.55473	285901
6.56287	299349
6.57098	327429
6.57910	353945
6.58723	339494
6.59535	311803
6.60348	299189
6.61160	293103
6.61972	283221
6.62785	283926
6.63597	281943
6.64408	315842
6.65222	405292
6.66033	529644
6.66847	643698
6.67658	638105
6.68470	567836
6.69283	492140
6.70095	442323
6.70908	379494
6.71720	361191
6.72532	331232
6.73345	332568
6.74157	320275
6.74968	320428
6.75782	316407
6.76593	327062
6.77407	393681
6.78218	495169
6.79030	645428
6.79843	756287
6.80655	710977
6.81468	564170
6.82280	407138
6.83092	306648
6.83905	254520
6.84717	239789
6.85530	206008
6.86342	191347
6.87153	172513
6.87967	158603
6.88778	151306
6.89590	153537
6.90403	146598
6.91215	166772
6.92028	208611
6.92840	256942
6.93652	306833
6.94465	318642
6.95277	283326
6.96090	256821
6.96902	219674
6.97713	186490
6.98527	177324
6.99338	152007
7.00152	143573
7.00963	134190
7.01775	125697
7.02588	126517
7.03400	124013
7.04212	126895
7.05025	124302
7.05837	120641
7.06650	118300
7.07462	113001
7.08273	110120
7.09087	107932
7.09898	103901
7.10712	110230
7.11523	110943
7.12335	105043
7.13148	118980
7.13960	134908
7.14772	164933
7.15585	195118
7.16397	207725
7.17210	211856
7.18022	189242
7.18833	177931
7.19647	168955
7.20458	207741
7.21272	420172
7.22083	1004805
7.22895	2050771
7.23708	2990773
7.24520	3067200
7.25333	2315318
7.26145	1396401
7.26957	767740
7.27770	502500
7.28582	410695
7.29393	369339
7.30207	341241
7.31018	297659
7.31832	256563
7.32643	223697
7.33455	191144
7.34268	161814
7.35080	149203
7.35893	136309
7.36705	146772
7.37517	139232
7.38330	146938
7.39142	159733
7.39953	171596
7.40767	187519
7.41578	196155
7.42392	190139
7.43203	170245
7.44015	158441
7.44828	144308
7.45640	135374
7.46453	123319
7.47265	120192
7.48077	110551
7.48890	113724
7.49702	118911
7.50515	139154
7.51327	186960
7.52138	271870
7.52952	375588
7.53763	457680
7.54575	499546
7.55388	471154
7.56200	377454
7.57013	288632
7.57825	216396
7.58637	168631
7.59450	142707
7.60262	129644
7.61075	126018
7.61887	119874
7.62698	108499
7.63512	104293
7.64323	105678
7.65137	106856
7.65948	97784
7.66760	101335
7.67573	99110
7.68385	97498
7.69197	96509
7.70010	100033
7.70822	100827
7.71635	102328
7.72447	92973
7.73258	93351
7.74072	91994
7.74883	91212
7.75697	92430
7.76508	96979
7.77320	96640
7.78133	98849
7.78945	110907
7.79757	115476
7.80570	110533
7.81382	107932
7.82195	105984
7.83007	99159
7.83818	94857
7.84632	94917
7.85443	97868
7.86257	106238
7.87068	113566
7.87880	111012
7.88693	109222
7.89505	97809
7.90318	99017
7.91130	103624
7.91942	117326
7.92755	135884
7.93567	151565
7.94378	154192
7.95192	147128
7.96003	128027
7.96817	107820
7.97628	100145
7.98440	91034
7.99253	86721
8.00065	79550
8.00878	80280
8.01690	79505
8.02502	75651
8.03315	74462
8.04127	78981
8.04940	73874
8.05752	75150
8.06563	76362
8.07377	71110
8.08188	67368
8.09000	74346
8.09813	71126
8.10625	75025
8.11438	86178
8.12250	87782
8.13062	90011
8.13875	98325
8.14687	100437
8.15500	92625
8.16312	86431
8.17123	78787
8.17937	75989
8.18748	74506
8.19560	74538
8.20373	72897
8.21185	69758
8.21998	69446
8.22810	66886
8.23622	67912
8.24435	69888
8.25247	67648
8.26060	70075
8.26872	70143
8.27683	71841
8.28497	75555
8.29308	84459
8.30122	104638
8.30933	109932
8.31745	101884
8.32558	97259
8.33370	82056
8.34182	82162
8.34995	69199
8.35807	69380
8.36620	69086
8.37432	70090
8.38243	68155
8.39057	68959
8.39868	67328
8.40682	64624
8.41493	65086
8.42305	67690
8.43118	62533
8.43930	61766
8.44742	60948
8.45555	65595
8.46367	70854
8.47180	72238
8.47992	66938
8.48803	68931
8.49617	70939
8.50428	70636
8.51242	70844
8.52053	95111
8.52865	155293
8.53678	248681
8.54490	335431
8.55303	362036
8.56115	309139
8.56927	234308
8.57740	154078
8.58552	110948
8.59363	91234
8.60177	88600
8.60988	84823
8.61802	77627
8.62613	77205
8.63425	73002
8.64238	70677
8.65050	72726
8.65863	67987
8.66675	69834
8.67487	72122
8.68300	80428
8.69112	104493
8.69925	169571
8.70737	313349
8.71548	517338
8.72362	690393
8.73173	742711
8.73985	636376
8.74798	467434
8.75610	329917
8.76423	230677
8.77235	184482
8.78047	155925
8.78860	146644
8.79672	148912
8.80485	147821
8.81297	152803
8.82108	172524
8.82922	163169
8.83733	165941
8.84545	160484
8.85358	160818
8.86170	158753
8.86983	148347
8.87795	149809
8.88607	137951
8.89420	144367
8.90232	137420
8.91045	144787
8.91857	135135
8.92668	157680
8.93482	169092
8.94293	180166
8.95107	185205
8.95918	166228
8.96730	168375
8.97543	159452
8.98355	153260
8.99167	145169
8.99980	139965
9.00792	135950
9.01605	126748
9.02417	119790
9.03228	119920
9.04042	117305
9.04853	121542
9.05667	112719
9.06478	117798
9.07290	117851
9.08103	131191
9.08915	145392
9.09728	154052
9.10540	161139
9.11352	162089
9.12165	148171
9.12977	132457
9.13788	122577
9.14602	120053
9.15413	110287
9.16227	107136
9.17038	100562
9.17850	102553
9.18663	101509
9.19475	91347
9.20288	97902
9.21100	102047
9.21912	94149
9.22725	103649
9.23537	102962
9.24348	106705
9.25162	104607
9.25973	104718
9.26787	106639
9.27598	105735
9.28410	96392
9.29223	92625
9.30035	92863
9.30848	93422
9.31660	91125
9.32472	90611
9.33285	95770
9.34097	89971
9.34910	92347
9.35722	94847
9.36533	84572
9.37347	84163
9.38158	92963
9.38970	94562
9.39783	103987
9.40595	117193
9.41408	129342
9.42220	132366
9.43032	133905
9.43845	124058
9.44657	112776
9.45470	105887
9.46282	95421
9.47093	89967
9.47907	83900
9.48718	87381
9.49530	94387
9.50343	109871
9.51155	106063
9.51968	103814
9.52780	93924
9.53592	83538
9.54405	66007
9.55217	65209
9.56030	63702
9.56842	61765
9.57653	61095
9.58467	57153
9.59278	54933
9.60092	61164
9.60903	55871
9.61715	54561
9.62528	57892
9.63340	55149
9.64152	55730
9.64965	53481
9.65777	50983
9.66590	47322
9.67402	51283
9.68213	48276
9.69027	53724
9.69838	45799
9.70652	44843
9.71463	43495
9.72275	46954
9.73088	42534
9.73900	42024
9.74713	47091
9.75525	47950
9.76337	44916
9.77150	38018
9.77962	39056
9.78773	43151
9.79587	44625
9.80398	46035
9.81212	41973
9.82023	43543
9.82835	44924
9.83648	48133
9.84460	48204
9.85273	52861
9.86085	57349
9.86897	57368
9.87710	55728
9.88522	50421
9.89335	49912
9.90147	47898
9.90958	52159
9.91772	57032
9.92583	76812
9.93395	92062
9.94208	101982
9.95020	115309
9.95833	109855
9.96645	96290
9.97457	80400
9.98270	72442
9.99082	59186
9.99895	59445
10.00707	53751
10.01518	50154
10.02332	50740
10.03143	50966
10.03955	51067
10.04768	50114
10.05580	48709
10.06393	47864
10.07205	46862
10.08017	47790
10.08830	51583
10.09642	49481
10.10455	47039
10.11267	44721
10.12078	48705
10.12892	45184
10.13703	42211
10.14517	42372
10.15328	43278
10.16140	43878
10.16953	42216
10.17765	46671
10.18577	43727
10.19390	44815
10.20202	44243
10.21015	45764
10.21827	46580
10.22638	51792
10.23452	53363
10.24263	72630
10.25077	109156
10.25888	250227
10.26700	587134
10.27513	1231202
10.28325	2251382
10.29137	3468419
10.29950	5132936
10.30762	7685822
10.31575	1.125046E+07
10.32387	1.429583E+07
10.33198	1.482675E+07
10.34012	1.248745E+07
10.34823	8423665
10.35637	4622317
10.36448	2412235
10.37260	1353051
10.38073	868054
10.38885	614811
10.39698	481418
10.40510	382811
10.41322	334772
10.42135	310107
10.42947	267891
10.43758	262855
10.44572	243422
10.45383	230569
10.46197	220832
10.47008	208388
10.47820	199139
10.48633	190019
10.49445	190868
10.50258	175297
10.51070	166653
10.51882	157559
10.52695	151415
10.53507	147383
10.54320	138192
10.55132	141155
10.55943	139081
10.56757	129418
10.57568	123312
10.58380	127545
10.59193	117549
10.60005	115101
10.60818	111511
10.61630	110572
10.62442	100269
10.63255	102094
10.64067	96938
10.64880	100268
10.65692	104570
10.66503	108976
10.67317	110664
10.68128	104610
10.68940	102310
10.69753	101132
10.70565	97470
10.71378	94122
10.72190	94054
10.73002	98411
10.73815	93442
10.74627	97252
10.75440	87747
10.76252	87664
10.77063	83420
10.77877	80526
10.78688	80413
10.79502	79487
10.80313	82045
10.81125	71556
10.81938	70372
10.82750	79602
10.83562	71576
10.84375	65223
10.85187	69389
10.86000	66041
10.86812	69256
10.87623	69113
10.88437	66495
10.89248	62681
10.90062	66637
10.90873	63786
10.91685	66599
10.92498	66058
10.93310	60101
10.94123	62943
10.94935	61069
10.95747	66774
10.96560	66153
10.97372	61367
10.98183	63361
10.98997	59866
10.99808	57731
11.00622	55769
11.01433	57866
11.02245	56538
11.03058	58895
11.03870	53339
11.04683	54361
11.05495	54368
11.06307	55982
11.07120	70067
11.07932	68013
11.08743	61818
11.09557	62990
11.10368	66107
11.11182	60478
11.11993	53046
11.12805	60799
11.13618	54162
11.14430	55021
11.15243	54211
11.16055	50619
11.16867	52019
11.17680	59108
11.18492	50807
11.19305	51894
11.20117	47337
11.20928	47796
11.21742	47668
11.22553	50334
11.23365	58304
11.24178	67143
11.24990	90920
11.25803	105657
11.26615	123224
11.27427	121152
11.28240	126448
11.29052	136212
11.29865	162522
11.30677	228165
11.31488	309123
11.32302	369754
11.33113	401231
11.33925	365819
11.34738	292374
11.35550	226607
11.36363	167329
11.37175	133615
11.37987	111654
11.38800	107103
11.39612	108085
11.40425	100658
11.41237	95559
11.42048	96893
11.42862	90626
11.43673	84578
11.44487	80895
11.45298	78603
11.46110	83529
11.46923	93160
11.47735	105838
11.48547	114726
11.49360	124757
11.50172	121833
11.50985	123728
11.51797	111621
11.52608	103855
11.53422	93534
11.54233	88167
11.55047	84290
11.55858	73903
11.56670	69680
11.57483	71759
11.58295	83285
11.59108	92729
11.59920	120750
11.60732	138062
11.61545	134843
11.62357	126478
11.63168	102854
11.63982	95895
11.64793	84766
11.65607	85180
11.66418	83682
11.67230	93650
11.68043	98553
11.68855	102676
11.69668	106742
11.70480	105508
11.71292	96455
11.72105	93999
11.72917	82359
11.73728	69831
11.74542	66557
11.75353	58550
11.76167	61201
11.76978	58938
11.77790	57089
11.78603	59859
11.79415	51866
11.80228	53207
11.81040	55452
11.81852	56964
11.82665	57328
11.83477	62145
11.84290	56957
11.85102	49814
11.85913	55406
11.86727	51759
11.87538	50899
11.88350	54686
11.89163	53516
11.89975	66438
11.90788	74606
11.91600	74904
11.92412	78302
11.93225	73755
11.94037	65099
11.94850	56651
11.95662	49929
11.96473	48174
11.97287	49008
11.98098	49172
11.98912	53643
11.99723	57285
12.00535	58332
12.01348	58072
12.02160	55179
12.02972	53937
12.03785	51409
12.04597	47550
12.05410	47542
12.06222	45783
12.07033	47725
12.07847	48745
12.08658	50661
12.09472	47239
12.10283	49436
12.11095	51202
12.11908	50658
12.12720	52581
12.13532	55658
12.14345	50145
12.15157	43362
12.15970	42218
12.16782	43199
12.17593	41301
12.18407	46705
12.19218	43773
12.20032	43522
12.20843	43438
12.21655	41983
12.22468	48992
12.23280	40869
12.24093	44226
12.24905	39897
12.25717	40654
12.26530	40405
12.27342	42283
12.28153	43570
12.28967	38050
12.29778	43397
12.30592	41892
12.31403	39342
12.32215	38963
12.33028	38350
12.33840	36639
12.34653	40233
12.35465	37469
12.36277	37550
12.37090	39117
12.37902	47500
12.38715	56046
12.39527	86687
12.40338	105376
12.41152	124384
12.41963	130309
12.42775	118149
12.43588	99372
12.44400	81957
12.45213	68912
12.46025	56666
12.46837	55024
12.47650	51599
12.48462	45373
12.49275	47424
12.50087	47168
12.50898	44461
12.51712	44554
12.52523	47295
12.53335	51309
12.54148	61756
12.54960	72933
12.55773	77944
12.56585	69200
12.57397	63397
12.58210	58513
12.59022	51153
12.59835	52768
12.60647	49530
12.61458	49474
12.62272	48034
12.63083	45012
12.63897	40361
12.64708	42817
12.65520	42585
12.66333	40814
12.67145	37296
12.67957	35803
12.68770	35020
12.69582	41994
12.70395	42638
12.71207	39259
12.72018	42209
12.72832	46963
12.73643	48945
12.74457	46551
12.75268	44333
12.76080	45256
12.76893	45769
12.77705	44384
12.78517	47192
12.79330	40913
12.80142	41604
12.80955	42970
12.81767	39576
12.82578	34769
12.83392	37179
12.84203	35560
12.85017	36287
12.85828	37427
12.86640	35960
12.87453	37870
12.88265	36433
12.89078	38679
12.89890	36138
12.90702	42948
12.91515	50100
12.92327	61106
12.93138	78297
12.93952	95952
12.94763	104283
12.95577	102246
12.96388	105481
12.97200	105164
12.98013	101082
12.98825	81284
12.99638	68664
13.00450	66677
13.01262	59134
13.02075	53350
13.02887	56725
13.03700	57905
13.04512	54394
13.05323	54311
13.06137	48530
13.06948	44685
13.07760	43593
13.08573	43376
13.09385	44098
13.10198	44625
13.11010	47492
13.11822	49080
13.12635	43031
13.13447	41739
13.14260	41778
13.15072	41819
13.15883	45228
13.16697	43056
13.17508	40537
13.18320	42934
13.19133	43615
13.19945	44958
13.20758	45697
13.21570	44714
13.22382	48676
13.23195	52495
13.24007	55327
13.24820	54273
13.25632	53500
13.26443	51615
13.27257	49584
13.28068	48005
13.28882	45267
13.29693	52961
13.30505	52782
13.31318	51844
13.32130	49264
13.32942	46817
13.33755	45070
13.34567	40729
13.35380	40012
13.36192	43230
13.37003	46156
13.37817	42536
13.38628	39196
13.39442	39741
13.40253	38168
13.41065	39009
13.41878	35222
13.42690	37262
13.43503	37037
13.44315	34309
13.45127	34444
13.45940	32759
13.46752	37091
13.47563	34278
13.48377	34217
13.49188	37347
13.50002	37865
13.50813	42657
13.51625	43478
13.52438	45628
13.53250	45597
13.54063	50795
13.54875	51152
13.55687	48802
13.56500	47886
13.57312	46041
13.58123	52586
13.58937	56134
13.59748	60717
13.60562	61304
13.61373	59793
13.62185	57890
13.62998	54245
13.63810	52969
13.64623	44957
13.65435	44434
13.66247	40500
13.67060	40469
13.67872	37164
13.68685	39745
13.69497	41825
13.70308	39061
13.71122	42047
13.71933	38128
13.72745	38493
13.73558	44904
13.74370	50803
13.75183	67102
13.75995	83254
13.76807	112114
13.77620	116678
13.78432	136619
13.79245	145080
13.80057	165004
13.80868	174129
13.81682	186007
13.82493	185052
13.83305	177458
13.84118	142439
13.84930	122893
13.85743	98771
13.86555	86508
13.87367	77293
13.88180	73476
13.88992	65616
13.89805	60249
13.90617	56886
13.91428	56018
13.92242	52955
13.93053	50272
13.93867	50715
13.94678	50130
13.95490	54295
13.96303	49681
13.97115	53710
13.97927	53555
13.98740	55700
13.99552	51467
14.00365	47625
14.01177	49101
14.01988	50578
14.02802	48788
14.03613	50427
14.04427	47674
14.05238	44989
14.06050	47424
14.06863	44683
14.07675	40747
14.08488	42573
14.09300	48348
14.10112	68428
14.10925	96904
14.11737	153623
14.12548	189837
14.13362	227146
14.14173	232678
14.14987	219938
14.15798	185224
14.16610	163943
14.17423	146854
14.18235	133487
14.19048	112779
14.19860	117988
14.20672	110494
14.21485	107192
14.22297	98666
14.23108	104924
14.23922	105788
14.24733	97372
14.25547	94880
14.26358	85791
14.27170	81549
14.27983	73651
14.28795	64625
14.29608	56664
14.30420	48486
14.31232	48181
14.32045	46469
14.32857	49177
14.33670	48873
14.34482	53261
14.35293	52360
14.36107	50367
14.36918	47507
14.37730	44025
14.38543	45803
14.39355	49232
14.40168	46644
14.40980	50643
14.41792	54217
14.42605	45506
14.43417	47259
14.44230	43286
14.45042	39887
14.45853	39358
14.46667	40502
14.47478	38067
14.48292	39593
14.49103	35896
14.49915	37943
14.50728	39569
14.51540	38982
14.52352	35960
14.53165	40098
14.53977	37410
14.54790	35394
14.55602	35190
14.56413	32576
14.57227	32446
14.58038	33836
14.58852	33105
14.59663	29910
14.60475	31064
14.61288	35090
14.62100	33339
14.62912	33377
14.63725	30595
14.64537	30264
14.65350	30591
14.66162	30149
14.66973	32718
14.67787	31386
14.68598	30008
14.69412	31347
14.70223	33446
14.71035	31978
14.71848	35041
14.72660	33608
14.73473	35839
14.74285	36006
14.75097	36846
14.75910	35099
14.76722	44575
14.77533	77062
14.78347	165273
14.79158	402384
14.79972	869849
14.80783	1722224
14.81595	2681354
14.82408	3117506
14.83220	2830006
14.84033	2073175
14.84845	1338774
14.85657	871700
14.86470	589952
14.87282	454346
14.88093	353339
14.88907	294577
14.89718	254692
14.90532	225686
14.91343	205089
14.92155	180631
14.92968	169666
14.93780	157151
14.94593	144732
14.95405	133890
14.96217	131570
14.97030	122573
14.97842	114442
14.98655	113819
14.99467	104268
15.00278	101862
15.01092	95698
15.01903	93626
15.02715	88518
15.03528	90542
15.04340	86785
15.05153	83160
15.05965	79614
15.06777	76882
15.07590	76638
15.08402	77530
15.09215	73034
15.10027	71372
15.10838	75346
15.11652	75551
15.12463	76911
15.13277	85104
15.14088	83188
15.14900	74456
15.15713	63728
15.16525	62506
15.17337	55593
15.18150	57785
15.18962	49507
15.19775	50953
15.20587	50219
15.21398	49391
15.22212	55488
15.23023	48836
15.23837	45391
15.24648	45913
15.25460	43237
15.26273	48747
15.27085	44471
15.27898	47389
15.28710	45397
15.29522	44062
15.30335	43290
15.31147	41931
15.31958	43330
15.32772	41384
15.33583	41284
15.34397	40732
15.35208	41075
15.36020	41855
15.36833	42276
15.37645	40351
15.38458	41800
15.39270	43221
15.40082	37993
15.40895	38551
15.41707	40768
15.42518	40975
15.43332	39848
15.44143	42952
15.44957	49233
15.45768	56600
15.46580	63223
15.47393	80177
15.48205	87253
15.49018	94404
15.49830	95070
15.50642	86956
15.51455	90758
15.52267	76419
15.53080	74729
15.53892	69636
15.54703	66810
15.55517	61490
15.56328	55190
15.57140	52156
15.57953	52363
15.58765	46179
15.59578	42314
15.60390	43257
15.61202	42715
15.62015	44256
15.62827	38476
15.63640	46482
15.64452	41617
15.65263	42104
15.66077	41631
15.66888	40470
15.67700	42283
15.68513	36895
15.69325	37965
15.70138	37100
15.70950	38660
15.71762	38103
15.72575	40323
15.73387	47055
15.74200	58702
15.75012	75432
15.75823	108600
15.76637	144381
15.77448	166574
15.78262	169884
15.79073	149598
15.79885	125209
15.80698	96992
15.81510	77314
15.82322	70261
15.83135	61688
15.83947	55640
15.84760	53979
15.85572	58617
15.86383	59327
15.87197	55511
15.88008	60200
15.88822	57401
15.89633	52909
15.90445	50717
15.91258	50060
15.92070	47914
15.92883	45419
15.93695	46570
15.94507	45007
15.95320	43813
15.96132	46151
15.96943	45955
15.97757	43847
15.98568	48928
15.99382	52964
16.00193	51180
16.01005	55509
16.01818	52827
16.02630	49059
16.03443	48070
16.04255	47638
16.05067	42849
16.05880	40842
16.06692	37962
16.07503	39486
16.08317	37804
16.09128	40634
16.09942	39710
16.10753	42083
16.11565	41331
16.12378	44420
16.13190	42638
16.14003	44238
16.14815	41801
16.15627	39229
16.16440	40764
16.17252	38541
16.18065	39567
16.18877	38034
16.19688	37183
16.20502	38555
16.21313	43633
16.22125	38619
16.22938	35647
16.23750	39188
16.24563	35059
16.25375	35770
16.26187	39147
16.27000	40081
16.27812	41213
16.28625	40507
16.29437	43683
16.30248	42222
16.31062	38201
16.31873	41328
16.32687	38444
16.33498	39989
16.34310	39577
16.35123	41052
16.35935	42529
16.36747	41050
16.37560	42953
16.38372	42650
16.39185	39153
16.39997	38066
16.40808	39870
16.41622	38838
16.42433	45067
16.43247	59438
16.44058	100740
16.44870	177911
16.45683	282288
16.46495	396208
16.47307	455737
16.48120	429406
16.48932	329981
16.49745	237461
16.50557	161005
16.51368	123069
16.52182	102942
16.52993	89440
16.53807	80653
16.54618	74943
16.55430	74376
16.56243	68955
16.57055	65201
16.57868	62645
16.58680	64289
16.59492	59967
16.60305	57576
16.61117	56512
16.61928	54480
16.62742	53627
16.63553	52424
16.64367	50431
16.65178	48115
16.65990	48564
16.66803	44956
16.67615	42699
16.68428	46700
16.69240	43437
16.70052	43740
16.70865	47389
16.71677	44420
16.72488	45085
16.73302	43855
16.74113	45219
16.74927	47345
16.75738	45418
16.76550	48532
16.77363	43785
16.78175	42663
16.78988	41182
16.79800	41339
16.80612	43602
16.81425	40307
16.82237	39889
16.83050	42866
16.83862	38996
16.84673	39944
16.85487	38363
16.86298	38640
16.87110	35911
16.87923	36770
16.88735	36943
16.89548	35457
16.90360	40368
16.91172	41440
16.91985	36137
16.92797	36266
16.93610	39399
16.94422	37912
16.95233	37460
16.96047	34813
16.96858	37957
16.97672	40253
16.98483	37874
16.99295	40096
17.00108	35666
17.00920	38741
17.01732	40553
17.02545	41347
17.03357	41022
17.04170	40364
17.04982	43611
17.05793	41664
17.06607	43490
17.07418	45403
17.08232	44522
17.09043	49384
17.09855	51761
17.10668	51445
17.11480	49296
17.12292	50050
17.13105	45427
17.13917	43845
17.14730	47792
17.15542	42259
17.16353	41634
17.17167	39256
17.17978	37526
17.18792	37745
17.19603	40792
17.20415	36594
17.21228	41051
17.22040	43439
17.22853	38607
17.23665	39527
17.24477	40126
17.25290	38108
17.26102	38165
17.26913	37382
17.27727	33825
17.28538	38651
17.29352	38644
17.30163	40019
17.30975	38419
17.31788	42267
17.32600	40007
17.33413	43393
17.34225	43253
17.35037	43602
17.35850	48716
17.36662	44236
17.37475	45494
17.38287	43575
17.39098	43610
17.39912	45111
17.40723	47293
17.41535	47826
17.42348	42399
17.43160	42577
17.43973	43567
17.44785	38994
17.45597	39408
17.46410	40608
17.47222	41995
17.48035	42613
17.48847	43266
17.49658	49011
17.50472	54576
17.51283	51322
17.52095	52908
17.52908	52954
17.53720	61841
17.54533	63562
17.55345	69651
17.56157	88681
17.56970	105658
17.57782	133248
17.58595	153812
17.59407	152680
17.60218	140948
17.61032	122098
17.61843	103138
17.62657	82829
17.63468	77591
17.64280	64717
17.65093	67141
17.65905	58704
17.66717	60512
17.67530	56543
17.68342	58031
17.69155	56312
17.69967	53077
17.70778	55235
17.71592	47526
17.72403	53267
17.73217	47666
17.74028	46928
17.74840	49553
17.75653	43354
17.76465	44111
17.77277	48690
17.78090	40798
17.78902	45265
17.79715	50568
17.80527	46574
17.81338	47649
17.82152	48273
17.82963	53112
17.83777	53384
17.84588	59507
17.85400	59504
17.86213	56302
17.87025	55561
17.87838	51592
17.88650	45630
17.89462	45774
17.90275	41026
17.91087	44293
17.91898	41717
17.92712	39227
17.93523	38633
17.94337	37243
17.95148	37511
17.95960	39395
17.96773	39666
17.97585	42032
17.98398	39815
17.99210	43455
18.00022	45115
18.00835	54989
18.01647	59264
18.02460	64001
18.03272	64265
18.04083	70063
18.04897	85192
18.05708	141823
18.06520	233542
18.07333	357431
18.08145	487432
18.08958	534624
18.09770	498452
18.10582	405681
18.11395	305673
18.12207	242031
18.13020	217352
18.13832	221948
18.14643	235031
18.15457	262962
18.16268	286188
18.17080	287462
18.17893	285900
18.18705	283272
18.19518	282813
18.20330	288299
18.21142	290044
18.21955	283384
18.22767	276429
18.23580	263173
18.24392	271367
18.25203	274071
18.26017	267095
18.26828	263914
18.27642	251422
18.28453	237953
18.29265	244092
18.30078	230401
18.30890	236723
18.31702	223660
18.32515	225150
18.33327	221507
18.34140	214488
18.34952	213628
18.35763	216306
18.36577	204786
18.37388	212417
18.38202	201757
18.39013	197783
18.39825	198872
18.40638	200282
18.41450	193262
18.42263	201332
18.43075	202459
18.43887	204711
18.44700	219476
18.45512	230149
18.46323	220148
18.47137	228204
18.47948	217030
18.48762	205222
18.49573	191322
18.50385	174281
18.51198	172261
18.52010	165644
18.52823	160970
18.53635	157581
18.54447	157650
18.55260	150723
18.56072	144966
18.56883	153833
18.57697	154696
18.58508	155794
18.59322	148992
18.60133	147597
18.60945	152968
18.61758	142197
18.62570	135977
18.63383	131410
18.64195	127275
18.65007	125199
18.65820	125067
18.66632	121544
18.67445	121992
18.68257	116480
18.69068	118391
18.69882	109762
18.70693	110096
18.71505	106806
18.72318	105517
18.73130	106988
18.73943	101978
18.74755	101930
18.75567	103244
18.76380	96624
18.77192	97604
18.78005	95352
18.78817	95868
18.79628	98069
18.80442	90930
18.81253	90997
18.82067	93381
18.82878	93337
18.83690	89913
18.84503	82837
18.85315	93268
18.86127	89111
18.86940	86358
18.87752	84956
18.88565	89162
18.89377	91759
18.90188	89564
18.91002	89916
18.91813	90442
18.92627	98891
18.93438	99633
18.94250	89233
18.95063	88804
18.95875	88991
18.96687	81287
18.97500	80555
18.98312	76385
18.99125	73484
18.99937	86394
19.00748	75704
19.01562	77243
19.02373	74979
19.03187	73663
19.03998	70299
19.04810	69035
19.05623	77029
19.06435	83206
19.07248	94146
19.08060	106214
19.08872	112028
19.09685	117340
19.10497	112678
19.11308	104893
19.12122	98932
19.12933	97435
19.13747	90427
19.14558	92337
19.15370	86906
19.16183	82287
19.16995	83798
19.17808	82285
19.18620	74311
19.19432	71390
19.20245	70158
19.21057	66202
19.21868	60935
19.22682	64914
19.23493	61071
19.24307	62571
19.25118	63553
19.25930	64436
19.26743	65452
19.27555	66642
19.28368	67458
19.29180	62997
19.29992	62097
19.30805	61160
19.31617	61387
19.32430	60255
19.33242	59654
19.34053	65047
19.34867	70069
19.35678	72080
19.36490	80525
19.37303	74806
19.38115	74834
19.38928	77081
19.39740	86994
19.40552	105324
19.41365	141594
19.42177	174185
19.42990	192833
19.43802	203304
19.44613	174907
19.45427	133163
19.46238	105622
19.47052	84454
19.47863	75430
19.48675	64914
19.49488	66510
19.50300	62664
19.51112	63032
19.51925	62182
19.52737	62389
19.53550	61617
19.54362	59261
19.55173	58395
19.55987	57101
19.56798	55556
19.57612	54348
19.58423	50778
19.59235	50374
19.60048	54112
19.60860	73047
19.61672	89631
19.62485	145064
19.63297	185169
19.64110	240891
19.64922	258878
19.65733	262850
19.66547	240583
19.67358	207211
19.68172	168929
19.68983	146796
19.69795	126782
19.70608	110787
19.71420	102060
19.72233	87492
19.73045	85403
19.73857	78998
19.74670	73417
19.75482	74637
19.76293	73066
19.77107	71269
19.77918	71578
19.78732	70273
19.79543	68708
19.80355	67316
19.81168	65582
19.81980	66356
19.82793	59401
19.83605	66236
19.84417	73370
19.85230	94905
19.86042	144843
19.86855	224100
19.87667	327477
19.88478	415502
19.89292	468385
19.90103	453413
19.90915	378751
19.91728	305666
19.92540	238550
19.93353	194898
19.94165	170059
19.94977	144934
19.95790	136400
19.96602	132904
19.97415	120904
19.98227	118752
19.99038	119054
19.99852	114154
20.00663	104964
20.01475	103915
20.02288	102549
20.03100	92951
20.03913	92105
20.04725	91237
20.05537	91646
20.06350	83985
20.07162	83056
20.07975	87613
20.08787	75436
20.09598	72206
20.10412	68372
20.11223	66331
20.12037	68490
20.12848	68816
20.13660	71681
20.14473	78884
20.15285	90660
20.16097	97864
20.16910	112420
20.17722	112655
20.18535	111671
20.19347	102444
20.20158	105089
20.20972	107059
20.21783	109765
20.22597	126778
20.23408	150217
20.24220	170112
20.25033	168846
20.25845	163260
20.26657	154640
20.27470	136206
20.28282	114591
20.29095	93647
20.29907	79498
20.30718	70818
20.31532	58370
20.32343	63423
20.33157	59363
20.33968	52063
20.34780	55119
20.35593	49379
20.36405	55343
20.37218	55839
20.38030	62435
20.38842	68927
20.39655	73813
20.40467	77443
20.41278	72701
20.42092	73548
20.42903	66599
20.43717	61743
20.44528	58726
20.45340	57045
20.46153	51120
20.46965	49291
20.47778	50113
20.48590	47099
20.49402	40383
20.50215	45599
20.51027	41342
20.51840	40668
20.52652	40492
20.53463	42150
20.54277	41399
20.55088	44452
20.55900	43138
20.56713	40312
20.57525	39367
20.58338	43540
20.59150	43476
20.59962	39947
20.60775	43700
20.61587	43158
20.62400	37911
20.63212	41831
20.64023	45121
20.64837	43438
20.65648	40697
20.66460	39705
20.67273	39600
20.68085	43280
20.68898	43117
20.69710	39126
20.70522	41008
20.71335	38119
20.72147	42776
20.72960	40407
20.73772	41773
20.74583	40825
20.75397	43985
20.76208	51808
20.77022	52384
20.77833	67778
20.78645	83513
20.79458	105201
20.80270	116815
20.81082	112062
20.81895	103248
20.82707	86522
20.83520	72873
20.84332	63593
20.85143	53845
20.85957	54416
20.86768	49507
20.87582	47608
20.88393	45477
20.89205	47955
20.90018	48047
20.90830	47296
20.91643	46721
20.92455	45965
20.93267	42298
20.94080	42384
20.94892	41726
20.95703	40066
20.96517	41187
20.97328	41894
20.98142	38822
20.98953	37137
20.99765	38333
21.00578	37864
21.01390	39086
21.02203	40624
21.03015	39891
21.03827	42536
21.04640	46497
21.05452	44106
21.06263	44274
21.07077	39717
21.07888	40974
21.08702	38914
21.09513	41170
21.10325	43781
21.11138	47072
21.11950	55726
21.12763	61277
21.13575	78715
21.14387	83031
21.15200	86936
21.16012	75934
21.16825	73020
21.17637	64639
21.18448	56292
21.19262	51687
21.20073	46568
21.20885	49112
21.21698	46218
21.22510	47842
21.23323	45119
21.24135	49906
21.24947	49447
21.25760	49908
21.26572	54740
21.27385	51880
21.28197	51688
21.29008	51780
21.29822	54935
21.30633	56259
21.31445	52439
21.32258	56603
21.33070	59049
21.33883	59593
21.34695	50356
21.35507	58014
21.36320	56363
21.37132	57644
21.37945	61745
21.38757	62345
21.39568	65528
21.40382	67894
21.41193	66559
21.42007	65818
21.42818	62296
21.43630	54524
21.44443	55353
21.45255	59363
21.46067	57606
21.46880	56688
21.47692	54572
21.48505	54886
21.49317	55621
21.50128	58586
21.50942	55736
21.51753	55582
21.52567	57552
21.53378	58370
21.54190	56136
21.55003	60351
21.55815	72158
21.56628	77508
21.57440	92951
21.58252	93753
21.59065	92269
21.59877	82582
21.60688	75899
21.61502	69236
21.62313	62138
21.63127	57421
21.63938	51436
21.64750	55494
21.65563	59260
21.66375	53145
21.67188	55075
21.68000	55111
21.68812	50763
21.69625	50348
21.70437	48818
21.71250	46183
21.72062	44643
21.72873	48247
21.73687	49689
21.74498	52348
21.75310	60525
21.76123	62723
21.76935	66342
21.77748	65210
21.78560	68238
21.79372	66738
21.80185	59378
21.80997	56339
21.81810	49233
21.82622	48383
21.83433	46159
21.84247	42119
21.85058	45043
21.85870	44304
21.86683	43616
21.87495	43040
21.88308	39266
21.89120	38268
21.89932	44502
21.90745	37908
21.91557	40469
21.92370	41843
21.93182	44315
21.93993	50501
21.94807	64525
21.95618	81515
21.96432	98002
21.97243	100148
21.98055	109694
21.98868	114805
21.99680	114884
22.00492	114269
22.01305	118225
22.02117	118358
22.02930	123078
22.03742	121688
22.04553	117982
22.05367	126253
22.06178	126202
22.06992	121083
22.07803	118375
22.08615	116052
22.09428	122876
22.10240	116301
22.11052	122402
22.11865	112834
22.12677	116775
22.13490	109260
22.14302	111441
22.15113	111037
22.15927	113314
22.16738	110774
22.17552	102246
22.18363	107617
22.19175	104189
22.19988	100528
22.20800	93332
22.21613	93512
22.22425	88752
22.23237	86363
22.24050	87710
22.24862	87196
22.25673	83023
22.26487	84771
22.27298	85651
22.28112	92178
22.28923	82877
22.29735	79773
22.30548	77008
22.31360	79815
22.32173	72832
22.32985	81159
22.33797	72255
22.34610	72741
22.35422	73541
22.36235	72289
22.37047	71582
22.37858	78034
22.38672	83742
22.39483	90367
22.40295	93347
22.41108	96624
22.41920	90835
22.42733	81918
22.43545	74733
22.44357	70400
22.45170	64061
22.45982	65123
22.46795	65925
22.47607	71711
22.48418	75364
22.49232	70022
22.50043	67517
22.50855	66203
22.51668	67161
22.52480	65620
22.53293	64585
22.54105	60511
22.54917	54744
22.55730	56808
22.56542	57652
22.57355	47342
22.58167	50532
22.58978	49364
22.59792	49839
22.60603	47937
22.61417	44935
22.62228	45155
22.63040	50945
22.63853	47160
22.64665	47437
22.65477	48579
22.66290	49627
22.67102	48724
22.67915	63564
22.68727	59956
22.69538	61515
22.70352	64445
22.71163	60855
22.71977	61525
22.72788	52854
22.73600	52510
22.74413	54717
22.75225	54414
22.76038	49195
22.76850	53005
22.77662	53176
22.78475	51543
22.79287	60925
22.80098	59917
22.80912	55086
22.81723	56674
22.82537	49090
22.83348	54497
22.84160	52316
22.84973	57408
22.85785	59271
22.86598	65130
22.87410	68440
22.88222	73922
22.89035	78708
22.89847	90538
22.90658	103581
22.91472	123578
22.92283	121636
22.93097	115319
22.93908	108112
22.94720	97597
22.95533	85119
22.96345	78263
22.97158	76078
22.97970	72135
22.98782	65991
22.99595	60597
23.00407	60968
23.01220	54396
23.02032	54882
23.02843	53869
23.03657	49820
23.04468	45913
23.05280	50771
23.06093	46117
23.06905	46217
23.07718	47646
23.08530	43745
23.09342	45836
23.10155	43245
23.10967	42769
23.11780	40009
23.12592	40552
23.13403	41147
23.14217	41292
23.15028	42977
23.15840	45162
23.16653	40494
23.17465	37920
23.18278	41673
23.19090	38874
23.19902	42249
23.20715	36732
23.21527	41351
23.22340	41334
23.23152	42462
23.23963	37245
23.24777	41924
23.25588	45101
23.26402	43464
23.27213	41333
23.28025	43203
23.28838	40603
23.29650	41147
23.30462	38130
23.31275	40711
23.32087	41825
23.32900	51569
23.33712	54007
23.34523	62006
23.35337	57516
23.36148	58688
23.36962	57077
23.37773	53079
23.38585	49026
23.39398	44556
23.40210	41551
23.41023	41428
23.41835	42124
23.42647	38051
23.43460	41198
23.44272	39021
23.45083	39876
23.45897	34476
23.46708	37237
23.47522	35335
23.48333	35899
23.49145	34356
23.49958	38568
23.50770	36132
23.51583	37895
23.52395	34619
23.53207	37404
23.54020	40900
23.54832	47926
23.55643	54786
23.56457	62148
23.57268	68209
23.58082	85102
23.58893	94685
23.59705	86333
23.60518	90572
23.61330	79125
23.62143	73846
23.62955	65353
23.63767	64854
23.64580	68230
23.65392	64465
23.66205	63122
23.67017	63069
23.67828	64449
23.68642	66898
23.69453	86233
23.70265	105986
23.71078	133397
23.71890	169483
23.72703	286363
23.73515	642610
23.74327	1615821
23.75140	3497287
23.75952	5939724
23.76765	7853569
23.77577	8690562
23.78388	7968157
23.79202	6612817
23.80013	5000123
23.80827	3643793
23.81638	2587517
23.82450	1889067
23.83263	1439304
23.84075	1157643
23.84887	974230
23.85700	814919
23.86512	714702
23.87325	638655
23.88137	578526
23.88948	535461
23.89762	498247
23.90573	469052
23.91387	429875
23.92198	406391
23.93010	380418
23.93823	371696
23.94635	345109
23.95447	326077
23.96260	311682
23.97072	290648
23.97885	285364
23.98697	281874
23.99508	273214
24.00322	266279
24.01133	271119
24.01947	291752
24.02758	276475
24.03570	269692
24.04383	250222
24.05195	239528
24.06008	227176
24.06820	213822
24.07632	199189
24.08445	190815
24.09257	187002
24.10068	183519
24.10882	186773
24.11693	196195
24.12507	200675
24.13318	221022
24.14130	209301
24.14943	197992
24.15755	197399
24.16568	180448
24.17380	177020
24.18192	168422
24.19005	148542
24.19817	147037
24.20630	140812
24.21442	131741
24.22253	134941
24.23067	126426
24.23878	127209
24.24690	122093
24.25503	122252
24.26315	117151
24.27128	117923
24.27940	124938
24.28752	137947
24.29565	166584
24.30377	188601
24.31190	203915
24.32002	198844
24.32813	178965
24.33627	148445
24.34438	124497
24.35250	111414
24.36063	101011
24.36875	95943
24.37688	89722
24.38500	95680
24.39312	93729
24.40125	94656
24.40937	95565
24.41750	101281
24.42562	104117
24.43373	112896
24.44187	105587
24.44998	106705
24.45812	101273
24.46623	108151
24.47435	94255
24.48248	94734
24.49060	90752
24.49872	80258
24.50685	84712
24.51497	88642
24.52310	78435
24.53122	79120
24.53933	77447
24.54747	83781
24.55558	76094
24.56372	77944
24.57183	75240
24.57995	78071
24.58808	70761
24.59620	73820
24.60432	67858
24.61245	67985
24.62057	68283
24.62870	64367
24.63682	67808
24.64493	67025
24.65307	70749
24.66118	68805
24.66932	64600
24.67743	64203
24.68555	62434
24.69368	61117
24.70180	63052
24.70993	60672
24.71805	61733
24.72617	60766
24.73430	60465
24.74242	61175
24.75053	57762
24.75867	64862
24.76678	63733
24.77492	70517
24.78303	66361
24.79115	66446
24.79928	66666
24.80740	67436
24.81553	66618
24.82365	72806
24.83177	77405
24.83990	90172
24.84802	105495
24.85615	125095
24.86427	151851
24.87238	169043
24.88052	171847
24.88863	163650
24.89675	140894
24.90488	119358
24.91300	105159
24.92113	104050
24.92925	100607
24.93737	109647
24.94550	116321
24.95362	118067
24.96175	129872
24.96987	137106
24.97798	135674
24.98612	138275
24.99423	145496
25.00235	147883
25.01048	146837
25.01860	150622
25.02673	145987
25.03485	154285
25.04297	146278
25.05110	153466
25.05922	148910
25.06735	158451
25.07547	155451
25.08358	173849
25.09172	207468
25.09983	296624
25.10797	416024
25.11608	614838
25.12420	861351
25.13233	1008062
25.14045	1056194
25.14857	919151
25.15670	723796
25.16482	533000
25.17295	383709
25.18107	292415
25.18918	229067
25.19732	194853
25.20543	180805
25.21357	175475
25.22168	192618
25.22980	217042
25.23793	257712
25.24605	323130
25.25418	344194
25.26230	362312
25.27042	342545
25.27855	298759
25.28667	254363
25.29478	209330
25.30292	179979
25.31103	162067
25.31917	151293
25.32728	139042
25.33540	132753
25.34353	116133
25.35165	115287
25.35978	113618
25.36790	109204
25.37602	105193
25.38415	106864
25.39227	104580
25.40038	103086
25.40852	102874
25.41663	100364
25.42477	92830
25.43288	89957
25.44100	84193
25.44913	86725
25.45725	83903
25.46538	79367
25.47350	81669
25.48162	74899
25.48975	77211
25.49787	80122
25.50600	78679
25.51412	72060
25.52223	72420
25.53037	72582
25.53848	69132
25.54660	69201
25.55473	65395
25.56285	75050
25.57098	66213
25.57910	64278
25.58722	70164
25.59535	66138
25.60347	66670
25.61160	61971
25.61972	65306
25.62783	61422
25.63597	68683
25.64408	64787
25.65220	62951
25.66033	63871
25.66845	59766
25.67658	62629
25.68470	59581
25.69282	59285
25.70095	59226
25.70907	60409
25.71720	59592
25.72532	58666
25.73343	55880
25.74157	54750
25.74968	59349
25.75782	56872
25.76593	56778
25.77405	58730
25.78218	56307
25.79030	55924
25.79842	54819
25.80655	57052
25.81467	56909
25.82280	60142
25.83092	53811
25.83903	56134
25.84717	54544
25.85528	54784
25.86342	52499
25.87153	53454
25.87965	55651
25.88778	51296
25.89590	47303
25.90403	52169
25.91215	48736
25.92027	54108
25.92840	53797
25.93652	51820
25.94463	53492
25.95277	54812
25.96088	54809
25.96902	48706
25.97713	51014
25.98525	51552
25.99338	49383
26.00150	47281
26.00963	46561
26.01775	48949
26.02587	47586
26.03400	46996
26.04212	46573
26.05025	48564
26.05837	49465
26.06648	50160
26.07462	51920
26.08273	48339
26.09085	52032
26.09898	54195
26.10710	51480
26.11523	54231
26.12335	59928
26.13147	64264
26.13960	61386
26.14772	66220
26.15585	61419
26.16397	58847
26.17208	59692
26.18022	56994
26.18833	53098
26.19645	54550
26.20458	48006
26.21270	49949
26.22083	48138
26.22895	48583
26.23707	46009
26.24520	46585
26.25332	48581
26.26145	48926
26.26957	48182
26.27768	48829
26.28582	43690
26.29393	45698
26.30207	48131
26.31018	44471
26.31830	43133
26.32643	46553
26.33455	49833
26.34267	51899
26.35080	52643
26.35892	59680
26.36705	63179
26.37517	64672
26.38328	69877
26.39142	68775
26.39953	65863
26.40767	60443
26.41578	52349
26.42390	51740
26.43203	53752
26.44015	50217
26.44827	50063
26.45640	48528
26.46452	48198
26.47265	43925
26.48077	50277
26.48888	49055
26.49702	46880
26.50513	46263
26.51327	44067
26.52138	41998
26.52950	44696
26.53763	43513
26.54575	42437
26.55388	46700
26.56200	49336
26.57012	45242
26.57825	46823
26.58637	42243
26.59448	44283
26.60262	41746
26.61073	44792
26.61887	45268
26.62698	47048
26.63510	49295
26.64323	48613
26.65135	48750
26.65948	47873
26.66760	49791
26.67572	48151
26.68385	47653
26.69197	45955
26.70010	50642
26.70822	49198
26.71633	49537
26.72447	48652
26.73258	48689
26.74070	49842
26.74883	47782
26.75695	52178
26.76508	52726
26.77320	51560
26.78132	51167
26.78945	53776
26.79757	51291
26.80570	46956
26.81382	50361
26.82193	50090
26.83007	45182
26.83818	46971
26.84630	46888
26.85443	42886
26.86255	49496
26.87068	45677
26.87880	48276
26.88692	54460
26.89505	53723
26.90317	50998
26.91130	55597
26.91942	58733
26.92753	64633
26.93567	95258
26.94378	156685
26.95192	271969
26.96003	475983
26.96815	805565
26.97628	1316272
26.98440	1845404
26.99252	2289663
27.00065	2474178
27.00877	2279460
27.01690	1843923
27.02502	1392653
27.03313	1026079
27.04127	764438
27.04938	577669
27.05752	446051
27.06563	367527
27.07375	293274
27.08188	257952
27.09000	223321
27.09813	205833
27.10625	189592
27.11437	159719
27.12250	151704
27.13062	148784
27.13873	144577
27.14687	140101
27.15498	138642
27.16312	139228
27.17123	131639
27.17935	131192
27.18748	117315
27.19560	107141
27.20373	98990
27.21185	91337
27.21997	89047
27.22810	88702
27.23622	88485
27.24433	80951
27.25247	78017
27.26058	75655
27.26872	76752
27.27683	74662
27.28495	75524
27.29308	73150
27.30120	71525
27.30933	65745
27.31745	67321
27.32557	68473
27.33370	64586
27.34182	68609
27.34995	70523
27.35807	69127
27.36618	74570
27.37432	65457
27.38243	65207
27.39055	59979
27.39868	67009
27.40680	61729
27.41493	61127
27.42305	62683
27.43117	65047
27.43930	68119
27.44742	63503
27.45555	60290
27.46367	58268
27.47178	50064
27.47992	50978
27.48803	57015
27.49615	50891
27.50428	55407
27.51240	58961
27.52053	55279
27.52865	55304
27.53677	52246
27.54490	51411
27.55302	56035
27.56115	56554
27.56927	56729
27.57738	60547
27.58552	60698
27.59363	57691
27.60177	60695
27.60988	55355
27.61800	47916
27.62613	49619
27.63425	45856
27.64237	51890
27.65050	49960
27.65862	47721
27.66675	49607
27.67487	48749
27.68298	51281
27.69112	52862
27.69923	48146
27.70737	49347
27.71548	51458
27.72360	54398
27.73173	53194
27.73985	54015
27.74798	58465
27.75610	58752
27.76422	64708
27.77235	61814
27.78047	57909
27.78858	54849
27.79672	59574
27.80483	53419
27.81297	48692
27.82108	49471
27.82920	43844
27.83733	46256
27.84545	46168
27.85358	44467
27.86170	44889
27.86982	47922
27.87795	43480
27.88607	43842
27.89418	44057
27.90232	42600
27.91043	41962
27.91857	42375
27.92668	38188
27.93480	46308
27.94293	41682
27.95105	46073
27.95918	42683
27.96730	43148
27.97542	47068
27.98355	48952
27.99167	46149
27.99980	53292
28.00792	45699
28.01603	46547
28.02417	53748
28.03228	49722
28.04040	52855
28.04853	45188
28.05665	43621
28.06478	47935
28.07290	48387
28.08102	51609
28.08915	55675
28.09727	55553
28.10540	57735
28.11352	57474
28.12163	50566
28.12977	47119
28.13788	44217
28.14602	42684
28.15413	41132
28.16225	44481
28.17038	44110
28.17850	44439
28.18662	43851
28.19475	47319
28.20287	49695
28.21100	44662
28.21912	47559
28.22723	46133
28.23537	50167
28.24348	51234
28.25162	56404
28.25973	69026
28.26785	90603
28.27598	113453
28.28410	142644
28.29222	174675
28.30035	190898
28.30847	208527
28.31660	214590
28.32472	209461
28.33283	200522
28.34097	188675
28.34908	182900
28.35722	151546
28.36533	143881
28.37345	123508
28.38158	112461
28.38970	105324
28.39783	91284
28.40595	85541
28.41407	81152
28.42220	79944
28.43032	71870
28.43843	65683
28.44657	59343
28.45468	58766
28.46282	67291
28.47093	58966
28.47905	54845
28.48718	55653
28.49530	56936
28.50343	54105
28.51155	51583
28.51967	50464
28.52780	49597
28.53592	50444
28.54405	51587
28.55217	47411
28.56028	46073
28.56842	45065
28.57653	47137
28.58465	46718
28.59278	47831
28.60090	48804
28.60903	49253
28.61715	49467
28.62527	52158
28.63340	59562
28.64152	63605
28.64965	64863
28.65777	80070
28.66588	88217
28.67402	93405
28.68213	93687
28.69025	83643
28.69838	74484
28.70650	60087
28.71463	54503
28.72275	45702
28.73087	47293
28.73900	43700
28.74712	43757
28.75525	42617
28.76337	47252
28.77148	42256
28.77962	43859
28.78773	44560
28.79587	47062
28.80398	46355
28.81210	46303
28.82023	44491
28.82835	41186
28.83647	42153
28.84460	41983
28.85272	43716
28.86085	41079
28.86897	44954
28.87708	46431
28.88522	43546
28.89333	47133
28.90147	46202
28.90958	41552
28.91770	43634
28.92583	43730
28.93395	46395
28.94207	44620
28.95020	49023
28.95832	45122
28.96645	46201
28.97457	44219
28.98268	42987
28.99082	43832
28.99893	39785
29.00707	38713
29.01518	44891
29.02330	41901
29.03143	41850
29.03955	41087
29.04768	48039
29.05580	49274
29.06392	42309
29.07205	43881
29.08017	43492
29.08828	41504
29.09642	40007
29.10453	42182
29.11267	40486
29.12078	37722
29.12890	35346
29.13703	36162
29.14515	37394
29.15328	40708
29.16140	40948
29.16952	37349
29.17765	42139
29.18577	41873
29.19390	48095
29.20202	48300
29.21013	51390
29.21827	52510
29.22638	48724
29.23450	46217
29.24263	45926
29.25075	44497
29.25888	44155
29.26700	39693
29.27512	42504
29.28325	40200
29.29137	39393
29.29950	36743
29.30762	36852
29.31573	40061
29.32387	43467
29.33198	39200
29.34010	39324
29.34823	36128
29.35635	40151
29.36448	36413
29.37260	42164
29.38072	41962
29.38885	42784
29.39697	40536
29.40510	40183
29.41322	38660
29.42133	38962
29.42947	37679
29.43758	40393
29.44572	39951
29.45383	36266
29.46195	37165
29.47008	37796
29.47820	39518
29.48632	41561
29.49445	41222
29.50257	46071
29.51070	43533
29.51882	42175
29.52693	43632
29.53507	35977
29.54318	41577
29.55132	40237
29.55943	36916
29.56755	40956
29.57568	39618
29.58380	41173
29.59193	42544
29.60005	46627
29.60817	37874
29.61630	33790
29.62442	37010
29.63253	35778
29.64067	35157
29.64878	37156
29.65692	34848
29.66503	37898
29.67315	36716
29.68128	36010
29.68940	37041
29.69753	33826
29.70565	36847
29.71377	33926
29.72190	37588
29.73002	36208
29.73813	33999
29.74627	36320
29.75438	35331
29.76252	34006
29.77063	29351
29.77875	30921
29.78688	32253
29.79500	36168
29.80313	36346
29.81125	33743
29.81937	35416
29.82750	34525
29.83562	34337
29.84375	37182
29.85187	36139
29.85998	42212
29.86812	53015
29.87623	53792
29.88435	68335
29.89248	74272
29.90060	74873
29.90873	82115
29.91685	87890
29.92497	92505
29.93310	92196
29.94122	97413
29.94935	98845
29.95747	93403
29.96558	102682
29.97372	97810
29.98183	90244
29.98995	82046
29.99808	85442
30.00620	80077
30.01433	70186
30.02245	67640
30.03057	65576
30.03870	61929
30.04682	70001
30.05495	63758
30.06307	67779
30.07118	63498
30.07932	65250
30.08743	64825
30.09557	60808
30.10368	62363
30.11180	62095
30.11993	55871
30.12805	60609
30.13617	54608
30.14430	53397
30.15242	56895
30.16055	62010
30.16867	54937
30.17678	55595
30.18492	53849
30.19303	56550
30.20117	48590
30.20928	53100
30.21740	51076
30.22553	51987
30.23365	51456
30.24178	49018
30.24990	47039
30.25802	48918
30.26615	49224
30.27427	51142
30.28238	51257
30.29052	48566
30.29863	48185
30.30677	49252
30.31488	52600
30.32300	51492
30.33113	48446
30.33925	50537
30.34738	51735
30.35550	46830
30.36362	47754
30.37175	48473
30.37987	49160
30.38800	49995
30.39612	48596
30.40423	46533
30.41237	49358
30.42048	46248
30.42860	46325
30.43673	47428
30.44485	48654
30.45298	48067
30.46110	47772
30.46922	49494
30.47735	48916
30.48547	50033
30.49360	50768
30.50172	49571
30.50983	47073
30.51797	49786
30.52608	52703
30.53420	50710
30.54233	54520
30.55045	50639
30.55858	47955
30.56670	52004
30.57482	48602
30.58295	55434
30.59107	51141
30.59920	52520
30.60732	52149
30.61543	53797
30.62357	54010
30.63168	49530
30.63982	50264
30.64793	52096
30.65605	45357
30.66418	45686
30.67230	53319
30.68042	51789
30.68855	43665
30.69667	43775
30.70480	46675
30.71292	48636
30.72103	50817
30.72917	47826
30.73728	45263
30.74542	49021
30.75353	46156
30.76165	54110
30.76978	58610
30.77790	72353
30.78602	78863
30.79415	86827
30.80227	85249
30.81040	75944
30.81852	68164
30.82663	59049
30.83477	55046
30.84288	46860
30.85102	48700
30.85913	43334
30.86725	45970
30.87538	40526
30.88350	41908
30.89163	43494
30.89975	43301
30.90787	43852
30.91600	43676
30.92412	41891
30.93223	38596
30.94037	39786
30.94848	38601
30.95662	40730
30.96473	40978
30.97285	42267
30.98098	36076
30.98910	38433
30.99723	42708
31.00535	41380
31.01347	35700
31.02160	43080
31.02972	36829
31.03785	40105
31.04597	44450
31.05408	41921
31.06222	46926
31.07033	50022
31.07845	55259
31.08658	57067
31.09470	56068
31.10283	54361
31.11095	53819
31.11907	48061
31.12720	49691
31.13532	45138
31.14345	46882
31.15157	46057
31.15968	45914
31.16782	50034
31.17593	59584
31.18405	67923
31.19218	75573
31.20030	73823
31.20843	79492
31.21655	70798
31.22467	60738
31.23280	56492
31.24092	48766
31.24905	44320
31.25717	45886
31.26528	42107
31.27342	44407
31.28153	40372
31.28967	41879
31.29778	39558
31.30590	46271
31.31403	41612
31.32215	40699
31.33027	44815
31.33840	45728
31.34652	44960
31.35465	39704
31.36277	36791
31.37088	36239
31.37902	37672
31.38713	33862
31.39527	35355
31.40338	36486
31.41150	36239
31.41963	38654
31.42775	38127
31.43588	38972
31.44400	36119
31.45212	39828
31.46025	38789
31.46837	38828
31.47648	41916
31.48462	42883
31.49273	45444
31.50087	43072
31.50898	40725
31.51710	41549
31.52523	41367
31.53335	43073
31.54148	44419
31.54960	43071
31.55772	44966
31.56585	39935
31.57397	38767
31.58208	38118
31.59022	39782
31.59833	38535
31.60647	40157
31.61458	38818
31.62270	39177
31.63083	38897
31.63895	39888
31.64708	40900
31.65520	38920
31.66332	39132
31.67145	44079
31.67957	42438
31.68770	42071
31.69582	43298
31.70393	40778
31.71207	40515
31.72018	37988
31.72830	36203
31.73643	41616
31.74455	34836
31.75268	38239
31.76080	38023
31.76892	41069
31.77705	46413
31.78517	43488
31.79330	44922
31.80142	50585
31.80953	45262
31.81767	50018
31.82578	53640
31.83390	64548
31.84203	69758
31.85015	73433
31.85828	82298
31.86640	89663
31.87452	95011
31.88265	86051
31.89077	90403
31.89890	85775
31.90702	81127
31.91513	78518
31.92327	68518
31.93138	71911
31.93952	67967
31.94763	70612
31.95575	73985
31.96388	66944
31.97200	65809
31.98012	61624
31.98825	61480
31.99637	54358
32.00450	51132
32.01262	48779
32.02073	50385
32.02887	48445
32.03698	49105
32.04512	46929
32.05323	45034
32.06135	46096
32.06948	41890
32.07760	42871
32.08573	45635
32.09385	45150
32.10197	41760
32.11010	39777
32.11822	41304
32.12633	39594
32.13447	41003
32.14258	40756
32.15072	40721
32.15883	42485
32.16695	38441
32.17508	47187
32.18320	42884
32.19133	40891
32.19945	36775
32.20757	40724
32.21570	40222
32.22382	39652
32.23193	38639
32.24007	40880
32.24818	40738
32.25632	42319
32.26443	40903
32.27255	43278
32.28068	39263
32.28880	43712
32.29693	42427
32.30505	39222
32.31317	39217
32.32130	40393
32.32942	40095
32.33755	42249
32.34567	40594
32.35378	42376
32.36192	39334
32.37003	38073
32.37815	36967
32.38628	39960
32.39440	37207
32.40253	38097
32.41065	41317
32.41877	39655
32.42690	36464
32.43502	34803
32.44315	39149
32.45127	38946
32.45938	36539
32.46752	37911
32.47563	37153
32.48377	42816
32.49188	38829
32.50000	37382
32.50813	36567
32.51625	36507
32.52437	38655
32.53250	41346
32.54062	48745
32.54875	51294
32.55687	63019
32.56498	64600
32.57312	68750
32.58123	63008
32.58937	56262
32.59748	45631
32.60560	40924
32.61373	36782
32.62185	39428
32.62997	36824
32.63810	39224
32.64622	40538
32.65435	38667
32.66247	40457
32.67058	36624
32.67872	42159
32.68683	46538
32.69497	41786
32.70308	43049
32.71120	43144
32.71933	46568
32.72745	43180
32.73558	40933
32.74370	38346
32.75182	37951
32.75995	39257
32.76807	36849
32.77618	38501
32.78432	32960
32.79243	36505
32.80057	40928
32.80868	38041
32.81680	41028
32.82493	39595
32.83305	38599
32.84118	34721
32.84930	36853
32.85742	35949
32.86555	37837
32.87367	35798
32.88178	43607
32.88992	36955
32.89803	39223
32.90617	41596
32.91428	37941
32.92240	39138
32.93053	36681
32.93865	38517
32.94678	41188
32.95490	42910
32.96302	46017
32.97115	55661
32.97927	59517
32.98740	61682
32.99552	58955
33.00363	56232
33.01177	50974
33.01988	47313
33.02800	44168
33.03613	42381
33.04425	41050
33.05238	44271
33.06050	46585
33.06862	46842
33.07675	48269
33.08487	53312
33.09300	55155
33.10112	56567
33.10923	56044
33.11737	54794
33.12548	50289
33.13362	53296
33.14173	48970
33.14985	42017
33.15798	43915
33.16610	42550
33.17422	42977
33.18235	43194
33.19047	45376
33.19860	47153
33.20672	45079
33.21483	47922
33.22297	49323
33.23108	51774
33.23922	53734
33.24733	60023
33.25545	65919
33.26358	70596
33.27170	76084
33.27982	81378
33.28795	95931
33.29607	113074
33.30420	122521
33.31232	141379
33.32043	141662
33.32857	152737
33.33668	163709
33.34482	168629
33.35293	172679
33.36105	174288
33.36918	173140
33.37730	176546
33.38543	174545
33.39355	175669
33.40167	164394
33.40980	163921
33.41792	158032
33.42603	159220
33.43417	156407
33.44228	166011
33.45042	162449
33.45853	164156
33.46665	153446
33.47478	168018
33.48290	167262
33.49103	169541
33.49915	171805
33.50727	172385
33.51540	174625
33.52352	168182
33.53165	167269
33.53977	166453
33.54788	173323
33.55602	160030
33.56413	161695
33.57225	160329
33.58038	151291
33.58850	144396
33.59663	144971
33.60475	143461
33.61287	137735
33.62100	136298
33.62912	132812
33.63725	135646
33.64537	131582
33.65348	129935
33.66162	126561
33.66973	121381
33.67785	118626
33.68598	118145
33.69410	115312
33.70223	122017
33.71035	115565
33.71847	114619
33.72660	117031
33.73472	114318
33.74285	114690
33.75097	113433
33.75908	113264
33.76722	109948
33.77533	106476
33.78347	95439
33.79158	94068
33.79970	103022
33.80783	96829
33.81595	89864
33.82407	89926
33.83220	84044
33.84032	85070
33.84845	84752
33.85657	79600
33.86468	80827
33.87282	81426
33.88093	81258
33.88907	77529
33.89718	73844
33.90530	80305
33.91343	74760
33.92155	77576
33.92968	79739
33.93780	74384
33.94592	78027
33.95405	79465
33.96217	72941
33.97028	71384
33.97842	77577
33.98653	71359
33.99467	70541
34.00278	70868
34.01090	70724
34.01903	70021
34.02715	69512
34.03528	65304
34.04340	69544
34.05152	71401
34.05965	65645
34.06777	67042
34.07588	63586
34.08402	67116
34.09213	65317
34.10027	72215
34.10838	71898
34.11650	72754
34.12463	67952
34.13275	67630
34.14088	68283
34.14900	73054
34.15712	73441
34.16525	80095
34.17337	76675
34.18150	80297
34.18962	80694
34.19773	89295
34.20587	90298
34.21398	96075
34.22210	103270
34.23023	105775
34.23835	115294
34.24648	118297
34.25460	125904
34.26272	122185
34.27085	133274
34.27897	134187
34.28710	130044
34.29522	138106
34.30333	136793
34.31147	143080
34.31958	142126
34.32770	128588
34.33583	128443
34.34395	128015
34.35208	121164
34.36020	122815
34.36832	118759
34.37645	116651
34.38457	114233
34.39270	118412
34.40082	112267
34.40893	116972
34.41707	113679
34.42518	122099
34.43332	132138
34.44143	139041
34.44955	146986
34.45768	148923
34.46580	151966
34.47392	153102
34.48205	144236
34.49017	135185
34.49830	125216
34.50642	109003
34.51453	99971
34.52267	97793
34.53078	86587
34.53892	84967
34.54703	83501
34.55515	78356
34.56328	76638
34.57140	74131
34.57953	71910
34.58765	73337
34.59577	72456
34.60390	73696
34.61202	64482
34.62013	65455
34.62827	64461
34.63638	65476
34.64452	64614
34.65263	63203
34.66075	63647
34.66888	62639
34.67700	64636
34.68513	61046
34.69325	61672
34.70137	64625
34.70950	61941
34.71762	61075
34.72573	62457
34.73387	60756
34.74198	60387
34.75012	63180
34.75823	62530
34.76635	57242
34.77448	58203
34.78260	56472
34.79073	57868
34.79885	59902
34.80697	58454
34.81510	57290
34.82322	56318
34.83135	60004
34.83947	59518
34.84758	62004
34.85572	59641
34.86383	58819
34.87195	56957
34.88008	58338
34.88820	53983
34.89633	54831
34.90445	53647
34.91257	55109
34.92070	60615
34.92882	55562
34.93695	60570
34.94507	57287
34.95318	59643
34.96132	56379
34.96943	66353
34.97757	56825
34.98568	54052
34.99380	56432
35.00193	54037
35.01005	56216
35.01817	59271
35.02630	60539
35.03442	63115
35.04255	60969
35.05067	64240
35.05878	64791
35.06692	62119
35.07503	63152
35.08317	59639
35.09128	58315
35.09940	65247
35.10753	58016
35.11565	63226
35.12377	65486
35.13190	67266
35.14002	66634
35.14815	61801
35.15627	64807
35.16438	64467
35.17252	68394
35.18063	65073
35.18877	67205
35.19688	66893
35.20500	66775
35.21313	66522
35.22125	61733
35.22938	63532
35.23750	64458
35.24562	66102
35.25375	64731
35.26187	69987
35.26998	66316
35.27812	60098
35.28623	63246
35.29437	67077
35.30248	62479
35.31060	64247
35.31873	62579
35.32685	61132
35.33498	55935
35.34310	57707
35.35122	58503
35.35935	57606
35.36747	54672
35.37558	54539
35.38372	54587
35.39183	62343
35.39997	61733
35.40808	59400
35.41620	54824
35.42433	64244
35.43245	62503
35.44058	68120
35.44870	66138
35.45682	71475
35.46495	68506
35.47307	65277
35.48120	66453
35.48932	59443
35.49743	63488
35.50557	63711
35.51368	58319
35.52180	61065
35.52993	65750
35.53805	69119
35.54618	71143
35.55430	77090
35.56242	77820
35.57055	75884
35.57867	72478
35.58680	71474
35.59492	74452
35.60303	71099
35.61117	66103
35.61928	65680
35.62742	63545
35.63553	62305
35.64365	67505
35.65178	62897
35.65990	63587
35.66802	64376
35.67615	67558
35.68427	66020
35.69240	66388
35.70052	66360
35.70863	66139
35.71677	65611
35.72488	66393
35.73302	63094
35.74113	64887
35.74925	64178
35.75738	69066
35.76550	64301
35.77362	66304
35.78175	66408
35.78987	65752
35.79800	64965
35.80612	62549
35.81423	63394
35.82237	63410
35.83048	63341
35.83862	58414
35.84673	60315
35.85485	63183
35.86298	60509
35.87110	57841
35.87923	58046
35.88735	54850
35.89547	58386
35.90360	63282
35.91172	57323
35.91983	58292
35.92797	59537
35.93608	58778
35.94422	60647
35.95233	62746
35.96045	61454
35.96858	63749
35.97670	61189
35.98483	66633
35.99295	74706
36.00107	76999
36.00920	71774
36.01732	81112
36.02545	67940
36.03357	69270
36.04168	66953
36.04982	67048
36.05793	66214
36.06605	62128
36.07418	63169
36.08230	63372
36.09043	62043
36.09855	62110
36.10667	59713
36.11480	62556
36.12292	60369
36.13105	61264
36.13917	61630
36.14728	62865
36.15542	59358
36.16353	56776
36.17165	63976
36.17978	69773
36.18790	75393
36.19603	88715
36.20415	93229
36.21227	97786
36.22040	96626
36.22852	88263
36.23665	74615
36.24477	66692
36.25288	63945
36.26102	63623
36.26913	68561
36.27727	63210
36.28538	63557
36.29350	66267
36.30163	57636
36.30975	61067
36.31787	58194
36.32600	59697
36.33412	60916
36.34225	61762
36.35037	63743
36.35848	61008
36.36662	67131
36.37473	62909
36.38287	60003
36.39098	61743
36.39910	61653
36.40723	62040
36.41535	62542
36.42347	59698
36.43160	63509
36.43972	61707
36.44785	60606
36.45597	63109
36.46408	61388
36.47222	58639
36.48033	60848
36.48847	61089
36.49658	61043
36.50470	61249
36.51283	66606
36.52095	64423
36.52908	65221
36.53720	64114
36.54532	70538
36.55345	68116
36.56157	67624
36.56968	64014
36.57782	60703
36.58593	62858
36.59407	66793
36.60218	67261
36.61030	63450
36.61843	66188
36.62655	67974
36.63468	67391
36.64280	62747
36.65092	64187
36.65905	63442
36.66717	66800
36.67530	62338
36.68342	66824
36.69153	64220
36.69967	67761
36.70778	65755
36.71590	61701
36.72403	64728
36.73215	68340
36.74028	66129
36.74840	64472
36.75652	67264
36.76465	63882
36.77277	67474
36.78090	65750
36.78902	68536
36.79713	67822
36.80527	66551
36.81338	66296
36.82152	69603
36.82963	66983
36.83775	62906
36.84588	63653
36.85400	66258
36.86212	67718
36.87025	68164
36.87837	67768
36.88650	71491
36.89462	68196
36.90273	71596
36.91087	68162
36.91898	71664
36.92712	70132
36.93523	78308
36.94335	75594
36.95148	75224
36.95960	73764
36.96772	78876
36.97585	77899
36.98397	70648
36.99210	81116
37.00022	77566
37.00833	85420
37.01647	83383
37.02458	85422
37.03272	88053
37.04083	77261
37.04895	72588
37.05708	74931
37.06520	78627
37.07333	74652
37.08145	77987
37.08957	76998
37.09770	75312
37.10582	73294
37.11393	73643
37.12207	73891
37.13018	73831
37.13832	77136
37.14643	71606
37.15455	73435
37.16268	73033
37.17080	73414
37.17893	72243
37.18705	71967
37.19517	68914
37.20330	74991
37.21142	75993
37.21953	82624
37.22767	92957
37.23578	108943
37.24392	116803
37.25203	123639
37.26015	134393
37.26828	134670
37.27640	119991
37.28453	110045
37.29265	106245
37.30077	104865
37.30890	93612
37.31702	93811
37.32515	89962
37.33327	91002
37.34138	86110
37.34952	90486
37.35763	86751
37.36575	81255
37.37388	85607
37.38200	82679
37.39013	84985
37.39825	86082
37.40637	81121
37.41450	78884
37.42262	81505
37.43075	85650
37.43887	78657
37.44698	79795
37.45512	76633
37.46323	79172
37.47137	83813
37.47948	79446
37.48760	83130
