Z:\data\JTB-E02\BACandBLUE\JTB-E02-204-08.D Sat Mar 09 09:19:35 2019
Start of data points
2.09528	64631
2.10340	69785
2.11153	67606
2.11965	64035
2.12778	66215
2.13590	68673
2.14402	65294
2.15215	62450
2.16027	60150
2.16840	62516
2.17652	63263
2.18463	60426
2.19277	60019
2.20088	59036
2.20900	59720
2.21713	53172
2.22525	57751
2.23338	56430
2.24150	56739
2.24962	54837
2.25775	54624
2.26587	103876
2.27400	826315
2.28212	2431013
2.29023	2102046
2.29837	965571
2.30648	592989
2.31460	450526
2.32273	405060
2.33085	365765
2.33898	328425
2.34710	286699
2.35522	248992
2.36335	230428
2.37147	204024
2.37960	205401
2.38772	215311
2.39583	198499
2.40397	196852
2.41208	202135
2.42022	209532
2.42833	252840
2.43645	196366
2.44458	176563
2.45270	175228
2.46082	164461
2.46895	152268
2.47707	143159
2.48520	128686
2.49332	126599
2.50143	128638
2.50957	123028
2.51768	126125
2.52582	127439
2.53393	123420
2.54205	125817
2.55018	132040
2.55830	145092
2.56643	147306
2.57455	134281
2.58267	131847
2.59080	115169
2.59892	122576
2.60703	118245
2.61517	136724
2.62328	136719
2.63142	127218
2.63953	123291
2.64765	115946
2.65578	113709
2.66390	111699
2.67203	110584
2.68015	112399
2.68827	112279
2.69640	110260
2.70452	105471
2.71263	99246
2.72077	99989
2.72888	100199
2.73702	97913
2.74513	95773
2.75325	97549
2.76138	95817
2.76950	94919
2.77763	96190
2.78575	88388
2.79387	97183
2.80200	100858
2.81012	111227
2.81825	107941
2.82637	99833
2.83448	95699
2.84262	95941
2.85073	89776
2.85885	94798
2.86698	99428
2.87510	100214
2.88323	91172
2.89135	100323
2.89947	99318
2.90760	94147
2.91572	95522
2.92385	90348
2.93197	83293
2.94008	88062
2.94822	86354
2.95633	87103
2.96445	83204
2.97258	94029
2.98070	85029
2.98883	93504
2.99695	85371
3.00507	84102
3.01320	88669
3.02132	86765
3.02945	88564
3.03757	86583
3.04568	84237
3.05382	86005
3.06193	81429
3.07007	84352
3.07818	86019
3.08630	84323
3.09443	82212
3.10255	89947
3.11067	101902
3.11880	127601
3.12692	121544
3.13505	109347
3.14317	103208
3.15128	92851
3.15942	92110
3.16753	88293
3.17567	88291
3.18378	82912
3.19190	86370
3.20003	85390
3.20815	80485
3.21628	83611
3.22440	83632
3.23252	78560
3.24065	80114
3.24877	79835
3.25688	79353
3.26502	72114
3.27313	77340
3.28127	76835
3.28938	88304
3.29750	195419
3.30563	753991
3.31375	2211655
3.32188	4041967
3.33000	4624472
3.33812	3869711
3.34625	2883781
3.35437	2106816
3.36250	1677958
3.37062	1395867
3.37873	1166877
3.38687	1026024
3.39498	901993
3.40310	788426
3.41123	715066
3.41935	645022
3.42748	597198
3.43560	540920
3.44372	493474
3.45185	462059
3.45997	413238
3.46810	392851
3.47622	359184
3.48433	346232
3.49247	336659
3.50058	319961
3.50870	313286
3.51683	315567
3.52495	311338
3.53308	310578
3.54120	306595
3.54932	302729
3.55745	304970
3.56557	298277
3.57370	292240
3.58182	281140
3.58993	274825
3.59807	273201
3.60618	264511
3.61432	254507
3.62243	261156
3.63055	238649
3.63868	234057
3.64680	231114
3.65492	217537
3.66305	210101
3.67117	214305
3.67930	217820
3.68742	214381
3.69553	224639
3.70367	213231
3.71178	215053
3.71992	209413
3.72803	217951
3.73615	214686
3.74428	204815
3.75240	210575
3.76052	199860
3.76865	199932
3.77677	194597
3.78490	188917
3.79302	193254
3.80113	187997
3.80927	193130
3.81738	183834
3.82552	192147
3.83363	184377
3.84175	178150
3.84988	184351
3.85800	178185
3.86613	170317
3.87425	174163
3.88237	178516
3.89050	170951
3.89862	169152
3.90673	166596
3.91487	167113
3.92298	165502
3.93112	165482
3.93923	159820
3.94735	163873
3.95548	160845
3.96360	167082
3.97173	152418
3.97985	156578
3.98797	163426
3.99610	162059
4.00422	156781
4.01235	153877
4.02047	157880
4.02858	164175
4.03672	160237
4.04483	165417
4.05295	163811
4.06108	161762
4.06920	150874
4.07733	154711
4.08545	153689
4.09357	148437
4.10170	152065
4.10982	141048
4.11795	145555
4.12607	147289
4.13418	142302
4.14232	142873
4.15043	156208
4.15855	159999
4.16668	167919
4.17480	164796
4.18293	159774
4.19105	156274
4.19917	147012
4.20730	144031
4.21542	138823
4.22355	144620
4.23167	148285
4.23978	158760
4.24792	172411
4.25603	177280
4.26417	164292
4.27228	161525
4.28040	148288
4.28853	147196
4.29665	141133
4.30477	144304
4.31290	135750
4.32102	139447
4.32915	140296
4.33727	147868
4.34538	152993
4.35352	146968
4.36163	145599
4.36977	142857
4.37788	138252
4.38600	137723
4.39413	140627
4.40225	136359
4.41038	133066
4.41850	136138
4.42662	131038
4.43475	138564
4.44287	132610
4.45098	123236
4.45912	137217
4.46723	129749
4.47537	128035
4.48348	129246
4.49160	125493
4.49973	125736
4.50785	122389
4.51598	117262
4.52410	132374
4.53222	123003
4.54035	122967
4.54847	127072
4.55658	123304
4.56472	126805
4.57283	115124
4.58097	125869
4.58908	119650
4.59720	121676
4.60533	127123
4.61345	124845
4.62158	120210
4.62970	121493
4.63782	121755
4.64595	121770
4.65407	117618
4.66220	116967
4.67032	120595
4.67843	120300
4.68657	118132
4.69468	116006
4.70280	117612
4.71093	114654
4.71905	115129
4.72718	112564
4.73530	113422
4.74342	115255
4.75155	111972
4.75967	115199
4.76780	112394
4.77592	115435
4.78403	110090
4.79217	112389
4.80028	106548
4.80840	113136
4.81653	113678
4.82465	114917
4.83278	117528
4.84090	108770
4.84902	116744
4.85715	111110
4.86527	114229
4.87340	114804
4.88152	116327
4.88963	113428
4.89777	112375
4.90588	114842
4.91402	113050
4.92213	116002
4.93025	106774
4.93838	106045
4.94650	114182
4.95462	166551
4.96275	330381
4.97087	702381
4.97900	1206894
4.98712	1624712
4.99523	1647743
5.00337	1455261
5.01148	1147636
5.01962	898858
5.02773	706632
5.03585	579897
5.04398	500404
5.05210	443368
5.06023	390331
5.06835	358747
5.07647	333587
5.08460	309036
5.09272	296356
5.10083	286534
5.10897	285347
5.11708	284126
5.12522	276944
5.13333	276801
5.14145	268427
5.14958	264293
5.15770	247832
5.16583	249642
5.17395	239526
5.18207	234560
5.19020	232473
5.19832	224680
5.20643	225066
5.21457	219909
5.22268	223581
5.23082	209498
5.23893	210148
5.24705	216823
5.25518	223114
5.26330	221565
5.27143	211691
5.27955	200731
5.28767	191791
5.29580	188099
5.30392	186595
5.31205	175879
5.32017	179477
5.32828	162472
5.33642	173030
5.34453	174522
5.35265	168315
5.36078	168119
5.36890	168252
5.37703	174705
5.38515	170982
5.39327	159855
5.40140	163961
5.40952	160188
5.41765	161112
5.42577	160345
5.43388	153104
5.44202	158558
5.45013	156827
5.45827	159328
5.46638	154521
5.47450	152284
5.48263	149752
5.49075	149047
5.49887	154501
5.50700	150147
5.51512	146393
5.52325	148715
5.53137	147603
5.53948	143545
5.54762	146915
5.55573	143948
5.56387	138145
5.57198	135534
5.58010	134834
5.58823	144643
5.59635	138819
5.60447	143846
5.61260	142666
5.62072	146892
5.62885	151652
5.63697	171612
5.64508	190862
5.65322	204856
5.66133	204144
5.66947	189312
5.67758	168872
5.68570	158742
5.69383	161177
5.70195	177965
5.71008	189862
5.71820	192237
5.72632	182772
5.73445	164134
5.74257	152226
5.75068	142050
5.75882	148178
5.76693	140814
5.77507	143791
5.78318	133921
5.79130	130635
5.79943	133491
5.80755	132262
5.81568	129085
5.82380	134671
5.83192	127919
5.84005	126764
5.84817	120432
5.85628	130003
5.86442	129987
5.87253	128771
5.88067	128802
5.88878	118095
5.89690	131227
5.90503	123380
5.91315	125923
5.92128	109048
5.92940	102948
5.93752	100837
5.94565	94636
5.95377	97653
5.96190	98380
5.97002	96292
5.97813	104013
5.98627	120438
5.99438	142496
6.00250	150081
6.01063	142076
6.01875	125637
6.02688	121671
6.03500	116985
6.04312	106298
6.05125	103591
6.05937	101352
6.06750	99974
6.07562	99053
6.08373	100294
6.09187	104946
6.09998	103072
6.10812	97704
6.11623	91863
6.12435	98673
6.13248	96105
6.14060	97380
6.14872	95185
6.15685	104000
6.16497	101611
6.17310	100715
6.18122	105592
6.18933	106366
6.19747	105158
6.20558	110700
6.21372	112750
6.22183	110273
6.22995	106282
6.23808	123760
6.24620	118779
6.25432	127621
6.26245	125055
6.27057	119396
6.27870	125695
6.28682	129186
6.29493	131248
6.30307	134549
6.31118	134338
6.31932	127943
6.32743	135559
6.33555	140752
6.34368	135648
6.35180	139926
6.35993	143195
6.36805	145050
6.37617	156317
6.38430	147273
6.39242	157059
6.40053	149858
6.40867	153056
6.41678	153181
6.42492	152868
6.43303	154105
6.44115	152466
6.44928	162867
6.45740	168464
6.46553	167068
6.47365	164371
6.48177	162664
6.48990	145707
6.49802	133215
6.50615	124043
6.51427	123073
6.52238	121745
6.53052	111448
6.53863	108846
6.54675	108866
6.55488	107113
6.56300	109030
6.57113	104702
6.57925	99320
6.58737	98935
6.59550	100900
6.60362	100934
6.61175	99816
6.61987	95399
6.62798	96329
6.63612	100101
6.64423	93651
6.65235	96804
6.66048	97108
6.66860	93139
6.67673	92510
6.68485	94449
6.69297	92570
6.70110	87861
6.70922	92754
6.71735	95792
6.72547	87267
6.73358	91456
6.74172	95283
6.74983	86808
6.75797	84705
6.76608	92709
6.77420	91067
6.78233	90461
6.79045	91570
6.79857	88052
6.80670	90152
6.81482	89450
6.82295	86080
6.83107	87455
6.83918	89519
6.84732	90254
6.85543	82569
6.86357	77723
6.87168	72316
6.87980	70902
6.88793	66502
6.89605	69751
6.90418	69282
6.91230	68392
6.92042	69240
6.92855	58953
6.93667	60970
6.94478	63384
6.95292	65064
6.96103	63694
6.96917	56124
6.97728	61587
6.98540	59181
6.99353	61705
7.00165	62883
7.00978	66191
7.01790	60535
7.02602	59695
7.03415	58811
7.04227	59992
7.05038	61779
7.05852	55137
7.06663	61173
7.07477	62170
7.08288	59599
7.09100	61164
7.09913	57432
7.10725	57560
7.11538	64762
7.12350	60353
7.13162	57279
7.13975	60417
7.14787	60562
7.15600	54809
7.16412	56932
7.17223	57841
7.18037	61685
7.18848	57988
7.19660	59319
7.20473	59255
7.21285	58786
7.22098	58920
7.22910	58812
7.23722	62894
7.24535	65237
7.25347	60928
7.26160	59807
7.26972	60439
7.27783	59352
7.28597	57831
7.29408	58432
7.30220	54843
7.31033	57423
7.31845	57225
7.32658	58280
7.33470	53878
7.34282	57194
7.35095	56199
7.35907	57060
7.36720	54964
7.37532	57416
7.38343	59445
7.39157	57469
7.39968	55853
7.40782	59253
7.41593	51150
7.42405	59257
7.43218	61798
7.44030	59684
7.44842	58808
7.45655	59511
7.46467	69274
7.47280	75079
7.48092	82397
7.48903	87227
7.49717	85215
7.50528	81089
7.51342	70950
7.52153	66794
7.52965	68164
7.53778	60286
7.54590	57688
7.55403	56056
7.56215	56608
7.57027	62279
7.57840	59769
7.58652	58491
7.59463	61453
7.60277	54389
7.61088	57832
7.61902	62951
7.62713	56668
7.63525	56782
7.64338	58339
7.65150	54407
7.65963	57776
7.66775	55955
7.67587	57967
7.68400	54887
7.69212	53324
7.70023	56067
7.70837	55846
7.71648	57393
7.72462	58505
7.73273	53027
7.74085	54445
7.74898	52931
7.75710	52887
7.76523	53101
7.77335	55676
7.78147	58474
7.78960	49097
7.79772	54624
7.80585	56593
7.81397	54646
7.82208	55682
7.83022	55488
7.83833	54747
7.84645	52407
7.85458	49373
7.86270	53050
7.87083	50571
7.87895	51368
7.88707	50058
7.89520	52654
7.90332	49903
7.91145	52215
7.91957	50291
7.92768	53075
7.93582	51148
7.94393	48770
7.95207	48811
7.96018	52904
7.96830	50556
7.97643	49658
7.98455	54369
7.99267	52884
8.00080	57378
8.00892	62846
8.01705	57360
8.02517	55720
8.03328	53600
8.04142	53267
8.04953	49360
8.05767	52506
8.06578	51708
8.07390	52427
8.08203	54070
8.09015	54389
8.09827	50462
8.10640	51863
8.11452	50532
8.12265	54099
8.13077	50910
8.13888	47043
8.14702	56243
8.15513	50904
8.16327	56734
8.17138	54965
8.17950	50744
8.18763	54045
8.19575	64493
8.20388	64026
8.21200	64659
8.22012	57361
8.22825	62137
8.23637	57249
8.24448	54610
8.25262	57073
8.26073	53151
8.26887	54558
8.27698	59105
8.28510	53731
8.29323	57228
8.30135	53228
8.30948	54824
8.31760	54330
8.32572	54796
8.33385	53366
8.34197	53668
8.35008	57561
8.35822	59802
8.36633	68532
8.37447	73663
8.38258	72894
8.39070	71221
8.39883	70231
8.40695	62685
8.41508	60163
8.42320	61217
8.43132	59596
8.43945	55929
8.44757	57249
8.45570	60340
8.46382	58058
8.47193	57715
8.48007	57087
8.48818	62130
8.49630	58637
8.50443	56739
8.51255	59462
8.52068	64680
8.52880	67249
8.53692	72105
8.54505	64126
8.55317	64243
8.56130	65548
8.56942	60455
8.57753	61401
8.58567	62242
8.59378	59927
8.60192	56622
8.61003	56709
8.61815	54499
8.62628	58036
8.63440	60780
8.64252	58339
8.65065	58741
8.65877	57775
8.66690	51624
8.67502	58605
8.68313	58488
8.69127	58405
8.69938	57489
8.70752	54759
8.71563	54752
8.72375	54319
8.73188	57041
8.74000	54015
8.74813	53692
8.75625	51412
8.76437	47457
8.77250	53457
8.78062	53503
8.78873	63374
8.79687	87509
8.80498	162401
8.81312	254048
8.82123	365355
8.82935	415698
8.83748	400220
8.84560	358940
8.85373	286971
8.86185	237226
8.86997	200902
8.87810	186710
8.88622	172407
8.89433	155812
8.90247	142292
8.91058	134476
8.91872	133143
8.92683	120693
8.93495	122062
8.94308	119312
8.95120	119294
8.95933	115859
8.96745	106980
8.97557	108301
8.98370	103329
8.99182	104408
8.99995	98071
9.00807	93708
9.01618	104364
9.02432	98292
9.03243	95636
9.04055	96810
9.04868	97301
9.05680	90976
9.06493	91512
9.07305	88865
9.08117	91326
9.08930	88709
9.09742	87070
9.10555	91781
9.11367	87528
9.12178	90629
9.12992	95245
9.13803	84194
9.14615	87497
9.15428	90697
9.16240	91293
9.17053	88095
9.17865	86252
9.18677	84201
9.19490	78387
9.20302	82046
9.21115	81240
9.21927	88215
9.22738	84884
9.23552	86658
9.24363	80178
9.25177	81384
9.25988	72801
9.26800	75407
9.27613	71953
9.28425	72101
9.29237	75748
9.30050	74387
9.30862	74442
9.31675	73116
9.32487	71455
9.33298	70644
9.34112	76522
9.34923	77133
9.35737	70849
9.36548	69858
9.37360	69029
9.38173	70166
9.38985	69209
9.39798	62908
9.40610	71355
9.41422	69211
9.42235	70027
9.43047	66408
9.43858	67730
9.44672	63234
9.45483	63317
9.46297	64901
9.47108	63321
9.47920	67099
9.48733	59815
9.49545	58359
9.50358	66620
9.51170	63442
9.51982	60125
9.52795	66590
9.53607	61248
9.54418	64636
9.55232	64703
9.56043	70448
9.56857	69385
9.57668	70079
9.58480	65607
9.59293	60715
9.60105	53451
9.60918	57100
9.61730	52880
9.62542	52767
9.63355	54978
9.64167	51157
9.64980	50412
9.65792	49599
9.66603	48434
9.67417	47677
9.68228	51734
9.69040	40972
9.69853	50354
9.70665	45524
9.71478	48649
9.72290	50331
9.73102	50440
9.73915	48051
9.74727	42098
9.75540	42770
9.76352	41970
9.77163	53226
9.77977	42593
9.78788	45512
9.79602	44032
9.80413	40464
9.81225	44096
9.82038	46684
9.82850	42435
9.83662	44194
9.84475	52771
9.85287	52807
9.86100	51471
9.86912	52739
9.87723	49702
9.88537	41892
9.89348	45146
9.90162	48258
9.90973	41470
9.91785	42434
9.92598	48128
9.93410	40716
9.94222	44894
9.95035	42553
9.95847	45098
9.96660	43231
9.97472	47487
9.98283	41550
9.99097	44815
9.99908	45059
10.00722	48120
10.01533	47975
10.02345	51661
10.03158	58610
10.03970	54896
10.04783	59508
10.05595	60120
10.06407	56173
10.07220	59074
10.08032	64555
10.08843	58026
10.09657	53956
10.10468	52841
10.11282	49002
10.12093	51710
10.12905	51816
10.13718	54865
10.14530	51012
10.15343	52318
10.16155	52159
10.16967	49420
10.17780	48580
10.18592	48797
10.19403	39713
10.20217	44217
10.21028	45517
10.21842	44512
10.22653	44806
10.23465	45245
10.24278	45415
10.25090	55714
10.25903	50412
10.26715	57065
10.27527	51814
10.28340	53056
10.29152	57178
10.29965	50201
10.30777	58072
10.31588	57948
10.32402	61266
10.33213	61948
10.34025	69299
10.34838	67578
10.35650	70887
10.36463	59820
10.37275	60694
10.38087	55692
10.38900	51738
10.39712	53265
10.40525	53140
10.41337	52030
10.42148	53876
10.42962	46110
10.43773	48539
10.44587	47929
10.45398	53113
10.46210	49723
10.47023	52762
10.47835	49629
10.48647	48262
10.49460	50108
10.50272	51003
10.51085	52240
10.51897	45853
10.52708	49525
10.53522	48150
10.54333	50621
10.55147	55348
10.55958	47347
10.56770	48310
10.57583	44198
10.58395	54357
10.59207	53226
10.60020	52571
10.60832	50926
10.61645	47666
10.62457	48307
10.63268	48255
10.64082	43104
10.64893	49296
10.65707	47952
10.66518	48118
10.67330	45226
10.68143	47049
10.68955	42881
10.69768	45107
10.70580	49551
10.71392	48106
10.72205	47618
10.73017	50202
10.73828	52489
10.74642	45083
10.75453	43033
10.76267	49653
10.77078	46466
10.77890	55070
10.78703	55375
10.79515	55271
10.80328	51296
10.81140	53509
10.81952	48399
10.82765	45047
10.83577	49062
10.84390	38162
10.85202	43920
10.86013	45497
10.86827	44313
10.87638	41715
10.88450	52023
10.89263	42177
10.90075	44504
10.90888	40715
10.91700	42440
10.92512	42292
10.93325	41822
10.94137	43352
10.94950	40992
10.95762	45496
10.96573	44983
10.97387	41113
10.98198	43051
10.99010	44982
10.99823	44042
11.00635	41865
11.01448	44616
11.02260	40563
11.03072	40074
11.03885	40571
11.04697	42620
11.05510	43560
11.06322	42053
11.07133	36770
11.07947	39065
11.08758	38652
11.09572	37711
11.10383	40260
11.11195	37338
11.12008	48546
11.12820	39974
11.13632	36971
11.14445	40581
11.15257	38660
11.16070	38318
11.16882	40164
11.17693	34082
11.18507	38857
11.19318	40264
11.20132	47121
11.20943	46495
11.21755	56576
11.22568	59301
11.23380	55042
11.24193	56178
11.25005	50663
11.25817	47757
11.26630	42192
11.27442	38758
11.28253	41145
11.29067	43990
11.29878	43867
11.30692	35953
11.31503	33599
11.32315	37221
11.33128	36562
11.33940	44829
11.34753	41893
11.35565	44064
11.36377	40434
11.37190	36223
11.38002	37208
11.38813	40683
11.39627	41334
11.40438	43586
11.41252	39807
11.42063	37832
11.42875	38105
11.43688	39245
11.44500	41237
11.45313	41657
11.46125	34126
11.46937	37945
11.47750	37654
11.48562	35641
11.49375	36664
11.50187	40080
11.50998	34564
11.51812	38807
11.52623	39665
11.53435	37440
11.54248	37561
11.55060	35992
11.55873	36597
11.56685	40491
11.57497	37199
11.58310	37630
11.59122	33289
11.59935	36133
11.60747	34202
11.61558	34700
11.62372	38464
11.63183	37321
11.63995	36206
11.64808	34395
11.65620	37821
11.66433	36626
11.67245	35142
11.68057	37565
11.68870	39067
11.69682	36846
11.70495	33990
11.71307	39899
11.72118	38700
11.72932	40809
11.73743	42593
11.74557	42846
11.75368	44364
11.76180	41776
11.76993	42941
11.77805	42817
11.78617	39598
11.79430	35828
11.80242	41318
11.81055	42437
11.81867	40535
11.82678	36486
11.83492	41016
11.84303	37608
11.85117	38816
11.85928	37561
11.86740	41918
11.87553	38789
11.88365	38668
11.89178	42662
11.89990	38231
11.90802	40071
11.91615	34346
11.92427	36990
11.93238	40608
11.94052	38489
11.94863	32816
11.95677	33795
11.96488	32743
11.97300	37348
11.98113	38592
11.98925	37561
11.99738	35366
12.00550	35684
12.01362	37929
12.02175	40597
12.02987	39930
12.03798	38092
12.04612	36424
12.05423	38327
12.06237	32931
12.07048	36778
12.07860	39012
12.08673	34927
12.09485	36550
12.10298	34830
12.11110	39565
12.11922	35897
12.12735	36747
12.13547	36412
12.14360	34120
12.15172	35989
12.15983	35588
12.16797	39315
12.17608	44790
12.18420	46929
12.19233	45423
12.20045	46436
12.20858	44176
12.21670	47366
12.22482	45248
12.23295	43109
12.24107	47154
12.24920	43469
12.25732	45442
12.26543	45543
12.27357	41252
12.28168	42016
12.28982	47210
12.29793	44727
12.30605	44635
12.31418	45927
12.32230	44521
12.33042	42968
12.33855	43823
12.34667	43360
12.35480	45539
12.36292	41811
12.37103	43459
12.37917	43700
12.38728	43742
12.39542	43666
12.40353	44443
12.41165	40285
12.41978	43778
12.42790	42910
12.43602	38584
12.44415	38986
12.45227	46764
12.46040	42021
12.46852	48017
12.47663	52044
12.48477	51034
12.49288	50605
12.50102	54376
12.50913	51771
12.51725	47458
12.52538	44901
12.53350	41172
12.54163	43598
12.54975	41679
12.55787	36524
12.56600	40249
12.57412	41354
12.58223	38536
12.59037	39573
12.59848	39473
12.60662	42379
12.61473	40617
12.62285	40520
12.63098	40649
12.63910	38412
12.64723	38542
12.65535	36743
12.66347	36812
12.67160	41940
12.67972	40346
12.68783	41018
12.69597	41468
12.70408	39395
12.71222	38450
12.72033	38246
12.72845	38722
12.73658	40254
12.74470	39970
12.75283	42255
12.76095	42128
12.76907	48463
12.77720	40414
12.78532	44132
12.79345	42082
12.80157	47571
12.80968	43463
12.81782	41836
12.82593	39339
12.83405	34256
12.84218	36897
12.85030	37291
12.85843	34240
12.86655	37686
12.87467	34028
12.88280	35431
12.89092	37090
12.89905	34017
12.90717	35914
12.91528	33240
12.92342	31977
12.93153	31743
12.93967	31407
12.94778	32509
12.95590	33176
12.96403	34245
12.97215	32200
12.98027	38582
12.98840	35273
12.99652	34338
13.00465	28894
13.01277	38035
13.02088	35202
13.02902	36090
13.03713	32997
13.04527	32425
13.05338	32223
13.06150	33227
13.06963	31795
13.07775	33959
13.08588	30453
13.09400	31312
13.10212	33383
13.11025	37482
13.11837	34186
13.12648	32137
13.13462	34087
13.14273	33742
13.15087	36846
13.15898	31946
13.16710	31730
13.17523	33367
13.18335	34604
13.19148	33130
13.19960	33944
13.20772	34019
13.21585	38698
13.22397	38512
13.23208	37386
13.24022	40057
13.24833	36322
13.25647	35776
13.26458	33592
13.27270	31635
13.28083	36362
13.28895	33786
13.29708	32157
13.30520	34243
13.31332	32166
13.32145	32504
13.32957	32687
13.33770	34322
13.34582	32305
13.35393	31794
13.36207	30262
13.37018	30563
13.37830	30747
13.38643	32149
13.39455	31497
13.40268	32443
13.41080	33187
13.41892	32541
13.42705	35213
13.43517	35382
13.44330	31611
13.45142	34405
13.45953	33052
13.46767	30946
13.47578	30469
13.48390	32754
13.49203	34588
13.50015	34073
13.50828	28888
13.51640	35668
13.52452	32283
13.53265	31972
13.54077	31071
13.54890	28609
13.55702	35052
13.56513	32482
13.57327	30506
13.58138	37089
13.58952	31937
13.59763	32067
13.60575	34847
13.61388	32735
13.62200	34771
13.63012	31707
13.63825	30835
13.64637	34277
13.65450	29052
13.66262	29697
13.67073	32748
13.67887	28195
13.68698	32038
13.69512	31340
13.70323	30155
13.71135	34077
13.71948	30041
13.72760	36454
13.73572	33603
13.74385	34289
13.75197	31873
13.76010	27890
13.76822	37084
13.77633	31806
13.78447	31903
13.79258	33203
13.80072	34773
13.80883	36976
13.81695	33151
13.82508	34448
13.83320	36009
13.84133	34422
13.84945	32994
13.85757	36358
13.86570	34445
13.87382	36962
13.88193	33878
13.89007	35755
13.89818	36701
13.90632	34561
13.91443	36556
13.92255	32848
13.93068	33456
13.93880	37576
13.94693	36856
13.95505	35203
13.96317	40369
13.97130	36713
13.97942	34153
13.98755	35255
13.99567	37104
14.00378	37275
14.01192	34804
14.02003	35136
14.02815	39415
14.03628	35017
14.04440	35573
14.05253	36550
14.06065	39779
14.06877	39804
14.07690	37660
14.08502	41685
14.09315	39703
14.10127	41530
14.10938	36438
14.11752	39268
14.12563	38495
14.13377	38696
14.14188	39251
14.15000	39003
14.15813	41953
14.16625	35363
14.17437	35089
14.18250	37696
14.19062	43733
14.19875	45240
14.20687	56007
14.21498	72595
14.22312	98996
14.23123	129894
14.23937	152083
14.24748	145211
14.25560	128906
14.26373	115613
14.27185	106004
14.27997	95655
14.28810	85178
14.29622	85949
14.30435	78414
14.31247	71678
14.32058	70058
14.32872	71910
14.33683	65399
14.34497	71077
14.35308	65042
14.36120	59013
14.36933	57983
14.37745	51995
14.38558	51344
14.39370	44557
14.40182	38981
14.40995	43452
14.41807	41752
14.42618	43205
14.43432	39356
14.44243	40729
14.45057	35797
14.45868	41326
14.46680	40093
14.47493	38597
14.48305	35272
14.49118	34606
14.49930	36936
14.50742	37355
14.51555	37705
14.52367	34443
14.53178	36858
14.53992	35983
14.54803	38712
14.55617	38912
14.56428	36744
14.57240	36420
14.58053	40250
14.58865	33654
14.59678	33345
14.60490	33159
14.61302	32365
14.62115	39516
14.62927	36847
14.63740	33946
14.64552	36557
14.65363	35194
14.66177	33516
14.66988	33836
14.67800	33857
14.68613	34624
14.69425	35349
14.70238	36617
14.71050	39465
14.71862	36108
14.72675	30953
14.73487	36448
14.74300	32273
14.75112	35368
14.75923	37090
14.76737	31909
14.77548	31077
14.78362	34380
14.79173	29651
14.79985	32636
14.80798	33847
14.81610	37840
14.82422	31042
14.83235	40657
14.84047	46655
14.84860	49371
14.85672	57836
14.86483	59376
14.87297	61259
14.88108	64750
14.88922	61379
14.89733	64468
14.90545	68278
14.91358	58704
14.92170	64133
14.92982	59953
14.93795	51965
14.94607	55832
14.95420	55835
14.96232	57327
14.97043	57825
14.97857	51027
14.98668	50851
14.99482	49886
15.00293	51324
15.01105	51514
15.01918	51231
15.02730	48750
15.03543	50378
15.04355	49999
15.05167	45938
15.05980	45314
15.06792	49237
15.07603	45083
15.08417	46300
15.09228	45190
15.10042	45840
15.10853	48494
15.11665	47170
15.12478	42807
15.13290	45374
15.14103	44763
15.14915	43802
15.15727	41846
15.16540	39981
15.17352	39678
15.18165	44085
15.18977	38358
15.19788	39048
15.20602	40617
15.21413	36467
15.22225	37587
15.23038	37209
15.23850	39257
15.24663	38903
15.25475	38390
15.26287	35011
15.27100	37020
15.27912	39112
15.28725	36141
15.29537	32623
15.30348	36218
15.31162	36352
15.31973	34117
15.32785	36340
15.33598	34625
15.34410	35451
15.35223	34802
15.36035	33010
15.36847	33171
15.37660	29335
15.38472	30354
15.39285	34686
15.40097	36352
15.40908	32805
15.41722	33250
15.42533	39555
15.43347	32087
15.44158	33251
15.44970	35467
15.45783	33291
15.46595	31292
15.47407	37533
15.48220	35197
15.49032	32125
15.49845	32982
15.50657	36521
15.51468	40115
15.52282	36005
15.53093	39380
15.53907	42430
15.54718	35673
15.55530	36154
15.56343	34151
15.57155	33303
15.57967	33921
15.58780	36833
15.59592	35954
15.60405	35739
15.61217	33557
15.62028	38848
15.62842	35771
15.63653	37102
15.64467	36391
15.65278	37165
15.66090	32301
15.66903	32152
15.67715	38731
15.68528	36035
15.69340	36827
15.70152	33639
15.70965	38518
15.71777	33568
15.72588	41723
15.73402	36802
15.74213	33697
15.75027	33783
15.75838	33897
15.76650	37986
15.77463	33571
15.78275	35055
15.79088	33036
15.79900	32564
15.80712	36988
15.81525	42272
15.82337	37302
15.83150	38887
15.83962	38249
15.84773	37227
15.85587	40770
15.86398	35560
15.87210	38713
15.88023	36201
15.88835	36134
15.89648	37008
15.90460	37783
15.91272	38849
15.92085	35017
15.92897	37530
15.93710	40380
15.94522	40162
15.95333	39059
15.96147	35287
15.96958	37938
15.97770	37392
15.98583	36878
15.99395	37394
16.00208	32421
16.01020	37100
16.01832	36259
16.02645	44008
16.03457	42591
16.04270	46231
16.05082	59526
16.05893	52749
16.06707	54597
16.07518	48579
16.08332	46409
16.09143	43618
16.09955	43620
16.10768	39800
16.11580	37301
16.12392	38787
16.13205	40856
16.14017	40772
16.14830	38272
16.15642	38292
16.16453	37551
16.17267	37643
16.18078	37949
16.18892	35215
16.19703	39450
16.20515	36255
16.21328	37499
16.22140	36347
16.22953	39821
16.23765	40580
16.24577	38542
16.25390	37245
16.26202	33471
16.27013	33584
16.27827	37206
16.28638	38325
16.29452	34892
16.30263	36780
16.31075	36977
16.31888	33389
16.32700	37068
16.33513	31919
16.34325	34445
16.35137	34330
16.35950	41312
16.36762	33776
16.37573	38290
16.38387	37026
16.39198	37278
16.40012	38773
16.40823	37016
16.41635	36747
16.42448	36969
16.43260	34456
16.44073	37225
16.44885	38182
16.45697	35628
16.46510	34957
16.47322	42041
16.48135	38728
16.48947	38579
16.49758	42375
16.50572	44749
16.51383	41672
16.52195	45339
16.53008	44928
16.53820	44007
16.54633	44293
16.55445	45159
16.56257	46775
16.57070	40436
16.57882	44103
16.58695	40712
16.59507	36075
16.60318	37934
16.61132	43204
16.61943	45010
16.62757	34654
16.63568	38865
16.64380	38191
16.65193	43816
16.66005	33830
16.66817	34994
16.67630	36649
16.68442	35994
16.69255	40120
16.70067	38655
16.70878	36274
16.71692	39620
16.72503	37720
16.73317	32255
16.74128	35108
16.74940	38690
16.75753	35896
16.76565	33776
16.77377	40409
16.78190	40041
16.79002	34257
16.79815	32447
16.80627	35416
16.81438	36471
16.82252	34452
16.83063	32467
16.83877	30648
16.84688	35740
16.85500	32187
16.86313	31486
16.87125	32819
16.87938	34764
16.88750	32692
16.89562	33130
16.90375	32090
16.91187	31023
16.91998	35618
16.92812	37603
16.93623	36440
16.94437	37016
16.95248	34417
16.96060	31596
16.96873	35985
16.97685	36755
16.98498	34958
16.99310	34356
17.00122	35645
17.00935	35526
17.01747	32204
17.02558	35474
17.03372	31845
17.04183	32448
17.04997	32459
17.05808	32323
17.06620	31176
17.07433	33481
17.08245	32474
17.09058	30135
17.09870	33618
17.10682	32067
17.11495	31656
17.12307	38165
17.13120	45165
17.13932	34393
17.14743	34436
17.15557	32767
17.16368	34367
17.17180	34031
17.17993	32832
17.18805	37596
17.19618	35122
17.20430	32547
17.21242	30897
17.22055	31935
17.22867	32657
17.23680	32112
17.24492	32154
17.25303	31002
17.26117	31960
17.26928	30698
17.27742	32738
17.28553	35169
17.29365	33806
17.30178	29844
17.30990	33114
17.31802	32276
17.32615	32198
17.33427	32511
17.34240	32968
17.35052	32103
17.35863	30754
17.36677	37054
17.37488	40671
17.38302	44641
17.39113	47007
17.39925	44093
17.40738	47531
17.41550	43746
17.42362	41321
17.43175	43007
17.43987	42635
17.44800	39345
17.45612	40642
17.46423	34803
17.47237	37751
17.48048	36455
17.48862	38537
17.49673	38743
17.50485	39172
17.51298	42657
17.52110	38173
17.52923	39098
17.53735	40807
17.54547	37746
17.55360	37437
17.56172	43078
17.56983	37656
17.57797	38614
17.58608	33835
17.59422	41892
17.60233	37288
17.61045	33522
17.61858	35942
17.62670	35316
17.63483	35762
17.64295	35841
17.65107	31485
17.65920	32664
17.66732	34796
17.67545	40330
17.68357	37651
17.69168	44228
17.69982	46493
17.70793	48474
17.71605	47086
17.72418	41942
17.73230	43254
17.74043	39686
17.74855	39253
17.75667	43195
17.76480	42739
17.77292	47908
17.78105	42807
17.78917	41088
17.79728	39947
17.80542	36464
17.81353	35217
17.82165	38100
17.82978	37594
17.83790	39706
17.84603	41122
17.85415	39066
17.86227	37043
17.87040	43292
17.87852	42458
17.88665	37771
17.89477	38153
17.90288	36784
17.91102	33463
17.91913	32591
17.92727	32316
17.93538	35685
17.94350	31398
17.95163	34657
17.95975	36057
17.96787	34280
17.97600	30171
17.98412	32991
17.99225	33971
18.00037	33236
18.00848	32844
18.01662	31837
18.02473	32512
18.03287	31943
18.04098	30632
18.04910	38832
18.05723	34777
18.06535	36681
18.07347	31280
18.08160	34487
18.08972	37643
18.09785	41437
18.10597	41896
18.11408	48495
18.12222	49896
18.13033	49524
18.13847	59237
18.14658	54065
18.15470	49938
18.16283	47529
18.17095	48374
18.17908	50868
18.18720	41813
18.19532	44949
18.20345	44488
18.21157	42734
18.21968	44232
18.22782	40721
18.23593	43262
18.24407	45404
18.25218	45028
18.26030	43962
18.26843	44344
18.27655	43968
18.28468	51640
18.29280	48951
18.30092	45785
18.30905	42127
18.31717	38079
18.32530	36434
18.33342	35030
18.34153	36982
18.34967	37829
18.35778	34432
18.36590	34005
18.37403	40166
18.38215	37525
18.39028	37483
18.39840	31280
18.40652	33211
18.41465	36503
18.42277	37210
18.43090	35852
18.43902	35633
18.44713	35978
18.45527	40844
18.46338	39170
18.47152	35674
18.47963	42621
18.48775	41555
18.49588	37268
18.50400	34014
18.51212	38327
18.52025	35354
18.52837	37694
18.53650	31343
18.54462	36682
18.55273	36286
18.56087	33645
18.56898	35225
18.57712	36081
18.58523	34259
18.59335	36185
18.60148	37385
18.60960	39402
18.61772	35915
18.62585	40183
18.63397	32018
18.64210	36879
18.65022	32984
18.65833	33448
18.66647	36914
18.67458	33062
18.68272	33970
18.69083	34022
18.69895	35574
18.70708	35001
18.71520	32893
18.72333	36627
18.73145	38610
18.73957	36476
18.74770	39235
18.75582	34003
18.76393	30505
18.77207	33114
18.78018	32745
18.78832	32326
18.79643	34559
18.80455	32110
18.81268	30347
18.82080	35947
18.82893	32053
18.83705	35532
18.84517	34159
18.85330	32273
18.86142	33900
18.86953	31777
18.87767	31162
18.88578	33705
18.89392	36042
18.90203	35176
18.91015	35404
18.91828	33060
18.92640	37026
18.93453	37447
18.94265	33857
18.95077	37889
18.95890	36688
18.96702	37271
18.97515	36237
18.98327	32368
18.99138	40849
18.99952	33235
19.00763	35174
19.01575	34530
19.02388	36120
19.03200	35549
19.04013	31311
19.04825	34381
19.05637	34400
19.06450	35670
19.07262	37147
19.08075	33238
19.08887	33449
19.09698	35900
19.10512	34053
19.11323	37676
19.12137	40047
19.12948	40619
19.13760	42107
19.14573	43295
19.15385	43551
19.16197	42882
19.17010	42142
19.17822	37150
19.18635	37446
19.19447	36964
19.20258	43127
19.21072	38577
19.21883	38577
19.22697	40630
19.23508	39540
19.24320	39384
19.25133	36022
19.25945	38035
19.26757	36684
19.27570	38443
19.28382	39096
19.29195	40877
19.30007	46626
19.30818	46182
19.31632	46581
19.32443	46332
19.33257	47342
19.34068	45039
19.34880	38452
19.35693	42820
19.36505	38069
19.37318	38754
19.38130	37338
19.38942	41497
19.39755	40586
19.40567	35702
19.41378	39486
19.42192	41289
19.43003	41032
19.43817	39726
19.44628	43917
19.45440	35283
19.46253	35797
19.47065	41980
19.47878	39069
19.48690	38856
19.49502	37817
19.50315	43363
19.51127	50711
19.51940	65318
19.52752	80230
19.53563	94613
19.54377	94730
19.55188	83114
19.56000	74802
19.56813	62427
19.57625	48327
19.58438	40725
19.59250	37786
19.60062	40182
19.60875	39356
19.61687	36114
19.62500	39153
19.63312	42080
19.64123	40931
19.64937	46218
19.65748	61748
19.66560	87566
19.67373	134839
19.68185	178539
19.68998	206924
19.69810	210073
19.70622	203250
19.71435	166541
19.72247	135009
19.73060	106968
19.73872	87047
19.74683	70385
19.75497	66659
19.76308	61409
19.77122	54071
19.77933	53757
19.78745	53868
19.79558	44817
19.80370	47891
19.81182	45959
19.81995	43919
19.82807	49094
19.83620	41676
19.84432	43224
19.85243	43257
19.86057	42190
19.86868	39082
19.87682	52412
19.88493	61300
19.89305	94668
19.90118	173206
19.90930	289705
19.91742	437540
19.92555	595207
19.93367	771817
19.94180	886109
19.94992	948404
19.95803	963129
19.96617	937443
19.97428	907408
19.98242	837633
19.99053	809299
19.99865	783426
20.00678	786373
20.01490	729489
20.02303	699391
20.03115	661943
20.03927	617314
20.04740	576860
20.05552	511240
20.06363	437957
20.07177	362773
20.07988	288401
20.08802	222677
20.09613	173044
20.10425	154113
20.11238	142253
20.12050	137178
20.12863	133856
20.13675	128544
20.14487	123633
20.15300	120564
20.16112	115321
20.16925	113399
20.17737	111747
20.18548	114745
20.19362	119673
20.20173	121787
20.20985	111923
20.21798	117950
20.22610	116752
20.23423	116659
20.24235	119833
20.25047	110459
20.25860	117579
20.26672	134064
20.27485	145808
20.28297	178237
20.29108	222960
20.29922	254470
20.30733	263569
20.31545	267912
20.32358	247781
20.33170	210362
20.33983	170670
20.34795	151276
20.35607	125037
20.36420	106954
20.37232	92691
20.38045	78815
20.38857	80028
20.39668	74845
20.40482	73097
20.41293	69369
20.42107	71147
20.42918	74637
20.43730	82308
20.44543	88461
20.45355	99755
20.46167	101625
20.46980	106216
20.47792	117232
20.48605	101052
20.49417	91782
20.50228	84307
20.51042	82361
20.51853	68204
20.52667	71052
20.53478	69495
20.54290	64210
20.55103	62686
20.55915	64022
20.56728	69200
20.57540	60815
20.58352	57208
20.59165	58241
20.59977	56972
20.60788	61219
20.61602	60711
20.62413	57127
20.63227	55189
20.64038	56909
20.64850	58959
20.65663	56558
20.66475	60085
20.67288	59446
20.68100	55838
20.68912	57442
20.69725	54483
20.70537	54095
20.71348	58927
20.72162	55002
20.72973	51153
20.73787	55721
20.74598	50806
20.75410	52809
20.76223	53448
20.77035	52335
20.77848	56835
20.78660	50456
20.79472	47348
20.80285	50128
20.81097	52209
20.81910	52865
20.82722	52769
20.83533	52593
20.84347	51257
20.85158	57696
20.85970	52981
20.86783	57900
20.87595	55536
20.88408	55439
20.89220	52479
20.90032	52328
20.90845	54437
20.91657	47439
20.92470	51773
20.93282	46484
20.94093	56129
20.94907	50627
20.95718	48601
20.96530	50005
20.97343	47816
20.98155	45262
20.98968	46587
20.99780	47824
21.00592	47223
21.01405	45642
21.02217	52963
21.03030	45708
21.03842	50220
21.04653	51697
21.05467	44126
21.06278	43858
21.07092	44200
21.07903	44790
21.08715	52108
21.09528	44707
21.10340	42632
21.11152	44602
21.11965	46896
21.12777	43923
21.13590	43310
21.14402	46626
21.15213	44306
21.16027	44825
21.16838	49243
21.17652	51989
21.18463	48590
21.19275	54178
21.20088	47364
21.20900	44988
21.21713	44951
21.22525	47569
21.23337	49367
21.24150	47329
21.24962	48188
21.25773	46732
21.26587	49316
21.27398	48750
21.28212	53872
21.29023	50003
21.29835	49585
21.30648	53736
21.31460	49115
21.32273	46620
21.33085	52774
21.33897	46062
21.34710	50137
21.35522	44768
21.36333	45205
21.37147	45756
21.37958	43677
21.38772	39662
21.39583	44449
21.40395	42504
21.41208	50556
21.42020	45805
21.42833	44002
21.43645	40479
21.44457	44168
21.45270	46586
21.46082	47387
21.46895	45568
21.47707	42977
21.48518	42681
21.49332	40804
21.50143	46619
21.50955	40967
21.51768	43025
21.52580	41399
21.53393	41354
21.54205	41787
21.55017	41621
21.55830	40577
21.56642	44290
21.57455	44547
21.58267	44344
21.59078	47170
21.59892	48215
21.60703	40157
21.61517	45415
21.62328	44260
21.63140	47975
21.63953	55479
21.64765	68364
21.65577	87082
21.66390	84614
21.67202	86548
21.68015	75395
21.68827	67367
21.69638	64113
21.70452	50518
21.71263	49203
21.72077	47033
21.72888	48632
21.73700	45120
21.74513	46939
21.75325	42217
21.76137	50855
21.76950	47561
21.77762	46012
21.78575	51188
21.79387	48284
21.80198	46002
21.81012	42072
21.81823	43263
21.82637	49944
21.83448	53678
21.84260	64861
21.85073	67972
21.85885	74078
21.86698	81613
21.87510	73023
21.88322	69285
21.89135	59926
21.89947	53271
21.90758	49018
21.91572	42634
21.92383	43072
21.93197	38525
21.94008	40980
21.94820	45790
21.95633	41187
21.96445	44588
21.97258	41076
21.98070	41754
21.98882	42012
21.99695	34339
22.00507	36046
22.01320	42493
22.02132	40723
22.02943	37387
22.03757	38253
22.04568	38356
22.05380	39188
22.06193	41022
22.07005	37908
22.07818	35541
22.08630	38879
22.09442	36628
22.10255	39882
22.11067	42401
22.11880	40631
22.12692	41807
22.13503	38401
22.14317	43215
22.15128	41972
22.15940	39649
22.16753	38345
22.17565	39803
22.18378	43992
22.19190	41897
22.20002	38274
22.20815	36184
22.21627	42929
22.22440	40418
22.23252	43536
22.24063	43244
22.24877	48377
22.25688	44051
22.26502	47146
22.27313	44650
22.28125	39812
22.28938	39609
22.29750	38361
22.30562	37555
22.31375	35551
22.32187	38435
22.33000	42258
22.33812	45298
22.34623	44889
22.35437	46127
22.36248	50552
22.37062	53590
22.37873	53661
22.38685	52932
22.39498	48389
22.40310	45617
22.41122	50179
22.41935	47825
22.42747	46251
22.43560	48862
22.44372	47525
22.45183	43849
22.45997	45228
22.46808	38607
22.47622	42208
22.48433	41160
22.49245	39986
22.50058	36650
22.50870	41170
22.51683	38179
22.52495	42567
22.53307	38219
22.54120	41344
22.54932	38344
22.55743	37642
22.56557	38631
22.57368	38790
22.58182	36474
22.58993	38342
22.59805	34113
22.60618	36575
22.61430	41894
22.62243	35879
22.63055	36846
22.63867	34545
22.64680	30609
22.65492	38902
22.66305	41908
22.67117	33808
22.67928	35737
22.68742	31509
22.69553	32013
22.70365	39188
22.71178	37400
22.71990	40614
22.72803	39894
22.73615	40624
22.74427	38955
22.75240	39440
22.76052	38267
22.76865	35285
22.77677	39623
22.78488	39080
22.79302	37108
22.80113	36193
22.80925	39629
22.81738	34643
22.82550	33266
22.83363	35433
22.84175	36687
22.84987	35283
22.85800	35234
22.86612	39739
22.87425	40201
22.88237	39441
22.89048	42560
22.89862	40629
22.90673	44016
22.91487	49366
22.92298	50158
22.93110	57178
22.93923	67631
22.94735	69129
22.95547	80934
22.96360	73594
22.97172	77001
22.97985	73659
22.98797	66485
22.99608	69163
23.00422	54944
23.01233	55803
23.02047	51985
23.02858	50676
23.03670	47033
23.04483	41736
23.05295	44206
23.06108	40132
23.06920	42532
23.07732	36362
23.08545	39714
23.09357	37551
23.10168	39597
23.10982	38599
23.11793	37797
23.12607	34610
23.13418	38115
23.14230	39580
23.15043	38993
23.15855	35034
23.16668	35759
23.17480	35148
23.18292	33665
23.19105	32442
23.19917	34789
23.20728	36582
23.21542	36738
23.22353	31335
23.23167	30058
23.23978	33488
23.24790	31089
23.25603	33453
23.26415	32827
23.27228	33667
23.28040	37346
23.28852	36028
23.29665	40197
23.30477	32850
23.31290	34216
23.32102	37312
23.32913	36609
23.33727	35000
23.34538	35368
23.35350	34850
23.36163	33598
23.36975	35229
23.37788	37309
23.38600	36876
23.39412	35120
23.40225	37190
23.41037	37111
23.41850	36487
23.42662	39391
23.43473	37034
23.44287	38777
23.45098	35229
23.45910	39234
23.46723	37996
23.47535	37617
23.48348	35450
23.49160	36936
23.49972	34132
23.50785	37444
23.51597	37261
23.52410	36216
23.53222	37262
23.54033	33888
23.54847	36813
23.55658	39607
23.56472	40561
23.57283	39995
23.58095	37662
23.58908	41508
23.59720	41665
23.60532	40915
23.61345	44591
23.62157	42898
23.62970	43540
23.63782	41450
23.64593	41577
23.65407	45740
23.66218	51550
23.67032	59721
23.67843	67381
23.68655	82926
23.69468	91379
23.70280	93568
23.71093	100455
23.71905	93651
23.72717	86708
23.73530	81303
23.74342	72046
23.75153	79085
23.75967	108066
23.76778	212863
23.77592	471368
23.78403	1075018
23.79215	2061332
23.80028	3044268
23.80840	3570392
23.81653	3555498
23.82465	2982645
23.83277	2335175
23.84090	1732691
23.84902	1254701
23.85715	924630
23.86527	708586
23.87338	565946
23.88152	456077
23.88963	392676
23.89775	352698
23.90588	300638
23.91400	273790
23.92213	249948
23.93025	230346
23.93837	213218
23.94650	213165
23.95462	187237
23.96275	175649
23.97087	165296
23.97898	162025
23.98712	151559
23.99523	147469
24.00335	141528
24.01148	143310
24.01960	131818
24.02773	123058
24.03585	118859
24.04397	119379
24.05210	125770
24.06022	114634
24.06835	112947
24.07647	111637
24.08458	111550
24.09272	108044
24.10083	106722
24.10897	102868
24.11708	93995
24.12520	97452
24.13333	92887
24.14145	98473
24.14957	97331
24.15770	98026
24.16582	98349
24.17395	91462
24.18207	91894
24.19018	86313
24.19832	86039
24.20643	91386
24.21457	87551
24.22268	84776
24.23080	92045
24.23893	97419
24.24705	87007
24.25517	87938
24.26330	85251
24.27142	83203
24.27955	81386
24.28767	75910
24.29578	81269
24.30392	85983
24.31203	76922
24.32017	79884
24.32828	82730
24.33640	74323
24.34453	74389
24.35265	68868
24.36078	65939
24.36890	67221
24.37702	65658
24.38515	68675
24.39327	68819
24.40138	71484
24.40952	86052
24.41763	92873
24.42577	99204
24.43388	97480
24.44200	90517
24.45013	79350
24.45825	72005
24.46638	66605
24.47450	62756
24.48262	62827
24.49075	61745
24.49887	58804
24.50700	67094
24.51512	64607
24.52323	76963
24.53137	76263
24.53948	76422
24.54760	83363
24.55573	71018
24.56385	73482
24.57198	70300
24.58010	66116
24.58822	63880
24.59635	67071
24.60447	67105
24.61260	68543
24.62072	71359
24.62883	70884
24.63697	74273
24.64508	70584
24.65320	68397
24.66133	67521
24.66945	68539
24.67758	66711
24.68570	66134
24.69382	59383
24.70195	58737
24.71007	60200
24.71820	57562
24.72632	56290
24.73443	53352
24.74257	53121
24.75068	58438
24.75882	49393
24.76693	54400
24.77505	51574
24.78318	52302
24.79130	47797
24.79942	49277
24.80755	48471
24.81567	48941
24.82380	45979
24.83192	53842
24.84003	47200
24.84817	44532
24.85628	45226
24.86442	50553
24.87253	49745
24.88065	49409
24.88878	47403
24.89690	52274
24.90503	49832
24.91315	50536
24.92127	55592
24.92940	51372
24.93752	51400
24.94563	49034
24.95377	47793
24.96188	47816
24.97002	50072
24.97813	41956
24.98625	43277
24.99438	49172
25.00250	44350
25.01063	41759
25.01875	43792
25.02687	46854
25.03500	43840
25.04312	38868
25.05123	44715
25.05937	50950
25.06748	42694
25.07562	39465
25.08373	40941
25.09185	41686
25.09998	43625
25.10810	45878
25.11623	45233
25.12435	47650
25.13247	56025
25.14060	61855
25.14872	83630
25.15685	100758
25.16497	119986
25.17308	121059
25.18122	123914
25.18933	120151
25.19745	104413
25.20558	88684
25.21370	76976
25.22183	64929
25.22995	57692
25.23807	65766
25.24620	58981
25.25432	54514
25.26245	54658
25.27057	50084
25.27868	48702
25.28682	45803
25.29493	53041
25.30305	55831
25.31118	59516
25.31930	62963
25.32743	65838
25.33555	67145
25.34367	69213
25.35180	59033
25.35992	58560
25.36805	53422
25.37617	46760
25.38428	44552
25.39242	44881
25.40053	45255
25.40867	45732
25.41678	38821
25.42490	45985
25.43303	39841
25.44115	38728
25.44927	40020
25.45740	40359
25.46552	44657
25.47365	41903
25.48177	43283
25.48988	38394
25.49802	42699
25.50613	43824
25.51427	45674
25.52238	42277
25.53050	43003
25.53863	43752
25.54675	45237
25.55488	42463
25.56300	38701
25.57112	39564
25.57925	40322
25.58737	41702
25.59548	38129
25.60362	36812
25.61173	38962
25.61987	38585
25.62798	42537
25.63610	37985
25.64423	41504
25.65235	40557
25.66048	39035
25.66860	36738
25.67672	34604
25.68485	36942
25.69297	36347
25.70108	40166
25.70922	40412
25.71733	40939
25.72547	39316
25.73358	38305
25.74170	37945
25.74983	41969
25.75795	34783
25.76608	43684
25.77420	40625
25.78232	38791
25.79045	43803
25.79857	43492
25.80670	40679
25.81482	37538
25.82293	39902
25.83107	39735
25.83918	40150
25.84730	40156
25.85543	43212
25.86355	41463
25.87168	38195
25.87980	39863
25.88792	38758
25.89605	40752
25.90417	41061
25.91230	38779
25.92042	36210
25.92853	36579
25.93667	38937
25.94478	36622
25.95292	37445
25.96103	41317
25.96915	40040
25.97728	40506
25.98540	37063
25.99352	35645
26.00165	35316
26.00977	39031
26.01790	39507
26.02602	43048
26.03413	35333
26.04227	35348
26.05038	34740
26.05852	36735
26.06663	36722
26.07475	38216
26.08288	36776
26.09100	35605
26.09912	35752
26.10725	36424
26.11537	37271
26.12350	40401
26.13162	44104
26.13973	48187
26.14787	55275
26.15598	54586
26.16412	54912
26.17223	56724
26.18035	58587
26.18848	55494
26.19660	53581
26.20473	48913
26.21285	49043
26.22097	47241
26.22910	38580
26.23722	39460
26.24533	41744
26.25347	41074
26.26158	39633
26.26972	42233
26.27783	39529
26.28595	36592
26.29408	42842
26.30220	37432
26.31033	39577
26.31845	38219
26.32657	38206
26.33470	34377
26.34282	34049
26.35095	37036
26.35907	35153
26.36718	34539
26.37532	39050
26.38343	44284
26.39155	51637
26.39968	60484
26.40780	65728
26.41593	73810
26.42405	73443
26.43217	78687
26.44030	76053
26.44842	69553
26.45655	60277
26.46467	52362
26.47278	51833
26.48092	43027
26.48903	45124
26.49715	37291
26.50528	41419
26.51340	41339
26.52153	36483
26.52965	36909
26.53777	37174
26.54590	34171
26.55402	32563
26.56215	35972
26.57027	34888
26.57838	31643
26.58652	33915
26.59463	36547
26.60277	34797
26.61088	33743
26.61900	33663
26.62713	34606
26.63525	34327
26.64337	32138
26.65150	35302
26.65962	34220
26.66775	33189
26.67587	35112
26.68398	36021
26.69212	36884
26.70023	40259
26.70837	35749
26.71648	34570
26.72460	37160
26.73273	36424
26.74085	35779
26.74897	35198
26.75710	36479
26.76522	36972
26.77335	35732
26.78147	36465
26.78958	40672
26.79772	34801
26.80583	34315
26.81397	38495
26.82208	39281
26.83020	38279
26.83833	40324
26.84645	37160
26.85458	38961
26.86270	38311
26.87082	34879
26.87895	38273
26.88707	46546
26.89518	38321
26.90332	39136
26.91143	38563
26.91957	37453
26.92768	37477
26.93580	43924
26.94393	38307
26.95205	44131
26.96018	45160
26.96830	42831
26.97642	54263
26.98455	84915
26.99267	145720
27.00080	265388
27.00892	460082
27.01703	708247
27.02517	1069261
27.03328	1383271
27.04140	1585962
27.04953	1504819
27.05765	1288322
27.06578	1046262
27.07390	769653
27.08202	598520
27.09015	458155
27.09827	349252
27.10640	325810
27.11452	267397
27.12263	227985
27.13077	204462
27.13888	180163
27.14700	172088
27.15513	158556
27.16325	150462
27.17138	136160
27.17950	128446
27.18762	127259
27.19575	124586
27.20387	117084
27.21200	117572
27.22012	111894
27.22823	105927
27.23637	102384
27.24448	102472
27.25262	89555
27.26073	92597
27.26885	88059
27.27698	83210
27.28510	81639
27.29322	81767
27.30135	78795
27.30947	70745
27.31760	69103
27.32572	75312
27.33383	69931
27.34197	70986
27.35008	69426
27.35822	69918
27.36633	73902
27.37445	64534
27.38258	67467
27.39070	63663
27.39883	64282
27.40695	64294
27.41507	61435
27.42320	62706
27.43132	58697
27.43943	62173
27.44757	56469
27.45568	59995
27.46382	55893
27.47193	59468
27.48005	55747
27.48818	60823
27.49630	53941
27.50443	53210
27.51255	51321
27.52067	59320
27.52880	54810
27.53692	52545
27.54503	56738
27.55317	60321
27.56128	56782
27.56942	56424
27.57753	51010
27.58565	47852
27.59378	49938
27.60190	53849
27.61003	55286
27.61815	47798
27.62627	55702
27.63440	49389
27.64252	50182
27.65065	50795
27.65877	46516
27.66688	48427
27.67502	44899
27.68313	45900
27.69125	44463
27.69938	48012
27.70750	49110
27.71563	43437
27.72375	46371
27.73187	48121
27.74000	43765
27.74812	47260
27.75625	41481
27.76437	44869
27.77248	44709
27.78062	46656
27.78873	44790
27.79685	48909
27.80498	41476
27.81310	44764
27.82123	43255
27.82935	43276
27.83747	44655
27.84560	46221
27.85372	47520
27.86185	45816
27.86997	50655
27.87808	45378
27.88622	45303
27.89433	43834
27.90247	45150
27.91058	42787
27.91870	42573
27.92683	45494
27.93495	40921
27.94307	46725
27.95120	41650
27.95932	40983
27.96745	39287
27.97557	43439
27.98368	42764
27.99182	40912
27.99993	39518
28.00807	41600
28.01618	40784
28.02430	38817
28.03243	37613
28.04055	39835
28.04868	43482
28.05680	42889
28.06492	41195
28.07305	39928
28.08117	42017
28.08928	44449
28.09742	40055
28.10553	43210
28.11367	40879
28.12178	45207
28.12990	39401
28.13803	41959
28.14615	38449
28.15428	42717
28.16240	36520
28.17052	38483
28.17865	33580
28.18677	41412
28.19488	39491
28.20302	39024
28.21113	40207
28.21927	44695
28.22738	43135
28.23550	46890
28.24363	45798
28.25175	43148
28.25988	43414
28.26800	43665
28.27612	39983
28.28425	42933
28.29237	42595
28.30050	42726
28.30862	44053
28.31673	55871
28.32487	74053
28.33298	94563
28.34110	131099
28.34923	171655
28.35735	220636
28.36548	257817
28.37360	304769
28.38172	329883
28.38985	337566
28.39797	333307
28.40610	331161
28.41422	308721
28.42233	273192
28.43047	252863
28.43858	216439
28.44672	199562
28.45483	185539
28.46295	162114
28.47108	141339
28.47920	138839
28.48732	125402
28.49545	118745
28.50357	111090
28.51170	101540
28.51982	103334
28.52793	93636
28.53607	88629
28.54418	87775
28.55232	85303
28.56043	83455
28.56855	79151
28.57668	80763
28.58480	72516
28.59292	74738
28.60105	69457
28.60917	67157
28.61730	75690
28.62542	70431
28.63353	72015
28.64167	73013
28.64978	72509
28.65792	74285
28.66603	76391
28.67415	74226
28.68228	79633
28.69040	74732
28.69853	70321
28.70665	70809
28.71477	65859
28.72290	61495
28.73102	60819
28.73913	61020
28.74727	56808
28.75538	58852
28.76352	58750
28.77163	58709
28.77975	69645
28.78788	66888
28.79600	79506
28.80413	70125
28.81225	68620
28.82037	58953
28.82850	54935
28.83662	58355
28.84473	57528
28.85287	51343
28.86098	58775
28.86912	52137
28.87723	50578
28.88535	53263
28.89348	48930
28.90160	51132
28.90973	51587
28.91785	52787
28.92597	51853
28.93410	51584
28.94222	57953
28.95035	53313
28.95847	57861
28.96658	54714
28.97472	55462
28.98283	54621
28.99095	58625
28.99908	61319
29.00720	55026
29.01533	53974
29.02345	51527
29.03157	50066
29.03970	47767
29.04782	43558
29.05595	48777
29.06407	45962
29.07218	51603
29.08032	49856
29.08843	43785
29.09657	43137
29.10468	43693
29.11280	46299
29.12093	45827
29.12905	47958
29.13717	51672
29.14530	44538
29.15342	44402
29.16155	46641
29.16967	44451
29.17778	53336
29.18592	54811
29.19403	47032
29.20217	47887
29.21028	45770
29.21840	47568
29.22653	50158
29.23465	50110
29.24278	49970
29.25090	49285
29.25902	47892
29.26715	46489
29.27527	45396
29.28338	45290
29.29152	44174
29.29963	47182
29.30777	44742
29.31588	48005
29.32400	43151
29.33213	44716
29.34025	49502
29.34838	45749
29.35650	42014
29.36462	47711
29.37275	45755
29.38087	47422
29.38898	45491
29.39712	46398
29.40523	45972
29.41337	48177
29.42148	43225
29.42960	44024
29.43773	41578
29.44585	45441
29.45398	49198
29.46210	40700
29.47022	46038
29.47835	41706
29.48647	42707
29.49460	43701
29.50272	47410
29.51083	49876
29.51897	53945
29.52708	59074
29.53520	48804
29.54333	49787
29.55145	47508
29.55958	51037
29.56770	49337
29.57582	43761
29.58395	45407
29.59207	47257
29.60020	43081
29.60832	42160
29.61643	42409
29.62457	44061
29.63268	39742
29.64080	47109
29.64893	46798
29.65705	42017
29.66518	40255
29.67330	40909
29.68142	39792
29.68955	41220
29.69767	40632
29.70580	39910
29.71392	38134
29.72203	38724
29.73017	42930
29.73828	40563
29.74642	37824
29.75453	38366
29.76265	39022
29.77078	43412
29.77890	41148
29.78702	44167
29.79515	32943
29.80327	35136
29.81140	35374
29.81952	39419
29.82763	37384
29.83577	40138
29.84388	37859
29.85202	36460
29.86013	40983
29.86825	41099
29.87638	43088
29.88450	44501
29.89263	50822
29.90075	60331
29.90887	75774
29.91700	75536
29.92512	76204
29.93323	67021
29.94137	65639
29.94948	62362
29.95762	61465
29.96573	62942
29.97385	65919
29.98198	77731
29.99010	84561
29.99823	101229
30.00635	113914
30.01447	118543
30.02260	134572
30.03072	143870
30.03883	148054
30.04697	150226
30.05508	148443
30.06322	149176
30.07133	150343
30.07945	149245
30.08758	135392
30.09570	138782
30.10383	130119
30.11195	124415
30.12007	110816
30.12820	110169
30.13632	94189
30.14445	90919
30.15257	89355
30.16068	84454
30.16882	90721
30.17693	73060
30.18505	80599
30.19318	72130
30.20130	73423
30.20943	68694
30.21755	61637
30.22567	65249
30.23380	62856
30.24192	65152
30.25005	64069
30.25817	59446
30.26628	52789
30.27442	54242
30.28253	56989
30.29067	52556
30.29878	51744
30.30690	49938
30.31503	52194
30.32315	51010
30.33127	52712
30.33940	52510
30.34752	49312
30.35565	49398
30.36377	50440
30.37188	51187
30.38002	46165
30.38813	49761
30.39627	44690
30.40438	45249
30.41250	52013
30.42063	49474
30.42875	46015
30.43687	42347
30.44500	46802
30.45312	45074
30.46125	43122
30.46937	47910
30.47748	46369
30.48562	45660
30.49373	45015
30.50187	43599
30.50998	47225
30.51810	48558
30.52623	44413
30.53435	45947
30.54248	44962
30.55060	43357
30.55872	44805
30.56685	44472
30.57497	41583
30.58308	40909
30.59122	44247
30.59933	44475
30.60747	45345
30.61558	40745
30.62370	41275
30.63183	41559
30.63995	44560
30.64808	42043
30.65620	42832
30.66432	41408
30.67245	38179
30.68057	41524
30.68868	39536
30.69682	40112
30.70493	38950
30.71307	39200
30.72118	35682
30.72930	37958
30.73743	39891
30.74555	42896
30.75368	39735
30.76180	39463
30.76992	35668
30.77805	46514
30.78617	39930
30.79430	43357
30.80242	43761
30.81053	42524
30.81867	55962
30.82678	56850
30.83490	50270
30.84303	46532
30.85115	44266
30.85928	44853
30.86740	42542
30.87552	42612
30.88365	45339
30.89177	40560
30.89990	38567
30.90802	39178
30.91613	37912
30.92427	38424
30.93238	37475
30.94052	39005
30.94863	34188
30.95675	37495
30.96488	36430
30.97300	35703
30.98112	39931
30.98925	41236
30.99737	36578
31.00550	40454
31.01362	40611
31.02173	41406
31.02987	39511
31.03798	41686
31.04612	39490
31.05423	40804
31.06235	43396
31.07048	42199
31.07860	42384
31.08672	46967
31.09485	50716
31.10297	53083
31.11110	64090
31.11922	69604
31.12733	68788
31.13547	72922
31.14358	62114
31.15172	55528
31.15983	48197
31.16795	44857
31.17608	45515
31.18420	45053
31.19233	41066
31.20045	51522
31.20857	54554
31.21670	63230
31.22482	73009
31.23293	75149
31.24107	75781
31.24918	77329
31.25732	69544
31.26543	62569
31.27355	48862
31.28168	49654
31.28980	46070
31.29793	42994
31.30605	39874
31.31417	37596
31.32230	39948
31.33042	36765
31.33855	37714
31.34667	38696
31.35478	39147
31.36292	37690
31.37103	39434
31.37915	37131
31.38728	37928
31.39540	39154
31.40353	37359
31.41165	40363
31.41977	39844
31.42790	40640
31.43602	43610
31.44415	38608
31.45227	44546
31.46038	41012
31.46852	40647
31.47663	38066
31.48475	36495
31.49288	37888
31.50100	43026
31.50913	41293
31.51725	39356
31.52537	38413
31.53350	40139
31.54162	41403
31.54975	41920
31.55787	39279
31.56598	41020
31.57412	37215
31.58223	37752
31.59037	40179
31.59848	35861
31.60660	37001
31.61473	35459
31.62285	36495
31.63097	38474
31.63910	41178
31.64722	39651
31.65535	38527
31.66347	39234
31.67158	36787
31.67972	40391
31.68783	41535
31.69597	41805
31.70408	41019
31.71220	39668
31.72033	40266
31.72845	36122
31.73657	37156
31.74470	37440
31.75282	38636
31.76095	35968
31.76907	35253
31.77718	37876
31.78532	39275
31.79343	36543
31.80157	40597
31.80968	38980
31.81780	41295
31.82593	38098
31.83405	39788
31.84218	41575
31.85030	43630
31.85842	47988
31.86655	46798
31.87467	47805
31.88278	45177
31.89092	47564
31.89903	48798
31.90717	51799
31.91528	50294
31.92340	50728
31.93153	61609
31.93965	61873
31.94778	66797
31.95590	76135
31.96402	80093
31.97215	88441
31.98027	86588
31.98840	92661
31.99652	93888
32.00463	92412
32.01277	90924
32.02088	86641
32.02900	81608
32.03713	82466
32.04525	77567
32.05338	75476
32.06150	65785
32.06962	68229
32.07775	58814
32.08587	64023
32.09400	61084
32.10212	61156
32.11023	59839
32.11837	58678
32.12648	57710
32.13460	55748
32.14273	54756
32.15085	50900
32.15898	50125
32.16710	48738
32.17522	49329
32.18335	46477
32.19147	50290
32.19960	46880
32.20772	45103
32.21583	42256
32.22397	45478
32.23208	48274
32.24022	44320
32.24833	46812
32.25645	40255
32.26458	43000
32.27270	41464
32.28082	47200
32.28895	46681
32.29707	44846
32.30520	40871
32.31332	39798
32.32143	43876
32.32957	44938
32.33768	47324
32.34582	43962
32.35393	43451
32.36205	39207
32.37018	45766
32.37830	42894
32.38643	45367
32.39455	44778
32.40267	34686
32.41080	41190
32.41892	41695
32.42703	36020
32.43517	36054
32.44328	40049
32.45142	40957
32.45953	44336
32.46765	41891
32.47578	43334
32.48390	40551
32.49203	39566
32.50015	38177
32.50827	40457
32.51640	36481
32.52452	38901
32.53263	43346
32.54077	41431
32.54888	40074
32.55702	42747
32.56513	39610
32.57325	43046
32.58138	42696
32.58950	39596
32.59763	42134
32.60575	41709
32.61387	41976
32.62200	36754
32.63012	39009
32.63825	41308
32.64637	34250
32.65448	39707
32.66262	45315
32.67073	46845
32.67885	44840
32.68698	50241
32.69510	49023
32.70323	52513
32.71135	50296
32.71947	45328
32.72760	49337
32.73572	45110
32.74385	42219
32.75197	42707
32.76008	42051
32.76822	38281
32.77633	38615
32.78447	38753
32.79258	39110
32.80070	36592
32.80883	39028
32.81695	40015
32.82507	39328
32.83320	36514
32.84132	40089
32.84945	36189
32.85757	36431
32.86568	36435
32.87382	35122
32.88193	37713
32.89007	37258
32.89818	41249
32.90630	39693
32.91443	37399
32.92255	37176
32.93067	40310
32.93880	40570
32.94692	37045
32.95505	40449
32.96317	37805
32.97128	37786
32.97942	36106
32.98753	36261
32.99567	39519
33.00378	39140
33.01190	39850
33.02003	40864
33.02815	41686
33.03628	40542
33.04440	37861
33.05252	39981
33.06065	36468
33.06877	37009
33.07688	37039
33.08502	39254
33.09313	39901
33.10127	45825
33.10938	47254
33.11750	52155
33.12563	51321
33.13375	54588
33.14188	56981
33.15000	54200
33.15812	49116
33.16625	45694
33.17437	45525
33.18248	43403
33.19062	41299
33.19873	41724
33.20687	42519
33.21498	38776
33.22310	45981
33.23123	41349
33.23935	50882
33.24748	41335
33.25560	44149
33.26372	37533
33.27185	38574
33.27997	36946
33.28810	37997
33.29622	38772
33.30433	38653
33.31247	43147
33.32058	43655
33.32870	44035
33.33683	43581
33.34495	41894
33.35308	41314
33.36120	39162
33.36932	38953
33.37745	37984
33.38557	38200
33.39370	36436
33.40182	39119
33.40993	39858
33.41807	35897
33.42618	33793
33.43432	38227
33.44243	40597
33.45055	35415
33.45868	40489
33.46680	37418
33.47492	35783
33.48305	35812
33.49117	38375
33.49930	38585
33.50742	35985
33.51553	37016
33.52367	38765
33.53178	42339
33.53992	39660
33.54803	39735
33.55615	36979
33.56428	40062
33.57240	40678
33.58052	37779
33.58865	43083
33.59677	39624
33.60490	38170
33.61302	41545
33.62113	38287
33.62927	41478
33.63738	40023
33.64552	38270
33.65363	39167
33.66175	42328
33.66988	37008
33.67800	40109
33.68613	40866
33.69425	36663
33.70237	38696
33.71050	35631
33.71862	36908
33.72673	35911
33.73487	37821
33.74298	37766
33.75112	35856
33.75923	40596
33.76735	38707
33.77548	39606
33.78360	36443
33.79173	37133
33.79985	41744
33.80797	41572
33.81610	39353
33.82422	40371
33.83235	39079
33.84047	37847
33.84858	37107
33.85672	38590
33.86483	39355
33.87295	40342
33.88108	39616
33.88920	42536
33.89733	40341
33.90545	40699
33.91357	39734
33.92170	39411
33.92982	35602
33.93795	40550
33.94607	43126
33.95418	41107
33.96232	48555
33.97043	38654
33.97855	43719
33.98668	47053
33.99480	41374
34.00293	42208
34.01105	43497
34.01917	38967
34.02730	38309
34.03542	38319
34.04355	40016
34.05167	45344
34.05978	45477
34.06792	40266
34.07603	43583
34.08417	40572
34.09228	41023
34.10040	40844
34.10853	41220
34.11665	37832
34.12477	36316
34.13290	42552
34.14102	34364
34.14915	40300
34.15727	40510
34.16538	41325
34.17352	39162
34.18163	41408
34.18977	41395
34.19788	41398
34.20600	38952
34.21413	37429
34.22225	39713
34.23037	40670
34.23850	40114
34.24662	37580
34.25475	43421
34.26287	37262
34.27098	39915
34.27912	38240
34.28723	41782
34.29537	40349
34.30348	39234
34.31160	40102
34.31973	40553
34.32785	42799
34.33598	38802
34.34410	41233
34.35222	43016
34.36035	35242
34.36847	37436
34.37658	41382
34.38472	40664
34.39283	36016
34.40097	40139
34.40908	38539
34.41720	40554
34.42533	37887
34.43345	41799
34.44158	39879
34.44970	38629
34.45782	40102
34.46595	38366
34.47407	38797
34.48220	39920
34.49032	39913
34.49843	41665
34.50657	45378
34.51468	42230
34.52280	42892
34.53093	45487
34.53905	50832
34.54718	52120
34.55530	61480
34.56342	68221
34.57155	75405
34.57967	74239
34.58780	77667
34.59592	71965
34.60403	69175
34.61217	63891
34.62028	59360
34.62842	62544
34.63653	56600
34.64465	52293
34.65278	52270
34.66090	52480
34.66902	49285
34.67715	49564
34.68527	49480
34.69340	45772
34.70152	47229
34.70963	48370
34.71777	48563
34.72588	51564
34.73402	44863
34.74213	42607
34.75025	45946
34.75838	44534
34.76650	45807
34.77462	43707
34.78275	43190
34.79087	44677
34.79900	42314
34.80712	46123
34.81523	43788
34.82337	45156
34.83148	43811
34.83962	49148
34.84773	42205
34.85585	45279
34.86398	48273
34.87210	44209
34.88023	43779
34.88835	42966
34.89647	43086
34.90460	44526
34.91272	45235
34.92083	39565
34.92897	43566
34.93708	42558
34.94522	45205
34.95333	44945
34.96145	49766
34.96958	54954
34.97770	56864
34.98583	66363
34.99395	68892
35.00207	66952
35.01020	59688
35.01832	55979
35.02643	50106
35.03457	50797
35.04268	47086
35.05082	44437
35.05893	51916
35.06705	42528
35.07518	44883
35.08330	41179
35.09143	43692
35.09955	46268
35.10767	50460
35.11580	48357
35.12392	49646
35.13205	45399
35.14017	44874
35.14828	44967
35.15642	43412
35.16453	43349
35.17265	44209
35.18078	46279
35.18890	47914
35.19703	46301
35.20515	41322
35.21327	45576
35.22140	46252
35.22952	48320
35.23765	41703
35.24577	43377
35.25388	44662
35.26202	41507
35.27013	44759
35.27825	44119
35.28638	42602
35.29450	44420
35.30263	41335
35.31075	42712
35.31887	43470
35.32700	44430
35.33512	41318
35.34325	43153
35.35137	39969
35.35948	43923
35.36762	46513
35.37573	42015
35.38387	42562
35.39198	41293
35.40010	46042
35.40823	40873
35.41635	40828
35.42447	42340
35.43260	51067
35.44072	51131
35.44885	47475
35.45697	50563
35.46508	50537
35.47322	49248
35.48133	50925
35.48947	52359
35.49758	49908
35.50570	45275
35.51383	46327
35.52195	48902
35.53008	54990
35.53820	50997
35.54632	46207
35.55445	42813
35.56257	43139
35.57068	44750
35.57882	43841
35.58693	45274
35.59507	46612
35.60318	49465
35.61130	46050
35.61943	45521
35.62755	43820
35.63568	41669
35.64380	42335
35.65192	47528
35.66005	44857
35.66817	43878
35.67630	42554
35.68442	48053
35.69253	49712
35.70067	50274
35.70878	50347
35.71690	51544
35.72503	46794
35.73315	47795
35.74128	45676
35.74940	44395
35.75752	44127
35.76565	45588
35.77377	44963
35.78190	45880
35.79002	48548
35.79813	43691
35.80627	46623
35.81438	45554
35.82250	46927
35.83063	45087
35.83875	47851
35.84688	47084
35.85500	46851
35.86312	46710
35.87125	45048
35.87937	50339
35.88750	43364
35.89562	49202
35.90373	46664
35.91187	45866
35.91998	45805
35.92812	50813
35.93623	43758
35.94435	45364
35.95248	42768
35.96060	40791
35.96872	45626
35.97685	44246
35.98497	44611
35.99310	44957
36.00122	45129
36.00933	47413
36.01747	50764
36.02558	51195
36.03372	54977
36.04183	54843
36.04995	52033
36.05808	52085
36.06620	49042
36.07432	52538
36.08245	51045
36.09057	43361
36.09870	49944
36.10682	48748
36.11493	48980
36.12307	44460
36.13118	43710
36.13932	44232
36.14743	49541
36.15555	46955
36.16368	48529
36.17180	43999
36.17993	45220
36.18805	45480
36.19617	50240
36.20430	50345
36.21242	52703
36.22053	57332
36.22867	46801
36.23678	50800
36.24492	47771
36.25303	48162
36.26115	48010
36.26928	42301
36.27740	49410
36.28553	48036
36.29365	44326
36.30177	48873
36.30990	49363
36.31802	55386
36.32615	56063
36.33427	55398
36.34238	58938
36.35052	59528
36.35863	56493
36.36675	51366
36.37488	53761
36.38300	49509
36.39113	47801
36.39925	56781
36.40737	53488
36.41550	47471
36.42362	48805
36.43175	50822
36.43987	48026
36.44798	47243
36.45612	47727
36.46423	44905
36.47235	46770
36.48048	50927
36.48860	50878
36.49673	48457
36.50485	49300
36.51297	46985
36.52110	44675
36.52922	44694
36.53735	46854
36.54547	45338
36.55358	45193
36.56172	45798
36.56983	51296
36.57797	47158
36.58608	46189
36.59420	47947
36.60233	47965
36.61045	46688
36.61857	50621
36.62670	46355
36.63482	47363
36.64295	45343
36.65107	49151
36.65918	50989
36.66732	48588
36.67543	47754
36.68357	49613
36.69168	54478
36.69980	50491
36.70793	52948
36.71605	47866
36.72418	47071
36.73230	49645
36.74042	48029
36.74855	47330
36.75667	48960
36.76478	51576
36.77292	49333
36.78103	46217
36.78917	46960
36.79728	49935
36.80540	42723
36.81353	48709
36.82165	47233
36.82978	48120
36.83790	52137
36.84602	44526
36.85415	45018
36.86227	47904
36.87038	47718
36.87852	49357
36.88663	44728
36.89477	46007
36.90288	51979
36.91100	50101
36.91913	48415
36.92725	49339
36.93538	47935
36.94350	49677
36.95162	46994
36.95975	48637
36.96787	50731
36.97600	49544
36.98412	45742
36.99223	51174
37.00037	52764
37.00848	46388
37.01660	49432
37.02473	48870
37.03285	52822
37.04098	48448
37.04910	43817
37.05722	51624
37.06535	48570
37.07347	46101
37.08160	50186
37.08972	53799
37.09783	50822
37.10597	52948
37.11408	53728
37.12220	52033
37.13033	53888
37.13845	51601
37.14658	53696
37.15470	54319
37.16282	55035
37.17095	52890
37.17907	53331
37.18720	52632
37.19532	53377
37.20343	54573
37.21157	51919
37.21968	58062
37.22782	60263
37.23593	56779
37.24405	53246
37.25218	50642
37.26030	54946
37.26842	55356
37.27655	54824
37.28467	52533
37.29280	49207
37.30092	52628
37.30903	54111
37.31717	54171
37.32528	52546
37.33342	53519
37.34153	60434
37.34965	65448
37.35778	63385
37.36590	68030
37.37403	73457
37.38215	75172
37.39027	79861
37.39840	79277
37.40652	75544
37.41463	68800
37.42277	63977
37.43088	65437
37.43902	66408
37.44713	61367
37.45525	59907
37.46338	57520
37.47150	63173
37.47963	57373
37.48775	69016
