C:\MassHunter\GCMS\1\data\JTB-E02\BACandBLUE\JTB-E18-017-07.D Wed Jul 03 11:33:46 2019
Start of data points
2.09532,77126
2.10345,81384
2.11157,78810
2.11968,82506
2.12782,80767
2.13593,75916
2.14407,73066
2.15218,72071
2.16030,74470
2.16843,79543
2.17655,68398
2.18468,71281
2.19280,79785
2.20092,69383
2.20905,64965
2.21717,70484
2.22530,68534
2.23342,70627
2.24153,65666
2.24967,65904
2.25778,68374
2.26590,86183
2.27403,503226
2.28215,1714241
2.29028,1169496
2.29840,451395
2.30652,300476
2.31465,245007
2.32277,229911
2.33090,200479
2.33902,238697
2.34713,195353
2.35527,167527
2.36338,153269
2.37150,139019
2.37963,136200
2.38775,133045
2.39588,126174
2.40400,126592
2.41212,124425
2.42025,123729
2.42837,123879
2.43650,114420
2.44462,113234
2.45273,119477
2.46087,107097
2.46898,106249
2.47712,110377
2.48523,108127
2.49335,139345
2.50148,158800
2.50960,123210
2.51772,111200
2.52585,111059
2.53397,108329
2.54210,107769
2.55022,108943
2.55833,146680
2.56647,227323
2.57458,193668
2.58272,149266
2.59083,133154
2.59895,133067
2.60708,309017
2.61520,857818
2.62333,763433
2.63145,391915
2.63957,270953
2.64770,225417
2.65582,184733
2.66393,169784
2.67207,152920
2.68018,140393
2.68832,129762
2.69643,127672
2.70455,121937
2.71268,119267
2.72080,110988
2.72893,110791
2.73705,111479
2.74517,109804
2.75330,109003
2.76142,110002
2.76953,103354
2.77767,114185
2.78578,172982
2.79392,232173
2.80203,178232
2.81015,148640
2.81828,164256
2.82640,173175
2.83453,150099
2.84265,133596
2.85077,121400
2.85890,118319
2.86702,112893
2.87515,106104
2.88327,104611
2.89138,106541
2.89952,99891
2.90763,102312
2.91575,100614
2.92388,95187
2.93200,96743
2.94013,92557
2.94825,94497
2.95637,92612
2.96450,102577
2.97262,110566
2.98075,103169
2.98887,95315
2.99698,97282
3.00512,99717
3.01323,98066
3.02137,97255
3.02948,92362
3.03760,88873
3.04573,87677
3.05385,90879
3.06197,91902
3.07010,93898
3.07822,135162
3.08635,694032
3.09447,2374435
3.10258,3842365
3.11072,5096575
3.11883,4853531
3.12697,2920225
3.13508,1847718
3.14320,1412234
3.15133,1131399
3.15945,921879
3.16757,820365
3.17570,792976
3.18382,862593
3.19195,1476358
3.20007,2126862
3.20818,1722937
3.21632,1146605
3.22443,916497
3.23257,772575
3.24068,662317
3.24880,577370
3.25693,513079
3.26505,468186
3.27318,420631
3.28130,408399
3.28942,509356
3.29755,1193665
3.30567,2787376
3.31378,4293096
3.32192,4159095
3.33003,3134025
3.33817,2249576
3.34628,1781593
3.35440,1491964
3.36253,1261926
3.37065,1103270
3.37878,982849
3.38690,890580
3.39502,828470
3.40315,764646
3.41127,705703
3.41938,673728
3.42752,624878
3.43563,622093
3.44377,602048
3.45188,571124
3.46000,564376
3.46813,559318
3.47625,579852
3.48438,564866
3.49250,518477
3.50062,492775
3.50875,479852
3.51687,448900
3.52500,447203
3.53312,443034
3.54123,460147
3.54937,456770
3.55748,426773
3.56560,436518
3.57373,471938
3.58185,508961
3.58998,486644
3.59810,425228
3.60622,402292
3.61435,401535
3.62247,400128
3.63060,385863
3.63872,392872
3.64683,383328
3.65497,385251
3.66308,665402
3.67122,2486235
3.67933,6553275
3.68745,8388252
3.69558,6028340
3.70370,3458396
3.71182,2433534
3.71995,1966670
3.72807,1682071
3.73620,1471191
3.74432,1312844
3.75243,1193775
3.76057,1113534
3.76868,1028303
3.77682,968226
3.78493,913169
3.79305,880089
3.80118,944640
3.80930,1373355
3.81742,2124107
3.82555,2213194
3.83367,1683324
3.84180,1255388
3.84992,1068253
3.85803,951241
3.86617,865704
3.87428,786696
3.88242,771318
3.89053,734901
3.89865,689790
3.90678,660845
3.91490,687098
3.92303,817406
3.93115,981432
3.93927,1018310
3.94740,1211094
3.95552,2731689
3.96363,6159702
3.97177,8418099
3.97988,7114777
3.98802,4432359
3.99613,4105314
4.00425,9439687
4.01238,2.07276E+07
4.02050,2.774501E+07
4.02863,2.300887E+07
4.03675,1.349612E+07
4.04487,7298060
4.05300,4688207
4.06112,3417494
4.06925,2706901
4.07737,2243206
4.08548,1924411
4.09362,1677149
4.10173,1490091
4.10985,1341616
4.11798,1206273
4.12610,1126417
4.13423,1109625
4.14235,1274227
4.15047,1659922
4.15860,1818633
4.16672,1583859
4.17485,1279457
4.18297,1118935
4.19108,987637
4.19922,910990
4.20733,1153288
4.21545,2997116
4.22358,8004792
4.23170,1.459955E+07
4.23983,1.783731E+07
4.24795,1.462937E+07
4.25607,8843798
4.26420,5590389
4.27232,4092859
4.28045,3156064
4.28857,2556126
4.29668,2111079
4.30482,1821565
4.31293,1598028
4.32107,1438169
4.32918,1304007
4.33730,1224509
4.34543,1159153
4.35355,1155503
4.36167,1164054
4.36980,1120152
4.37792,1050086
4.38605,972290
4.39417,889037
4.40228,836183
4.41042,803118
4.41853,780881
4.42667,735648
4.43478,723544
4.44290,694152
4.45103,671472
4.45915,659079
4.46727,638079
4.47540,609349
4.48352,588262
4.49165,577560
4.49977,579341
4.50788,560697
4.51602,547647
4.52413,530275
4.53227,525829
4.54038,512733
4.54850,517108
4.55663,520349
4.56475,502111
4.57288,474800
4.58100,464048
4.58912,456187
4.59725,461984
4.60537,441421
4.61348,441917
4.62162,501756
4.62973,685712
4.63787,1020989
4.64598,1272245
4.65410,1180032
4.66223,918035
4.67035,691794
4.67848,605631
4.68660,557690
4.69472,513040
4.70285,485863
4.71097,446348
4.71910,435213
4.72722,416875
4.73533,400725
4.74347,389167
4.75158,385004
4.75970,375622
4.76783,371589
4.77595,357877
4.78408,370114
4.79220,438517
4.80032,588524
4.80845,728654
4.81657,726753
4.82470,615544
4.83282,514709
4.84093,498651
4.84907,476203
4.85718,480750
4.86530,447147
4.87343,420746
4.88155,406506
4.88968,386804
4.89780,376939
4.90592,365090
4.91405,352385
4.92217,357005
4.93030,390674
4.93842,534195
4.94653,877136
4.95467,1379616
4.96278,1805225
4.97092,1883882
4.97903,1642355
4.98715,1342704
4.99528,1066004
5.00340,939283
5.01152,814168
5.01965,787581
5.02777,945465
5.03590,1295616
5.04402,1584105
5.05213,1536355
5.06027,1271802
5.06838,1039442
5.07652,903683
5.08463,803837
5.09275,766119
5.10088,708428
5.10900,673299
5.11713,635246
5.12525,607589
5.13337,585446
5.14150,566259
5.14962,577153
5.15773,613601
5.16587,672244
5.17398,699128
5.18212,662504
5.19023,627658
5.19835,627511
5.20648,688484
5.21460,702819
5.22273,692505
5.23085,614505
5.23897,558054
5.24710,530101
5.25522,502974
5.26333,460080
5.27147,427522
5.27958,416174
5.28772,410174
5.29583,402805
5.30395,393840
5.31208,386026
5.32020,402141
5.32833,415557
5.33645,435616
5.34457,460905
5.35270,456090
5.36082,429812
5.36895,391830
5.37707,398810
5.38518,400508
5.39332,417126
5.40143,419147
5.40955,413345
5.41768,387524
5.42580,370204
5.43393,359573
5.44205,361425
5.45017,362471
5.45830,377246
5.46642,363198
5.47455,358897
5.48267,337481
5.49078,317699
5.49892,326986
5.50703,317588
5.51517,316332
5.52328,320627
5.53140,328206
5.53953,316379
5.54765,308001
5.55577,339593
5.56390,389629
5.57202,455143
5.58015,486160
5.58827,460058
5.59638,398734
5.60452,354505
5.61263,331297
5.62077,321221
5.62888,329146
5.63700,336230
5.64513,334336
5.65325,332748
5.66137,310495
5.66950,315117
5.67762,326200
5.68575,348667
5.69387,368331
5.70198,368900
5.71012,347245
5.71823,319789
5.72637,310755
5.73448,303229
5.74260,284717
5.75073,278513
5.75885,272097
5.76698,272930
5.77510,267093
5.78322,257261
5.79135,262207
5.79947,261374
5.80758,258868
5.81572,258351
5.82383,254885
5.83197,262921
5.84008,263078
5.84820,254640
5.85633,251569
5.86445,249338
5.87258,245484
5.88070,248292
5.88882,248417
5.89695,241469
5.90507,228704
5.91318,203993
5.92132,181310
5.92943,174713
5.93757,185726
5.94568,194419
5.95380,217185
5.96193,235946
5.97005,254315
5.97818,299436
5.98630,330945
5.99442,347346
6.00255,314093
6.01067,268187
6.01880,241592
6.02692,222244
6.03503,217289
6.04317,189149
6.05128,187180
6.05940,178388
6.06753,176829
6.07565,171616
6.08378,174574
6.09190,168416
6.10002,171661
6.10815,175239
6.11627,184717
6.12440,231587
6.13252,334412
6.14063,520249
6.14877,639608
6.15688,635660
6.16502,501024
6.17313,384238
6.18125,314563
6.18938,274460
6.19750,253283
6.20562,229017
6.21375,228787
6.22187,229054
6.23000,221683
6.23812,222070
6.24623,232812
6.25437,244281
6.26248,254130
6.27062,256025
6.27873,250048
6.28685,233451
6.29498,228274
6.30310,220954
6.31122,223723
6.31935,215379
6.32747,236343
6.33560,243080
6.34372,249172
6.35183,249708
6.35997,250140
6.36808,228504
6.37622,227327
6.38433,232157
6.39245,233963
6.40058,236785
6.40870,226893
6.41683,229865
6.42495,226281
6.43307,234265
6.44120,231710
6.44932,240545
6.45743,235037
6.46557,231961
6.47368,231787
6.48182,236895
6.48993,236132
6.49805,238131
6.50618,237664
6.51430,239967
6.52243,249262
6.53055,249634
6.53867,248017
6.54680,242239
6.55492,254469
6.56305,279908
6.57117,342516
6.57928,429109
6.58742,466382
6.59553,416581
6.60365,340319
6.61178,303092
6.61990,292764
6.62803,275344
6.63615,279609
6.64427,312224
6.65240,490398
6.66052,931133
6.66865,1505935
6.67677,1737555
6.68488,1438346
6.69302,995099
6.70113,661108
6.70925,502716
6.71738,427095
6.72550,392725
6.73363,361215
6.74175,335608
6.74987,334033
6.75800,327202
6.76612,307639
6.77425,301186
6.78237,302552
6.79048,295687
6.79862,295197
6.80673,281940
6.81487,235053
6.82298,222029
6.83110,216332
6.83923,229013
6.84735,255557
6.85547,298134
6.86360,293894
6.87172,264785
6.87985,221590
6.88797,174923
6.89608,146684
6.90422,136707
6.91233,126530
6.92047,125811
6.92858,117530
6.93670,118226
6.94483,118817
6.95295,115924
6.96107,127726
6.96920,150746
6.97732,166845
6.98545,172485
6.99357,162619
7.00168,144585
7.00982,130573
7.01793,123314
7.02607,122331
7.03418,123214
7.04230,122126
7.05043,134409
7.05855,128073
7.06668,118383
7.07480,116066
7.08292,113868
7.09105,111740
7.09917,104376
7.10728,102975
7.11542,103330
7.12353,101758
7.13167,104344
7.13978,136397
7.14790,198824
7.15603,304103
7.16415,361399
7.17228,361541
7.18040,299760
7.18852,234081
7.19665,176352
7.20477,149475
7.21290,137742
7.22102,144854
7.22913,218500
7.23727,469255
7.24538,929156
7.25350,1383972
7.26163,1505411
7.26975,1202936
7.27788,772232
7.28600,485796
7.29412,343349
7.30225,297392
7.31037,272731
7.31850,243397
7.32662,191219
7.33473,153863
7.34287,130058
7.35098,119492
7.35912,120999
7.36723,124854
7.37535,132044
7.38348,121778
7.39160,120859
7.39972,118594
7.40785,106238
7.41597,99728
7.42410,100897
7.43222,102718
7.44033,105353
7.44847,104498
7.45658,104720
7.46472,99805
7.47283,101278
7.48095,98211
7.48908,107798
7.49720,135305
7.50532,216874
7.51345,378530
7.52157,662453
7.52970,1030097
7.53782,1370726
7.54593,1559671
7.55407,1480486
7.56218,1188122
7.57032,838021
7.57843,564898
7.58655,370118
7.59468,267310
7.60280,201088
7.61093,172158
7.61905,165104
7.62717,145055
7.63530,129834
7.64342,123277
7.65153,115376
7.65967,105753
7.66778,107823
7.67592,105149
7.68403,98598
7.69215,104773
7.70028,100365
7.70840,101412
7.71653,98314
7.72465,90177
7.73277,93143
7.74090,92090
7.74902,92731
7.75713,85097
7.76527,89296
7.77338,95143
7.78152,100954
7.78963,117061
7.79775,123928
7.80588,138996
7.81400,134509
7.82213,125830
7.83025,117167
7.83837,115640
7.84650,112177
7.85462,126333
7.86275,133094
7.87087,157642
7.87898,161393
7.88712,158399
7.89523,141234
7.90335,115888
7.91148,105913
7.91960,111283
7.92773,119990
7.93585,138452
7.94397,164568
7.95210,160471
7.96022,150476
7.96835,136261
7.97647,112099
7.98458,103128
7.99272,93010
8.00083,88774
8.00897,78452
8.01708,80197
8.02520,77054
8.03333,82968
8.04145,83489
8.04957,84396
8.05770,84958
8.06582,78061
8.07395,79337
8.08207,79410
8.09018,71703
8.09832,80442
8.10643,77412
8.11457,81007
8.12268,83213
8.13080,95186
8.13893,100612
8.14705,120202
8.15517,113658
8.16330,115579
8.17142,106797
8.17955,86937
8.18767,79915
8.19578,83986
8.20392,78602
8.21203,78612
8.22017,74814
8.22828,75633
8.23640,76253
8.24453,71246
8.25265,69740
8.26078,69392
8.26890,68529
8.27702,78462
8.28515,76612
8.29327,74722
8.30138,75072
8.30952,78223
8.31763,81015
8.32577,75197
8.33388,75549
8.34200,75513
8.35013,68484
8.35825,78568
8.36638,80849
8.37450,81289
8.38262,91033
8.39075,87408
8.39887,86275
8.40700,74010
8.41512,74039
8.42323,69335
8.43137,64847
8.43948,68494
8.44760,69801
8.45573,66376
8.46385,71056
8.47198,72647
8.48010,68875
8.48822,68978
8.49635,62243
8.50447,60757
8.51260,65110
8.52072,63436
8.52883,76366
8.53697,120423
8.54508,198892
8.55320,302596
8.56133,401988
8.56945,409491
8.57758,342965
8.58570,250596
8.59382,182376
8.60195,148718
8.61007,125774
8.61820,114174
8.62632,99991
8.63443,91081
8.64257,87077
8.65068,82990
8.65882,80769
8.66693,85404
8.67505,88528
8.68318,98363
8.69130,95590
8.69942,92151
8.70755,86918
8.71567,82412
8.72380,80811
8.73192,83785
8.74003,113916
8.74817,202011
8.75628,385987
8.76442,615322
8.77253,819829
8.78065,895905
8.78878,763028
8.79690,567562
8.80502,388998
8.81315,288510
8.82127,224973
8.82940,193598
8.83752,182962
8.84563,193209
8.85377,201146
8.86188,204459
8.87002,203660
8.87813,194531
8.88625,190984
8.89438,184686
8.90250,175779
8.91063,176490
8.91875,170249
8.92687,162568
8.93500,170921
8.94312,180191
8.95123,196112
8.95937,193337
8.96748,204428
8.97562,209308
8.98373,192642
8.99185,183272
8.99998,171402
9.00810,158239
9.01623,148113
9.02435,139708
9.03247,133182
9.04060,131411
9.04872,128988
9.05685,126206
9.06497,128321
9.07308,122548
9.08122,131149
9.08933,146360
9.09745,170654
9.10558,195129
9.11370,209677
9.12183,212894
9.12995,185071
9.13807,169395
9.14620,141531
9.15432,140405
9.16245,129196
9.17057,123550
9.17868,116943
9.18682,115690
9.19493,105026
9.20305,103328
9.21118,114330
9.21930,111990
9.22743,120328
9.23555,109438
9.24367,108992
9.25180,107681
9.25992,118494
9.26805,104278
9.27617,100580
9.28428,108768
9.29242,102031
9.30053,104863
9.30867,104009
9.31678,107483
9.32490,104281
9.33303,103175
9.34115,96351
9.34927,100883
9.35740,102967
9.36552,101258
9.37365,101195
9.38177,100743
9.38988,114767
9.39802,138666
9.40613,168335
9.41427,218079
9.42238,265350
9.43050,292559
9.43863,281740
9.44675,244733
9.45488,205887
9.46300,161723
9.47112,134401
9.47925,124938
9.48737,109327
9.49548,108674
9.50362,133711
9.51173,140886
9.51987,158368
9.52798,159510
9.53610,137651
9.54423,121129
9.55235,109816
9.56048,92861
9.56860,87174
9.57672,94940
9.58485,93808
9.59297,89408
9.60108,79894
9.60922,71394
9.61733,71881
9.62547,66740
9.63358,59938
9.64170,62705
9.64983,63079
9.65795,60012
9.66608,62853
9.67420,63800
9.68232,62852
9.69045,58532
9.69857,54606
9.70670,56756
9.71482,60249
9.72293,59024
9.73107,60257
9.73918,58063
9.74730,59027
9.75543,55154
9.76355,58070
9.77168,54579
9.77980,59795
9.78792,64646
9.79605,58486
9.80417,57922
9.81230,56701
9.82042,58563
9.82853,62492
9.83667,53796
9.84478,57984
9.85292,59427
9.86103,55391
9.86915,64083
9.87728,68251
9.88540,68249
9.89352,72104
9.90165,78134
9.90977,85775
9.91790,104389
9.92602,137233
9.93413,177729
9.94227,228526
9.95038,253851
9.95852,267886
9.96663,240691
9.97475,199646
9.98288,151569
9.99100,123407
9.99912,109170
10.00725,93103
10.01537,86576
10.02350,80354
10.03162,73211
10.03973,68347
10.04787,68806
10.05598,67608
10.06412,63659
10.07223,70198
10.08035,74210
10.08848,78094
10.09660,81866
10.10473,85503
10.11285,88187
10.12097,87266
10.12910,85811
10.13722,83372
10.14533,80205
10.15347,71249
10.16158,68509
10.16972,68979
10.17783,69278
10.18595,65981
10.19408,68076
10.20220,64128
10.21033,65997
10.21845,67300
10.22657,68856
10.23470,70401
10.24282,83484
10.25093,100147
10.25907,122944
10.26718,212238
10.27532,418643
10.28343,834328
10.29155,1480463
10.29968,2179619
10.30780,2960872
10.31593,4127438
10.32405,5956740
10.33217,8160113
10.34030,9676495
10.34842,9632782
10.35655,8320045
10.36467,6615564
10.37278,4902332
10.38092,3516864
10.38903,2398544
10.39715,1620951
10.40528,1089928
10.41340,749426
10.42153,561634
10.42965,489154
10.43777,453422
10.44590,445966
10.45402,456765
10.46215,448230
10.47027,421761
10.47838,413447
10.48652,372273
10.49463,353319
10.50277,321850
10.51088,310876
10.51900,279811
10.52713,273386
10.53525,258688
10.54337,246190
10.55150,244005
10.55962,241737
10.56775,238857
10.57587,241140
10.58398,226618
10.59212,213728
10.60023,212083
10.60837,191684
10.61648,181486
10.62460,177394
10.63273,178557
10.64085,166061
10.64897,167312
10.65710,168678
10.66522,166114
10.67335,175855
10.68147,176556
10.68958,164518
10.69772,162349
10.70583,157298
10.71397,151432
10.72208,152754
10.73020,159350
10.73833,159502
10.74645,154143
10.75458,154157
10.76270,142962
10.77082,132045
10.77895,128793
10.78707,122398
10.79518,128905
10.80332,130943
10.81143,144324
10.81957,130670
10.82768,125699
10.83580,117148
10.84393,113455
10.85205,108567
10.86018,104933
10.86830,107738
10.87642,110325
10.88455,108408
10.89267,111897
10.90080,105250
10.90892,103730
10.91703,99491
10.92517,101169
10.93328,99560
10.94140,95967
10.94953,99479
10.95765,100574
10.96578,114558
10.97390,113638
10.98202,117487
10.99015,120459
10.99827,117138
11.00640,111350
11.01452,104453
11.02263,99318
11.03077,93055
11.03888,87515
11.04700,96302
11.05513,92182
11.06325,92865
11.07138,105135
11.07950,111157
11.08762,113821
11.09575,117232
11.10387,111998
11.11200,101405
11.12012,94692
11.12823,83868
11.13637,81672
11.14448,83575
11.15262,82651
11.16073,84674
11.16885,85741
11.17698,89655
11.18510,89516
11.19322,92589
11.20135,98661
11.20947,94668
11.21760,95204
11.22572,97519
11.23383,85091
11.24197,83748
11.25008,79698
11.25822,78743
11.26633,73494
11.27445,80497
11.28258,92040
11.29070,144949
11.29882,275582
11.30695,571044
11.31507,1124578
11.32320,1855497
11.33132,2460264
11.33943,2784449
11.34757,2590839
11.35568,2012517
11.36382,1387857
11.37193,863428
11.38005,556109
11.38818,371202
11.39630,326958
11.40443,321574
11.41255,333701
11.42067,339312
11.42880,335159
11.43692,313893
11.44503,283507
11.45317,255292
11.46128,219119
11.46942,215509
11.47753,217521
11.48565,221419
11.49378,242780
11.50190,259321
11.51003,246977
11.51815,231245
11.52627,208822
11.53440,187018
11.54252,180014
11.55065,170959
11.55877,169389
11.56688,170055
11.57502,173599
11.58313,164346
11.59125,177773
11.59938,188115
11.60750,210731
11.61563,226921
11.62375,224632
11.63187,204497
11.64000,175409
11.64812,167502
11.65625,147904
11.66437,144894
11.67248,154758
11.68062,169091
11.68873,188542
11.69685,214567
11.70498,218628
11.71310,209653
11.72123,174705
11.72935,145396
11.73747,130120
11.74560,120878
11.75372,106709
11.76185,107984
11.76997,104092
11.77808,104946
11.78622,104647
11.79433,104099
11.80247,104735
11.81058,107124
11.81870,104201
11.82683,109695
11.83495,102828
11.84307,103046
11.85120,103608
11.85932,104106
11.86745,96327
11.87557,96484
11.88368,91082
11.89182,93069
11.89993,88562
11.90807,90981
11.91618,92571
11.92430,100297
11.93243,96438
11.94055,100320
11.94868,93625
11.95680,88373
11.96492,99174
11.97305,121113
11.98117,193493
11.98928,332900
11.99742,569417
12.00553,834330
12.01367,980309
12.02178,947111
12.02990,742547
12.03803,543823
12.04615,362665
12.05428,263719
12.06240,219522
12.07052,187275
12.07865,191521
12.08677,183294
12.09488,194675
12.10302,190542
12.11113,185740
12.11927,205386
12.12738,205825
12.13550,195790
12.14363,177268
12.15175,163075
12.15988,136775
12.16800,123851
12.17612,109831
12.18425,114397
12.19237,110566
12.20050,117456
12.20862,114848
12.21673,108567
12.22487,107324
12.23298,104712
12.24110,106137
12.24923,107971
12.25735,109944
12.26548,110672
12.27360,105121
12.28172,101086
12.28985,95430
12.29797,97425
12.30610,95965
12.31422,93893
12.32233,92198
12.33047,87455
12.33858,93327
12.34670,91281
12.35483,83862
12.36295,88561
12.37108,93025
12.37920,90820
12.38732,96405
12.39545,106851
12.40357,107576
12.41170,121889
12.41982,148546
12.42793,154880
12.43607,157509
12.44418,148653
12.45232,136523
12.46043,126397
12.46855,117708
12.47668,105028
12.48480,103988
12.49292,94893
12.50105,90929
12.50917,93004
12.51730,91212
12.52542,97381
12.53353,98957
12.54167,113725
12.54978,136811
12.55792,147945
12.56603,177401
12.57415,190914
12.58228,178599
12.59040,165229
12.59853,140565
12.60665,133858
12.61477,125551
12.62290,121124
12.63102,115997
12.63913,121022
12.64727,108111
12.65538,102496
12.66352,95932
12.67163,86542
12.67975,90967
12.68788,86833
12.69600,86585
12.70413,87496
12.71225,91288
12.72037,95273
12.72850,99750
12.73662,106754
12.74475,101225
12.75287,99553
12.76098,94390
12.76912,86265
12.77723,84628
12.78535,83844
12.79348,82971
12.80160,84531
12.80973,80945
12.81785,76963
12.82597,75600
12.83410,75099
12.84222,74142
12.85035,78470
12.85847,77520
12.86658,78088
12.87472,80408
12.88283,83467
12.89095,88515
12.89908,87397
12.90720,76812
12.91533,80579
12.92345,76504
12.93157,83560
12.93970,90270
12.94782,97171
12.95595,111074
12.96407,158816
12.97218,235045
12.98032,316965
12.98843,381081
12.99657,352908
13.00468,291769
13.01280,223771
13.02093,187868
13.02905,182869
13.03717,209561
13.04530,279886
13.05342,330663
13.06155,374732
13.06967,374000
13.07778,304691
13.08592,246410
13.09403,182263
13.10217,139309
13.11028,119157
13.11840,111798
13.12653,117030
13.13465,122157
13.14277,126953
13.15090,124895
13.15902,125288
13.16715,122122
13.17527,115032
13.18338,113089
13.19152,106123
13.19963,109001
13.20777,109645
13.21588,113289
13.22400,121247
13.23213,111607
13.24025,113503
13.24838,109490
13.25650,99480
13.26462,92133
13.27275,88171
13.28087,82717
13.28898,79587
13.29712,82382
13.30523,86753
13.31337,79345
13.32148,78275
13.32960,77511
13.33773,74840
13.34585,76931
13.35398,77245
13.36210,81086
13.37022,79559
13.37835,83189
13.38647,74517
13.39460,76630
13.40272,70942
13.41083,66632
13.41897,66440
13.42708,63780
13.43520,64306
13.44333,74196
13.45145,78025
13.45958,84664
13.46770,86829
13.47582,88523
13.48395,89644
13.49207,88269
13.50020,86361
13.50832,84172
13.51643,77899
13.52457,84628
13.53268,82803
13.54080,81688
13.54893,86235
13.55705,84708
13.56518,81055
13.57330,83865
13.58142,84570
13.58955,87349
13.59767,101630
13.60580,117987
13.61392,151267
13.62203,182236
13.63017,188938
13.63828,166157
13.64642,142101
13.65453,117491
13.66265,98153
13.67078,95586
13.67890,87909
13.68702,84384
13.69515,85212
13.70327,76369
13.71140,79449
13.71952,82266
13.72763,103236
13.73577,178808
13.74388,410650
13.75202,1037337
13.76013,1940167
13.76825,3131455
13.77638,4031418
13.78450,4174567
13.79263,3567592
13.80075,2649925
13.80887,1842664
13.81700,1381220
13.82512,1199165
13.83323,1130173
13.84137,1018400
13.84948,889165
13.85762,733707
13.86573,597542
13.87385,488177
13.88198,422580
13.89010,388471
13.89823,341947
13.90635,325425
13.91447,288343
13.92260,279921
13.93072,256883
13.93883,245786
13.94697,253127
13.95508,269913
13.96322,296707
13.97133,324408
13.97945,353930
13.98758,362033
13.99570,334748
14.00383,300921
14.01195,252063
14.02007,238316
14.02820,218209
14.03632,203619
14.04445,206005
14.05257,193024
14.06068,196568
14.06882,197050
14.07693,183415
14.08505,185088
14.09318,170958
14.10130,174458
14.10943,171638
14.11755,173876
14.12567,184974
14.13380,202265
14.14192,214640
14.15005,239710
14.15817,256388
14.16628,259197
14.17442,278718
14.18253,311997
14.19065,377109
14.19878,409333
14.20690,417459
14.21503,398601
14.22315,362906
14.23127,330704
14.23940,306385
14.24752,283773
14.25565,276220
14.26377,249611
14.27188,224423
14.28002,203652
14.28813,186664
14.29627,185399
14.30438,177844
14.31250,179699
14.32063,168915
14.32875,163395
14.33687,157832
14.34500,148538
14.35312,126871
14.36125,119889
14.36937,109609
14.37748,109133
14.38562,119622
14.39373,158552
14.40187,233193
14.40998,326584
14.41810,438838
14.42623,501306
14.43435,457905
14.44248,367250
14.45060,268761
14.45872,205622
14.46685,172367
14.47497,159000
14.48308,159496
14.49122,142405
14.49933,142078
14.50747,151101
14.51558,152751
14.52370,158193
14.53183,159225
14.53995,157948
14.54808,156186
14.55620,130840
14.56432,118962
14.57245,111415
14.58057,104526
14.58868,96981
14.59682,94272
14.60493,96706
14.61307,100151
14.62118,97992
14.62930,102105
14.63743,102687
14.64555,98586
14.65368,92383
14.66180,85501
14.66992,91573
14.67805,85348
14.68617,91023
14.69430,90878
14.70242,95218
14.71053,95615
14.71867,101663
14.72678,112993
14.73490,115365
14.74303,126620
14.75115,121637
14.75928,124265
14.76740,109777
14.77552,106468
14.78365,116711
14.79177,191099
14.79990,374475
14.80802,769883
14.81613,1456741
14.82427,2287133
14.83238,2769373
14.84052,2725979
14.84863,2218478
14.85675,1490686
14.86488,941050
14.87300,613892
14.88112,434775
14.88925,339146
14.89737,284543
14.90550,261818
14.91362,234911
14.92173,218563
14.92987,210717
14.93798,188597
14.94612,185835
14.95423,177387
14.96235,167966
14.97048,146760
14.97860,140554
14.98672,143978
14.99485,141966
15.00297,141247
15.01110,148921
15.01922,145802
15.02733,140142
15.03547,143936
15.04358,131567
15.05172,127428
15.05983,123986
15.06795,119290
15.07608,115985
15.08420,112169
15.09233,106781
15.10045,106237
15.10857,102314
15.11670,113180
15.12482,111504
15.13293,114142
15.14107,116594
15.14918,122308
15.15732,127844
15.16543,120509
15.17355,120067
15.18168,113849
15.18980,109926
15.19793,99454
15.20605,100781
15.21417,93437
15.22230,86456
15.23042,90516
15.23853,90311
15.24667,94529
15.25478,84453
15.26292,82601
15.27103,86514
15.27915,77186
15.28728,75314
15.29540,73852
15.30353,74883
15.31165,71811
15.31977,71121
15.32790,68773
15.33602,71329
15.34415,67583
15.35227,70631
15.36038,68938
15.36852,69848
15.37663,67181
15.38475,72007
15.39288,73567
15.40100,70873
15.40913,74191
15.41725,74437
15.42537,76226
15.43350,74920
15.44162,81574
15.44975,85730
15.45787,112800
15.46598,159107
15.47412,233302
15.48223,354992
15.49037,470825
15.49848,547831
15.50660,545391
15.51473,472587
15.52285,383887
15.53097,328844
15.53910,264021
15.54722,233560
15.55535,199007
15.56347,175904
15.57158,149790
15.57972,129815
15.58783,116026
15.59597,107576
15.60408,106180
15.61220,98683
15.62033,88580
15.62845,88220
15.63657,85573
15.64470,79578
15.65282,80387
15.66095,80096
15.66907,80207
15.67718,79652
15.68532,73040
15.69343,71850
15.70157,76507
15.70968,75148
15.71780,78106
15.72593,79828
15.73405,78385
15.74218,78845
15.75030,88727
15.75842,112003
15.76655,153834
15.77467,214519
15.78278,280725
15.79092,310229
15.79903,291273
15.80717,242572
15.81528,187413
15.82340,145668
15.83153,113328
15.83965,108872
15.84778,102711
15.85590,98449
15.86402,94174
15.87215,98247
15.88027,97214
15.88840,97063
15.89652,92860
15.90463,89209
15.91277,87570
15.92088,89649
15.92900,92474
15.93713,100107
15.94525,123066
15.95338,146046
15.96150,200117
15.96962,264817
15.97775,281050
15.98587,279556
15.99400,244465
16.00212,207942
16.01023,173782
16.01837,155476
16.02648,140071
16.03460,131468
16.04273,123105
16.05085,113204
16.05898,105756
16.06710,96955
16.07522,89059
16.08335,90026
16.09147,87076
16.09960,90040
16.10772,91768
16.11583,86814
16.12397,89164
16.13208,100351
16.14022,107621
16.14833,111536
16.15645,106643
16.16458,98140
16.17270,93032
16.18082,94530
16.18895,91933
16.19707,103061
16.20520,108662
16.21332,120550
16.22143,141577
16.22957,149411
16.23768,135948
16.24582,128397
16.25393,121975
16.26205,109405
16.27018,111951
16.27830,106395
16.28643,111644
16.29455,112961
16.30267,109886
16.31080,105891
16.31892,101769
16.32703,96261
16.33517,97324
16.34328,100400
16.35142,132085
16.35953,169569
16.36765,218117
16.37578,250379
16.38390,251694
16.39203,214289
16.40015,178921
16.40827,142187
16.41640,116508
16.42452,105997
16.43263,96870
16.44077,101651
16.44888,121569
16.45702,170405
16.46513,250382
16.47325,355397
16.48138,393952
16.48950,399931
16.49763,336679
16.50575,255168
16.51387,179807
16.52200,141733
16.53012,124860
16.53825,112378
16.54637,97244
16.55448,93480
16.56262,93277
16.57073,103572
16.57885,111787
16.58698,115515
16.59510,129554
16.60323,154603
16.61135,176146
16.61947,166272
16.62760,159509
16.63572,141367
16.64385,120967
16.65197,106705
16.66008,95883
16.66822,96223
16.67633,86455
16.68445,84121
16.69258,84717
16.70070,78711
16.70883,80200
16.71695,80194
16.72507,71340
16.73320,70879
16.74132,73872
16.74945,70869
16.75757,71795
16.76568,73553
16.77382,65773
16.78193,73927
16.79007,69233
16.79818,68468
16.80630,67678
16.81443,71159
16.82255,70585
16.83067,65785
16.83880,68035
16.84692,67496
16.85505,64060
16.86317,64911
16.87128,64943
16.87942,61862
16.88753,63391
16.89567,58482
16.90378,57669
16.91190,60940
16.92003,59312
16.92815,58808
16.93628,61085
16.94440,69670
16.95252,63325
16.96065,59018
16.96877,64000
16.97688,69555
16.98502,70289
16.99313,66369
17.00127,68187
17.00938,69108
17.01750,71713
17.02563,71537
17.03375,70769
17.04188,74528
17.05000,82838
17.05812,83294
17.06625,77672
17.07437,77421
17.08248,72581
17.09062,70615
17.09873,69921
17.10687,73596
17.11498,74012
17.12310,71484
17.13123,73614
17.13935,77483
17.14748,77260
17.15560,75351
17.16372,74273
17.17185,73630
17.17997,68656
17.18810,69593
17.19622,68745
17.20433,59116
17.21247,62741
17.22058,62955
17.22870,63443
17.23683,66361
17.24495,63130
17.25308,65651
17.26120,66087
17.26932,63402
17.27745,60992
17.28557,61470
17.29370,59157
17.30182,63219
17.30993,64174
17.31807,79984
17.32618,91264
17.33432,95540
17.34243,102733
17.35055,102751
17.35868,95396
17.36680,90192
17.37492,88512
17.38305,85239
17.39117,82136
17.39930,87437
17.40742,88335
17.41553,94315
17.42367,93454
17.43178,89673
17.43992,89671
17.44803,87184
17.45615,83214
17.46428,72860
17.47240,68729
17.48052,75393
17.48865,69190
17.49677,69290
17.50490,67972
17.51302,72213
17.52113,68821
17.52927,70645
17.53738,65634
17.54552,72677
17.55363,79625
17.56175,107745
17.56988,170349
17.57800,274765
17.58613,443969
17.59425,668127
17.60237,867305
17.61050,919505
17.61862,842349
17.62673,660731
17.63487,510098
17.64298,395628
17.65112,342573
17.65923,333889
17.66735,323588
17.67548,302896
17.68360,265603
17.69173,217676
17.69985,181895
17.70797,157947
17.71610,143454
17.72422,134154
17.73233,128948
17.74047,120625
17.74858,114275
17.75672,115872
17.76483,108502
17.77295,104162
17.78108,102439
17.78920,107446
17.79733,118983
17.80545,152273
17.81357,201702
17.82170,242831
17.82982,271328
17.83795,258230
17.84607,243057
17.85418,207715
17.86232,184793
17.87043,161337
17.87855,139815
17.88668,124370
17.89480,106378
17.90293,99208
17.91105,86599
17.91917,82890
17.92730,81951
17.93542,83200
17.94355,73829
17.95167,75024
17.95978,74079
17.96792,75775
17.97603,71753
17.98417,65690
17.99228,73103
18.00040,74594
18.00853,76954
18.01665,89095
18.02477,103044
18.03290,115899
18.04102,120428
18.04915,152008
18.05727,232079
18.06538,450536
18.07352,841737
18.08163,1304937
18.08977,1707666
18.09788,1834463
18.10600,1648839
18.11413,1285048
18.12225,913163
18.13038,663786
18.13850,499845
18.14662,426882
18.15475,352840
18.16287,320959
18.17098,295208
18.17912,272017
18.18723,243705
18.19537,231546
18.20348,212013
18.21160,203148
18.21973,180272
18.22785,175151
18.23598,163511
18.24410,159905
18.25222,145177
18.26035,143800
18.26847,135648
18.27658,121369
18.28472,105147
18.29283,110310
18.30097,144684
18.30908,195405
18.31720,241885
18.32533,282422
18.33345,304761
18.34158,313975
18.34970,318623
18.35782,331681
18.36595,342894
18.37407,333773
18.38220,333905
18.39032,345597
18.39843,344251
18.40657,354947
18.41468,362055
18.42280,376957
18.43093,406583
18.43905,418303
18.44718,447166
18.45530,481258
18.46342,546464
18.47155,592989
18.47967,625319
18.48780,620251
18.49592,577644
18.50403,508421
18.51217,452064
18.52028,397796
18.52840,365499
18.53653,354838
18.54465,325006
18.55278,314885
18.56090,314029
18.56902,315934
18.57715,301744
18.58527,294637
18.59340,302826
18.60152,305417
18.60963,319930
18.61777,315579
18.62588,327279
18.63402,317410
18.64213,304470
18.65025,302657
18.65838,294342
18.66650,287513
18.67462,270010
18.68275,262089
18.69087,257453
18.69900,252510
18.70712,247243
18.71523,244234
18.72337,236857
18.73148,238080
18.73962,238120
18.74773,232839
18.75585,228047
18.76398,223277
18.77210,218736
18.78023,218841
18.78835,212441
18.79647,217009
18.80460,218190
18.81272,221260
18.82083,210467
18.82897,207494
18.83708,204220
18.84522,207435
18.85333,214117
18.86145,211070
18.86958,210456
18.87770,203522
18.88583,198686
18.89395,200526
18.90207,195989
18.91020,200628
18.91832,186767
18.92643,198639
18.93457,198405
18.94268,200705
18.95082,199845
18.95893,209564
18.96705,206670
18.97518,206870
18.98330,197748
18.99143,189160
18.99955,188635
19.00767,177078
19.01580,182503
19.02392,176297
19.03205,170581
19.04017,172947
19.04828,167797
19.05642,177069
19.06453,188249
19.07265,216964
19.08078,262683
19.08890,328228
19.09703,387399
19.10515,431062
19.11327,424941
19.12140,383197
19.12952,330794
19.13765,268860
19.14577,242261
19.15388,213800
19.16202,205744
19.17013,198686
19.17827,188063
19.18638,175384
19.19450,173745
19.20263,172350
19.21075,160637
19.21887,157768
19.22700,150355
19.23512,144703
19.24325,147277
19.25137,146382
19.25948,142955
19.26762,147369
19.27573,151756
19.28387,152216
19.29198,154700
19.30010,157042
19.30823,157929
19.31635,154438
19.32447,150723
19.33260,154425
19.34072,160948
19.34885,171909
19.35697,191072
19.36508,215283
19.37322,231029
19.38133,244647
19.38947,229416
19.39758,197135
19.40570,171749
19.41383,152203
19.42195,153717
19.43008,144716
19.43820,135872
19.44632,145183
19.45445,154594
19.46257,156428
19.47068,177533
19.47882,209593
19.48693,266115
19.49507,325956
19.50318,352502
19.51130,359202
19.51943,315623
19.52755,266295
19.53568,223380
19.54380,200006
19.55192,167788
19.56005,156740
19.56817,149127
19.57628,139159
19.58442,124732
19.59253,125559
19.60067,119969
19.60878,120421
19.61690,118913
19.62503,126075
19.63315,145385
19.64128,180376
19.64940,226650
19.65752,297254
19.66565,354613
19.67377,404550
19.68190,403302
19.69002,391280
19.69813,350803
19.70627,295623
19.71438,265857
19.72250,237181
19.73063,208835
19.73875,191516
19.74688,177352
19.75500,169404
19.76312,169799
19.77125,179721
19.77937,205419
19.78750,228797
19.79562,242205
19.80373,249947
19.81187,241818
19.81998,217365
19.82812,195975
19.83623,173803
19.84435,192147
19.85248,309529
19.86060,633985
19.86872,1411560
19.87685,2752521
19.88497,4527920
19.89310,6121480
19.90122,7043806
19.90933,6734360
19.91747,5449775
19.92558,3918363
19.93372,2578672
19.94183,1704705
19.94995,1245386
19.95808,1010262
19.96620,856683
19.97432,766275
19.98245,696811
19.99057,651663
19.99870,618039
20.00682,591791
20.01493,539018
20.02307,501705
20.03118,467688
20.03932,437404
20.04743,407455
20.05555,372098
20.06368,370248
20.07180,381930
20.07993,394150
20.08805,370752
20.09617,354941
20.10430,311711
20.11242,265685
20.12053,241629
20.12867,219751
20.13678,230697
20.14492,258865
20.15303,341271
20.16115,494272
20.16928,692017
20.17740,883663
20.18553,1042098
20.19365,1109807
20.20177,1086147
20.20990,1006123
20.21802,859769
20.22615,730723
20.23427,648514
20.24238,618816
20.25052,664114
20.25863,758814
20.26675,846725
20.27488,891569
20.28300,860131
20.29113,771688
20.29925,653743
20.30737,532819
20.31550,425107
20.32362,325210
20.33175,275589
20.33987,219230
20.34798,183740
20.35612,165935
20.36423,151276
20.37235,133793
20.38048,125760
20.38860,115026
20.39673,116774
20.40485,114891
20.41297,117764
20.42110,121738
20.42922,129411
20.43735,128467
20.44547,137411
20.45358,142542
20.46172,153774
20.46983,157411
20.47797,149585
20.48608,132640
20.49420,124527
20.50233,114076
20.51045,104571
20.51857,94731
20.52670,87297
20.53482,95045
20.54295,92109
20.55107,94042
20.55918,85419
20.56732,86173
20.57543,88470
20.58357,81704
20.59168,78947
20.59980,77633
20.60793,81046
20.61605,86190
20.62417,86611
20.63230,95363
20.64042,97584
20.64855,100759
20.65667,96844
20.66478,93108
20.67292,94273
20.68103,84888
20.68917,82679
20.69728,75033
20.70540,78698
20.71353,76914
20.72165,80646
20.72978,81627
20.73790,78051
20.74602,81708
20.75415,86495
20.76227,96036
20.77038,95401
20.77852,127203
20.78663,192689
20.79477,313572
20.80288,466850
20.81100,603983
20.81913,706560
20.82725,671259
20.83538,546806
20.84350,387484
20.85162,250915
20.85975,186203
20.86787,142964
20.87600,123117
20.88412,116197
20.89223,111511
20.90037,112161
20.90848,117176
20.91660,124566
20.92473,124198
20.93285,134169
20.94098,127187
20.94910,121054
20.95722,118236
20.96535,104789
20.97347,101166
20.98160,90051
20.98972,88116
20.99783,82213
21.00597,84811
21.01408,86855
21.02220,88847
21.03033,89372
21.03845,86163
21.04658,88947
21.05470,83443
21.06282,81191
21.07095,78183
21.07907,75971
21.08720,73310
21.09532,72470
21.10343,73734
21.11157,73456
21.11968,75309
21.12782,89365
21.13593,106423
21.14405,135506
21.15218,157170
21.16030,177918
21.16842,179953
21.17655,159328
21.18467,144996
21.19280,114414
21.20092,103261
21.20903,89440
21.21717,83908
21.22528,85236
21.23342,82316
21.24153,77293
21.24965,84584
21.25778,77809
21.26590,76114
21.27403,75153
21.28215,74848
21.29027,73533
21.29840,72736
21.30652,70638
21.31463,65397
21.32277,67361
21.33088,70829
21.33902,67916
21.34713,68560
21.35525,67486
21.36338,65624
21.37150,68219
21.37963,77053
21.38775,84178
21.39587,95264
21.40400,108147
21.41212,110914
21.42023,105267
21.42837,97529
21.43648,91348
21.44462,86834
21.45273,82427
21.46085,77140
21.46898,77474
21.47710,75307
21.48523,69770
21.49335,67309
21.50147,70559
21.50960,69305
21.51772,69243
21.52585,63843
21.53397,66770
21.54208,65708
21.55022,63920
21.55833,67823
21.56645,68979
21.57458,78304
21.58270,82591
21.59083,84913
21.59895,87024
21.60707,95827
21.61520,101654
21.62332,103183
21.63145,112289
21.63957,119134
21.64768,117207
21.65582,116120
21.66393,118350
21.67207,118720
21.68018,116027
21.68830,114451
21.69643,100828
21.70455,97118
21.71267,87327
21.72080,85152
21.72892,77962
21.73705,72818
21.74517,75539
21.75328,75213
21.76142,75534
21.76953,76292
21.77767,81771
21.78578,84588
21.79390,91878
21.80203,91536
21.81015,100640
21.81827,100088
21.82640,107323
21.83452,101217
21.84265,101166
21.85077,96390
21.85888,93983
21.86702,84122
21.87513,74946
21.88327,77929
21.89138,76806
21.89950,70565
21.90763,69812
21.91575,65051
21.92388,64814
21.93200,69441
21.94012,65610
21.94825,61222
21.95637,63142
21.96448,61522
21.97262,53281
21.98073,55676
21.98887,58055
21.99698,58332
22.00510,55999
22.01323,59295
22.02135,59886
22.02948,63839
22.03760,60974
22.04572,65822
22.05385,62906
22.06197,59460
22.07008,61127
22.07822,61958
22.08633,66745
22.09447,60872
22.10258,55353
22.11070,57695
22.11883,53938
22.12695,59710
22.13508,53849
22.14320,59477
22.15132,55676
22.15945,55410
22.16757,52515
22.17570,51627
22.18382,52738
22.19193,56976
22.20007,57435
22.20818,60651
22.21630,60420
22.22443,59870
22.23255,61743
22.24068,67024
22.24880,55466
22.25692,63384
22.26505,58312
22.27317,69898
22.28130,72250
22.28942,80390
22.29753,83980
22.30567,72742
22.31378,75660
22.32192,73338
22.33003,76049
22.33815,69515
22.34628,70561
22.35440,67007
22.36252,65329
22.37065,63462
22.37877,69226
22.38690,92098
22.39502,107787
22.40313,134457
22.41127,166576
22.41938,179417
22.42752,185645
22.43563,173686
22.44375,144310
22.45188,116964
22.46000,109071
22.46812,103387
22.47625,105094
22.48437,119702
22.49250,136853
22.50062,142952
22.50873,152238
22.51687,150502
22.52498,133870
22.53312,126618
22.54123,115140
22.54935,100821
22.55748,90191
22.56560,87807
22.57373,85101
22.58185,79819
22.58997,68549
22.59810,69599
22.60622,68026
22.61433,66226
22.62247,64154
22.63058,62998
22.63872,64650
22.64683,73066
22.65495,69521
22.66308,69181
22.67120,69463
22.67933,73426
22.68745,80956
22.69557,89429
22.70370,102813
22.71182,104711
22.71995,108798
22.72807,102790
22.73618,99814
22.74432,82769
22.75243,78051
22.76055,71938
22.76868,69248
22.77680,78280
22.78493,86212
22.79305,100730
22.80117,108821
22.80930,112038
22.81742,110374
22.82555,106451
22.83367,97957
22.84178,88774
22.84992,85465
22.85803,92326
22.86615,101505
22.87428,121467
22.88240,140951
22.89053,152863
22.89865,177634
22.90677,190016
22.91490,213966
22.92302,227766
22.93115,217687
22.93927,197670
22.94738,173970
22.95552,136098
22.96363,120640
22.97177,103642
22.97988,91348
22.98800,90307
22.99613,89036
23.00425,82417
23.01237,84041
23.02050,83442
23.02862,85214
23.03675,82899
23.04487,88394
23.05298,83325
23.06112,88582
23.06923,87762
23.07737,88423
23.08548,85212
23.09360,91310
23.10173,82252
23.10985,79152
23.11797,78501
23.12610,82127
23.13422,75690
23.14235,73493
23.15047,74586
23.15858,74191
23.16672,76501
23.17483,75827
23.18297,73547
23.19108,73328
23.19920,75259
23.20733,78306
23.21545,72877
23.22358,74485
23.23170,74165
23.23982,78984
23.24795,86220
23.25607,85603
23.26418,86984
23.27232,88894
23.28043,81029
23.28857,83361
23.29668,75743
23.30480,75601
23.31293,74526
23.32105,84697
23.32918,99849
23.33730,113380
23.34542,143423
23.35355,165937
23.36167,191786
23.36980,210855
23.37792,233086
23.38603,227262
23.39417,234851
23.40228,214189
23.41040,215415
23.41853,207063
23.42665,205570
23.43478,194941
23.44290,184900
23.45102,184394
23.45915,170015
23.46727,159120
23.47540,157572
23.48352,156143
23.49163,145212
23.49977,149025
23.50788,132759
23.51602,136019
23.52413,124941
23.53225,119383
23.54038,125118
23.54850,129514
23.55662,137601
23.56475,151253
23.57287,180416
23.58100,215133
23.58912,274000
23.59723,303515
23.60537,325853
23.61348,294622
23.62162,260478
23.62973,216191
23.63785,191070
23.64598,200787
23.65410,205165
23.66222,204844
23.67035,208379
23.67847,188833
23.68660,167162
23.69472,136181
23.70283,114674
23.71097,101066
23.71908,98991
23.72722,99206
23.73533,118744
23.74345,191860
23.75158,400998
23.75970,895417
23.76783,1900880
23.77595,3227645
23.78407,4324873
23.79220,4625881
23.80032,4479158
23.80843,3805242
23.81657,2957356
23.82468,2252242
23.83282,1620824
23.84093,1212721
23.84905,938312
23.85718,745503
23.86530,627488
23.87343,523178
23.88155,465329
23.88967,417125
23.89780,384086
23.90592,358780
23.91403,339644
23.92217,326202
23.93028,293011
23.93842,274626
23.94653,254485
23.95465,236561
23.96278,229657
23.97090,209622
23.97903,202437
23.98715,193352
23.99527,226087
24.00340,301060
24.01152,438151
24.01965,635238
24.02777,873314
24.03588,985617
24.04402,959931
24.05213,785570
24.06025,559986
24.06838,378489
24.07650,275825
24.08463,219557
24.09275,190769
24.10087,164784
24.10900,157046
24.11712,154477
24.12525,161558
24.13337,165448
24.14148,167279
24.14962,173994
24.15773,167997
24.16587,165974
24.17398,159532
24.18210,155396
24.19023,165301
24.19835,162203
24.20647,160259
24.21460,146680
24.22272,136208
24.23085,133902
24.23897,122126
24.24708,113462
24.25522,110149
24.26333,108783
24.27147,98881
24.27958,99929
24.28770,96521
24.29583,99747
24.30395,97496
24.31207,96952
24.32020,99317
24.32832,103253
24.33645,95934
24.34457,94791
24.35268,103578
24.36082,106373
24.36893,125677
24.37707,164872
24.38518,190221
24.39330,209131
24.40143,200033
24.40955,168168
24.41768,145567
24.42580,108964
24.43392,102095
24.44205,104081
24.45017,111023
24.45828,130907
24.46642,145603
24.47453,169323
24.48267,182656
24.49078,192282
24.49890,210831
24.50703,209347
24.51515,225451
24.52328,237439
24.53140,280667
24.53952,307580
24.54765,340394
24.55577,365749
24.56390,355376
24.57202,327472
24.58013,289479
24.58827,257325
24.59638,215580
24.60450,189307
24.61263,180879
24.62075,178728
24.62888,171062
24.63700,160310
24.64512,165507
24.65325,166948
24.66137,163463
24.66950,165076
24.67762,161187
24.68573,162617
24.69387,155510
24.70198,160916
24.71010,158922
24.71823,148566
24.72635,149183
24.73448,152228
24.74260,147418
24.75072,147523
24.75885,147160
24.76697,158523
24.77510,159444
24.78322,162306
24.79133,158881
24.79947,163281
24.80758,164837
24.81572,168180
24.82383,184194
24.83195,204046
24.84008,227139
24.84820,280501
24.85632,349356
24.86445,425243
24.87257,541782
24.88070,636603
24.88882,721397
24.89693,753316
24.90507,658915
24.91318,538494
24.92132,411283
24.92943,317904
24.93755,240982
24.94568,204991
24.95380,181334
24.96192,177683
24.97005,158074
24.97817,155403
24.98630,151690
24.99442,147792
25.00253,143069
25.01067,140106
25.01878,141388
25.02692,143687
25.03503,137009
25.04315,135375
25.05128,136032
25.05940,132039
25.06753,134742
25.07565,135808
25.08377,146358
25.09190,178632
25.10002,263500
25.10813,466481
25.11627,939542
25.12438,1649081
25.13252,2563562
25.14063,3282398
25.14875,3485908
25.15688,3226370
25.16500,2507299
25.17313,1696402
25.18125,1076514
25.18937,633592
25.19750,384900
25.20562,255145
25.21375,198620
25.22187,173668
25.22998,170725
25.23812,185719
25.24623,229341
25.25435,280996
25.26248,321057
25.27060,359102
25.27873,362172
25.28685,324166
25.29497,273902
25.30310,212101
25.31122,171128
25.31935,144082
25.32747,127097
25.33558,112669
25.34372,103013
25.35183,95598
25.35995,94868
25.36808,88519
25.37620,88925
25.38433,86836
25.39245,82780
25.40057,81210
25.40870,84323
25.41682,80561
25.42495,78059
25.43307,73654
25.44118,73898
25.44932,78220
25.45743,81303
25.46557,83279
25.47368,86141
25.48180,87691
25.48993,78751
25.49805,84726
25.50617,76020
25.51430,73353
25.52242,74135
25.53055,71771
25.53867,68660
25.54678,70977
25.55492,70730
25.56303,78390
25.57117,88291
25.57928,103392
25.58740,135885
25.59553,151669
25.60365,166183
25.61178,170982
25.61990,172145
25.62802,175571
25.63615,184032
25.64427,183499
25.65238,185620
25.66052,188654
25.66863,190760
25.67677,201822
25.68488,205012
25.69300,205554
25.70113,205359
25.70925,205957
25.71738,199798
25.72550,202282
25.73362,195271
25.74175,184440
25.74987,186666
25.75798,186668
25.76612,192027
25.77423,196930
25.78237,193164
25.79048,194307
25.79860,193694
25.80673,197382
25.81485,199651
25.82298,207222
25.83110,209752
25.83922,226446
25.84735,230740
25.85547,238027
25.86360,219733
25.87172,204149
25.87983,187523
25.88797,183584
25.89608,173336
25.90420,167656
25.91233,169457
25.92045,157635
25.92858,162821
25.93670,167676
25.94482,158843
25.95295,157361
25.96107,152693
25.96920,154015
25.97732,152540
25.98543,150479
25.99357,145660
26.00168,143883
26.00980,139387
26.01793,139789
26.02605,142025
26.03418,138961
26.04230,144092
26.05042,141807
26.05855,145565
26.06667,131694
26.07480,141088
26.08292,139995
26.09103,142358
26.09917,137500
26.10728,141052
26.11542,135581
26.12353,140311
26.13165,147837
26.13978,143339
26.14790,144985
26.15602,149286
26.16415,139191
26.17227,140505
26.18040,135402
26.18852,133660
26.19663,126611
26.20477,124551
26.21288,124398
26.22102,122134
26.22913,113878
26.23725,118147
26.24538,117192
26.25350,111863
26.26163,109798
26.26975,111927
26.27787,108030
26.28600,105359
26.29412,103380
26.30223,110340
26.31037,101371
26.31848,104227
26.32662,98807
26.33473,100681
26.34285,104557
26.35098,124052
26.35910,154137
26.36723,196596
26.37535,252349
26.38347,318515
26.39160,374770
26.39972,390563
26.40783,387581
26.41597,339543
26.42408,283620
26.43222,216079
26.44033,171332
26.44845,142567
26.45658,119599
26.46470,114700
26.47283,106769
26.48095,103546
26.48907,93514
26.49720,96169
26.50532,92167
26.51345,89646
26.52157,83491
26.52968,87241
26.53782,80110
26.54593,78043
26.55405,78291
26.56218,80996
26.57030,82369
26.57843,84335
26.58655,81556
26.59467,77507
26.60280,77438
26.61092,71448
26.61905,78301
26.62717,73571
26.63528,78513
26.64342,77240
26.65153,81999
26.65967,78231
26.66778,81275
26.67590,79891
26.68403,81112
26.69215,76263
26.70027,75486
26.70840,78963
26.71652,77330
26.72465,73205
26.73277,75166
26.74088,78739
26.74902,75761
26.75713,79959
26.76527,78769
26.77338,80774
26.78150,79025
26.78963,82895
26.79775,83931
26.80587,86689
26.81400,85730
26.82212,88829
26.83025,82209
26.83837,81993
26.84648,76575
26.85462,76041
26.86273,76288
26.87087,80124
26.87898,73059
26.88710,75940
26.89523,72168
26.90335,74753
26.91148,74909
26.91960,73992
26.92772,75397
26.93585,73184
26.94397,78898
26.95208,79451
26.96022,92411
26.96833,121585
26.97647,184224
26.98458,287729
26.99270,457855
27.00083,718111
27.00895,1037715
27.01708,1320480
27.02520,1441368
27.03332,1481119
27.04145,1374603
27.04957,1156082
27.05770,922533
27.06582,735491
27.07393,579621
27.08207,467950
27.09018,383499
27.09830,333296
27.10643,294046
27.11455,263898
27.12268,248788
27.13080,227293
27.13892,223812
27.14705,201937
27.15517,197958
27.16330,198437
27.17142,209300
27.17953,200939
27.18767,200222
27.19578,193061
27.20390,174761
27.21203,162766
27.22015,156241
27.22828,147462
27.23640,145484
27.24452,143083
27.25265,138961
27.26077,129057
27.26890,121581
27.27702,128928
27.28513,118722
27.29327,114906
27.30138,119567
27.30952,113447
27.31763,110986
27.32575,110895
27.33388,110218
27.34200,112092
27.35012,105504
27.35825,105503
27.36637,106026
27.37450,102433
27.38262,103409
27.39073,98132
27.39887,99914
27.40698,94043
27.41512,95003
27.42323,98307
27.43135,85973
27.43948,87210
27.44760,87640
27.45572,82916
27.46385,85992
27.47197,84250
27.48010,84470
27.48822,85487
27.49633,82538
27.50447,90655
27.51258,91712
27.52072,94254
27.52883,95504
27.53695,91779
27.54508,90040
27.55320,84281
27.56133,82839
27.56945,86997
27.57757,92707
27.58570,109691
27.59382,118532
27.60193,121953
27.61007,120856
27.61818,111070
27.62632,108737
27.63443,101196
27.64255,94107
27.65068,87684
27.65880,92690
27.66693,100360
27.67505,109930
27.68317,115842
27.69130,127330
27.69942,122022
27.70755,112294
27.71567,104153
27.72378,89672
27.73192,79239
27.74003,77303
27.74815,74281
27.75628,73966
27.76440,69235
27.77253,69204
27.78065,70672
27.78877,75848
27.79690,72901
27.80502,73867
27.81315,72483
27.82127,74268
27.82938,75253
27.83752,70123
27.84563,68522
27.85375,68494
27.86188,68245
27.87000,65458
27.87813,67894
27.88625,68669
27.89437,64401
27.90250,66872
27.91062,67643
27.91875,65457
27.92687,64508
27.93498,62372
27.94312,67065
27.95123,64707
27.95937,67180
27.96748,61672
27.97560,62794
27.98373,69232
27.99185,69639
27.99997,79263
28.00810,89713
28.01622,113291
28.02435,151164
28.03247,188109
28.04058,231689
28.04872,244501
28.05683,245356
28.06497,216105
28.07308,184668
28.08120,146571
28.08933,120881
28.09745,97283
28.10558,90646
28.11370,83138
28.12182,82477
28.12995,73996
28.13807,71474
28.14618,69688
28.15432,72151
28.16243,70434
28.17057,76050
28.17868,79436
28.18680,91135
28.19493,93467
28.20305,100370
28.21118,108761
28.21930,111312
28.22742,107319
28.23555,102505
28.24367,93913
28.25178,86116
28.25992,79204
28.26803,79187
28.27617,74124
28.28428,70521
28.29240,79170
28.30053,91134
28.30865,109409
28.31678,136630
28.32490,166472
28.33302,191201
28.34115,219373
28.34927,251168
28.35740,287487
28.36552,312579
28.37363,331513
28.38177,336161
28.38988,357714
28.39800,343322
28.40613,330156
28.41425,316663
28.42238,298857
28.43050,269459
28.43862,251423
28.44675,224707
28.45487,212731
28.46300,191093
28.47112,180038
28.47923,174431
28.48737,166094
28.49548,168178
28.50360,160222
28.51173,151336
28.51985,138572
28.52798,131112
28.53610,123145
28.54422,114156
28.55235,106676
28.56047,103295
28.56860,98240
28.57672,98042
28.58483,98419
28.59297,89990
28.60108,91310
28.60922,98845
28.61733,96206
28.62545,99122
28.63358,98819
28.64170,96852
28.64982,101827
28.65795,102701
28.66607,99641
28.67420,98121
28.68232,90918
28.69043,90442
28.69857,87702
28.70668,87260
28.71482,83469
28.72293,79583
28.73105,86988
28.73918,92348
28.74730,106220
28.75543,117841
28.76355,122583
28.77167,127277
28.77980,118621
28.78792,104739
28.79603,98479
28.80417,101776
28.81228,93114
28.82042,87946
28.82853,87116
28.83665,84085
28.84478,82228
28.85290,77119
28.86103,79290
28.86915,84397
28.87727,86178
28.88540,94927
28.89352,98767
28.90165,97346
28.90977,93462
28.91788,93910
28.92602,89236
28.93413,83047
28.94225,82039
28.95038,84563
28.95850,79921
28.96663,82516
28.97475,73856
28.98287,73144
28.99100,73181
28.99912,72229
29.00725,70922
29.01537,69681
29.02348,67163
29.03162,65953
29.03973,66463
29.04785,67254
29.05598,68120
29.06410,69081
29.07223,66228
29.08035,72951
29.08847,68066
29.09660,70421
29.10472,67727
29.11285,65477
29.12097,65955
29.12908,61951
29.13722,67094
29.14533,63984
29.15347,62992
29.16158,65578
29.16970,67667
29.17783,69228
29.18595,79966
29.19407,94665
29.20220,105339
29.21032,124324
29.21845,134548
29.22657,189424
29.23468,258455
29.24282,375165
29.25093,515806
29.25907,677615
29.26718,705980
29.27530,692395
29.28343,538710
29.29155,371061
29.29967,240922
29.30780,157284
29.31592,105770
29.32405,81228
29.33217,75630
29.34028,69354
29.34842,65758
29.35653,68639
29.36467,66150
29.37278,65125
29.38090,63952
29.38903,63648
29.39715,66277
29.40528,67785
29.41340,64036
29.42152,69001
29.42965,68441
29.43777,69344
29.44588,69284
29.45402,68511
29.46213,63965
29.47027,65148
29.47838,71997
29.48650,71027
29.49463,65604
29.50275,67682
29.51088,65952
29.51900,70892
29.52712,67752
29.53525,64338
29.54337,60983
29.55150,60171
29.55962,59041
29.56773,59683
29.57587,56121
29.58398,58817
29.59210,53209
29.60023,57410
29.60835,59794
29.61648,55943
29.62460,58980
29.63272,60477
29.64085,54767
29.64897,57058
29.65710,57497
29.66522,56390
29.67333,60509
29.68147,67915
29.68958,69537
29.69770,69609
29.70583,71008
29.71395,73068
29.72208,68358
29.73020,66007
29.73832,64953
29.74645,62069
29.75457,62785
29.76270,61275
29.77082,58086
29.77893,62996
29.78707,56846
29.79518,56369
29.80332,55510
29.81143,49996
29.81955,53539
29.82768,56418
29.83580,58210
29.84392,56489
29.85205,53426
29.86017,55935
29.86830,62888
29.87642,72273
29.88453,79035
29.89267,90639
29.90078,94358
29.90892,97394
29.91703,91160
29.92515,81890
29.93328,76345
29.94140,76822
29.94953,82072
29.95765,88876
29.96577,96532
29.97390,107632
29.98202,126377
29.99013,137089
29.99827,154296
30.00638,155385
30.01452,166531
30.02263,167586
30.03075,174471
30.03888,179381
30.04700,171826
30.05513,166772
30.06325,162875
30.07137,167089
30.07950,163217
30.08762,156348
30.09573,151216
30.10387,155734
30.11198,137785
30.12012,142046
30.12823,133213
30.13635,129626
30.14448,121554
30.15260,117017
30.16073,115150
30.16885,115801
30.17697,120153
30.18510,114988
30.19322,123708
30.20135,121043
30.20947,119656
30.21758,111223
30.22572,103172
30.23383,100566
30.24195,89633
30.25008,88272
30.25820,81876
30.26633,76889
30.27445,79394
30.28257,75889
30.29070,74853
30.29882,71298
30.30695,72482
30.31507,69271
30.32318,77613
30.33132,70939
30.33943,70185
30.34755,72349
30.35568,65119
30.36380,70544
30.37193,68786
30.38005,71280
30.38817,66894
30.39630,62168
30.40442,68220
30.41255,61845
30.42067,60914
30.42878,61153
30.43692,63934
30.44503,59220
30.45317,65575
30.46128,62922
30.46940,63896
30.47753,61676
30.48565,62258
30.49377,61583
30.50190,60439
30.51002,57903
30.51815,54503
30.52627,60725
30.53438,59669
30.54252,59251
30.55063,59869
30.55877,67374
30.56688,63943
30.57500,65039
30.58313,64930
30.59125,62325
30.59938,61806
30.60750,61435
30.61562,62047
30.62375,54861
30.63187,59356
30.63998,56240
30.64812,58232
30.65623,58436
30.66437,61620
30.67248,69837
30.68060,76786
30.68873,81592
30.69685,86033
30.70498,89650
30.71310,89998
30.72122,89819
30.72935,93065
30.73747,91756
30.74558,101214
30.75372,98620
30.76183,106695
30.76997,108583
30.77808,125349
30.78620,134613
30.79433,144363
30.80245,159583
30.81058,173028
30.81870,162572
30.82682,146668
30.83495,138482
30.84307,130374
30.85120,120765
30.85932,113471
30.86743,117006
30.87557,123878
30.88368,126647
30.89180,116720
30.89993,119282
30.90805,116225
30.91618,112515
30.92430,108572
30.93242,102741
30.94055,107780
30.94867,104856
30.95680,104042
30.96492,108220
30.97303,100563
30.98117,100103
30.98928,97453
30.99742,96317
31.00553,102471
31.01365,96027
31.02178,97306
31.02990,99345
31.03802,103099
31.04615,107436
31.05427,100216
31.06240,105386
31.07052,104974
31.07863,112782
31.08677,115698
31.09488,123106
31.10302,128155
31.11113,132356
31.11925,117480
31.12738,112509
31.13550,109055
31.14362,102873
31.15175,98393
31.15987,110530
31.16800,108344
31.17612,118292
31.18423,147213
31.19237,171273
31.20048,221418
31.20862,273531
31.21673,323653
31.22485,347000
31.23298,329871
31.24110,282176
31.24923,228476
31.25735,176876
31.26547,138853
31.27360,108669
31.28172,101332
31.28983,98849
31.29797,94547
31.30608,92699
31.31422,89580
31.32233,85553
31.33045,87792
31.33858,84769
31.34670,82947
31.35483,86966
31.36295,83078
31.37107,87030
31.37920,86603
31.38732,89712
31.39543,88323
31.40357,89480
31.41168,79212
31.41982,84147
31.42793,80078
31.43605,78705
31.44418,75266
31.45230,75280
31.46043,72446
31.46855,72850
31.47667,75609
31.48480,76259
31.49292,79951
31.50105,83906
31.50917,84349
31.51728,85411
31.52542,92061
31.53353,87241
31.54165,90689
31.54978,89934
31.55790,90244
31.56603,84215
31.57415,81653
31.58227,84849
31.59040,72658
31.59852,74342
31.60665,70568
31.61477,72288
31.62288,73887
31.63102,71215
31.63913,74267
31.64727,71683
31.65538,72438
31.66350,79130
31.67163,74166
31.67975,77291
31.68787,74264
31.69600,75972
31.70412,69236
31.71225,68175
31.72037,69228
31.72848,68728
31.73662,62030
31.74473,67778
31.75287,68291
31.76098,68020
31.76910,70023
31.77723,67557
31.78535,69682
31.79347,67516
31.80160,76807
31.80972,70155
31.81785,71959
31.82597,73329
31.83408,71931
31.84222,70365
31.85033,75881
31.85847,74721
31.86658,78499
31.87470,81729
31.88283,85144
31.89095,88865
31.89908,99022
31.90720,106706
31.91532,113618
31.92345,124090
31.93157,131221
31.93968,139682
31.94782,147397
31.95593,148759
31.96407,153169
31.97218,160214
31.98030,160111
31.98843,167279
31.99655,163020
32.00468,160668
32.01280,160779
32.02092,148324
32.02905,139898
32.03717,134354
32.04530,135537
32.05342,132145
32.06153,126732
32.06967,120323
32.07778,113052
32.08590,108165
32.09403,108035
32.10215,102356
32.11028,93713
32.11840,88170
32.12652,88783
32.13465,91682
32.14277,85238
32.15090,80497
32.15902,79607
32.16713,78966
32.17527,78161
32.18338,82949
32.19150,87477
32.19963,83236
32.20775,75796
32.21588,78816
32.22400,80066
32.23212,78495
32.24025,78261
32.24837,80118
32.25650,76571
32.26462,78802
32.27273,77973
32.28087,78668
32.28898,77251
32.29712,72689
32.30523,71132
32.31335,69511
32.32148,73121
32.32960,71321
32.33772,72092
32.34585,76203
32.35397,75255
32.36210,80095
32.37022,73500
32.37833,70996
32.38647,67463
32.39458,66519
32.40272,64926
32.41083,67411
32.41895,64447
32.42708,64657
32.43520,67114
32.44333,66278
32.45145,63175
32.45957,67060
32.46770,66860
32.47582,66895
32.48393,68466
32.49207,63952
32.50018,60224
32.50832,60182
32.51643,62720
32.52455,60120
32.53268,65009
32.54080,62844
32.54893,61146
32.55705,61144
32.56517,67083
32.57330,61872
32.58142,64189
32.58953,65896
32.59767,58821
32.60578,58624
32.61392,58796
32.62203,67260
32.63015,71690
32.63828,81192
32.64640,80501
32.65453,88809
32.66265,92680
32.67077,85087
32.67890,82873
32.68702,77526
32.69515,73711
32.70327,69403
32.71138,69445
32.71952,68666
32.72763,67871
32.73575,63793
32.74388,64584
32.75200,61553
32.76013,63225
32.76825,62814
32.77637,61279
32.78450,61821
32.79262,59807
32.80075,58915
32.80887,57922
32.81698,58644
32.82512,56624
32.83323,59641
32.84135,60306
32.84948,58428
32.85760,59401
32.86573,66267
32.87385,67786
32.88197,72879
32.89010,78763
32.89822,86982
32.90635,91251
32.91447,85142
32.92258,86053
32.93072,74426
32.93883,71017
32.94697,70196
32.95508,62110
32.96320,65518
32.97133,67759
32.97945,72451
32.98757,79212
32.99570,83613
33.00382,84848
33.01195,82016
33.02007,81142
33.02818,75735
33.03632,71379
33.04443,71753
33.05257,72791
33.06068,72428
33.06880,77102
33.07693,83902
33.08505,91016
33.09318,97284
33.10130,98967
33.10942,105762
33.11755,105092
33.12567,100032
33.13378,96058
33.14192,85930
33.15003,76667
33.15817,73843
33.16628,72501
33.17440,71731
33.18253,69504
33.19065,67492
33.19878,67439
33.20690,63855
33.21502,64826
33.22315,65107
33.23127,63205
33.23938,66581
33.24752,62666
33.25563,63941
33.26377,63257
33.27188,64066
33.28000,65378
33.28813,65949
33.29625,64242
33.30438,65313
33.31250,68577
33.32062,68460
33.32875,63972
33.33687,69027
33.34500,68814
33.35312,68830
33.36123,72756
33.36937,75172
33.37748,67395
33.38560,66606
33.39373,65016
33.40185,58609
33.40998,62272
33.41810,60332
33.42622,55936
33.43435,61464
33.44247,60133
33.45060,56644
33.45872,54057
33.46683,58233
33.47497,58526
33.48308,61088
33.49122,59855
33.49933,58138
33.50745,67587
33.51558,62144
33.52370,63412
33.53182,65326
33.53995,66484
33.54807,71863
33.55620,69933
33.56432,67944
33.57243,67539
33.58057,70544
33.58868,64405
33.59682,62523
33.60493,60373
33.61305,56543
33.62118,62036
33.62930,59000
33.63742,65437
33.64555,64865
33.65367,64005
33.66180,63806
33.66992,64223
33.67803,66769
33.68617,61741
33.69428,63187
33.70242,57625
33.71053,59958
33.71865,55894
33.72678,57212
33.73490,57041
33.74303,61531
33.75115,56362
33.75927,55325
33.76740,54867
33.77552,52909
33.78363,57512
33.79177,58182
33.79988,55286
33.80802,57991
33.81613,56131
33.82425,61664
33.83238,56248
33.84050,57377
33.84863,64816
33.85675,61740
33.86487,58827
33.87300,67879
33.88112,68514
33.88923,71355
33.89737,74694
33.90548,76799
33.91362,85718
33.92173,80561
33.92985,87018
33.93798,84207
33.94610,89183
33.95423,87697
33.96235,91942
33.97047,94319
33.97860,94496
33.98672,112796
33.99485,118612
34.00297,117610
34.01108,120932
34.01922,132457
34.02733,130347
34.03545,135727
34.04358,144871
34.05170,144892
34.05983,148285
34.06795,156455
34.07607,171546
34.08420,171688
34.09232,177699
34.10045,176278
34.10857,187439
34.11668,192168
34.12482,198680
34.13293,190692
34.14107,190233
34.14918,192247
34.15730,186481
34.16543,183841
34.17355,182105
34.18167,175095
34.18980,174399
34.19792,167570
34.20605,161956
34.21417,160493
34.22228,149276
34.23042,149220
34.23853,146210
34.24667,139129
34.25478,149700
34.26290,144176
34.27103,143503
34.27915,136948
34.28728,131810
34.29540,136613
34.30352,141421
34.31165,133425
34.31977,136635
34.32788,131448
34.33602,126092
34.34413,120000
34.35227,117669
34.36038,125192
34.36850,113782
34.37663,114868
34.38475,114406
34.39288,111238
34.40100,107089
34.40912,107906
34.41725,105718
34.42537,106523
34.43348,103853
34.44162,99351
34.44973,98991
34.45787,100024
34.46598,100402
34.47410,104511
34.48223,104829
34.49035,106214
34.49848,114376
34.50660,123763
34.51472,136576
34.52285,160213
34.53097,172188
34.53910,183489
34.54722,190136
34.55533,184425
34.56347,183262
34.57158,169663
34.57970,169164
34.58783,153136
34.59595,143169
34.60408,137394
34.61220,128519
34.62032,129714
34.62845,122193
34.63657,114894
34.64470,111232
34.65282,112981
34.66093,106704
34.66907,112681
34.67718,101649
34.68530,109707
34.69343,103822
34.70155,107297
34.70968,100902
34.71780,100058
34.72592,103523
34.73405,99393
34.74217,93937
34.75030,100333
34.75842,96316
34.76653,104949
34.77467,104452
34.78278,109762
34.79092,108866
34.79903,115576
34.80715,118994
34.81528,120215
34.82340,123591
34.83152,119313
34.83965,124146
34.84777,133984
34.85590,126876
34.86402,124986
34.87213,125918
34.88027,130474
34.88838,129158
34.89652,126579
34.90463,136866
34.91275,127770
34.92088,123228
34.92900,126717
34.93713,127307
34.94525,125269
34.95337,129623
34.96150,129506
34.96962,129521
34.97773,130793
34.98587,128851
34.99398,120134
35.00212,118743
35.01023,108556
35.01835,114925
35.02648,105369
35.03460,103344
35.04273,103701
35.05085,92652
35.05897,94566
35.06710,93618
35.07522,88930
35.08333,89524
35.09147,89924
35.09958,86612
35.10772,81675
35.11583,82508
35.12395,88583
35.13208,81013
35.14020,93100
35.14833,87606
35.15645,91626
35.16457,90498
35.17270,89251
35.18082,84488
35.18895,77007
35.19707,88241
35.20518,78373
35.21332,79206
35.22143,81860
35.22955,75493
35.23768,84222
35.24580,75009
35.25393,80181
35.26205,84418
35.27017,81655
35.27830,79194
35.28642,84335
35.29455,76533
35.30267,82329
35.31078,74396
35.31892,79505
35.32703,76099
35.33517,73755
35.34328,78587
35.35140,76991
35.35953,72433
35.36765,79726
35.37577,84485
35.38390,89078
35.39202,95277
35.40015,111078
35.40827,120744
35.41638,140850
35.42452,148968
35.43263,151090
35.44077,142815
35.44888,136352
35.45700,125120
35.46513,108526
35.47325,99114
35.48137,94809
35.48950,86197
35.49762,88612
35.50575,84445
35.51387,85333
35.52198,80215
35.53012,79444
35.53823,80336
35.54637,81780
35.55448,77529
35.56260,75026
35.57073,75035
35.57885,77155
35.58698,80690
35.59510,75872
35.60322,75570
35.61135,76215
35.61947,78728
35.62758,78999
35.63572,82084
35.64383,81990
35.65197,78332
35.66008,86178
35.66820,85877
35.67633,86187
35.68445,87872
35.69258,82689
35.70070,84281
35.70882,84432
35.71695,82118
35.72507,81002
35.73318,84818
35.74132,84660
35.74943,89342
35.75757,89858
35.76568,90358
35.77380,96817
35.78193,88467
35.79005,87475
35.79818,83540
35.80630,83542
35.81442,76747
35.82255,76533
35.83067,83012
35.83880,74367
35.84692,76392
35.85503,78546
35.86317,73011
35.87128,73494
35.87940,77108
35.88753,75558
35.89565,77544
35.90378,70674
35.91190,75393
35.92002,76556
35.92815,71295
35.93627,76216
35.94440,76273
35.95252,68232
35.96063,75937
35.96877,70154
35.97688,74733
35.98502,74938
35.99313,73929
36.00125,72112
36.00938,79687
36.01750,79286
36.02562,78836
36.03375,78552
36.04187,78570
36.05000,78984
36.05812,80955
36.06623,74390
36.07437,75929
36.08248,77461
36.09062,73926
36.09873,81090
36.10685,80789
36.11498,79347
36.12310,79112
36.13122,84571
36.13935,78507
36.14747,76494
36.15560,78254
36.16372,78923
36.17183,75665
36.17997,77802
36.18808,81034
36.19622,83864
36.20433,90737
36.21245,88747
36.22058,96281
36.22870,92993
36.23683,97446
36.24495,101209
36.25307,102057
36.26120,100128
36.26932,105213
36.27743,107084
36.28557,122778
36.29368,126325
36.30182,133778
36.30993,139198
36.31805,135057
36.32618,124903
36.33430,118976
36.34243,120563
36.35055,108380
36.35867,105523
36.36680,110956
36.37492,107899
36.38305,108403
36.39117,107786
36.39928,112705
36.40742,108989
36.41553,105061
36.42365,104210
36.43178,107999
36.43990,109224
36.44803,104906
36.45615,102834
36.46427,104491
36.47240,98718
36.48052,108039
36.48865,106317
36.49677,100915
36.50488,95077
36.51302,104786
36.52113,100768
36.52925,104934
36.53738,99369
36.54550,99799
36.55363,102225
36.56175,94826
36.56987,103197
36.57800,94908
36.58612,96840
36.59425,93766
36.60237,94167
36.61048,102051
36.61862,95383
36.62673,98069
36.63487,100484
36.64298,98193
36.65110,93802
36.65923,90795
36.66735,95251
36.67547,94324
36.68360,95533
36.69172,94481
36.69985,92038
36.70797,93407
36.71608,103197
36.72422,94848
36.73233,93304
36.74047,92873
36.74858,92029
36.75670,90512
36.76483,89673
36.77295,88782
36.78108,89210
36.78920,91258
36.79732,96494
36.80545,92505
36.81357,88843
36.82168,89347
36.82982,93822
36.83793,85905
36.84607,89307
36.85418,86415
36.86230,89022
36.87043,80600
36.87855,85824
36.88668,82643
36.89480,85608
36.90292,86868
36.91105,90144
36.91917,86495
36.92728,91323
36.93542,89493
36.94353,92455
36.95167,105167
36.95978,114712
36.96790,112045
36.97603,103402
36.98415,103399
36.99228,96031
37.00040,98551
37.00852,94102
37.01665,88299
37.02477,91666
37.03290,88546
37.04102,87701
37.04913,92806
37.05727,86747
37.06538,90443
37.07350,88078
37.08163,95582
37.08975,91690
37.09788,92937
37.10600,94383
37.11412,87530
37.12225,89202
37.13037,91214
37.13850,79600
37.14662,84876
37.15473,80645
37.16287,86469
37.17098,87784
37.17910,86400
37.18723,85859
37.19535,89022
37.20348,87711
37.21160,87790
37.21972,88161
37.22785,90928
37.23597,85948
37.24410,85535
37.25222,85794
37.26033,85132
37.26847,82273
37.27658,82012
37.28472,82456
37.29283,87162
37.30095,91199
37.30908,105217
37.31720,116884
37.32532,124332
37.33345,147927
37.34157,152517
37.34970,153579
37.35782,153127
37.36593,147705
37.37407,137232
37.38218,126332
37.39032,122532
37.39843,117988
37.40655,111146
37.41468,113223
37.42280,105957
37.43093,106790
37.43905,112798
37.44717,111800
37.45530,107766
37.46342,109667
37.47153,101301
37.47967,101389
37.48778,101929
