C:\MassHunter\GCMS\1\data\JTB-E18\JTB-E18-034-07.D Tue Oct 15 15:53:17 2019
Start of data points
2.09515,187357
2.10328,183349
2.11140,173937
2.11952,164596
2.12765,160770
2.13577,153314
2.14388,149341
2.15202,144943
2.16013,141384
2.16827,140222
2.17638,136399
2.18450,134193
2.19263,125800
2.20075,119151
2.20888,125429
2.21700,115668
2.22512,116367
2.23325,117234
2.24137,110965
2.24950,109275
2.25762,122674
2.26573,388547
2.27387,2233589
2.28198,3228269
2.29010,1636087
2.29823,854371
2.30635,658110
2.31448,555565
2.32260,504226
2.33072,718076
2.33885,703351
2.34697,441017
2.35510,368509
2.36322,337781
2.37133,303706
2.37947,317853
2.38758,341654
2.39570,290721
2.40383,262474
2.41195,253213
2.42008,251843
2.42820,249472
2.43632,225275
2.44445,231915
2.45257,221129
2.46070,208378
2.46882,200218
2.47693,194076
2.48507,201838
2.49318,224134
2.50132,214654
2.50943,196194
2.51755,184147
2.52568,178004
2.53380,172891
2.54192,171365
2.55005,192788
2.55817,261785
2.56630,248398
2.57442,199069
2.58253,188939
2.59067,182115
2.59878,182677
2.60692,206128
2.61503,268189
2.62315,287273
2.63128,241501
2.63940,198977
2.64753,184094
2.65565,171957
2.66377,169908
2.67190,178292
2.68002,204148
2.68813,185141
2.69627,165418
2.70438,157713
2.71252,161214
2.72063,161097
2.72875,161189
2.73688,159393
2.74500,153440
2.75313,150561
2.76125,148404
2.76937,145248
2.77750,166406
2.78562,208687
2.79373,216026
2.80187,189651
2.80998,206273
2.81812,290589
2.82623,507602
2.83435,743524
2.84248,616357
2.85060,398485
2.85873,321697
2.86685,301373
2.87497,258977
2.88310,227250
2.89122,215639
2.89935,192395
2.90747,178278
2.91558,173313
2.92372,169127
2.93183,155370
2.93995,153757
2.94808,154780
2.95620,147483
2.96433,141140
2.97245,141776
2.98057,145152
2.98870,149246
2.99682,169512
3.00495,177980
3.01307,175389
3.02118,233681
3.02932,437216
3.03743,732648
3.04557,1288982
3.05368,3930966
3.06180,7648914
3.06993,6998193
3.07805,4052759
3.08617,2488927
3.09430,2050127
3.10242,2629598
3.11055,3890416
3.11867,3572520
3.12678,2353413
3.13492,1648299
3.14303,1289586
3.15117,1047855
3.15928,901199
3.16740,914721
3.17553,981437
3.18365,1224025
3.19177,2040209
3.19990,2465842
3.20802,1878620
3.21615,1334334
3.22427,1074528
3.23238,904415
3.24052,758291
3.24863,648800
3.25677,573043
3.26488,496839
3.27300,469035
3.28113,547526
3.28925,1092207
3.29738,2617177
3.30550,4403337
3.31362,4863286
3.32175,3924248
3.32987,2856397
3.33798,2141071
3.34612,1743790
3.35423,1471533
3.36237,1288769
3.37048,1319062
3.37860,1456171
3.38673,1471433
3.39485,1353578
3.40298,1661006
3.41110,2891186
3.41922,3773407
3.42735,3018600
3.43547,1931375
3.44360,1360346
3.45172,1121143
3.45983,983432
3.46797,927416
3.47608,846371
3.48420,763718
3.49233,721863
3.50045,674768
3.50858,625920
3.51670,598399
3.52482,596941
3.53295,592541
3.54107,582995
3.54920,539151
3.55732,518554
3.56543,489554
3.57357,478780
3.58168,457823
3.58980,451417
3.59793,432325
3.60605,430930
3.61418,521269
3.62230,952796
3.63042,1848556
3.63855,2479696
3.64667,2111897
3.65480,1440223
3.66292,1439708
3.67103,3209798
3.67917,6287434
3.68728,7088026
3.69542,5168795
3.70353,3503729
3.71165,2720906
3.71978,2242078
3.72790,1887309
3.73602,1641187
3.74415,1473973
3.75227,1305856
3.76040,1188857
3.76852,1156594
3.77663,1096197
3.78477,1032536
3.79288,962829
3.80102,992612
3.80913,1260997
3.81725,1692961
3.82538,1701780
3.83350,1367321
3.84162,1100823
3.84975,936265
3.85787,845414
3.86600,756990
3.87412,690848
3.88223,647909
3.89037,618966
3.89848,590738
3.90662,557455
3.91473,585095
3.92285,700785
3.93098,811521
3.93910,796088
3.94723,720615
3.95535,773833
3.96347,953642
3.97160,1041304
3.97972,887353
3.98783,706217
3.99597,712555
4.00408,1069954
4.01222,1698057
4.02033,1944981
4.02845,1543066
4.03658,1069873
4.04470,763544
4.05283,614992
4.06095,557567
4.06907,479877
4.07720,441044
4.08532,413774
4.09345,394788
4.10157,375432
4.10968,356951
4.11782,340027
4.12593,369271
4.13405,626060
4.14218,1598822
4.15030,3007727
4.15843,3327660
4.16655,2400658
4.17467,1503368
4.18280,1016986
4.19092,739939
4.19905,602263
4.20717,702402
4.21528,2004056
4.22342,6273570
4.23153,1.274075E+07
4.23965,1.799658E+07
4.24778,1.797106E+07
4.25590,1.231762E+07
4.26403,6769757
4.27215,4097898
4.28027,2896319
4.28840,2158990
4.29652,1692433
4.30465,1378882
4.31277,1159531
4.32088,983986
4.32902,886932
4.33713,811572
4.34527,774878
4.35338,761361
4.36150,735057
4.36963,700695
4.37775,640384
4.38587,572246
4.39400,540459
4.40212,509556
4.41025,474550
4.41837,456688
4.42648,437400
4.43462,432062
4.44273,411126
4.45087,413149
4.45898,411711
4.46710,403552
4.47523,394543
4.48335,371415
4.49148,365247
4.49960,354595
4.50772,350070
4.51585,325566
4.52397,328799
4.53208,327047
4.54022,316550
4.54833,319573
4.55647,312422
4.56458,305593
4.57270,293749
4.58083,283289
4.58895,275486
4.59708,271675
4.60520,267847
4.61332,279718
4.62145,315207
4.62957,432196
4.63768,625337
4.64582,730442
4.65393,668439
4.66207,527184
4.67018,441470
4.67830,397114
4.68643,362450
4.69455,326951
4.70268,305924
4.71080,283194
4.71892,277154
4.72705,268155
4.73517,249437
4.74330,259518
4.75142,242652
4.75953,240291
4.76767,229824
4.77578,226883
4.78390,231928
4.79203,253841
4.80015,307729
4.80828,374458
4.81640,381406
4.82452,337555
4.83265,315750
4.84077,292713
4.84890,295890
4.85702,282884
4.86513,271462
4.87327,252739
4.88138,241754
4.88950,237026
4.89763,239159
4.90575,237358
4.91388,265048
4.92200,361993
4.93012,604773
4.93825,973903
4.94637,1291655
4.95450,1382984
4.96262,1211558
4.97073,960286
4.97887,782476
4.98698,668024
4.99512,585195
5.00323,541754
5.01135,491696
5.01948,526459
5.02760,671669
5.03572,1027869
5.04385,1345155
5.05197,1389966
5.06010,1223265
5.06822,1005935
5.07633,865558
5.08447,764560
5.09258,704504
5.10072,669599
5.10883,695736
5.11695,694023
5.12508,670505
5.13320,611505
5.14133,538643
5.14945,511435
5.15757,517862
5.16570,551569
5.17382,610059
5.18193,644144
5.19007,655100
5.19818,627849
5.20632,590438
5.21443,553697
5.22255,513784
5.23068,485806
5.23880,469530
5.24693,437389
5.25505,424418
5.26317,368964
5.27130,348372
5.27942,326821
5.28753,328092
5.29567,323915
5.30378,297596
5.31192,303969
5.32003,285260
5.32815,289221
5.33628,293075
5.34440,287680
5.35253,287125
5.36065,283728
5.36877,274143
5.37690,279565
5.38502,281878
5.39315,295730
5.40127,285547
5.40938,291295
5.41752,274514
5.42563,257068
5.43375,246423
5.44188,246210
5.45000,251110
5.45813,245091
5.46625,238970
5.47437,232294
5.48250,220243
5.49062,219927
5.49875,220033
5.50687,217556
5.51498,219502
5.52312,212836
5.53123,215563
5.53937,217551
5.54748,206298
5.55560,218717
5.56373,237319
5.57185,258213
5.57997,280195
5.58810,273739
5.59622,247602
5.60435,242021
5.61247,221570
5.62058,224450
5.62872,215645
5.63683,214047
5.64497,211776
5.65308,207767
5.66120,199501
5.66933,203542
5.67745,213486
5.68557,228731
5.69370,251312
5.70182,269450
5.70995,273278
5.71807,281319
5.72618,285014
5.73432,285788
5.74243,273259
5.75057,255046
5.75868,269338
5.76680,273195
5.77493,277237
5.78305,264698
5.79118,249914
5.79930,280744
5.80742,380018
5.81555,629837
5.82367,1021121
5.83178,1364037
5.83992,1415358
5.84803,1162452
5.85617,833286
5.86428,589238
5.87240,443002
5.88053,363689
5.88865,318940
5.89678,306601
5.90490,325760
5.91302,375742
5.92115,510374
5.92927,636956
5.93738,680256
5.94552,614562
5.95363,504944
5.96177,457190
5.96988,473327
5.97800,564966
5.98613,647505
5.99425,649133
6.00238,567584
6.01050,465337
6.01862,377222
6.02675,333740
6.03487,292847
6.04300,262550
6.05112,247819
6.05923,228841
6.06737,218126
6.07548,210940
6.08360,206046
6.09173,191599
6.09985,191338
6.10798,186220
6.11610,188103
6.12422,212857
6.13235,263002
6.14047,370032
6.14860,461218
6.15672,468239
6.16483,425163
6.17297,370979
6.18108,329599
6.18922,303870
6.19733,294503
6.20545,300932
6.21358,289033
6.22170,277943
6.22982,252685
6.23795,236735
6.24607,237114
6.25420,240393
6.26232,238180
6.27043,233659
6.27857,236169
6.28668,233236
6.29482,232392
6.30293,228930
6.31105,228858
6.31918,238236
6.32730,234729
6.33543,250545
6.34355,254057
6.35167,254854
6.35980,261021
6.36792,261815
6.37603,250749
6.38417,238707
6.39228,240910
6.40042,242819
6.40853,241101
6.41665,237762
6.42478,241063
6.43290,243855
6.44103,239398
6.44915,247273
6.45727,247863
6.46540,252642
6.47352,249870
6.48163,253888
6.48977,249637
6.49788,260099
6.50602,260183
6.51413,261671
6.52225,261986
6.53038,268050
6.53850,262290
6.54663,269831
6.55475,269329
6.56287,284001
6.57100,300615
6.57912,317603
6.58725,325473
6.59537,324299
6.60348,297435
6.61162,293807
6.61973,283507
6.62785,286325
6.63598,282323
6.64410,318065
6.65223,470556
6.66035,854189
6.66847,1454221
6.67660,1892960
6.68472,1809339
6.69285,1459651
6.70097,1082604
6.70908,845566
6.71722,670251
6.72533,551989
6.73345,471541
6.74158,433198
6.74970,390495
6.75783,356967
6.76595,281736
6.77407,259882
6.78220,313678
6.79032,446358
6.79845,694521
6.80657,950212
6.81468,1045757
6.82282,934908
6.83093,689276
6.83907,446115
6.84718,308626
6.85530,238422
6.86343,198348
6.87155,178890
6.87967,166060
6.88780,143682
6.89592,139930
6.90405,136820
6.91217,138193
6.92028,145179
6.92842,171000
6.93653,233256
6.94467,297428
6.95278,368408
6.96090,380793
6.96903,350294
6.97715,289964
6.98528,249251
6.99340,190162
7.00152,163756
7.00965,140062
7.01777,128797
7.02588,124275
7.03402,124820
7.04213,125850
7.05027,119892
7.05838,115871
7.06650,114342
7.07463,111414
7.08275,107404
7.09088,100142
7.09900,105744
7.10712,95908
7.11525,92715
7.12337,95626
7.13148,93787
7.13962,102272
7.14773,109476
7.15587,127802
7.16398,152028
7.17210,168780
7.18023,181188
7.18835,196914
7.19648,185839
7.20460,184403
7.21272,202379
7.22085,354252
7.22897,730354
7.23710,1246320
7.24522,1550879
7.25333,1353597
7.26147,935177
7.26958,580806
7.27770,365623
7.28583,275177
7.29395,245000
7.30208,240434
7.31020,276365
7.31832,304463
7.32645,312619
7.33457,300741
7.34270,263241
7.35082,211446
7.35893,175217
7.36707,147154
7.37518,128381
7.38332,126961
7.39143,125268
7.39955,139177
7.40768,148605
7.41580,169085
7.42392,200661
7.43205,203119
7.44017,205449
7.44830,179808
7.45642,158727
7.46453,138076
7.47267,126285
7.48078,117774
7.48892,101212
7.49703,103766
7.50515,103776
7.51328,111144
7.52140,133227
7.52952,175544
7.53765,241591
7.54577,302113
7.55390,350238
7.56202,351901
7.57013,308814
7.57827,258306
7.58638,192338
7.59452,157293
7.60263,132996
7.61075,114570
7.61888,111221
7.62700,107892
7.63513,97415
7.64325,96801
7.65137,99099
7.65950,93177
7.66762,88012
7.67573,86408
7.68387,87156
7.69198,86766
7.70012,87779
7.70823,90265
7.71635,91140
7.72448,89175
7.73260,82667
7.74073,82780
7.74885,81467
7.75697,81061
7.76510,80705
7.77322,81411
7.78133,86095
7.78947,83579
7.79758,84972
7.80572,86493
7.81383,91677
7.82195,93250
7.83008,83389
7.83820,81428
7.84633,76713
7.85445,78368
7.86257,87846
7.87070,90269
7.87882,89697
7.88695,88393
7.89507,91148
7.90318,87818
7.91132,81511
7.91943,81847
7.92755,94315
7.93568,100525
7.94380,127901
7.95193,121775
7.96005,117213
7.96817,107229
7.97630,99271
7.98442,87455
7.99255,82020
8.00067,74029
8.00878,73090
8.01692,75648
8.02503,70316
8.03317,70860
8.04128,70409
8.04940,69836
8.05753,72032
8.06565,70780
8.07377,67493
8.08190,65729
8.09002,64821
8.09815,67982
8.10627,70989
8.11438,62636
8.12252,63872
8.13063,67394
8.13877,73643
8.14688,78135
8.15500,77567
8.16313,77492
8.17125,77474
8.17937,69739
8.18750,65460
8.19562,68395
8.20375,60681
8.21187,67515
8.21998,69142
8.22812,67782
8.23623,68526
8.24437,62665
8.25248,63422
8.26060,58316
8.26873,58061
8.27685,58246
8.28498,60241
8.29310,57180
8.30122,59137
8.30935,63141
8.31747,62742
8.32558,63773
8.33372,59147
8.34183,62204
8.34997,58166
8.35808,57774
8.36620,58617
8.37433,56758
8.38245,60706
8.39058,62300
8.39870,56108
8.40682,61708
8.41495,48431
8.42307,53101
8.43120,54082
8.43932,53017
8.44743,57014
8.45557,52193
8.46368,54743
8.47180,51332
8.47993,52505
8.48805,50299
8.49618,50934
8.50430,60332
8.51242,53667
8.52055,57120
8.52867,64735
8.53680,100071
8.54492,154942
8.55303,213376
8.56117,246081
8.56928,217270
8.57740,159808
8.58553,122749
8.59365,90882
8.60178,77586
8.60990,71537
8.61802,66841
8.62615,62528
8.63427,65079
8.64240,61206
8.65052,58499
8.65863,58036
8.66677,57588
8.67488,63487
8.68302,58087
8.69113,60368
8.69925,58337
8.70738,62074
8.71550,81408
8.72362,122145
8.73175,198597
8.73987,289045
8.74800,339041
8.75612,331202
8.76423,268514
8.77237,204214
8.78048,159384
8.78862,127751
8.79673,112936
8.80485,102795
8.81298,105163
8.82110,107439
8.82923,112042
8.83735,113639
8.84547,111222
8.85360,106727
8.86172,100109
8.86983,99629
8.87797,98844
8.88608,96748
8.89422,90942
8.90233,93821
8.91045,91129
8.91858,89740
8.92670,88626
8.93483,89561
8.94295,98018
8.95107,103301
8.95920,100261
8.96732,105040
8.97543,89572
8.98357,87657
8.99168,91291
8.99982,89182
9.00793,84540
9.01605,81624
9.02418,82986
9.03230,79472
9.04043,78366
9.04855,79619
9.05667,76934
9.06480,78184
9.07292,73364
9.08105,71126
9.08917,74128
9.09728,74798
9.10542,86910
9.11353,89279
9.12165,99058
9.12978,89485
9.13790,87834
9.14603,82751
9.15415,77304
9.16227,76412
9.17040,69731
9.17852,69853
9.18665,68240
9.19477,62873
9.20288,68819
9.21102,62625
9.21913,60078
9.22725,64359
9.23538,65652
9.24350,65301
9.25163,61869
9.25975,63569
9.26787,62874
9.27600,68050
9.28412,62681
9.29225,63853
9.30037,62135
9.30848,61119
9.31662,61717
9.32473,67344
9.33287,68017
9.34098,73302
9.34910,71179
9.35723,67111
9.36535,66523
9.37347,64850
9.38160,59951
9.38972,58885
9.39785,61136
9.40597,67274
9.41408,83922
9.42222,89069
9.43033,104327
9.43847,108066
9.44658,104930
9.45470,91730
9.46283,81631
9.47095,72340
9.47908,70277
9.48720,61599
9.49532,60254
9.50345,61926
9.51157,65491
9.51968,65975
9.52782,66048
9.53593,60478
9.54407,54712
9.55218,51835
9.56030,49682
9.56843,47415
9.57655,46960
9.58468,44152
9.59280,47482
9.60092,46067
9.60905,41294
9.61717,41699
9.62528,44946
9.63342,43911
9.64153,41979
9.64967,43366
9.65778,40330
9.66590,40663
9.67403,40962
9.68215,39382
9.69028,40959
9.69840,39606
9.70652,34960
9.71465,42368
9.72277,39579
9.73090,41575
9.73902,38923
9.74713,39040
9.75527,38743
9.76338,36156
9.77150,35682
9.77963,36322
9.78775,38013
9.79588,37769
9.80400,36024
9.81212,34522
9.82025,35635
9.82837,35294
9.83650,36776
9.84462,35239
9.85273,37487
9.86087,38623
9.86898,37506
9.87712,41274
9.88523,40576
9.89335,39647
9.90148,38312
9.90960,39469
9.91772,36651
9.92585,39384
9.93397,44320
9.94210,48980
9.95022,57178
9.95833,60515
9.96647,65140
9.97458,61617
9.98272,63194
9.99083,56348
9.99895,52092
10.00708,45622
10.01520,43448
10.02332,40976
10.03145,40400
10.03957,38824
10.04770,42349
10.05582,39606
10.06393,40861
10.07207,40791
10.08018,43097
10.08832,40818
10.09643,41242
10.10455,41294
10.11268,39746
10.12080,38238
10.12893,34351
10.13705,37697
10.14517,38421
10.15330,35794
10.16142,36594
10.16953,40040
10.17767,36442
10.18578,32732
10.19392,38527
10.20203,36410
10.21015,35716
10.21828,35317
10.22640,39773
10.23453,41240
10.24265,45510
10.25077,50417
10.25890,57152
10.26702,94936
10.27513,189761
10.28327,419853
10.29138,796431
10.29952,1373326
10.30763,2036053
10.31575,3016404
10.32388,4470661
10.33200,6082370
10.34013,6819912
10.34825,6213593
10.35637,4639465
10.36450,3013436
10.37262,1890514
10.38075,1188519
10.38887,792341
10.39698,524254
10.40512,375606
10.41323,285009
10.42135,237995
10.42948,216921
10.43760,192226
10.44573,188448
10.45385,180426
10.46197,177197
10.47010,160534
10.47822,155087
10.48635,151950
10.49447,135995
10.50258,130196
10.51072,123043
10.51883,123978
10.52697,113318
10.53508,107379
10.54320,100544
10.55133,95797
10.55945,94931
10.56757,89671
10.57570,91328
10.58382,89034
10.59195,90673
10.60007,84903
10.60818,86338
10.61632,76524
10.62443,78598
10.63257,76583
10.64068,71715
10.64880,69042
10.65693,69547
10.66505,69371
10.67317,71211
10.68130,70940
10.68942,72850
10.69755,73792
10.70567,64928
10.71378,68614
10.72192,63992
10.73003,66778
10.73817,66094
10.74628,59812
10.75440,60395
10.76253,57896
10.77065,57518
10.77878,58154
10.78690,56357
10.79502,58441
10.80315,57890
10.81127,53629
10.81938,66702
10.82752,55848
10.83563,53606
10.84377,50972
10.85188,53131
10.86000,49983
10.86813,46525
10.87625,49369
10.88438,51527
10.89250,53966
10.90062,49399
10.90875,51828
10.91687,46555
10.92500,47628
10.93312,43474
10.94123,49474
10.94937,45997
10.95748,42795
10.96560,49024
10.97373,44414
10.98185,45224
10.98998,48395
10.99810,48184
11.00622,48439
11.01435,48047
11.02247,49404
11.03060,48758
11.03872,41740
11.04683,46056
11.05497,44649
11.06308,46026
11.07120,52670
11.07933,48412
11.08745,50211
11.09558,56528
11.10370,55581
11.11182,53755
11.11995,56164
11.12807,51358
11.13620,48346
11.14432,45679
11.15243,47489
11.16057,43825
11.16868,43132
11.17682,44962
11.18493,45040
11.19305,44736
11.20118,44313
11.20930,48321
11.21742,43529
11.22555,42083
11.23367,42414
11.24180,48017
11.24992,55844
11.25803,69008
11.26617,90146
11.27428,110497
11.28242,128395
11.29053,135114
11.29865,151198
11.30678,180299
11.31490,265065
11.32302,394297
11.33115,572224
11.33927,745282
11.34740,808097
11.35552,726519
11.36363,558158
11.37177,377873
11.37988,280804
11.38802,213107
11.39613,191805
11.40425,176098
11.41238,160754
11.42050,151565
11.42863,145057
11.43675,136170
11.44487,128783
11.45300,106093
11.46112,102338
11.46923,99080
11.47737,93477
11.48548,100089
11.49362,108422
11.50173,118051
11.50985,125371
11.51798,119994
11.52610,119260
11.53423,111414
11.54235,103908
11.55047,101403
11.55860,88154
11.56672,85338
11.57485,76246
11.58297,77105
11.59108,74199
11.59922,79130
11.60733,85300
11.61545,95679
11.62358,99747
11.63170,101280
11.63983,88644
11.64795,82555
11.65607,75087
11.66420,73499
11.67232,73134
11.68045,69460
11.68857,76934
11.69668,71292
11.70482,75833
11.71293,85807
11.72107,87139
11.72918,85215
11.73730,82596
11.74543,74112
11.75355,71655
11.76167,64955
11.76980,62256
11.77792,58453
11.78605,60436
11.79417,54763
11.80228,50211
11.81042,52449
11.81853,48654
11.82667,50409
11.83478,48735
11.84290,49452
11.85103,48897
11.85915,47536
11.86727,50831
11.87540,46913
11.88352,48527
11.89165,53053
11.89977,50465
11.90788,56900
11.91602,64930
11.92413,70704
11.93227,69107
11.94038,74230
11.94850,66978
11.95663,59469
11.96475,52084
11.97288,46829
11.98100,48165
11.98912,51347
11.99725,49824
12.00537,55204
12.01348,63234
12.02162,62621
12.02973,54698
12.03787,51618
12.04598,49538
12.05410,47282
12.06223,53002
12.07035,50155
12.07848,52606
12.08660,50082
12.09472,50243
12.10285,53420
12.11097,50304
12.11908,51694
12.12722,53874
12.13533,50677
12.14347,46398
12.15158,45259
12.15970,44333
12.16783,44831
12.17595,43081
12.18408,42900
12.19220,39864
12.20032,41936
12.20845,38413
12.21657,42255
12.22470,39373
12.23282,43293
12.24093,42774
12.24907,41140
12.25718,40524
12.26530,38261
12.27343,43529
12.28155,39069
12.28968,41414
12.29780,47228
12.30592,39536
12.31405,40434
12.32217,40899
12.33030,40260
12.33842,36814
12.34653,38798
12.35467,38502
12.36278,37738
12.37092,37417
12.37903,36853
12.38715,42542
12.39528,45459
12.40340,61125
12.41152,80730
12.41965,103092
12.42777,108803
12.43590,103763
12.44402,90675
12.45213,75772
12.46027,65606
12.46838,51430
12.47652,47412
12.48463,48839
12.49275,45968
12.50088,41166
12.50900,43286
12.51712,41067
12.52525,42658
12.53337,43007
12.54150,51874
12.54962,57684
12.55773,69119
12.56587,85405
12.57398,89618
12.58212,92174
12.59023,78135
12.59835,66110
12.60648,53751
12.61460,50263
12.62273,47092
12.63085,44677
12.63897,44205
12.64710,40365
12.65522,36930
12.66333,36483
12.67147,40611
12.67958,38539
12.68772,35841
12.69583,41127
12.70395,37421
12.71208,35235
12.72020,36612
12.72833,36297
12.73645,40022
12.74457,38554
12.75270,39660
12.76082,39841
12.76895,43301
12.77707,42199
12.78518,44050
12.79332,45168
12.80143,43412
12.80955,44743
12.81768,41590
12.82580,37156
12.83393,32924
12.84205,34295
12.85017,38042
12.85830,33346
12.86642,40430
12.87455,33215
12.88267,33252
12.89078,34609
12.89892,33454
12.90703,35491
12.91515,38151
12.92328,42230
12.93140,52516
12.93953,67354
12.94765,78488
12.95577,98963
12.96390,101782
12.97202,107981
12.98015,109273
12.98827,95371
12.99638,87934
13.00452,76216
13.01263,66642
13.02077,66940
13.02888,61529
13.03700,61139
13.04513,53257
13.05325,53312
13.06137,45172
13.06950,47219
13.07762,44095
13.08575,42672
13.09387,42223
13.10198,42499
13.11012,40547
13.11823,40207
13.12637,40647
13.13448,39638
13.14260,38933
13.15073,39649
13.15885,42002
13.16697,43096
13.17510,39751
13.18322,38923
13.19135,43110
13.19947,39575
13.20758,40632
13.21572,38001
13.22383,39388
13.23197,45622
13.24008,46285
13.24820,47805
13.25633,51096
13.26445,54061
13.27258,50986
13.28070,45470
13.28882,49776
13.29695,48912
13.30507,56386
13.31318,53860
13.32132,53399
13.32943,53974
13.33757,49806
13.34568,42998
13.35380,41733
13.36193,41101
13.37005,38464
13.37818,41419
13.38630,37398
13.39442,37830
13.40255,39071
13.41067,36162
13.41880,33901
13.42692,37294
13.43503,36379
13.44317,35883
13.45128,33839
13.45940,33691
13.46753,36743
13.47565,36297
13.48378,35620
13.49190,37199
13.50002,32687
13.50815,37001
13.51627,39025
13.52440,42306
13.53252,49530
13.54063,49572
13.54877,47152
13.55688,46064
13.56500,48712
13.57313,44540
13.58125,51517
13.58938,52447
13.59750,60868
13.60562,75136
13.61375,93148
13.62187,107762
13.63000,118950
13.63812,108543
13.64623,98725
13.65437,76751
13.66248,66319
13.67062,60837
13.67873,58543
13.68685,49671
13.69498,48873
13.70310,45934
13.71122,47216
13.71935,47560
13.72747,45470
13.73560,46401
13.74372,54065
13.75183,65381
13.75997,88041
13.76808,124308
13.77622,157111
13.78433,193543
13.79245,205699
13.80058,198696
13.80870,200036
13.81683,214651
13.82495,243542
13.83307,243430
13.84120,234036
13.84932,214061
13.85743,179615
13.86557,143130
13.87368,124661
13.88182,119574
13.88993,106667
13.89805,97522
13.90618,89793
13.91430,88580
13.92243,75423
13.93055,72423
13.93867,64719
13.94680,63835
13.95492,62130
13.96303,61304
13.97117,60000
13.97928,62031
13.98742,56003
13.99553,60589
14.00365,59418
14.01178,60897
14.01990,57313
14.02803,56401
14.03615,55217
14.04427,50893
14.05240,53959
14.06052,48498
14.06865,48432
14.07677,44466
14.08488,41871
14.09302,41681
14.10113,42818
14.10925,44698
14.11738,46313
14.12550,60021
14.13363,81483
14.14175,107787
14.14987,125359
14.15800,142168
14.16612,137294
14.17425,121494
14.18237,111880
14.19048,98221
14.19862,88960
14.20673,82527
14.21487,77969
14.22298,75757
14.23110,78780
14.23923,75444
14.24735,73999
14.25547,65457
14.26360,69095
14.27172,64009
14.27985,59102
14.28797,57482
14.29608,55224
14.30422,49587
14.31233,46947
14.32047,46346
14.32858,38328
14.33670,38061
14.34483,40893
14.35295,38256
14.36107,39563
14.36920,40221
14.37732,39094
14.38545,42465
14.39357,51514
14.40168,65181
14.40982,91721
14.41793,121479
14.42607,142463
14.43418,143095
14.44230,126816
14.45043,102633
14.45855,78501
14.46668,65780
14.47480,60202
14.48292,56693
14.49105,52517
14.49917,51161
14.50728,45933
14.51542,45331
14.52353,48346
14.53167,44317
14.53978,43722
14.54790,40935
14.55603,40566
14.56415,40831
14.57228,40738
14.58040,41566
14.58852,39097
14.59665,37672
14.60477,40145
14.61288,38416
14.62102,35990
14.62913,36249
14.63727,38503
14.64538,36960
14.65350,34333
14.66163,32159
14.66975,34386
14.67788,35070
14.68600,34659
14.69412,35814
14.70225,34533
14.71037,33534
14.71850,31601
14.72662,36949
14.73473,34488
14.74287,33644
14.75098,34596
14.75910,37975
14.76723,34811
14.77535,35629
14.78348,42384
14.79160,63381
14.79972,114030
14.80785,250488
14.81597,491944
14.82410,836446
14.83222,1129531
14.84033,1187385
14.84847,981954
14.85658,707966
14.86472,479022
14.87283,323918
14.88095,232028
14.88908,190137
14.89720,156864
14.90532,148865
14.91345,121896
14.92157,119992
14.92970,98526
14.93782,96668
14.94593,93160
14.95407,86073
14.96218,78836
14.97032,81482
14.97843,72154
14.98655,71106
14.99468,67187
15.00280,64957
15.01092,65007
15.01905,62731
15.02717,60293
15.03530,61438
15.04342,61715
15.05153,57599
15.05967,48892
15.06778,54629
15.07592,49231
15.08403,49666
15.09215,49919
15.10028,45706
15.10840,45860
15.11653,47572
15.12465,50136
15.13277,49819
15.14090,50235
15.14902,47599
15.15713,49871
15.16527,43608
15.17338,46137
15.18152,43675
15.18963,42491
15.19775,38012
15.20588,38655
15.21400,38662
15.22213,37988
15.23025,39768
15.23837,41787
15.24650,39182
15.25462,36006
15.26275,36770
15.27087,35368
15.27898,39067
15.28712,37501
15.29523,35534
15.30335,32668
15.31148,36895
15.31960,37459
15.32773,36036
15.33585,33396
15.34397,36535
15.35210,33044
15.36022,29795
15.36835,33181
15.37647,36301
15.38458,32686
15.39272,32588
15.40083,35431
15.40895,30700
15.41708,35436
15.42520,34601
15.43333,32941
15.44145,34241
15.44957,37768
15.45770,43593
15.46582,61455
15.47395,73060
15.48207,99493
15.49018,120555
15.49832,149418
15.50643,155136
15.51457,140453
15.52268,130200
15.53080,120656
15.53893,115597
15.54705,108944
15.55517,97827
15.56330,84720
15.57142,74366
15.57955,69424
15.58767,61251
15.59578,58743
15.60392,53973
15.61203,52099
15.62017,51241
15.62828,48023
15.63640,46180
15.64453,52033
15.65265,41506
15.66077,41009
15.66890,44227
15.67702,44248
15.68515,40593
15.69327,40405
15.70138,41201
15.70952,40173
15.71763,38446
15.72577,40910
15.73388,40193
15.74200,39764
15.75013,42374
15.75825,48311
15.76638,62367
15.77450,78807
15.78262,97389
15.79075,106375
15.79887,110296
15.80698,96049
15.81512,78174
15.82323,64357
15.83137,60058
15.83948,53819
15.84760,49874
15.85573,47573
15.86385,46001
15.87198,49464
15.88010,48123
15.88822,44744
15.89635,45867
15.90447,45210
15.91260,40107
15.92072,40406
15.92883,39865
15.93697,41064
15.94508,39930
15.95320,41372
15.96133,37823
15.96945,40696
15.97758,42486
15.98570,41562
15.99382,41667
16.00195,45358
16.01007,46997
16.01820,41547
16.02632,42525
16.03443,41776
16.04257,37193
16.05068,37165
16.05882,37691
16.06693,37061
16.07505,35977
16.08318,33709
16.09130,36262
16.09942,39133
16.10755,40336
16.11567,38458
16.12380,38904
16.13192,35742
16.14003,40254
16.14817,40710
16.15628,37404
16.16442,40847
16.17253,39468
16.18065,40396
16.18878,35730
16.19690,38949
16.20502,38618
16.21315,37715
16.22127,36463
16.22940,34048
16.23752,34905
16.24563,34706
16.25377,35152
16.26188,39472
16.27002,35110
16.27813,38502
16.28625,34524
16.29438,39993
16.30250,41784
16.31063,41235
16.31875,37761
16.32687,41998
16.33500,37127
16.34312,36300
16.35123,35876
16.35937,35143
16.36748,36603
16.37562,36129
16.38373,38575
16.39185,39917
16.39998,40387
16.40810,36030
16.41623,36429
16.42435,36233
16.43247,38552
16.44060,39951
16.44872,43299
16.45683,57577
16.46497,79296
16.47308,101558
16.48122,116494
16.48933,131067
16.49745,113916
16.50558,95978
16.51370,85288
16.52183,66259
16.52995,58613
16.53807,54677
16.54620,50308
16.55432,50401
16.56245,44566
16.57057,48122
16.57868,41652
16.58682,46885
16.59493,45767
16.60305,44543
16.61118,40954
16.61930,42161
16.62743,45255
16.63555,37372
16.64367,38701
16.65180,41628
16.65992,40424
16.66805,37906
16.67617,39380
16.68428,39621
16.69242,37426
16.70053,33592
16.70867,36296
16.71678,38239
16.72490,34689
16.73303,36726
16.74115,39116
16.74927,34421
16.75740,36051
16.76552,34300
16.77365,35139
16.78177,37844
16.78988,34945
16.79802,33266
16.80613,34720
16.81427,31645
16.82238,33374
16.83050,34757
16.83863,34278
16.84675,34158
16.85487,34625
16.86300,38231
16.87112,30812
16.87925,32052
16.88737,35181
16.89548,34334
16.90362,30512
16.91173,31151
16.91987,33146
16.92798,31816
16.93610,31050
16.94423,34818
16.95235,33750
16.96048,35321
16.96860,35948
16.97672,31741
16.98485,33470
16.99297,32765
17.00108,31841
17.00922,40159
17.01733,35846
17.02547,34478
17.03358,35859
17.04170,35836
17.04983,36669
17.05795,39332
17.06608,37558
17.07420,42601
17.08232,42376
17.09045,47049
17.09857,48841
17.10670,56958
17.11482,55568
17.12293,52758
17.13107,53624
17.13918,47930
17.14730,45720
17.15543,48663
17.16355,39595
17.17168,43261
17.17980,38332
17.18792,39950
17.19605,35487
17.20417,36557
17.21230,31065
17.22042,34593
17.22853,33387
17.23667,38886
17.24478,36490
17.25290,34692
17.26103,34803
17.26915,32357
17.27728,33798
17.28540,33084
17.29352,33857
17.30165,33918
17.30977,35676
17.31790,36281
17.32602,39643
17.33413,35428
17.34227,41402
17.35038,40108
17.35852,41852
17.36663,37861
17.37475,41655
17.38288,39930
17.39100,39623
17.39912,43722
17.40725,48691
17.41537,44881
17.42350,44700
17.43162,46132
17.43973,43870
17.44787,38863
17.45598,41251
17.46412,35704
17.47223,35728
17.48035,36022
17.48848,37846
17.49660,37719
17.50472,39674
17.51285,44739
17.52097,47612
17.52910,49196
17.53722,50880
17.54533,54170
17.55347,52843
17.56158,55334
17.56972,70126
17.57783,92476
17.58595,113513
17.59408,136236
17.60220,150686
17.61033,163996
17.61845,143125
17.62657,127662
17.63470,100109
17.64282,85333
17.65093,71838
17.65907,67549
17.66718,60816
17.67532,59601
17.68343,57811
17.69155,57705
17.69968,52676
17.70780,52485
17.71593,53915
17.72405,50319
17.73217,50565
17.74030,50128
17.74842,49159
17.75655,49747
17.76467,39366
17.77278,46431
17.78092,45259
17.78903,42392
17.79715,41508
17.80528,44918
17.81340,40352
17.82153,45818
17.82965,47331
17.83777,47656
17.84590,54120
17.85402,53068
17.86215,51613
17.87027,51232
17.87838,48704
17.88652,47000
17.89463,43160
17.90275,40478
17.91088,41066
17.91900,37446
17.92713,38317
17.93525,38205
17.94337,38832
17.95150,38698
17.95962,35094
17.96775,39007
17.97587,39694
17.98398,35731
17.99212,38587
18.00023,38097
18.00837,42293
18.01648,43742
18.02460,48511
18.03273,54471
18.04085,62341
18.04897,56513
18.05710,67807
18.06522,87899
18.07335,123658
18.08147,199555
18.08958,307809
18.09772,435333
18.10583,511830
18.11397,536518
18.12208,509288
18.13020,454620
18.13833,415821
18.14645,396691
18.15458,387067
18.16270,372971
18.17082,351641
18.17895,349437
18.18707,339788
18.19518,333919
18.20332,324788
18.21143,312167
18.21957,300224
18.22768,299998
18.23580,300274
18.24393,286778
18.25205,282849
18.26018,272630
18.26830,268776
18.27642,264064
18.28455,244945
18.29267,247287
18.30078,238317
18.30892,228428
18.31703,225286
18.32517,217695
18.33328,219911
18.34140,218779
18.34953,203545
18.35765,207994
18.36578,193185
18.37390,200479
18.38202,190365
18.39015,184817
18.39827,182201
18.40640,192574
18.41452,192321
18.42263,188585
18.43077,193679
18.43888,198577
18.44700,198310
18.45513,208314
18.46325,200903
18.47138,209798
18.47950,216582
18.48762,207604
18.49575,194981
18.50387,183124
18.51200,172517
18.52012,157848
18.52823,153535
18.53637,145963
18.54448,145198
18.55260,137208
18.56073,137627
18.56885,135951
18.57698,133933
18.58510,137071
18.59322,136049
18.60135,139220
18.60947,136968
18.61760,132465
18.62572,134802
18.63383,131967
18.64197,126090
18.65008,123782
18.65822,117312
18.66633,116607
18.67445,108700
18.68258,110078
18.69070,107749
18.69882,102240
18.70695,101740
18.71507,103041
18.72320,97072
18.73132,96014
18.73943,94121
18.74757,90103
18.75568,91056
18.76382,92161
18.77193,88241
18.78005,89967
18.78818,88992
18.79630,84556
18.80443,88486
18.81255,84186
18.82067,87138
18.82880,81366
18.83692,78020
18.84503,77559
18.85317,82854
18.86128,76695
18.86942,80383
18.87753,74183
18.88565,75827
18.89378,78587
18.90190,76779
18.91003,75987
18.91815,74693
18.92627,75530
18.93440,79182
18.94252,78777
18.95063,76037
18.95877,78849
18.96688,71353
18.97502,74401
18.98313,73055
18.99125,71036
18.99938,67210
19.00750,68077
19.01563,67995
19.02375,66480
19.03187,64695
19.04000,63348
19.04812,61943
19.05625,63091
19.06437,63873
19.07248,68150
19.08062,70865
19.08873,78929
19.09685,88215
19.10498,87319
19.11310,84574
19.12123,87127
19.12935,82255
19.13747,84840
19.14560,78571
19.15372,81236
19.16185,76113
19.16997,73574
19.17808,72870
19.18622,67131
19.19433,61928
19.20247,69941
19.21058,59540
19.21870,63020
19.22683,57534
19.23495,57312
19.24307,54891
19.25120,54492
19.25932,57029
19.26745,57973
19.27557,61582
19.28368,61181
19.29182,60736
19.29993,60246
19.30807,58719
19.31618,53538
19.32430,54292
19.33243,52476
19.34055,53316
19.34867,52746
19.35680,54951
19.36492,58133
19.37305,57993
19.38117,58375
19.38928,58836
19.39742,59294
19.40553,59028
19.41367,56977
19.42178,61575
19.42990,75873
19.43803,85867
19.44615,101175
19.45428,104647
19.46240,95637
19.47052,87223
19.47865,73119
19.48677,62633
19.49488,62727
19.50302,56047
19.51113,57031
19.51927,58015
19.52738,56677
19.53550,58832
19.54363,55968
19.55175,57793
19.55988,53147
19.56800,47290
19.57612,49445
19.58425,49588
19.59237,48127
19.60050,50864
19.60862,48721
19.61673,58710
19.62487,86938
19.63298,132817
19.64110,205305
19.64923,268398
19.65735,330077
19.66548,357303
19.67360,343589
19.68172,289765
19.68985,222914
19.69797,183685
19.70610,147739
19.71422,121005
19.72233,104515
19.73047,94552
19.73858,85569
19.74670,77490
19.75483,72283
19.76295,76021
19.77108,73008
19.77920,77060
19.78732,72728
19.79545,79493
19.80357,73954
19.81170,74054
19.81982,71407
19.82793,67970
19.83607,67829
19.84418,67060
19.85232,77920
19.86043,109584
19.86855,183156
19.87668,308503
19.88480,539729
19.89292,800496
19.90105,992999
19.90917,1064812
19.91730,951799
19.92542,744556
19.93353,535027
19.94167,397097
19.94978,296153
19.95792,249756
19.96603,219480
19.97415,196460
19.98228,175444
19.99040,164760
19.99852,151776
20.00665,150535
20.01477,134679
20.02290,137535
20.03102,126496
20.03913,116426
20.04727,111541
20.05538,108516
20.06352,108629
20.07163,107546
20.07975,111688
20.08788,102593
20.09600,100449
20.10413,88059
20.11225,81557
20.12037,82010
20.12850,77993
20.13662,82936
20.14473,100343
20.15287,122364
20.16098,161197
20.16912,195449
20.17723,242358
20.18535,261569
20.19348,275019
20.20160,272334
20.20973,247687
20.21785,226886
20.22597,226161
20.23410,245297
20.24222,271417
20.25035,324335
20.25847,354343
20.26658,359858
20.27472,330379
20.28283,285083
20.29095,253929
20.29908,192328
20.30720,159174
20.31533,132157
20.32345,111115
20.33157,99225
20.33970,87565
20.34782,78483
20.35595,77069
20.36407,72493
20.37218,68482
20.38032,73429
20.38843,80558
20.39655,85995
20.40468,93974
20.41280,100363
20.42093,101442
20.42905,103309
20.43717,98397
20.44530,87379
20.45342,77597
20.46155,69527
20.46967,65041
20.47778,67595
20.48592,55883
20.49403,60439
20.50217,55168
20.51028,56052
20.51840,56380
20.52653,51869
20.53465,55482
20.54277,55603
20.55090,51972
20.55902,54453
20.56715,53507
20.57527,50656
20.58338,52123
20.59152,53855
20.59963,52255
20.60777,53508
20.61588,55215
20.62400,49874
20.63213,50478
20.64025,50805
20.64838,51478
20.65650,48849
20.66462,51547
20.67275,46807
20.68087,47571
20.68898,46345
20.69712,44366
20.70523,44948
20.71337,48467
20.72148,45830
20.72960,46896
20.73773,44917
20.74585,47142
20.75398,50033
20.76210,53273
20.77022,56528
20.77835,60332
20.78647,76336
20.79458,91815
20.80272,120996
20.81083,133800
20.81897,144808
20.82708,139515
20.83520,120145
20.84333,98976
20.85145,84292
20.85958,74663
20.86770,68632
20.87582,65294
20.88395,62915
20.89207,62869
20.90020,61210
20.90832,62625
20.91643,52657
20.92457,62215
20.93268,58714
20.94080,58479
20.94893,50185
20.95705,51966
20.96518,50794
20.97330,50361
20.98142,50017
20.98955,48267
20.99767,47998
21.00580,46438
21.01392,50217
21.02203,47031
21.03017,50519
21.03828,45221
21.04640,45982
21.05453,48179
21.06265,45024
21.07078,45302
21.07890,45288
21.08702,45457
21.09515,43822
21.10327,45840
21.11140,44303
21.11952,44300
21.12763,52210
21.13577,55427
21.14388,65835
21.15202,73308
21.16013,77150
21.16825,76216
21.17638,69177
21.18450,61145
21.19262,60411
21.20075,60609
21.20887,53655
21.21700,56084
21.22512,53091
21.23323,58583
21.24137,54309
21.24948,60949
21.25762,58347
21.26573,58942
21.27385,62931
21.28198,55540
21.29010,57441
21.29823,56799
21.30635,56722
21.31447,52657
21.32260,56018
21.33072,60065
21.33883,54508
21.34697,55634
21.35508,54768
21.36322,53448
21.37133,53513
21.37945,57027
21.38758,57970
21.39570,61795
21.40383,67092
21.41195,68395
21.42007,71684
21.42820,69735
21.43632,68620
21.44445,66176
21.45257,63537
21.46068,58060
21.46882,59680
21.47693,56992
21.48505,60982
21.49318,59661
21.50130,57061
21.50943,59449
21.51755,52955
21.52567,57815
21.53380,56436
21.54192,55162
21.55005,57801
21.55817,58641
21.56628,65984
21.57442,66890
21.58253,78190
21.59065,86111
21.59878,93338
21.60690,91442
21.61503,89044
21.62315,82224
21.63127,75263
21.63940,72485
21.64752,61100
21.65565,58574
21.66377,56201
21.67188,60513
21.68002,54968
21.68813,57156
21.69627,54724
21.70438,50190
21.71250,52280
21.72063,47308
21.72875,45091
21.73687,46392
21.74500,46057
21.75312,49234
21.76125,53308
21.76937,57931
21.77748,64206
21.78562,71708
21.79373,81985
21.80187,78717
21.80998,75044
21.81810,64327
21.82623,54853
21.83435,53334
21.84247,46718
21.85060,43574
21.85872,46137
21.86685,45100
21.87497,52564
21.88308,46942
21.89122,43622
21.89933,42773
21.90747,49647
21.91558,61197
21.92370,78550
21.93183,93341
21.93995,103366
21.94808,106761
21.95620,113423
21.96432,112445
21.97245,120065
21.98057,122861
21.98868,123605
21.99682,123595
22.00493,119436
22.01307,123482
22.02118,130127
22.02930,127815
22.03743,120084
22.04555,130506
22.05368,124635
22.06180,122121
22.06992,118244
22.07805,114913
22.08617,117779
22.09430,118874
22.10242,106950
22.11053,110858
22.11867,108676
22.12678,102903
22.13490,100221
22.14303,103611
22.15115,102680
22.15928,102472
22.16740,103244
22.17552,99786
22.18365,100622
22.19177,102055
22.19990,97180
22.20802,94911
22.21613,83811
22.22427,87323
22.23238,79557
22.24050,76669
22.24863,79322
22.25675,78568
22.26488,77851
22.27300,76448
22.28112,77049
22.28925,82565
22.29737,76049
22.30550,73421
22.31362,73250
22.32173,68655
22.32987,68118
22.33798,68977
22.34612,70958
22.35423,65002
22.36235,66373
22.37048,63371
22.37860,67839
22.38672,66068
22.39485,69085
22.40297,77199
22.41110,74437
22.41922,80884
22.42733,78167
22.43547,76019
22.44358,69041
22.45172,62116
22.45983,61004
22.46795,59132
22.47608,58323
22.48420,68109
22.49233,67862
22.50045,66742
22.50857,67337
22.51670,68287
22.52482,61357
22.53293,59443
22.54107,57347
22.54918,55075
22.55732,56656
22.56543,55954
22.57355,54027
22.58168,48777
22.58980,46495
22.59793,49075
22.60605,49878
22.61417,44332
22.62230,46723
22.63042,45477
22.63853,42158
22.64667,47433
22.65478,45223
22.66292,50536
22.67103,46164
22.67915,51767
22.68728,57790
22.69540,67667
22.70353,71348
22.71165,79383
22.71977,73214
22.72790,78695
22.73602,67399
22.74415,60937
22.75227,61534
22.76038,53453
22.76852,55498
22.77663,56052
22.78475,60810
22.79288,65893
22.80100,70172
22.80913,73798
22.81725,68566
22.82537,64049
22.83350,62608
22.84162,57382
22.84975,59165
22.85787,56832
22.86598,62748
22.87412,66550
22.88223,77340
22.89035,76930
22.89848,86523
22.90660,95517
22.91473,110566
22.92285,125264
22.93097,136765
22.93910,129390
22.94722,120473
22.95535,104411
22.96347,94995
22.97158,84166
22.97972,79067
22.98783,71191
22.99597,69902
23.00408,68750
23.01220,65123
23.02033,56639
23.02845,55481
23.03657,57457
23.04470,50127
23.05282,49389
23.06095,48244
23.06907,45225
23.07718,51912
23.08532,47102
23.09343,47938
23.10157,47541
23.10968,48537
23.11780,45077
23.12593,50099
23.13405,44054
23.14218,42972
23.15030,40616
23.15842,42381
23.16655,41708
23.17467,42644
23.18278,40605
23.19092,39460
23.19903,41234
23.20717,39952
23.21528,40938
23.22340,41278
23.23153,39444
23.23965,41889
23.24778,42399
23.25590,43249
23.26402,42725
23.27215,45267
23.28027,44581
23.28838,45127
23.29652,40169
23.30463,40343
23.31277,40138
23.32088,42660
23.32900,44396
23.33713,44440
23.34525,49191
23.35338,56132
23.36150,55762
23.36962,55127
23.37775,54987
23.38587,48317
23.39400,48884
23.40212,43413
23.41023,47342
23.41837,44057
23.42648,44144
23.43460,39599
23.44273,37795
23.45085,37531
23.45898,38693
23.46710,38791
23.47522,39580
23.48335,37696
23.49147,39688
23.49960,41478
23.50772,43065
23.51583,45694
23.52397,46174
23.53208,47456
23.54022,48797
23.54833,51819
23.55645,54099
23.56458,61374
23.57270,61504
23.58082,75801
23.58895,85252
23.59707,88967
23.60520,95858
23.61332,89167
23.62143,82645
23.62957,68292
23.63768,68085
23.64582,62945
23.65393,58477
23.66205,64588
23.67018,63568
23.67830,68436
23.68642,81349
23.69455,95415
23.70267,104136
23.71080,123481
23.71892,125407
23.72703,149610
23.73517,221147
23.74328,426991
23.75142,975360
23.75953,2204786
23.76765,4191806
23.77578,6336138
23.78390,7744792
23.79203,7655304
23.80015,6465406
23.80827,4956320
23.81640,3538473
23.82452,2549317
23.83263,1862515
23.84077,1404220
23.84888,1093580
23.85702,897671
23.86513,761729
23.87325,662936
23.88138,580698
23.88950,520355
23.89763,485492
23.90575,447311
23.91387,402057
23.92200,378876
23.93012,360262
23.93825,329157
23.94637,313869
23.95448,298404
23.96262,270397
23.97073,263010
23.97885,261328
23.98698,242740
23.99510,237699
24.00323,222462
24.01135,220660
24.01947,223414
24.02760,216440
24.03572,217114
24.04385,206279
24.05197,202130
24.06008,195793
24.06822,188516
24.07633,187768
24.08445,179851
24.09258,167991
24.10070,162621
24.10883,154538
24.11695,158709
24.12507,162958
24.13320,162828
24.14132,164085
24.14945,165377
24.15757,173066
24.16568,163889
24.17382,160126
24.18193,157594
24.19007,139867
24.19818,143015
24.20630,132841
24.21443,127210
24.22255,119875
24.23067,117529
24.23880,112965
24.24692,108761
24.25505,109856
24.26317,101488
24.27128,102481
24.27942,103290
24.28753,96255
24.29567,99203
24.30378,108298
24.31190,111380
24.32003,114787
24.32815,128311
24.33627,128723
24.34440,126333
24.35252,114623
24.36065,105163
24.36877,98719
24.37688,88870
24.38502,88312
24.39313,83443
24.40127,81228
24.40938,85565
24.41750,86426
24.42563,89482
24.43375,95905
24.44188,100620
24.45000,106116
24.45812,103112
24.46625,97883
24.47437,94789
24.48248,88639
24.49062,84835
24.49873,84917
24.50687,81929
24.51498,83412
24.52310,84605
24.53123,91840
24.53935,93154
24.54748,96726
24.55560,96075
24.56372,93934
24.57185,90194
24.57997,82486
24.58810,81813
24.59622,77181
24.60433,73935
24.61247,71524
24.62058,65524
24.62870,67434
24.63683,68006
24.64495,67854
24.65308,71311
24.66120,70831
24.66932,72532
24.67745,64950
24.68557,61823
24.69370,63269
24.70182,64245
24.70993,62857
24.71807,59956
24.72618,62095
24.73430,60270
24.74243,61133
24.75055,62318
24.75868,63611
24.76680,61276
24.77492,61404
24.78305,66254
24.79117,62146
24.79930,65140
24.80742,63552
24.81553,60282
24.82367,65915
24.83178,67771
24.83992,73145
24.84803,81752
24.85615,91538
24.86428,105972
24.87240,128419
24.88052,145713
24.88865,156472
24.89677,163473
24.90490,154880
24.91302,155119
24.92113,146597
24.92927,141686
24.93738,141171
24.94552,143209
24.95363,142672
24.96175,140505
24.96988,148314
24.97800,155936
24.98613,147437
24.99425,157398
25.00237,151245
25.01050,147373
25.01862,147904
25.02673,142810
25.03487,143547
25.04298,145938
25.05112,141616
25.05923,145468
25.06735,140864
25.07548,134181
25.08360,139063
25.09173,146300
25.09985,163767
25.10797,215661
25.11610,292987
25.12422,426159
25.13233,607237
25.14047,740990
25.14858,841456
25.15672,777238
25.16483,636475
25.17295,467459
25.18108,342975
25.18920,263414
25.19733,213045
25.20545,179632
25.21357,159708
25.22170,148807
25.22982,157603
25.23795,161909
25.24607,177046
25.25418,195320
25.26232,226977
25.27043,234787
25.27855,218872
25.28668,210263
25.29480,180760
25.30293,168231
25.31105,129381
25.31917,120065
25.32730,118193
25.33542,104636
25.34355,98046
25.35167,97455
25.35978,94090
25.36792,91537
25.37603,86316
25.38415,85556
25.39228,89988
25.40040,90460
25.40853,88047
25.41665,88556
25.42477,85703
25.43290,82661
25.44102,74371
25.44915,77794
25.45727,70717
25.46538,69026
25.47352,67212
25.48163,72652
25.48977,66435
25.49788,69832
25.50600,63758
25.51413,62361
25.52225,62703
25.53037,67225
25.53850,61367
25.54662,60694
25.55475,64115
25.56287,64652
25.57098,60754
25.57912,60728
25.58723,63548
25.59537,62868
25.60348,55282
25.61160,57207
25.61973,61229
25.62785,56232
25.63598,59248
25.64410,55905
25.65222,61242
25.66035,53490
25.66847,60015
25.67658,55803
25.68472,59068
25.69283,56044
25.70097,59085
25.70908,57715
25.71720,57893
25.72533,54449
25.73345,56345
25.74158,54686
25.74970,51195
25.75782,50440
25.76595,54114
25.77407,50130
25.78218,56227
25.79032,55549
25.79843,52056
25.80657,51853
25.81468,47491
25.82280,58228
25.83093,52002
25.83905,51686
25.84718,53153
25.85530,50036
25.86342,55011
25.87155,49506
25.87967,46427
25.88780,49679
25.89592,48488
25.90403,51907
25.91217,49038
25.92028,48223
25.92840,50976
25.93653,49541
25.94465,50431
25.95278,52315
25.96090,50294
25.96902,50418
25.97715,49416
25.98527,49567
25.99340,52116
26.00152,46449
26.00963,44236
26.01777,45988
26.02588,48043
26.03402,45726
26.04213,49398
26.05025,48157
26.05838,51180
26.06650,47540
26.07462,47523
26.08275,50129
26.09087,50352
26.09900,45865
26.10712,46466
26.11523,49619
26.12337,49681
26.13148,50955
26.13962,58560
26.14773,51136
26.15585,54300
26.16398,54396
26.17210,52504
26.18022,45843
26.18835,49936
26.19647,45159
26.20460,46617
26.21272,45806
26.22083,43417
26.22897,43942
26.23708,43752
26.24522,44496
26.25333,44452
26.26145,43621
26.26958,44045
26.27770,44692
26.28583,46958
26.29395,45082
26.30207,43616
26.31020,44294
26.31832,41153
26.32643,43216
26.33457,45319
26.34268,42462
26.35082,51802
26.35893,51132
26.36705,57990
26.37518,69289
26.38330,72774
26.39143,81731
26.39955,80996
26.40767,71513
26.41580,64957
26.42392,59385
26.43203,54730
26.44017,51393
26.44828,48998
26.45642,44692
26.46453,40312
26.47265,47624
26.48078,44837
26.48890,47748
26.49703,45421
26.50515,43667
26.51327,45237
26.52140,41216
26.52952,46526
26.53765,44964
26.54577,42296
26.55388,43273
26.56202,41913
26.57013,46145
26.57825,42572
26.58638,42462
26.59450,42954
26.60263,44086
26.61075,44542
26.61887,42990
26.62700,44084
26.63512,43914
26.64325,47383
26.65137,44224
26.65948,49412
26.66762,50743
26.67573,49834
26.68387,46673
26.69198,46237
26.70010,50229
26.70823,48265
26.71635,50284
26.72447,47944
26.73260,45766
26.74072,46829
26.74885,47039
26.75697,46629
26.76508,41101
26.77322,47851
26.78133,51822
26.78947,51150
26.79758,48428
26.80570,50410
26.81383,46023
26.82195,50159
26.83008,46102
26.83820,46190
26.84632,47285
26.85445,47765
26.86257,43660
26.87068,45713
26.87882,44119
26.88693,45059
26.89507,48505
26.90318,46235
26.91130,49208
26.91943,52127
26.92755,56009
26.93568,67916
26.94380,86469
26.95192,148075
26.96005,275431
26.96817,495096
26.97628,876447
26.98442,1325500
26.99253,1985380
27.00067,2481565
27.00878,2626533
27.01690,2389829
27.02503,1896153
27.03315,1427839
27.04128,1059426
27.04940,769298
27.05752,553215
27.06565,429387
27.07377,337539
27.08190,286860
27.09002,242779
27.09813,209500
27.10627,187193
27.11438,167971
27.12250,155295
27.13063,147663
27.13875,136123
27.14688,134415
27.15500,130914
27.16312,125724
27.17125,132200
27.17937,118477
27.18750,115643
27.19562,107196
27.20373,104294
27.21187,92088
27.21998,90378
27.22810,83713
27.23623,87752
27.24435,84630
27.25248,74021
27.26060,75994
27.26872,78955
27.27685,73330
27.28497,68961
27.29310,72679
27.30122,68277
27.30933,68383
27.31747,63904
27.32558,69270
27.33372,66298
27.34183,65170
27.34995,67678
27.35808,62708
27.36620,60023
27.37432,60908
27.38245,62807
27.39057,63405
27.39870,63434
27.40682,61621
27.41493,58101
27.42307,60595
27.43118,62559
27.43932,58454
27.44743,57129
27.45555,59420
27.46368,59175
27.47180,56111
27.47993,53750
27.48805,51644
27.49617,51731
27.50430,50423
27.51242,51215
27.52053,52694
27.52867,51077
27.53678,49874
27.54492,52016
27.55303,49748
27.56115,50704
27.56928,55432
27.57740,55818
27.58553,56409
27.59365,58351
27.60177,54399
27.60990,56029
27.61802,50970
27.62613,50005
27.63427,47528
27.64238,48395
27.65052,45106
27.65863,48025
27.66675,52440
27.67488,53765
27.68300,56859
27.69113,54631
27.69925,51153
27.70737,49697
27.71550,47847
27.72362,54367
27.73175,50288
27.73987,50878
27.74798,54414
27.75612,51194
27.76423,52964
27.77235,56231
27.78048,50247
27.78860,48468
27.79673,47521
27.80485,49489
27.81297,44879
27.82110,43880
27.82922,40768
27.83735,51438
27.84547,41695
27.85358,41940
27.86172,45111
27.86983,41011
27.87797,39501
27.88608,46718
27.89420,41655
27.90233,40627
27.91045,47614
27.91857,38112
27.92670,45611
27.93482,38824
27.94295,43711
27.95107,41301
27.95918,42091
27.96732,42079
27.97543,42527
27.98357,41782
27.99168,47566
27.99980,46821
28.00793,53498
28.01605,55660
28.02417,63037
28.03230,68559
28.04042,74166
28.04855,68929
28.05667,63044
28.06478,60173
28.07292,54267
28.08103,49685
28.08917,46786
28.09728,53780
28.10540,56221
28.11353,57231
28.12165,57798
28.12978,60491
28.13790,55005
28.14602,53588
28.15415,47114
28.16227,46925
28.17038,43864
28.17852,41912
28.18663,49254
28.19477,46487
28.20288,50973
28.21100,51171
28.21913,49080
28.22725,48523
28.23538,52751
28.24350,51734
28.25162,61100
28.25975,71102
28.26787,90696
28.27598,130264
28.28412,155254
28.29223,202642
28.30037,238186
28.30848,273920
28.31660,301580
28.32473,304449
28.33285,294466
28.34098,267927
28.34910,254494
28.35722,232192
28.36535,204634
28.37347,184120
28.38160,160139
28.38972,140552
28.39783,124832
28.40597,117355
28.41408,105250
28.42220,92528
28.43033,89563
28.43845,87926
28.44658,78301
28.45470,76539
28.46282,74376
28.47095,66027
28.47907,67200
28.48720,65056
28.49532,62724
28.50343,62816
28.51157,66532
28.51968,57964
28.52782,59382
28.53593,57513
28.54405,51724
28.55218,52654
28.56030,53632
28.56842,49524
28.57655,54274
28.58467,49049
28.59280,49628
28.60092,52258
28.60903,52201
28.61717,51910
28.62528,51800
28.63342,52823
28.64153,59792
28.64965,56841
28.65778,55180
28.66590,54906
28.67402,58226
28.68215,61837
28.69027,62034
28.69840,65262
28.70652,66514
28.71463,60751
28.72277,51332
28.73088,52596
28.73902,44577
28.74713,45261
28.75525,42455
28.76338,40884
28.77150,41936
28.77963,42794
28.78775,41752
28.79587,43160
28.80400,50091
28.81212,45185
28.82023,45388
28.82837,42280
28.83648,43627
28.84462,41896
28.85273,43027
28.86085,42808
28.86898,44674
28.87710,45523
28.88523,49223
28.89335,41896
28.90147,44246
28.90960,49985
28.91772,47088
28.92585,44176
28.93397,45106
28.94208,46293
28.95022,45288
28.95833,42274
28.96645,44124
28.97458,50746
28.98270,44354
28.99083,41967
28.99895,43550
29.00707,40054
29.01520,43298
29.02332,41241
29.03145,41362
29.03957,38471
29.04768,42835
29.05582,43089
29.06393,39912
29.07205,38798
29.08018,42179
29.08830,45185
29.09643,40518
29.10455,37714
29.11267,41851
29.12080,37057
29.12892,38848
29.13705,38437
29.14517,39008
29.15328,38296
29.16142,38002
29.16953,42717
29.17767,41451
29.18578,36979
29.19390,43514
29.20203,46567
29.21015,43912
29.21827,44201
29.22640,46416
29.23452,46541
29.24265,50508
29.25077,50439
29.25888,53192
29.26702,50173
29.27513,55821
29.28327,47254
29.29138,43778
29.29950,41260
29.30763,42995
29.31575,41803
29.32388,39937
29.33200,36646
29.34012,37199
29.34825,36518
29.35637,34270
29.36448,40007
29.37262,35547
29.38073,38431
29.38887,41817
29.39698,41717
29.40510,41573
29.41323,44510
29.42135,40882
29.42948,39958
29.43760,38296
29.44572,37212
29.45385,38463
29.46197,39326
29.47008,37059
29.47822,38609
29.48633,37895
29.49447,39975
29.50258,39552
29.51070,37791
29.51883,37008
29.52695,37247
29.53508,38451
29.54320,37923
29.55132,34488
29.55945,37571
29.56757,38048
29.57570,40823
29.58382,36280
29.59193,36159
29.60007,38996
29.60818,38898
29.61630,37769
29.62443,37997
29.63255,37819
29.64068,38833
29.64880,36151
29.65692,33342
29.66505,35448
29.67317,34926
29.68130,35831
29.68942,34976
29.69753,36661
29.70567,35388
29.71378,36593
29.72190,35652
29.73003,38262
29.73815,37598
29.74628,36384
29.75440,34885
29.76252,32563
29.77065,38887
29.77877,34131
29.78690,33130
29.79502,31419
29.80313,33964
29.81127,32179
29.81938,33620
29.82752,32489
29.83563,34901
29.84375,32201
29.85188,33298
29.86000,38382
29.86812,43257
29.87625,50287
29.88437,61937
29.89250,67074
29.90062,80023
29.90873,94484
29.91687,105035
29.92498,113941
29.93312,111034
29.94123,122313
29.94935,116858
29.95748,121622
29.96560,115852
29.97373,117881
29.98185,116892
29.98997,106985
29.99810,100897
30.00622,100392
30.01433,96628
30.02247,93060
30.03058,90257
30.03872,86782
30.04683,82604
30.05495,81375
30.06308,80486
30.07120,77197
30.07933,70885
30.08745,73465
30.09557,66867
30.10370,66390
30.11182,68736
30.11993,65772
30.12807,58316
30.13618,58649
30.14432,57075
30.15243,59496
30.16055,57172
30.16868,56271
30.17680,59116
30.18493,62934
30.19305,57631
30.20117,49557
30.20930,52271
30.21742,51980
30.22555,46172
30.23367,51264
30.24178,48483
30.24992,46877
30.25803,47577
30.26615,43802
30.27428,43564
30.28240,44839
30.29053,42973
30.29865,48274
30.30677,44696
30.31490,44661
30.32302,43440
30.33115,42009
30.33927,44159
30.34738,44877
30.35552,43295
30.36363,45416
30.37177,43648
30.37988,44209
30.38800,39074
30.39613,41733
30.40425,38196
30.41237,36211
30.42050,35218
30.42862,42832
30.43675,40286
30.44487,41514
30.45298,40814
30.46112,41237
30.46923,38100
30.47737,38721
30.48548,37186
30.49360,37993
30.50173,35337
30.50985,40865
30.51797,35281
30.52610,36903
30.53422,35700
30.54235,32845
30.55047,37168
30.55858,39773
30.56672,37635
30.57483,36172
30.58297,34922
30.59108,34736
30.59920,34494
30.60733,34819
30.61545,39730
30.62358,36172
30.63170,39624
30.63982,36079
30.64795,34365
30.65607,38861
30.66418,34275
30.67232,33989
30.68043,37481
30.68857,36071
30.69668,35895
30.70480,32884
30.71293,32796
30.72105,36348
30.72918,34515
30.73730,37992
30.74542,35983
30.75355,35214
30.76167,37608
30.76978,40222
30.77792,39293
30.78603,44278
30.79417,46592
30.80228,47246
30.81040,52097
30.81853,43209
30.82665,40822
30.83478,43185
30.84290,41340
30.85102,39886
30.85915,38470
30.86727,37857
30.87540,42229
30.88352,36910
30.89163,38960
30.89977,37280
30.90788,35810
30.91600,34536
30.92413,35837
30.93225,32716
30.94038,32767
30.94850,37676
30.95662,32627
30.96475,35100
30.97287,33145
30.98100,39925
30.98912,35095
30.99723,34882
31.00537,36251
31.01348,38337
31.02162,36104
31.02973,39666
31.03785,34690
31.04598,36272
31.05410,34786
31.06222,40476
31.07035,41318
31.07847,43380
31.08660,47620
31.09472,56263
31.10283,56263
31.11097,50547
31.11908,51186
31.12722,44528
31.13533,42549
31.14345,43647
31.15158,40299
31.15970,42650
31.16782,47933
31.17595,44698
31.18407,60399
31.19220,70233
31.20032,73839
31.20843,81796
31.21657,86058
31.22468,79173
31.23282,65327
31.24093,59313
31.24905,47756
31.25718,44570
31.26530,40295
31.27343,36110
31.28155,36325
31.28967,35189
31.29780,35889
31.30592,35813
31.31403,37927
31.32217,42006
31.33028,39128
31.33842,37250
31.34653,38433
31.35465,35940
31.36278,36365
31.37090,33010
31.37903,37093
31.38715,39635
31.39527,34673
31.40340,37006
31.41152,35006
31.41965,36143
31.42777,35531
31.43588,34660
31.44402,32339
31.45213,35099
31.46025,36431
31.46838,37297
31.47650,37789
31.48463,36632
31.49275,35282
31.50087,37772
31.50900,40012
31.51712,38384
31.52525,37071
31.53337,40947
31.54148,39119
31.54962,39560
31.55773,35378
31.56585,37786
31.57398,41044
31.58210,37874
31.59023,35035
31.59835,32604
31.60647,32824
31.61460,34187
31.62272,33562
31.63085,32208
31.63897,35361
31.64708,32592
31.65522,34165
31.66333,38503
31.67147,37634
31.67958,37051
31.68770,38573
31.69583,42781
31.70395,37089
31.71207,37387
31.72020,37692
31.72832,34064
31.73645,32787
31.74457,32239
31.75268,35824
31.76082,31448
31.76893,33801
31.77707,36617
31.78518,35387
31.79330,34107
31.80143,41045
31.80955,41052
31.81767,37438
31.82580,43845
31.83392,42679
31.84205,51705
31.85017,62196
31.85828,73474
31.86642,79544
31.87453,84302
31.88267,82706
31.89078,82289
31.89890,82336
31.90703,83262
31.91515,78769
31.92328,75015
31.93140,73802
31.93952,66702
31.94765,61296
31.95577,60603
31.96388,59311
31.97202,58967
31.98013,61181
31.98827,61963
31.99638,57817
32.00450,56117
32.01263,53251
32.02075,47030
32.02888,43567
32.03700,45469
32.04512,40148
32.05325,39216
32.06137,42711
32.06950,39242
32.07762,41242
32.08573,37928
32.09387,41010
32.10198,40752
32.11010,34822
32.11823,39414
32.12635,38570
32.13448,39163
32.14260,41169
32.15072,41287
32.15885,34108
32.16697,36687
32.17510,36079
32.18322,35562
32.19133,36182
32.19947,34414
32.20758,36164
32.21572,37183
32.22383,36961
32.23195,37159
32.24008,35426
32.24820,37906
32.25632,36677
32.26445,36175
32.27257,38882
32.28070,37278
32.28882,36956
32.29693,35469
32.30507,36795
32.31318,37228
32.32132,35974
32.32943,40177
32.33755,34844
32.34568,37326
32.35380,39074
32.36192,36115
32.37005,38610
32.37817,36443
32.38630,36193
32.39442,36180
32.40253,36504
32.41067,33652
32.41878,34522
32.42692,32148
32.43503,33907
32.44315,34123
32.45128,35641
32.45940,36522
32.46753,34052
32.47565,37270
32.48377,39252
32.49190,32705
32.50002,35634
32.50813,33568
32.51627,33911
32.52438,33077
32.53252,32065
32.54063,33225
32.54875,35140
32.55688,38251
32.56500,38297
32.57313,42341
32.58125,44474
32.58937,52665
32.59750,45462
32.60562,42870
32.61373,36552
32.62187,33875
32.62998,31864
32.63812,33440
32.64623,32591
32.65435,35085
32.66248,31768
32.67060,35768
32.67873,34880
32.68685,34648
32.69497,33919
32.70310,36983
32.71122,37324
32.71935,35686
32.72747,35470
32.73558,35990
32.74372,36480
32.75183,35167
32.75995,33987
32.76808,36213
32.77620,32032
32.78433,33571
32.79245,34810
32.80057,35266
32.80870,37266
32.81682,34478
32.82495,34343
32.83307,34014
32.84118,34571
32.84932,34950
32.85743,32193
32.86557,32064
32.87368,34587
32.88180,37142
32.88993,38760
32.89805,39498
32.90617,42848
32.91430,39724
32.92242,39573
32.93055,35951
32.93867,36494
32.94678,38332
32.95492,39079
32.96303,38776
32.97117,39909
32.97928,45526
32.98740,46431
32.99553,50874
33.00365,49071
33.01177,47767
33.01990,42936
33.02802,40563
33.03615,35503
33.04427,35770
33.05238,39557
33.06052,37154
33.06863,42520
33.07677,40927
33.08488,42929
33.09300,46553
33.10113,48980
33.10925,52031
33.11738,52075
33.12550,50541
33.13362,45244
33.14175,43687
33.14987,39191
33.15798,39121
33.16612,38047
33.17423,35755
33.18237,36926
33.19048,36050
33.19860,37417
33.20673,34986
33.21485,38586
33.22298,39358
33.23110,34871
33.23922,37830
33.24735,34723
33.25547,34939
33.26360,37072
33.27172,36892
33.27983,35743
33.28797,34666
33.29608,36535
33.30420,35953
33.31233,37893
33.32045,35254
33.32858,35769
33.33670,37144
33.34482,37290
33.35295,35588
33.36107,38551
33.36920,31719
33.37732,33887
33.38543,35482
33.39357,34029
33.40168,30489
33.40980,34398
33.41793,35410
33.42605,37475
33.43418,34303
33.44230,30576
33.45042,35383
33.45855,32646
33.46667,35947
33.47480,34180
33.48292,35274
33.49103,35460
33.49917,33936
33.50728,32932
33.51542,35004
33.52353,33673
33.53165,34881
33.53978,40592
33.54790,35547
33.55602,35738
33.56415,39013
33.57227,34883
33.58040,35799
33.58852,35254
33.59663,37138
33.60477,30596
33.61288,32256
33.62102,36380
33.62913,38354
33.63725,35759
33.64538,35845
33.65350,37207
33.66162,38658
33.66975,35144
33.67787,37514
33.68600,35180
33.69412,36215
33.70223,36800
33.71037,36144
33.71848,36018
33.72662,35083
33.73473,37854
33.74285,39711
33.75098,38956
33.75910,38708
33.76723,39791
33.77535,37699
33.78347,36910
33.79160,37130
33.79972,36706
33.80783,33958
33.81597,33467
33.82408,39831
33.83222,36691
33.84033,37427
33.84845,37384
33.85658,38787
33.86470,37384
33.87283,40559
33.88095,38384
33.88907,41016
33.89720,34389
33.90532,36348
33.91345,39939
33.92157,35031
33.92968,40198
33.93782,37475
33.94593,35879
33.95405,34622
33.96218,34096
33.97030,34957
33.97843,34308
33.98655,31743
33.99467,34015
34.00280,37952
34.01092,33008
34.01905,30919
34.02717,34669
34.03528,34981
34.04342,32039
34.05153,31103
34.05965,34597
34.06778,36063
34.07590,37499
34.08403,34756
34.09215,34697
34.10027,37983
34.10840,35348
34.11652,33707
34.12465,33333
34.13277,31980
34.14088,32569
34.14902,32828
34.15713,32956
34.16527,35516
34.17338,34401
34.18150,33443
34.18963,31590
34.19775,33539
34.20587,33982
34.21400,36282
34.22212,34680
34.23025,34165
34.23837,36027
34.24648,36382
34.25462,37672
34.26273,33977
34.27087,33098
34.27898,38032
34.28710,33570
34.29523,37868
34.30335,34883
34.31148,35499
34.31960,34284
34.32772,34377
34.33585,35648
34.34397,35869
34.35208,35118
34.36022,32481
34.36833,32543
34.37647,34410
34.38458,34121
34.39270,33776
34.40083,32219
34.40895,35191
34.41708,35334
34.42520,38522
34.43332,40425
34.44145,48185
34.44957,52464
34.45768,69164
34.46582,66439
34.47393,77594
34.48207,80479
34.49018,85812
34.49830,76480
34.50643,71219
34.51455,68314
34.52268,61643
34.53080,59551
34.53892,56377
34.54705,53271
34.55517,52691
34.56330,48509
34.57142,46943
34.57953,44464
34.58767,42948
34.59578,42248
34.60390,39892
34.61203,42051
34.62015,43727
34.62828,44186
34.63640,43878
34.64452,42795
34.65265,37459
34.66077,40929
34.66890,42027
34.67702,37973
34.68513,39507
34.69327,38943
34.70138,42522
34.70950,42532
34.71763,40804
34.72575,39615
34.73388,33767
34.74200,40182
34.75012,38098
34.75825,39198
34.76637,37641
34.77450,37973
34.78262,38635
34.79073,38011
34.79887,38669
34.80698,43632
34.81512,39389
34.82323,39143
34.83135,40594
34.83948,37943
34.84760,41177
34.85572,41954
34.86385,39230
34.87197,37701
34.88010,40671
34.88822,38651
34.89633,37190
34.90447,40774
34.91258,33393
34.92072,37913
34.92883,37279
34.93695,34839
34.94508,39342
34.95320,43380
34.96133,41924
34.96945,42890
34.97757,41865
34.98570,38961
34.99382,33678
35.00193,38195
35.01007,39001
35.01818,42180
35.02632,38462
35.03443,37420
35.04255,37898
35.05068,45502
35.05880,40520
35.06693,43931
35.07505,41218
35.08317,40622
35.09130,39139
35.09942,41272
35.10753,41873
35.11567,40641
35.12378,41293
35.13192,43046
35.14003,40288
35.14815,39731
35.15628,41861
35.16440,42204
35.17253,42309
35.18065,38743
35.18877,39235
35.19690,36668
35.20502,36692
35.21315,40228
35.22127,38699
35.22938,40334
35.23752,39987
35.24563,38172
35.25375,39296
35.26188,40290
35.27000,44091
35.27813,38938
35.28625,36726
35.29437,40959
35.30250,39434
35.31062,38883
35.31875,43559
35.32687,37327
35.33498,35851
35.34312,40148
35.35123,38956
35.35937,38716
35.36748,37726
35.37560,40834
35.38373,43485
35.39185,44735
35.39997,44751
35.40810,45895
35.41622,50413
35.42435,48217
35.43247,50000
35.44058,48883
35.44872,46588
35.45683,49040
35.46497,43763
35.47308,42570
35.48120,41237
35.48933,45711
35.49745,47737
35.50557,45336
35.51370,38562
35.52182,43330
35.52995,43391
35.53807,40000
35.54618,46423
35.55432,44930
35.56243,49951
35.57057,54657
35.57868,51617
35.58680,53168
35.59493,51586
35.60305,49709
35.61118,45041
35.61930,47162
35.62742,40961
35.63555,44067
35.64367,40303
35.65178,43158
35.65992,45262
35.66803,43171
35.67617,41483
35.68428,36258
35.69240,41668
35.70053,43637
35.70865,41977
35.71678,38454
35.72490,40034
35.73302,43073
35.74115,46829
35.74927,45078
35.75740,45877
35.76552,43105
35.77363,45044
35.78177,43667
35.78988,41572
35.79800,39855
35.80613,43124
35.81425,43807
35.82238,40586
35.83050,45588
35.83862,44014
35.84675,43317
35.85487,43447
35.86300,44740
35.87112,46658
35.87923,42303
35.88737,39452
35.89548,41695
35.90360,40162
35.91173,39827
35.91985,41611
35.92798,43093
35.93610,40560
35.94422,43504
35.95235,45211
35.96047,43334
35.96860,40181
35.97672,42380
35.98483,42062
35.99297,41481
36.00108,45786
36.00922,46660
36.01733,44719
36.02545,47495
36.03358,45066
36.04170,40604
36.04982,46906
36.05795,44650
36.06607,44666
36.07420,42419
36.08232,42241
36.09043,42343
36.09857,42880
36.10668,45958
36.11482,40614
36.12293,40668
36.13105,43702
36.13918,44612
36.14730,45214
36.15542,46761
36.16355,43225
36.17167,42719
36.17980,41877
36.18792,44473
36.19603,47078
36.20417,44897
36.21228,46545
36.22042,52813
36.22853,55344
36.23665,53185
36.24478,51770
36.25290,51536
36.26103,46259
36.26915,44793
36.27727,44353
36.28540,42057
36.29352,42138
36.30163,44212
36.30977,43325
36.31788,47140
36.32602,43227
36.33413,41240
36.34225,42060
36.35038,43588
36.35850,43466
36.36663,44218
36.37475,44432
36.38287,39094
36.39100,44853
36.39912,45805
36.40725,45726
36.41537,45138
36.42348,46565
36.43162,44182
36.43973,46250
36.44785,41966
36.45598,45670
36.46410,43120
36.47223,45191
36.48035,44096
36.48847,41015
36.49660,42252
36.50472,43304
36.51285,44456
36.52097,45060
36.52908,44209
36.53722,46344
36.54533,45481
36.55345,44594
36.56158,49733
36.56970,54653
36.57783,47670
36.58595,49108
36.59407,46142
36.60220,45064
36.61032,45212
36.61845,46395
36.62657,46199
36.63468,44329
36.64282,42441
36.65093,43214
36.65907,45568
36.66718,42749
36.67530,47147
36.68343,43245
36.69155,42942
36.69967,45843
36.70780,46883
36.71592,44960
36.72405,45987
36.73217,47152
36.74028,49378
36.74842,45263
36.75653,44903
36.76467,43741
36.77278,46212
36.78090,46522
36.78903,46221
36.79715,47161
36.80528,44849
36.81340,43658
36.82152,44838
36.82965,42346
36.83777,45504
36.84588,48459
36.85402,44297
36.86213,45962
36.87027,44759
36.87838,45582
36.88650,46035
36.89463,46533
36.90275,46811
36.91088,43309
36.91900,46173
36.92712,47652
36.93525,52759
36.94337,54444
36.95148,49761
36.95962,52988
36.96773,51509
36.97587,51296
36.98398,48737
36.99210,48281
37.00023,48245
37.00835,51833
37.01648,54787
37.02460,52857
37.03272,51482
37.04085,51679
37.04897,49526
37.05710,53367
37.06522,51474
37.07333,50593
37.08147,50305
37.08958,49397
37.09770,49888
37.10583,50120
37.11395,49304
37.12208,48777
37.13020,48767
37.13832,50295
37.14645,49918
37.15457,46248
37.16270,47767
37.17082,47297
37.17893,48254
37.18707,52535
37.19518,49925
37.20330,50254
37.21143,51884
37.21955,52345
37.22768,55781
37.23580,52994
37.24392,62083
37.25205,66164
37.26017,72883
37.26830,83207
37.27642,83497
37.28453,78843
37.29267,75820
37.30078,72526
37.30892,66366
37.31703,64178
37.32515,63370
37.33328,57876
37.34140,55787
37.34952,56512
37.35765,55151
37.36577,62244
37.37390,56265
37.38202,53898
37.39013,54969
37.39827,56807
37.40638,53120
37.41452,56607
37.42263,52524
37.43075,56704
37.43888,59797
37.44700,54295
37.45513,52635
37.46325,55928
37.47137,52188
37.47950,58556
37.48762,55052
