C:\MassHunter\GCMS\1\data\JTB-E02\BACandBLUE\JTB-E18-022-13.D Thu Jul 11 15:23:46 2019
Start of data points
2.09525,60772
2.10338,65663
2.11150,63093
2.11962,67925
2.12775,63163
2.13587,62127
2.14400,66008
2.15212,63794
2.16023,60853
2.16837,59636
2.17648,62763
2.18462,59608
2.19273,60802
2.20085,58856
2.20898,58335
2.21710,54821
2.22522,58243
2.23335,57005
2.24147,58505
2.24960,57412
2.25772,57264
2.26583,65860
2.27397,273268
2.28208,1167504
2.29022,1060924
2.29833,407229
2.30645,247160
2.31458,203527
2.32270,179535
2.33083,173660
2.33895,285969
2.34707,272676
2.35520,170671
2.36332,141416
2.37143,131542
2.37957,122036
2.38768,119818
2.39582,115625
2.40393,109745
2.41205,110508
2.42018,106599
2.42830,104676
2.43643,101717
2.44455,99971
2.45267,110036
2.46080,102397
2.46892,96388
2.47705,92160
2.48517,94289
2.49328,118768
2.50142,144760
2.50953,120783
2.51765,104729
2.52578,95528
2.53390,93208
2.54203,95428
2.55015,99982
2.55827,109349
2.56640,145505
2.57452,136838
2.58265,114750
2.59077,108285
2.59888,100623
2.60702,192933
2.61513,668681
2.62325,787548
2.63138,419927
2.63950,260517
2.64763,197699
2.65575,165140
2.66387,143113
2.67200,132876
2.68012,120380
2.68825,111317
2.69637,109677
2.70448,104598
2.71262,103849
2.72073,104359
2.72887,92516
2.73698,98302
2.74510,91664
2.75323,91887
2.76135,90153
2.76947,87774
2.77760,92512
2.78572,156631
2.79385,259897
2.80197,203818
2.81008,140864
2.81822,137946
2.82633,144090
2.83447,141729
2.84258,135786
2.85070,114938
2.85883,108319
2.86695,105443
2.87508,103083
2.88320,95280
2.89132,90233
2.89945,89048
2.90757,87898
2.91568,88249
2.92382,85951
2.93193,88526
2.94007,83162
2.94818,84730
2.95630,83694
2.96443,91897
2.97255,101034
2.98068,95357
2.98880,90994
2.99692,90392
3.00505,94042
3.01317,88708
3.02128,86728
3.02942,87083
3.03753,84757
3.04567,78709
3.05378,84409
3.06190,88544
3.07003,88511
3.07815,96899
3.08628,276145
3.09440,1082849
3.10252,2202283
3.11065,3762983
3.11877,4516395
3.12690,3011605
3.13502,1814520
3.14313,1340130
3.15127,1049091
3.15938,847093
3.16750,720757
3.17563,638068
3.18375,636220
3.19188,939266
3.20000,1524874
3.20812,1414853
3.21625,984818
3.22437,737198
3.23250,624085
3.24062,533987
3.24873,481017
3.25687,425601
3.26498,373802
3.27310,342274
3.28123,330223
3.28935,382210
3.29748,777073
3.30560,2021034
3.31372,3585703
3.32185,3923216
3.32997,3091249
3.33810,2202732
3.34622,1681141
3.35433,1382684
3.36247,1151950
3.37058,1021854
3.37872,898682
3.38683,811970
3.39495,733519
3.40308,685259
3.41120,628137
3.41932,579236
3.42745,567269
3.43557,530675
3.44370,511108
3.45182,469136
3.45993,468534
3.46807,453566
3.47618,440833
3.48432,441383
3.49243,435318
3.50055,424627
3.50868,407265
3.51680,384467
3.52493,377143
3.53305,365379
3.54117,360146
3.54930,367526
3.55742,357433
3.56553,348811
3.57367,373603
3.58178,399331
3.58992,390912
3.59803,352371
3.60615,333883
3.61428,326398
3.62240,335233
3.63053,337139
3.63865,341505
3.64677,340503
3.65490,328960
3.66302,377674
3.67113,1032337
3.67927,3133337
3.68738,5019933
3.69552,4216034
3.70363,2491009
3.71175,1626588
3.71988,1288035
3.72800,1098205
3.73613,957818
3.74425,850860
3.75237,763292
3.76050,728723
3.76862,666787
3.77675,633257
3.78487,599463
3.79298,576516
3.80112,598051
3.80923,892968
3.81735,1596389
3.82548,1993797
3.83360,1612012
3.84173,1143816
3.84985,906529
3.85797,774651
3.86610,684359
3.87422,634336
3.88235,588790
3.89047,561757
3.89858,525603
3.90672,500858
3.91483,496179
3.92297,568551
3.93108,676389
3.93920,735456
3.94733,721432
3.95545,1028234
3.96357,2106710
3.97170,3321076
3.97982,3221617
3.98795,2189842
3.99607,1784126
4.00418,3862205
4.01232,1.007625E+07
4.02043,1.602349E+07
4.02857,1.522271E+07
4.03668,9511953
4.04480,5004574
4.05293,3123931
4.06105,2235903
4.06917,1765114
4.07730,1459678
4.08542,1229056
4.09355,1051260
4.10167,949791
4.10978,864910
4.11792,779926
4.12603,717251
4.13417,689964
4.14228,770314
4.15040,932497
4.15853,948059
4.16665,821360
4.17478,699075
4.18290,628251
4.19102,578630
4.19915,542861
4.20727,677151
4.21538,1870422
4.22352,6194180
4.23163,1.323182E+07
4.23977,1.819182E+07
4.24788,1.769537E+07
4.25600,1.202096E+07
4.26413,7007058
4.27225,4721299
4.28038,3487644
4.28850,2722887
4.29662,2207395
4.30475,1877251
4.31287,1615877
4.32100,1412521
4.32912,1277780
4.33723,1139372
4.34537,1065303
4.35348,1033186
4.36160,977281
4.36973,957984
4.37785,886010
4.38598,824853
4.39410,779266
4.40222,730646
4.41035,707099
4.41847,672379
4.42660,647994
4.43472,628548
4.44283,593018
4.45097,578892
4.45908,561360
4.46720,535400
4.47533,529358
4.48345,502786
4.49158,501994
4.49970,486769
4.50782,468349
4.51595,462040
4.52407,450644
4.53220,442886
4.54032,420302
4.54843,425081
4.55657,419124
4.56468,407827
4.57282,390279
4.58093,381724
4.58905,381386
4.59718,366042
4.60530,370900
4.61342,370615
4.62155,367577
4.62967,422160
4.63780,537828
4.64592,672626
4.65403,697368
4.66217,584383
4.67028,480561
4.67842,423192
4.68653,392231
4.69465,372502
4.70278,356492
4.71090,335932
4.71902,340040
4.72715,314328
4.73527,306050
4.74340,309623
4.75152,306054
4.75963,300344
4.76777,285752
4.77588,284914
4.78402,279101
4.79213,296119
4.80025,349705
4.80838,424215
4.81650,448029
4.82463,418084
4.83275,377428
4.84087,368305
4.84900,380483
4.85712,376244
4.86523,353874
4.87337,334060
4.88148,321225
4.88962,294794
4.89773,291965
4.90585,280681
4.91398,275023
4.92210,277531
4.93023,310736
4.93835,475718
4.94647,940778
4.95460,1727144
4.96272,2521069
4.97085,2735764
4.97897,2403309
4.98708,1794823
4.99522,1323294
5.00333,1040780
5.01145,864767
5.01958,773382
5.02770,800455
5.03583,1015045
5.04395,1284758
5.05207,1368577
5.06020,1204365
5.06832,969560
5.07645,817069
5.08457,714671
5.09268,666627
5.10082,615122
5.10893,572490
5.11705,561716
5.12518,539989
5.13330,512027
5.14143,484526
5.14955,476589
5.15767,479996
5.16580,512202
5.17392,500545
5.18205,502673
5.19017,480999
5.19828,465046
5.20642,467758
5.21453,487409
5.22267,470537
5.23078,448079
5.23890,448574
5.24703,427799
5.25515,417168
5.26327,394011
5.27140,355536
5.27952,346653
5.28765,330790
5.29577,324965
5.30388,324398
5.31202,316385
5.32013,318750
5.32827,327241
5.33638,335545
5.34450,341443
5.35263,335135
5.36075,326579
5.36888,316916
5.37700,300839
5.38512,296903
5.39325,299555
5.40137,301436
5.40948,301883
5.41762,302829
5.42573,298722
5.43387,283105
5.44198,286935
5.45010,305508
5.45823,294834
5.46635,295050
5.47448,284167
5.48260,264496
5.49072,259353
5.49885,258134
5.50697,259733
5.51508,267139
5.52322,273083
5.53133,276490
5.53947,260174
5.54758,258426
5.55570,250889
5.56383,265702
5.57195,271917
5.58008,279247
5.58820,279117
5.59632,262536
5.60445,257332
5.61257,239222
5.62070,245443
5.62882,249816
5.63693,239708
5.64507,257014
5.65318,257399
5.66130,250410
5.66943,252172
5.67755,269937
5.68568,311385
5.69380,352465
5.70192,360948
5.71005,337254
5.71817,294606
5.72630,256483
5.73442,260186
5.74253,244954
5.75067,236743
5.75878,232513
5.76690,226024
5.77503,221280
5.78315,215480
5.79128,219521
5.79940,209342
5.80752,217287
5.81565,217628
5.82377,215678
5.83190,210265
5.84002,213272
5.84813,210771
5.85627,209711
5.86438,211054
5.87252,207705
5.88063,213989
5.88875,205613
5.89688,205101
5.90500,193949
5.91312,170880
5.92125,154617
5.92937,146147
5.93750,148368
5.94562,158092
5.95373,182967
5.96187,206557
5.96998,231327
5.97812,261573
5.98623,295291
5.99435,323761
6.00248,320625
6.01060,274458
6.01873,231503
6.02685,197419
6.03497,185307
6.04310,172331
6.05122,164591
6.05933,157291
6.06747,148241
6.07558,152872
6.08372,145691
6.09183,147903
6.09995,139748
6.10808,140366
6.11620,146100
6.12433,161221
6.13245,213371
6.14057,318388
6.14870,430476
6.15682,446918
6.16495,390935
6.17307,305715
6.18118,249715
6.18932,217792
6.19743,201052
6.20555,199458
6.21368,185749
6.22180,183482
6.22993,184657
6.23805,178242
6.24617,179754
6.25430,180510
6.26242,177646
6.27055,173453
6.27867,178102
6.28678,174804
6.29492,182891
6.30303,172209
6.31115,181125
6.31928,185101
6.32740,191679
6.33553,201353
6.34365,195700
6.35177,200537
6.35990,196514
6.36802,189641
6.37615,181208
6.38427,182667
6.39238,178578
6.40052,182112
6.40863,185882
6.41677,177335
6.42488,187150
6.43300,194184
6.44113,182823
6.44925,185912
6.45737,189079
6.46550,180781
6.47362,185757
6.48175,183474
6.48987,189153
6.49798,186689
6.50612,195470
6.51423,193706
6.52237,186661
6.53048,189689
6.53860,195367
6.54673,194271
6.55485,193321
6.56297,193728
6.57110,195058
6.57922,207914
6.58735,210732
6.59547,215999
6.60358,207131
6.61172,199353
6.61983,200488
6.62797,203592
6.63608,194206
6.64420,202819
6.65233,203425
6.66045,212830
6.66858,232637
6.67670,251499
6.68482,246249
6.69295,232262
6.70107,219532
6.70918,216118
6.71732,216472
6.72543,212447
6.73357,217438
6.74168,211906
6.74980,220333
6.75793,213095
6.76605,212155
6.77418,221583
6.78230,209442
6.79042,191511
6.79855,179493
6.80667,164761
6.81480,154997
6.82292,150173
6.83103,150667
6.83917,141165
6.84728,158039
6.85540,166839
6.86353,176805
6.87165,167425
6.87978,152537
6.88790,129758
6.89602,106836
6.90415,98565
6.91227,88474
6.92040,91826
6.92852,93569
6.93663,87349
6.94477,85600
6.95288,83576
6.96100,85941
6.96913,102565
6.97725,106808
6.98538,113169
6.99350,107259
7.00162,105901
7.00975,96478
7.01787,87314
7.02600,84267
7.03412,81190
7.04223,83693
7.05037,80243
7.05848,82395
7.06662,81019
7.07473,75557
7.08285,75790
7.09098,73467
7.09910,78179
7.10722,74986
7.11535,73122
7.12347,73028
7.13160,73384
7.13972,75734
7.14783,88766
7.15597,105811
7.16408,126322
7.17222,138889
7.18033,133537
7.18845,114196
7.19658,95238
7.20470,94064
7.21283,100316
7.22095,139467
7.22907,328838
7.23720,779302
7.24532,1354898
7.25343,1686915
7.26157,1551930
7.26968,1064394
7.27782,618825
7.28593,398555
7.29405,310039
7.30218,269230
7.31030,211491
7.31843,158882
7.32655,126550
7.33467,112541
7.34280,97668
7.35092,95889
7.35903,91933
7.36717,87542
7.37528,91897
7.38342,93616
7.39153,97069
7.39965,91634
7.40778,88802
7.41590,83313
7.42403,81042
7.43215,78432
7.44027,82700
7.44840,81354
7.45652,82364
7.46465,86212
7.47277,84907
7.48088,72080
7.48902,72916
7.49713,67114
7.50525,74251
7.51338,80868
7.52150,96510
7.52963,118751
7.53775,157312
7.54587,195877
7.55400,222207
7.56212,216053
7.57025,204029
7.57837,155614
7.58648,125043
7.59462,107605
7.60273,98442
7.61085,86954
7.61898,86951
7.62710,77761
7.63523,73441
7.64335,73879
7.65147,69314
7.65960,67612
7.66772,69859
7.67585,67371
7.68397,66869
7.69208,65679
7.70022,66752
7.70833,69521
7.71647,68222
7.72458,71438
7.73270,68776
7.74083,74722
7.74895,67578
7.75707,73477
7.76520,71757
7.77332,66257
7.78145,66794
7.78957,70799
7.79768,75580
7.80582,74052
7.81393,71831
7.82207,75819
7.83018,71467
7.83830,69645
7.84643,70482
7.85455,65855
7.86268,71225
7.87080,74836
7.87892,77276
7.88705,81493
7.89517,80438
7.90328,72393
7.91142,70252
7.91953,73070
7.92767,80290
7.93578,102289
7.94390,116440
7.95203,121759
7.96015,119590
7.96828,106803
7.97640,91783
7.98452,85938
7.99265,76547
8.00077,75269
8.00888,64503
8.01702,60981
8.02513,66222
8.03327,65495
8.04138,66775
8.04950,67862
8.05763,67176
8.06575,61620
8.07388,62017
8.08200,62223
8.09012,59769
8.09825,60467
8.10637,62239
8.11450,60499
8.12262,61463
8.13073,63302
8.13887,73853
8.14698,87137
8.15510,94493
8.16323,99713
8.17135,86550
8.17948,77514
8.18760,71034
8.19572,66793
8.20385,66515
8.21197,66735
8.22010,62662
8.22822,64224
8.23633,62577
8.24447,59895
8.25258,62702
8.26072,57770
8.26883,58929
8.27695,62303
8.28508,58587
8.29320,65459
8.30132,64867
8.30945,68106
8.31757,61857
8.32570,67168
8.33382,64199
8.34193,65522
8.35007,59948
8.35818,60522
8.36632,56317
8.37443,57875
8.38255,57627
8.39068,59965
8.39880,60430
8.40692,58979
8.41505,55274
8.42317,57748
8.43130,55013
8.43942,51932
8.44753,56845
8.45567,54393
8.46378,51736
8.47192,52393
8.48003,51309
8.48815,54885
8.49628,53557
8.50440,50612
8.51253,51302
8.52065,56326
8.52877,67769
8.53690,111571
8.54502,187054
8.55313,281169
8.56127,345629
8.56938,326527
8.57752,258291
8.58563,174408
8.59375,126013
8.60188,100133
8.61000,93061
8.61813,88675
8.62625,80980
8.63437,76419
8.64250,73021
8.65062,65105
8.65873,64212
8.66687,62602
8.67498,63915
8.68312,65216
8.69123,65198
8.69935,66245
8.70748,64334
8.71560,62082
8.72373,60529
8.73185,65109
8.73997,80106
8.74810,151540
8.75622,303239
8.76435,564149
8.77247,853182
8.78058,1001087
8.78872,921331
8.79683,714183
8.80495,490793
8.81308,330599
8.82120,236306
8.82933,189191
8.83745,168609
8.84557,174122
8.85370,186487
8.86182,180237
8.86995,177728
8.87807,170121
8.88618,160453
8.89432,158535
8.90243,147961
8.91057,141610
8.91868,135698
8.92680,135664
8.93493,138323
8.94305,149433
8.95117,152782
8.95930,155509
8.96742,155512
8.97555,149055
8.98367,135716
8.99178,128538
8.99992,123830
9.00803,119683
9.01617,113774
9.02428,106302
9.03240,109318
9.04053,114226
9.04865,104455
9.05677,101135
9.06490,97002
9.07302,98513
9.08115,98023
9.08927,100470
9.09738,103792
9.10552,111554
9.11363,117280
9.12177,117096
9.12988,118988
9.13800,113684
9.14613,108446
9.15425,100319
9.16238,98762
9.17050,96838
9.17862,99296
9.18675,92980
9.19487,88966
9.20298,84287
9.21112,88005
9.21923,86985
9.22737,85173
9.23548,84558
9.24360,78759
9.25173,76516
9.25985,82401
9.26798,85558
9.27610,84862
9.28422,78085
9.29235,80019
9.30047,77664
9.30860,76661
9.31672,76368
9.32483,76569
9.33297,75770
9.34108,74842
9.34920,73334
9.35733,74831
9.36545,74072
9.37358,73685
9.38170,72863
9.38982,73385
9.39795,79793
9.40607,82565
9.41420,84857
9.42232,83546
9.43043,103451
9.43857,103035
9.44668,101200
9.45480,95074
9.46293,93733
9.47105,88453
9.47918,85465
9.48730,79016
9.49542,75915
9.50355,77000
9.51167,84172
9.51980,88549
9.52792,86274
9.53603,86754
9.54417,81146
9.55228,74603
9.56042,74100
9.56853,81827
9.57665,112149
9.58478,147715
9.59290,175810
9.60102,173412
9.60915,143392
9.61727,110668
9.62540,80217
9.63352,65254
9.64163,54465
9.64977,52411
9.65788,49690
9.66602,47369
9.67413,50207
9.68225,53077
9.69038,47526
9.69850,50463
9.70663,50063
9.71475,44719
9.72287,44955
9.73100,47581
9.73912,44770
9.74723,41398
9.75537,44398
9.76348,42351
9.77162,40925
9.77973,45793
9.78785,46845
9.79598,45608
9.80410,42916
9.81223,44532
9.82035,42446
9.82847,40707
9.83660,41253
9.84472,42874
9.85283,41178
9.86097,42548
9.86908,45852
9.87722,44408
9.88533,46435
9.89345,44405
9.90158,42459
9.90970,46373
9.91783,46750
9.92595,55735
9.93407,58704
9.94220,77452
9.95032,92780
9.95845,105986
9.96657,102556
9.97468,98708
9.98282,83016
9.99093,72484
9.99905,67202
10.00718,62795
10.01530,62870
10.02343,57808
10.03155,53272
10.03967,49648
10.04780,49194
10.05592,47078
10.06405,50774
10.07217,46146
10.08028,46975
10.08842,51196
10.09653,50937
10.10465,50747
10.11278,48622
10.12090,51043
10.12903,48297
10.13715,45498
10.14527,47664
10.15340,48426
10.16152,47470
10.16965,47558
10.17777,44747
10.18588,43472
10.19402,49233
10.20213,42274
10.21027,49354
10.21838,43776
10.22650,45477
10.23463,46909
10.24275,52266
10.25087,53282
10.25900,72986
10.26712,125698
10.27525,283365
10.28337,656520
10.29148,1281871
10.29962,2031456
10.30773,2931162
10.31587,4282340
10.32398,6235494
10.33210,8810039
10.34023,1.062103E+07
10.34835,1.037617E+07
10.35648,7880386
10.36460,4804549
10.37272,2558422
10.38085,1358161
10.38897,866376
10.39708,599318
10.40522,459419
10.41333,374682
10.42147,319288
10.42958,288886
10.43770,257963
10.44583,240747
10.45395,233317
10.46208,208809
10.47020,201214
10.47832,194991
10.48645,177109
10.49457,166564
10.50268,165911
10.51082,159336
10.51893,153935
10.52707,153291
10.53518,159813
10.54330,159099
10.55143,158492
10.55955,145049
10.56768,139481
10.57580,132514
10.58392,128263
10.59205,118009
10.60017,116121
10.60830,111372
10.61642,102745
10.62453,98380
10.63267,100390
10.64078,95456
10.64890,93418
10.65703,92590
10.66515,85755
10.67328,86581
10.68140,87221
10.68952,85323
10.69765,84315
10.70577,83206
10.71390,80291
10.72202,81604
10.73013,81049
10.73827,81690
10.74638,84002
10.75452,79042
10.76263,81394
10.77075,79752
10.77888,72820
10.78700,70123
10.79512,68292
10.80325,69429
10.81137,69121
10.81950,66844
10.82762,70344
10.83573,70186
10.84387,66686
10.85198,59620
10.86012,65197
10.86823,61842
10.87635,60581
10.88448,58050
10.89260,58577
10.90072,60833
10.90885,58639
10.91697,59849
10.92510,56996
10.93322,56390
10.94133,61547
10.94947,48861
10.95758,57774
10.96572,57806
10.97383,56581
10.98195,58817
10.99008,54902
10.99820,55229
11.00633,56962
11.01445,52399
11.02257,53048
11.03070,46627
11.03882,47173
11.04693,51532
11.05507,49715
11.06318,50539
11.07132,50332
11.07943,53347
11.08755,51093
11.09568,53466
11.10380,55397
11.11193,47071
11.12005,47444
11.12817,42666
11.13630,43435
11.14442,45677
11.15253,46384
11.16067,45977
11.16878,47794
11.17692,47691
11.18503,47868
11.19315,48697
11.20128,49165
11.20940,45688
11.21753,45216
11.22565,45893
11.23377,42528
11.24190,40786
11.25002,43728
11.25815,42430
11.26627,38063
11.27438,42006
11.28252,45972
11.29063,43375
11.29875,52472
11.30688,67555
11.31500,92996
11.32313,136978
11.33125,185139
11.33937,231205
11.34750,248979
11.35562,231545
11.36375,198996
11.37187,142241
11.37998,104750
11.38812,85591
11.39623,73717
11.40437,71777
11.41248,66407
11.42060,67004
11.42873,60611
11.43685,61613
11.44497,60866
11.45310,58355
11.46122,58096
11.46935,58751
11.47747,70672
11.48558,94148
11.49372,117415
11.50183,138655
11.50997,138916
11.51808,128013
11.52620,108739
11.53433,89518
11.54245,85078
11.55058,82891
11.55870,77881
11.56682,72791
11.57495,67947
11.58307,65061
11.59118,69033
11.59932,77618
11.60743,93904
11.61557,117955
11.62368,132773
11.63180,127473
11.63993,111113
11.64805,89674
11.65618,73788
11.66430,61468
11.67242,61352
11.68055,53570
11.68867,52180
11.69678,56447
11.70492,55051
11.71303,53529
11.72117,53126
11.72928,52717
11.73740,53873
11.74553,47219
11.75365,45656
11.76178,45441
11.76990,43339
11.77802,46637
11.78615,44321
11.79427,44962
11.80240,45070
11.81052,47408
11.81863,49798
11.82677,49882
11.83488,45450
11.84300,44731
11.85113,45336
11.85925,45617
11.86738,43299
11.87550,41615
11.88362,41167
11.89175,42688
11.89987,38862
11.90800,37384
11.91612,42755
11.92423,48113
11.93237,47555
11.94048,50610
11.94860,47695
11.95673,43886
11.96485,42265
11.97298,42301
11.98110,44045
11.98922,58309
11.99735,85161
12.00547,109554
12.01360,133523
12.02172,144053
12.02983,122064
12.03797,99700
12.04608,82655
12.05422,64234
12.06233,53528
12.07045,51997
12.07858,53090
12.08670,52063
12.09482,48203
12.10295,48840
12.11107,52313
12.11920,50145
12.12732,51655
12.13543,52407
12.14357,49988
12.15168,46010
12.15982,45457
12.16793,45300
12.17605,45367
12.18418,40851
12.19230,43398
12.20043,43935
12.20855,39588
12.21667,41948
12.22480,40296
12.23292,39203
12.24103,43898
12.24917,39738
12.25728,40810
12.26542,41592
12.27353,41715
12.28165,40497
12.28978,40434
12.29790,39946
12.30603,39881
12.31415,38810
12.32227,38067
12.33040,46319
12.33852,40132
12.34663,38398
12.35477,36433
12.36288,37346
12.37102,38496
12.37913,33603
12.38725,41928
12.39538,45187
12.40350,47305
12.41163,53438
12.41975,62198
12.42787,72242
12.43600,72980
12.44412,72117
12.45225,68287
12.46037,59359
12.46848,55696
12.47662,50823
12.48473,48885
12.49285,47727
12.50098,46321
12.50910,46124
12.51723,46751
12.52535,51282
12.53347,71821
12.54160,98904
12.54972,177407
12.55785,296443
12.56597,432860
12.57408,524442
12.58222,473179
12.59033,356402
12.59847,237421
12.60658,153568
12.61470,109203
12.62283,89475
12.63095,75250
12.63907,69934
12.64720,64869
12.65532,59727
12.66345,62512
12.67157,57736
12.67968,53222
12.68782,55124
12.69593,49061
12.70407,52549
12.71218,50803
12.72030,54379
12.72843,57356
12.73655,61358
12.74467,63846
12.75280,58352
12.76092,56488
12.76905,54473
12.77717,48444
12.78528,44359
12.79342,44912
12.80153,42689
12.80967,44086
12.81778,37461
12.82590,40835
12.83403,39717
12.84215,37322
12.85028,39288
12.85840,37222
12.86652,39870
12.87465,40164
12.88277,34098
12.89088,36378
12.89902,38463
12.90713,36660
12.91527,36903
12.92338,35547
12.93150,36671
12.93963,35894
12.94775,36808
12.95588,39533
12.96400,49609
12.97212,54292
12.98025,71806
12.98837,81688
12.99648,79535
13.00462,73019
13.01273,60012
13.02087,49578
13.02898,47673
13.03710,44511
13.04523,40487
13.05335,40366
13.06148,46291
13.06960,38875
13.07772,42664
13.08585,43037
13.09397,39612
13.10210,42931
13.11022,37792
13.11833,39267
13.12647,40148
13.13458,38367
13.14270,37891
13.15083,37939
13.15895,45414
13.16708,41616
13.17520,44257
13.18332,44351
13.19145,44968
13.19957,42849
13.20770,42138
13.21582,48580
13.22393,49373
13.23207,46765
13.24018,45264
13.24832,45529
13.25643,41171
13.26455,41096
13.27268,37577
13.28080,36764
13.28892,37861
13.29705,34529
13.30517,34540
13.31330,32801
13.32142,36660
13.32953,34106
13.33767,38871
13.34578,35940
13.35392,35637
13.36203,34481
13.37015,33050
13.37828,34011
13.38640,33959
13.39452,32381
13.40265,31895
13.41077,30819
13.41890,30711
13.42702,32364
13.43513,32232
13.44327,32853
13.45138,32684
13.45952,27236
13.46763,34925
13.47575,34782
13.48388,34210
13.49200,36869
13.50013,32796
13.50825,32148
13.51637,31903
13.52450,34757
13.53262,36313
13.54073,32717
13.54887,32510
13.55698,33727
13.56512,34482
13.57323,36234
13.58135,36178
13.58948,41932
13.59760,50405
13.60573,71170
13.61385,106370
13.62197,140940
13.63010,157054
13.63822,150976
13.64635,122317
13.65447,89818
13.66258,71068
13.67072,55628
13.67883,48662
13.68695,44017
13.69508,44178
13.70320,40846
13.71133,41069
13.71945,38503
13.72757,46026
13.73570,60468
13.74382,111139
13.75195,244724
13.76007,487489
13.76818,873469
13.77632,1281078
13.78443,1485800
13.79255,1394870
13.80068,1101734
13.80880,782073
13.81693,564200
13.82505,441174
13.83317,390199
13.84130,363995
13.84942,321036
13.85755,277965
13.86567,233479
13.87378,198141
13.88192,170975
13.89003,161055
13.89817,149950
13.90628,141898
13.91440,125598
13.92253,121443
13.93065,115443
13.93877,109405
13.94690,109085
13.95502,110915
13.96315,106814
13.97127,106328
13.97938,115064
13.98752,115804
13.99563,105346
14.00377,104589
14.01188,97773
14.02000,94740
14.02813,88891
14.03625,86560
14.04438,89502
14.05250,88608
14.06062,84622
14.06875,89260
14.07687,88540
14.08498,80453
14.09312,79623
14.10123,79487
14.10937,75850
14.11748,81463
14.12560,76751
14.13373,83410
14.14185,78537
14.14998,82069
14.15810,92743
14.16622,97199
14.17435,123678
14.18247,159159
14.19058,208690
14.19872,237156
14.20683,244136
14.21497,231243
14.22308,206169
14.23120,173984
14.23933,166903
14.24745,154811
14.25558,158072
14.26370,144828
14.27182,135739
14.27995,113162
14.28807,109309
14.29620,94839
14.30432,93574
14.31243,86388
14.32057,84568
14.32868,78639
14.33680,76287
14.34493,70670
14.35305,64982
14.36118,56430
14.36930,55328
14.37742,57249
14.38555,59631
14.39367,83096
14.40180,135304
14.40992,224231
14.41803,347675
14.42617,429706
14.43428,459378
14.44240,355449
14.45053,260639
14.45865,179641
14.46678,133671
14.47490,107377
14.48302,87050
14.49115,81508
14.49927,76460
14.50740,74557
14.51552,69473
14.52363,68444
14.53177,69529
14.53988,64290
14.54802,62592
14.55613,60799
14.56425,58714
14.57238,57185
14.58050,55889
14.58862,50874
14.59675,51686
14.60487,52651
14.61300,49143
14.62112,47936
14.62923,48691
14.63737,45919
14.64548,49164
14.65362,47459
14.66173,45703
14.66985,43216
14.67798,45184
14.68610,48765
14.69423,42396
14.70235,44766
14.71047,44081
14.71860,46582
14.72672,45334
14.73483,47478
14.74297,46851
14.75108,46389
14.75922,47437
14.76733,46037
14.77545,46327
14.78358,59617
14.79170,83959
14.79983,173931
14.80795,400513
14.81607,864831
14.82420,1446114
14.83232,2042160
14.84043,2187482
14.84857,1892468
14.85668,1394379
14.86482,924140
14.87293,582730
14.88105,390172
14.88918,289218
14.89730,230726
14.90543,200229
14.91355,178179
14.92167,159902
14.92980,137244
14.93792,129140
14.94605,118574
14.95417,117372
14.96228,111120
14.97042,113448
14.97853,109810
14.98665,106704
14.99478,101851
15.00290,98711
15.01103,92162
15.01915,88001
15.02727,86998
15.03540,87484
15.04352,82723
15.05165,76248
15.05977,74539
15.06788,70790
15.07602,72158
15.08413,69133
15.09227,68605
15.10038,67185
15.10850,64387
15.11663,60706
15.12475,66324
15.13287,70578
15.14100,74637
15.14912,76967
15.15725,77397
15.16537,72709
15.17348,65901
15.18162,61497
15.18973,57813
15.19787,53966
15.20598,50034
15.21410,49829
15.22223,49907
15.23035,47666
15.23847,42363
15.24660,45025
15.25472,43750
15.26285,47590
15.27097,45720
15.27908,40407
15.28722,42709
15.29533,44522
15.30347,43710
15.31158,40093
15.31970,40266
15.32783,41245
15.33595,40451
15.34408,39636
15.35220,41817
15.36032,38246
15.36845,38735
15.37657,39256
15.38468,45597
15.39282,44579
15.40093,45393
15.40907,49736
15.41718,55052
15.42530,51748
15.43343,52879
15.44155,45586
15.44968,46140
15.45780,43883
15.46592,46325
15.47405,47615
15.48217,57752
15.49028,65174
15.49842,76895
15.50653,81323
15.51467,79125
15.52278,78328
15.53090,67517
15.53903,67817
15.54715,60044
15.55528,59275
15.56340,54226
15.57152,52562
15.57965,45503
15.58777,45006
15.59590,44888
15.60402,44906
15.61213,42372
15.62027,40700
15.62838,38499
15.63650,41674
15.64463,38236
15.65275,38098
15.66088,37824
15.66900,35729
15.67712,39326
15.68525,36369
15.69337,36066
15.70150,36004
15.70962,41037
15.71773,41240
15.72587,43106
15.73398,40552
15.74212,43580
15.75023,48903
15.75835,63654
15.76648,86960
15.77460,142055
15.78272,197556
15.79085,253895
15.79897,258046
15.80710,226282
15.81522,181204
15.82333,126037
15.83147,100949
15.83958,77819
15.84772,70462
15.85583,60441
15.86395,55573
15.87208,56523
15.88020,56176
15.88832,55057
15.89645,54020
15.90457,47376
15.91270,47741
15.92082,50427
15.92893,50052
15.93707,50100
15.94518,51258
15.95332,52970
15.96143,67597
15.96955,78357
15.97768,88920
15.98580,89120
15.99393,88525
16.00205,85755
16.01017,75483
16.01830,74019
16.02642,76284
16.03453,69325
16.04267,68079
16.05078,60934
16.05892,59431
16.06703,54307
16.07515,46805
16.08328,46600
16.09140,46522
16.09953,43902
16.10765,44984
16.11577,43001
16.12390,41238
16.13202,46081
16.14015,48958
16.14827,49845
16.15638,48698
16.16452,48414
16.17263,44724
16.18075,45511
16.18888,45289
16.19700,45637
16.20513,41741
16.21325,42650
16.22137,44016
16.22950,46615
16.23762,44395
16.24575,41556
16.25387,43418
16.26198,41103
16.27012,41390
16.27823,43582
16.28635,43006
16.29448,46219
16.30260,42339
16.31073,46901
16.31885,45604
16.32697,45964
16.33510,44425
16.34322,44574
16.35135,47239
16.35947,57926
16.36758,67480
16.37572,82238
16.38383,80983
16.39197,80951
16.40008,72729
16.40820,60452
16.41633,56055
16.42445,54486
16.43257,50087
16.44070,48491
16.44882,52876
16.45695,69002
16.46507,83791
16.47318,111281
16.48132,133293
16.48943,140141
16.49757,138028
16.50568,112891
16.51380,86876
16.52193,73722
16.53005,58216
16.53817,52845
16.54630,49057
16.55442,48523
16.56255,51033
16.57067,48952
16.57878,52617
16.58692,54096
16.59503,61638
16.60317,63110
16.61128,66347
16.61940,77796
16.62753,70058
16.63565,68809
16.64378,63599
16.65190,57749
16.66002,50417
16.66815,47389
16.67627,46038
16.68438,48277
16.69252,47122
16.70063,49318
16.70877,42253
16.71688,39538
16.72500,41945
16.73313,42228
16.74125,42839
16.74938,46003
16.75750,43157
16.76562,42417
16.77375,43802
16.78187,44018
16.79000,42157
16.79812,38671
16.80623,41441
16.81437,40499
16.82248,40909
16.83060,38630
16.83873,41145
16.84685,36665
16.85498,35715
16.86310,40110
16.87122,38766
16.87935,33728
16.88747,38760
16.89560,36755
16.90372,34452
16.91183,36504
16.91997,34780
16.92808,35424
16.93622,34060
16.94433,33535
16.95245,37189
16.96058,35557
16.96870,38405
16.97682,37037
16.98495,42321
16.99307,39084
17.00120,39386
17.00932,40168
17.01743,39200
17.02557,44995
17.03368,45012
17.04182,46804
17.04993,51194
17.05805,46815
17.06618,54393
17.07430,57233
17.08242,59065
17.09055,67773
17.09867,77080
17.10680,91307
17.11492,103117
17.12303,103888
17.13117,100946
17.13928,90754
17.14742,86887
17.15553,79680
17.16365,69016
17.17178,62131
17.17990,60005
17.18803,50981
17.19615,50322
17.20427,48252
17.21240,44229
17.22052,42030
17.22863,41165
17.23677,42316
17.24488,42055
17.25302,48650
17.26113,41739
17.26925,40246
17.27738,36515
17.28550,39348
17.29363,42453
17.30175,40037
17.30987,41303
17.31800,45415
17.32612,41398
17.33423,48734
17.34237,55086
17.35048,58509
17.35862,59795
17.36673,57953
17.37485,62298
17.38298,55256
17.39110,49441
17.39923,49934
17.40735,50022
17.41547,46939
17.42360,45657
17.43172,45144
17.43985,46942
17.44797,46864
17.45608,43794
17.46422,46313
17.47233,39584
17.48045,48230
17.48858,44874
17.49670,41067
17.50483,34664
17.51295,38670
17.52107,41246
17.52920,40120
17.53732,42418
17.54545,41159
17.55357,49665
17.56168,67702
17.56982,96079
17.57793,170336
17.58607,278082
17.59418,450883
17.60230,653295
17.61043,799499
17.61855,850110
17.62667,736570
17.63480,567303
17.64292,404189
17.65105,301560
17.65917,235920
17.66728,189016
17.67542,164128
17.68353,142993
17.69167,124004
17.69978,108694
17.70790,100863
17.71603,97931
17.72415,86494
17.73227,87948
17.74040,78907
17.74852,77674
17.75665,70298
17.76477,68331
17.77288,67098
17.78102,68704
17.78913,74753
17.79727,80887
17.80538,104540
17.81350,143658
17.82163,191089
17.82975,226313
17.83788,237952
17.84600,215474
17.85412,171327
17.86225,146079
17.87037,118653
17.87848,99015
17.88662,88568
17.89473,76978
17.90287,74158
17.91098,65726
17.91910,66281
17.92723,62257
17.93535,57804
17.94348,57739
17.95160,59903
17.95972,59180
17.96785,52516
17.97597,54358
17.98410,54155
17.99222,50841
18.00033,53563
18.00847,57661
18.01658,60787
18.02470,64989
18.03283,69468
18.04095,79152
18.04908,83526
18.05720,103151
18.06532,141345
18.07345,243108
18.08157,404207
18.08970,554439
18.09782,664858
18.10593,646496
18.11407,558620
18.12218,426148
18.13030,326229
18.13843,242050
18.14655,208562
18.15468,185977
18.16280,162149
18.17092,149953
18.17905,137563
18.18717,134132
18.19530,122364
18.20342,115296
18.21153,109510
18.21967,101054
18.22778,102960
18.23592,97457
18.24403,92476
18.25215,85771
18.26028,85832
18.26840,79059
18.27652,71463
18.28465,64455
18.29277,62997
18.30090,58448
18.30902,50810
18.31713,51309
18.32527,47671
18.33338,47420
18.34152,47560
18.34963,45765
18.35775,47188
18.36588,44764
18.37400,46481
18.38212,45713
18.39025,52673
18.39837,81094
18.40650,118681
18.41462,177275
18.42273,231213
18.43087,271432
18.43898,285232
18.44712,319522
18.45523,358393
18.46335,379986
18.47148,465994
18.47960,534394
18.48773,556678
18.49585,547280
18.50397,506941
18.51210,455342
18.52022,390707
18.52833,353912
18.53647,335197
18.54458,313520
18.55272,305012
18.56083,294965
18.56895,297113
18.57708,281739
18.58520,281246
18.59333,275352
18.60145,266186
18.60957,269301
18.61770,268931
18.62582,262345
18.63395,266149
18.64207,260012
18.65018,259728
18.65832,252742
18.66643,247897
18.67455,249093
18.68268,236197
18.69080,236417
18.69893,233617
18.70705,235214
18.71517,221920
18.72330,225183
18.73142,226758
18.73955,224575
18.74767,220148
18.75578,219865
18.76392,212267
18.77203,217389
18.78015,215574
18.78828,209012
18.79640,206530
18.80453,205191
18.81265,207809
18.82077,201415
18.82890,203355
18.83702,191977
18.84515,198528
18.85327,196255
18.86138,193490
18.86952,185283
18.87763,186836
18.88577,186761
18.89388,187345
18.90200,185832
18.91013,184843
18.91825,181955
18.92637,184307
18.93450,180180
18.94262,182647
18.95075,177629
18.95887,185612
18.96698,184609
18.97512,172809
18.98323,171450
18.99137,172899
18.99948,166964
19.00760,169813
19.01573,165765
19.02385,171134
19.03198,164340
19.04010,163473
19.04822,156737
19.05635,156567
19.06447,168377
19.07258,174851
19.08072,186435
19.08883,225580
19.09697,267876
19.10508,309183
19.11320,304992
19.12133,297510
19.12945,266304
19.13758,227022
19.14570,200836
19.15382,189089
19.16195,172323
19.17007,163312
19.17818,161954
19.18632,152725
19.19443,143121
19.20257,147899
19.21068,141634
19.21880,144364
19.22693,142479
19.23505,140439
19.24318,144877
19.25130,140300
19.25942,134729
19.26755,138324
19.27567,137801
19.28380,145305
19.29192,149636
19.30003,143686
19.30817,148315
19.31628,147761
19.32440,140556
19.33253,133981
19.34065,135541
19.34878,142927
19.35690,156105
19.36502,186832
19.37315,202204
19.38127,214183
19.38940,207479
19.39752,185262
19.40563,167006
19.41377,146953
19.42188,137693
19.43000,130677
19.43813,126932
19.44625,123582
19.45438,122577
19.46250,131221
19.47062,140157
19.47875,165761
19.48687,187231
19.49500,219720
19.50312,245043
19.51123,235755
19.51937,210605
19.52748,177791
19.53562,151484
19.54373,138688
19.55185,121784
19.55998,113850
19.56810,119892
19.57622,110505
19.58435,109122
19.59247,108114
19.60060,102620
19.60872,105842
19.61683,107185
19.62497,106339
19.63308,106364
19.64122,128428
19.64933,143918
19.65745,176907
19.66558,214219
19.67370,238996
19.68183,248414
19.68995,250848
19.69807,229064
19.70620,214936
19.71432,193538
19.72243,176320
19.73057,155604
19.73868,146278
19.74682,133880
19.75493,132639
19.76305,122712
19.77118,121589
19.77930,109602
19.78743,123023
19.79555,123587
19.80367,119562
19.81180,120337
19.81992,111786
19.82803,110992
19.83617,106022
19.84428,107502
19.85242,126096
19.86053,193161
19.86865,364349
19.87678,673710
19.88490,1184030
19.89303,1804807
19.90115,2283936
19.90927,2422717
19.91740,2159922
19.92552,1688304
19.93365,1223807
19.94177,927503
19.94988,701133
19.95802,585628
19.96613,517451
19.97425,476494
19.98238,449360
19.99050,409145
19.99863,401101
20.00675,377386
20.01487,355722
20.02300,344396
20.03112,319691
20.03925,295410
20.04737,255834
20.05548,232479
20.06362,206093
20.07173,177150
20.07987,158215
20.08798,144304
20.09610,137758
20.10423,129197
20.11235,125947
20.12047,128835
20.12860,117423
20.13672,111685
20.14485,111167
20.15297,115302
20.16108,116180
20.16922,119505
20.17733,127387
20.18547,134476
20.19358,141853
20.20170,137282
20.20983,134006
20.21795,131886
20.22607,119294
20.23420,123743
20.24232,128935
20.25045,144739
20.25857,160988
20.26668,184979
20.27482,213113
20.28293,235024
20.29107,242577
20.29918,220741
20.30730,194221
20.31543,169598
20.32355,150024
20.33168,134158
20.33980,121309
20.34792,112132
20.35605,95559
20.36417,88145
20.37228,83693
20.38042,80089
20.38853,78668
20.39667,77702
20.40478,80833
20.41290,75500
20.42103,82899
20.42915,86253
20.43728,91340
20.44540,94091
20.45352,92801
20.46165,87733
20.46977,87752
20.47790,83257
20.48602,81606
20.49413,75433
20.50227,73950
20.51038,69016
20.51850,73519
20.52663,73830
20.53475,75099
20.54288,69715
20.55100,79619
20.55912,74070
20.56725,71580
20.57537,74386
20.58350,72195
20.59162,71070
20.59973,68168
20.60787,64546
20.61598,69715
20.62410,61842
20.63223,67069
20.64035,64165
20.64848,69681
20.65660,71370
20.66472,71746
20.67285,71426
20.68097,69034
20.68910,69292
20.69722,66652
20.70533,66499
20.71347,67917
20.72158,63840
20.72972,67188
20.73783,63925
20.74595,64460
20.75408,68737
20.76220,64623
20.77032,68908
20.77845,73441
20.78657,87777
20.79470,110562
20.80282,143386
20.81093,187766
20.81907,222967
20.82718,223111
20.83532,211686
20.84343,174834
20.85155,131946
20.85968,106356
20.86780,90261
20.87592,82779
20.88405,80840
20.89217,74767
20.90030,76615
20.90842,74578
20.91653,75175
20.92467,73283
20.93278,68397
20.94092,71355
20.94903,68430
20.95715,67831
20.96528,67433
20.97340,64850
20.98153,69225
20.98965,65214
20.99777,67512
21.00590,62455
21.01402,63323
21.02213,65680
21.03027,60399
21.03838,62774
21.04652,63236
21.05463,70010
21.06275,63144
21.07088,62618
21.07900,60395
21.08713,60893
21.09525,59915
21.10337,59768
21.11150,57335
21.11962,57821
21.12775,61314
21.13587,67261
21.14398,64626
21.15212,73257
21.16023,77497
21.16835,82133
21.17648,79527
21.18460,75981
21.19273,76049
21.20085,68795
21.20897,69839
21.21710,65059
21.22522,66952
21.23335,64008
21.24147,63508
21.24958,62318
21.25772,62823
21.26583,58642
21.27395,58200
21.28208,56268
21.29020,61155
21.29833,57485
21.30645,54882
21.31457,56483
21.32270,53075
21.33082,51722
21.33895,54121
21.34707,55545
21.35518,53432
21.36332,53130
21.37143,55418
21.37957,56871
21.38768,58361
21.39580,55415
21.40393,56180
21.41205,61748
21.42017,58883
21.42830,59043
21.43642,58802
21.44455,56556
21.45267,53673
21.46078,52042
21.46892,52062
21.47703,49068
21.48517,51449
21.49328,48280
21.50140,50382
21.50953,51521
21.51765,48713
21.52578,48460
21.53390,53069
21.54202,48177
21.55015,49836
21.55827,51210
21.56638,47115
21.57452,53843
21.58263,59099
21.59077,65974
21.59888,74603
21.60700,69502
21.61513,71892
21.62325,78130
21.63138,74848
21.63950,78901
21.64762,81425
21.65575,83006
21.66387,86792
21.67198,77788
21.68012,80558
21.68823,76699
21.69637,75059
21.70448,72533
21.71260,66390
21.72073,64345
21.72885,61151
21.73698,61490
21.74510,60974
21.75322,55223
21.76135,61101
21.76947,52820
21.77760,55354
21.78572,54192
21.79383,56685
21.80197,56063
21.81008,61399
21.81820,66607
21.82633,65289
21.83445,73176
21.84258,71341
21.85070,69698
21.85882,63669
21.86695,61224
21.87507,58774
21.88320,54863
21.89132,53821
21.89943,55914
21.90757,50546
21.91568,51532
21.92380,50457
21.93193,49812
21.94005,50031
21.94818,46833
21.95630,46654
21.96442,44122
21.97255,44214
21.98067,46036
21.98880,43714
21.99692,45221
22.00503,44287
22.01317,44347
22.02128,43177
22.02942,43661
22.03753,43575
22.04565,48921
22.05378,45945
22.06190,42860
22.07002,41448
22.07815,41686
22.08627,43402
22.09440,43399
22.10252,42652
22.11063,41734
22.11877,41592
22.12688,44659
22.13502,50069
22.14313,51523
22.15125,56462
22.15938,58367
22.16750,63870
22.17563,65415
22.18375,64217
22.19187,66123
22.20000,72561
22.20812,75349
22.21623,74366
22.22437,77108
22.23248,78644
22.24062,78819
22.24873,79054
22.25685,72295
22.26498,72732
22.27310,77590
22.28123,80296
22.28935,84264
22.29747,82254
22.30560,83658
22.31372,88499
22.32185,85684
22.32997,88407
22.33808,85175
22.34622,79243
22.35433,78820
22.36245,70658
22.37058,70208
22.37870,66953
22.38683,68357
22.39495,75505
22.40307,83268
22.41120,96841
22.41932,109423
22.42745,115843
22.43557,107828
22.44368,103091
22.45182,87071
22.45993,74469
22.46805,75699
22.47618,74926
22.48430,76413
22.49243,81824
22.50055,91796
22.50867,93620
22.51680,89090
22.52492,80546
22.53305,72190
22.54117,68726
22.54928,65616
22.55742,60903
22.56553,59399
22.57367,56115
22.58178,51798
22.58990,46633
22.59803,51321
22.60615,49050
22.61427,45237
22.62240,47171
22.63052,46696
22.63865,46367
22.64677,45709
22.65488,54084
22.66302,67465
22.67113,79490
22.67927,94587
22.68738,99591
22.69550,109564
22.70363,124969
22.71175,128230
22.71987,132944
22.72800,139777
22.73612,135904
22.74425,136336
22.75237,134311
22.76048,133333
22.76862,135884
22.77673,134647
22.78487,148153
22.79298,160311
22.80110,179865
22.80923,185796
22.81735,195611
22.82548,188316
22.83360,175468
22.84172,164107
22.84985,158185
22.85797,147371
22.86608,142209
22.87422,143329
22.88233,148292
22.89047,162494
22.89858,170879
22.90670,197084
22.91483,229284
22.92295,264809
22.93108,270390
22.93920,271162
22.94732,239197
22.95545,206061
22.96357,179560
22.97168,156500
22.97982,154864
22.98793,134916
22.99607,133119
23.00418,129116
23.01230,130104
23.02043,122508
23.02855,120827
23.03668,117022
23.04480,116569
23.05292,115735
23.06105,116089
23.06917,116580
23.07730,115346
23.08542,113547
23.09353,107032
23.10167,105348
23.10978,106485
23.11790,102604
23.12603,98177
23.13415,105099
23.14228,102626
23.15040,96745
23.15852,96480
23.16665,102014
23.17477,103198
23.18290,91830
23.19102,95207
23.19913,94217
23.20727,92408
23.21538,89034
23.22352,93430
23.23163,98115
23.23975,98754
23.24788,95790
23.25600,102885
23.26412,102928
23.27225,101456
23.28037,105286
23.28850,98378
23.29662,98981
23.30473,95242
23.31287,95161
23.32098,95278
23.32912,95872
23.33723,106478
23.34535,126304
23.35348,160828
23.36160,204250
23.36973,274544
23.37785,357047
23.38597,454538
23.39410,549611
23.40222,627711
23.41033,679224
23.41847,705741
23.42658,716405
23.43472,704886
23.44283,683044
23.45095,634133
23.45908,616094
23.46720,575000
23.47533,529090
23.48345,496198
23.49157,456421
23.49970,419387
23.50782,393944
23.51593,361455
23.52407,323959
23.53218,311410
23.54032,294015
23.54843,270256
23.55655,272030
23.56468,256894
23.57280,268050
23.58093,273650
23.58905,289235
23.59717,308906
23.60530,316864
23.61342,318134
23.62155,297702
23.62967,271865
23.63778,244998
23.64592,226927
23.65403,217203
23.66215,215275
23.67028,211284
23.67840,197006
23.68653,181291
23.69465,178114
23.70277,153698
23.71090,147666
23.71902,143549
23.72715,139456
23.73527,137936
23.74338,155233
23.75152,212516
23.75963,355993
23.76775,638723
23.77588,1048931
23.78400,1612881
23.79213,2048392
23.80025,2234889
23.80837,2142252
23.81650,1860954
23.82462,1484456
23.83275,1196661
23.84087,941950
23.84898,759480
23.85712,606340
23.86523,510812
23.87337,454047
23.88148,391297
23.88960,344559
23.89773,322671
23.90585,302270
23.91397,270475
23.92210,262748
23.93022,247031
23.93835,229484
23.94647,218050
23.95458,200622
23.96272,188730
23.97083,179124
23.97897,172351
23.98708,165269
23.99520,167402
24.00333,176675
24.01145,202426
24.01958,249393
24.02770,309631
24.03582,378734
24.04395,364632
24.05207,317887
24.06018,258955
24.06832,199095
24.07643,167341
24.08457,136010
24.09268,121581
24.10080,117877
24.10893,117954
24.11705,111363
24.12518,116605
24.13330,116337
24.14142,113616
24.14955,107940
24.15767,111738
24.16578,111154
24.17392,111582
24.18203,107201
24.19017,107304
24.19828,105560
24.20640,102408
24.21453,100908
24.22265,100120
24.23078,97442
24.23890,94392
24.24702,89922
24.25515,87846
24.26327,81661
24.27140,89267
24.27952,83861
24.28763,85596
24.29577,79562
24.30388,78737
24.31200,79094
24.32013,79151
24.32825,80678
24.33638,80129
24.34450,73429
24.35262,77406
24.36075,90601
24.36887,93492
24.37700,114701
24.38512,123127
24.39323,130195
24.40137,117550
24.40948,105722
24.41762,88325
24.42573,86621
24.43385,86331
24.44198,115267
24.45010,144232
24.45822,164756
24.46635,181159
24.47447,199663
24.48260,223406
24.49072,237344
24.49883,249822
24.50697,258943
24.51508,262137
24.52322,278430
24.53133,277701
24.53945,300893
24.54758,295737
24.55570,301434
24.56382,306614
24.57195,300232
24.58007,298675
24.58820,284306
24.59632,284446
24.60443,273050
24.61257,273247
24.62068,275465
24.62882,274734
24.63693,263076
24.64505,254005
24.65318,264744
24.66130,254360
24.66943,259907
24.67755,244460
24.68567,240700
24.69380,244081
24.70192,244869
24.71003,240056
24.71817,240710
24.72628,240565
24.73442,230010
24.74253,234267
24.75065,223570
24.75878,219686
24.76690,226048
24.77503,229694
24.78315,220615
24.79127,227634
24.79940,219263
24.80752,226115
24.81563,217489
24.82377,218990
24.83188,226152
24.84002,245145
24.84813,266830
24.85625,306851
24.86438,349635
24.87250,445686
24.88063,532938
24.88875,625548
24.89687,660222
24.90500,608748
24.91312,505245
24.92125,392846
24.92937,280528
24.93748,207058
24.94562,158093
24.95373,133748
24.96185,113643
24.96998,101396
24.97810,101052
24.98623,95800
24.99435,91036
25.00247,84607
25.01060,81070
25.01872,83217
25.02685,76624
25.03497,77413
25.04308,77445
25.05122,76390
25.05933,73209
25.06747,75347
25.07558,78878
25.08370,73716
25.09183,89250
25.09995,124465
25.10807,214805
25.11620,415836
25.12432,791267
25.13245,1364624
25.14057,2008871
25.14868,2363623
25.15682,2275195
25.16493,1922969
25.17307,1381764
25.18118,901388
25.18930,551952
25.19743,341037
25.20555,216618
25.21367,158523
25.22180,133464
25.22992,128601
25.23805,126669
25.24617,143922
25.25428,173360
25.26242,198854
25.27053,233144
25.27867,235357
25.28678,225575
25.29490,199038
25.30303,170935
25.31115,135422
25.31928,129490
25.32740,136287
25.33552,164712
25.34365,210416
25.35177,256683
25.35988,293198
25.36802,311437
25.37613,341127
25.38427,332937
25.39238,341635
25.40050,355447
25.40863,359656
25.41675,359576
25.42488,352604
25.43300,357476
25.44112,355133
25.44925,364225
25.45737,361501
25.46550,353971
25.47362,351575
25.48173,351883
25.48987,352503
25.49798,343199
25.50610,345335
25.51423,341506
25.52235,344184
25.53048,333533
25.53860,333875
25.54672,329015
25.55485,333223
25.56297,314213
25.57110,316439
25.57922,314317
25.58733,321330
25.59547,311167
25.60358,321292
25.61170,315307
25.61983,304710
25.62795,306295
25.63608,306543
25.64420,306054
25.65232,305554
25.66045,290566
25.66857,282369
25.67670,285297
25.68482,283304
25.69293,279570
25.70107,266072
25.70918,264207
25.71732,262265
25.72543,263331
25.73355,257904
25.74168,265753
25.74980,253915
25.75792,256091
25.76605,253726
25.77417,240185
25.78230,245506
25.79042,244155
25.79853,249929
25.80667,245488
25.81478,236709
25.82292,229851
25.83103,228860
25.83915,228030
25.84728,234270
25.85540,235417
25.86353,230302
25.87165,219209
25.87977,221094
25.88790,213262
25.89602,211623
25.90413,206778
25.91227,207938
25.92038,206102
25.92852,195550
25.93663,202349
25.94475,198110
25.95288,191961
25.96100,189759
25.96913,194182
25.97725,186438
25.98537,189193
25.99350,181026
26.00162,176530
26.00973,176210
26.01787,173885
26.02598,172513
26.03412,170018
26.04223,168920
26.05035,165261
26.05848,161278
26.06660,162838
26.07473,167559
26.08285,163488
26.09097,166323
26.09910,166228
26.10722,157789
26.11535,164818
26.12347,157478
26.13158,154964
26.13972,157142
26.14783,163283
26.15595,160234
26.16408,147395
26.17220,147737
26.18033,150620
26.18845,146949
26.19657,140102
26.20470,144346
26.21282,140746
26.22095,136577
26.22907,140667
26.23718,130459
26.24532,138060
26.25343,129890
26.26155,122182
26.26968,121813
26.27780,130731
26.28593,127274
26.29405,123635
26.30217,121811
26.31030,115134
26.31842,117007
26.32655,119727
26.33467,117948
26.34278,115467
26.35092,107807
26.35903,114298
26.36717,118001
26.37528,122165
26.38340,123471
26.39153,126062
26.39965,125042
26.40777,131169
26.41590,126527
26.42402,118762
26.43215,109883
26.44027,108766
26.44838,108319
26.45652,103229
26.46463,104305
26.47277,106874
26.48088,102997
26.48900,104600
26.49713,100592
26.50525,96333
26.51338,96174
26.52150,94717
26.52962,89290
26.53775,90369
26.54587,87717
26.55398,86191
26.56212,85567
26.57023,91071
26.57837,82942
26.58648,88659
26.59460,81901
26.60273,83594
26.61085,82247
26.61898,82460
26.62710,85775
26.63522,84831
26.64335,81116
26.65147,83418
26.65958,84656
26.66772,81315
26.67583,83020
26.68397,84645
26.69208,78176
26.70020,76596
26.70833,79647
26.71645,79033
26.72458,78583
26.73270,78826
26.74082,75931
26.74895,71398
26.75707,72010
26.76520,70802
26.77332,70532
26.78143,75185
26.78957,73157
26.79768,77318
26.80580,77454
26.81393,77863
26.82205,78748
26.83018,73246
26.83830,75185
26.84642,72232
26.85455,70976
26.86267,67137
26.87080,66298
26.87892,67330
26.88703,63080
26.89517,68855
26.90328,62838
26.91142,63615
26.91953,64729
26.92765,60984
26.93578,61706
26.94390,65283
26.95202,70486
26.96015,73281
26.96827,76271
26.97640,94090
26.98452,116052
26.99263,160131
27.00077,216243
27.00888,276677
27.01702,346432
27.02513,407360
27.03325,436997
27.04138,435903
27.04950,402902
27.05762,353765
27.06575,309262
27.07387,261421
27.08200,224985
27.09012,195646
27.09823,175153
27.10637,160971
27.11448,147703
27.12262,143999
27.13073,138521
27.13885,127144
27.14698,115148
27.15510,117447
27.16323,109381
27.17135,105181
27.17947,104915
27.18760,105792
27.19572,103636
27.20383,100120
27.21197,95579
27.22008,92231
27.22822,87345
27.23633,86354
27.24445,81236
27.25258,80268
27.26070,81476
27.26883,76571
27.27695,71871
27.28507,74124
27.29320,71734
27.30132,71167
27.30943,66743
27.31757,68039
27.32568,70101
27.33382,71150
27.34193,71749
27.35005,66257
27.35818,67825
27.36630,70668
27.37443,72112
27.38255,67310
27.39067,69129
27.39880,66890
27.40692,60752
27.41505,62620
27.42317,59892
27.43128,56706
27.43942,60149
27.44753,60435
27.45565,60822
27.46378,60529
27.47190,57929
27.48003,59370
27.48815,57455
27.49627,59106
27.50440,60351
27.51252,61548
27.52065,58146
27.52877,61049
27.53688,62338
27.54502,58179
27.55313,59261
27.56127,60481
27.56938,62184
27.57750,67464
27.58563,67840
27.59375,81577
27.60187,79879
27.61000,74993
27.61812,72900
27.62625,70489
27.63437,63700
27.64248,63610
27.65062,53639
27.65873,56538
27.66687,52417
27.67498,54456
27.68310,58926
27.69123,55677
27.69935,55030
27.70748,57925
27.71560,59345
27.72372,54582
27.73185,50922
27.73997,51124
27.74808,48701
27.75622,51041
27.76433,47942
27.77247,52319
27.78058,56075
27.78870,50542
27.79683,53276
27.80495,55564
27.81308,52345
27.82120,56023
27.82932,55130
27.83745,50086
27.84557,50327
27.85368,49766
27.86182,50378
27.86993,52128
27.87807,54236
27.88618,46935
27.89430,51982
27.90243,48821
27.91055,49164
27.91868,49375
27.92680,47852
27.93492,45267
27.94305,45837
27.95117,41269
27.95930,43222
27.96742,47435
27.97553,45690
27.98367,48220
27.99178,52742
27.99990,47832
28.00803,48323
28.01615,50646
28.02428,53834
28.03240,55200
28.04052,57842
28.04865,64484
28.05677,59376
28.06490,60265
28.07302,61256
28.08113,53391
28.08927,50557
28.09738,52586
28.10550,50319
28.11363,49001
28.12175,47396
28.12988,43855
28.13800,43103
28.14612,44511
28.15425,43094
28.16237,47309
28.17050,46145
28.17862,53903
28.18673,60253
28.19487,62801
28.20298,65861
28.21112,71970
28.21923,76718
28.22735,72334
28.23548,72822
28.24360,73109
28.25172,67179
28.25985,62979
28.26797,52025
28.27610,50400
28.28422,49421
28.29233,49356
28.30047,54322
28.30858,55371
28.31672,64618
28.32483,71850
28.33295,84790
28.34108,104970
28.34920,109805
28.35733,124507
28.36545,139377
28.37357,140776
28.38170,153920
28.38982,155526
28.39793,155926
28.40607,169171
28.41418,159282
28.42232,156394
28.43043,152138
28.43855,141768
28.44668,134353
28.45480,123743
28.46293,116570
28.47105,111762
28.47917,107148
28.48730,98818
28.49542,92542
28.50353,90140
28.51167,89826
28.51978,79761
28.52792,78201
28.53603,76955
28.54415,74821
28.55228,70167
28.56040,70504
28.56853,71244
28.57665,68182
28.58477,62539
28.59290,67120
28.60102,63949
28.60915,63595
28.61727,64803
28.62538,67626
28.63352,65478
28.64163,64510
28.64975,66037
28.65788,64928
28.66600,66849
28.67413,63952
28.68225,65095
28.69037,62013
28.69850,62937
28.70662,58911
28.71475,57371
28.72287,60719
28.73098,59271
28.73912,64132
28.74723,74823
28.75537,70601
28.76348,75502
28.77160,68317
28.77973,65573
28.78785,63377
28.79597,59525
28.80410,58842
28.81222,60751
28.82035,64518
28.82847,64115
28.83658,60022
28.84472,58922
28.85283,58113
28.86097,58260
28.86908,56717
28.87720,60708
28.88533,67996
28.89345,69353
28.90157,73840
28.90970,75929
28.91782,68461
28.92595,59868
28.93407,64334
28.94218,56107
28.95032,59683
28.95843,57625
28.96657,56481
28.97468,56075
28.98280,54668
28.99093,56339
28.99905,52870
29.00718,46757
29.01530,49512
29.02342,50136
29.03155,48805
29.03967,49188
29.04778,47483
29.05592,45286
29.06403,49361
29.07217,49329
29.08028,50887
29.08840,51643
29.09653,52123
29.10465,51953
29.11278,47609
29.12090,49212
29.12902,51384
29.13715,50161
29.14527,49163
29.15338,48808
29.16152,52355
29.16963,49150
29.17777,55020
29.18588,62312
29.19400,72518
29.20213,83110
29.21025,94526
29.21838,102747
29.22650,101087
29.23462,91576
29.24275,83007
29.25087,78113
29.25900,70942
29.26712,65248
29.27523,64578
29.28337,61667
29.29148,63316
29.29960,57587
29.30773,51687
29.31585,51049
29.32398,51891
29.33210,47739
29.34022,44290
29.34835,46499
29.35647,44105
29.36460,43561
29.37272,41004
29.38083,42205
29.38897,47423
29.39708,44164
29.40522,46661
29.41333,44359
29.42145,48921
29.42958,46589
29.43770,45781
29.44582,45224
29.45395,45348
29.46207,48325
29.47020,45857
29.47832,45661
29.48643,43185
29.49457,49023
29.50268,50272
29.51082,50960
29.51893,50224
29.52705,45668
29.53518,42860
29.54330,47061
29.55142,43971
29.55955,45122
29.56767,46098
29.57580,39589
29.58392,44592
29.59203,42266
29.60017,41512
29.60828,42515
29.61642,39996
29.62453,43599
29.63265,48116
29.64078,44627
29.64890,42300
29.65703,40399
29.66515,42079
29.67327,43050
29.68140,45974
29.68952,48695
29.69763,49411
29.70577,51698
29.71388,48540
29.72202,46725
29.73013,44768
29.73825,47589
29.74638,46455
29.75450,43898
29.76263,41385
29.77075,46314
29.77887,41994
29.78700,38084
29.79512,40443
29.80325,39579
29.81137,35263
29.81948,37635
29.82762,37412
29.83573,37863
29.84385,43114
29.85198,44877
29.86010,47130
29.86823,60246
29.87635,72578
29.88447,101823
29.89260,138532
29.90072,157573
29.90885,153497
29.91697,140261
29.92508,111761
29.93322,88583
29.94133,74710
29.94945,65966
29.95758,61409
29.96570,63344
29.97383,66177
29.98195,72290
29.99007,80478
29.99820,82534
30.00632,88426
30.01445,94691
30.02257,98863
30.03068,96890
30.03882,95966
30.04693,101141
30.05507,103963
30.06318,102889
30.07130,101543
30.07943,101143
30.08755,101781
30.09567,96937
30.10380,97391
30.11192,94360
30.12005,91101
30.12817,85019
30.13628,81460
30.14442,83130
30.15253,79941
30.16067,72493
30.16878,70097
30.17690,73817
30.18503,70692
30.19315,69124
30.20127,69525
30.20940,62749
30.21752,60653
30.22565,64987
30.23377,59828
30.24188,56119
30.25002,54629
30.25813,55639
30.26627,52369
30.27438,50551
30.28250,56316
30.29063,55017
30.29875,53030
30.30688,54977
30.31500,54161
30.32312,47841
30.33125,55304
30.33937,49001
30.34748,49818
30.35562,49198
30.36373,52154
30.37187,50580
30.37998,47659
30.38810,47888
30.39623,50914
30.40435,43074
30.41248,45194
30.42060,44493
30.42872,49322
30.43685,46021
30.44497,44010
30.45310,43249
30.46122,47342
30.46933,43819
30.47747,44599
30.48558,43395
30.49370,41469
30.50183,48987
30.50995,45114
30.51808,43579
30.52620,40770
30.53432,45361
30.54245,42597
30.55057,40986
30.55870,46429
30.56682,46970
30.57493,44101
30.58307,45211
30.59118,42907
30.59930,39382
30.60743,37844
30.61555,42853
30.62368,41831
30.63180,40520
30.63992,41121
30.64805,39736
30.65617,41258
30.66430,38933
30.67242,42068
30.68053,42271
30.68867,40670
30.69678,41267
30.70492,40978
30.71303,38345
30.72115,40402
30.72928,45645
30.73740,41099
30.74552,40157
30.75365,41216
30.76177,42640
30.76990,46917
30.77802,54629
30.78613,61077
30.79427,77569
30.80238,99639
30.81052,105920
30.81863,99313
30.82675,95066
30.83488,80912
30.84300,63479
30.85113,54442
30.85925,48273
30.86737,44951
30.87550,45646
30.88362,48209
30.89173,44817
30.89987,42679
30.90798,42104
30.91612,40189
30.92423,41887
30.93235,41994
30.94048,41814
30.94860,41999
30.95673,40644
30.96485,38560
30.97297,42959
30.98110,41326
30.98922,40625
30.99733,42091
31.00547,39292
31.01358,38931
31.02172,42706
31.02983,43622
31.03795,36336
31.04608,43807
31.05420,47678
31.06233,48891
31.07045,48872
31.07857,51667
31.08670,55862
31.09482,62111
31.10295,63605
31.11107,75537
31.11918,66838
31.12732,66511
31.13543,64391
31.14355,61780
31.15168,62122
31.15980,66147
31.16793,64415
31.17605,69319
31.18417,78683
31.19230,86450
31.20042,114532
31.20855,134165
31.21667,166416
31.22478,191770
31.23292,187026
31.24103,171175
31.24917,147576
31.25728,117789
31.26540,92683
31.27353,77807
31.28165,65449
31.28977,58352
31.29790,64424
31.30602,61841
31.31415,60447
31.32227,67513
31.33038,62346
31.33852,59111
31.34663,58821
31.35477,59563
31.36288,63368
31.37100,59892
31.37913,60217
31.38725,59251
31.39537,62771
31.40350,61411
31.41162,63028
31.41975,56666
31.42787,56726
31.43598,57108
31.44412,54340
31.45223,56360
31.46037,52894
31.46848,52107
31.47660,52046
31.48473,55620
31.49285,56473
31.50098,53507
31.50910,52533
31.51722,49896
31.52535,49861
31.53347,59298
31.54158,51893
31.54972,53589
31.55783,53321
31.56597,51538
31.57408,54474
31.58220,51731
31.59033,55939
31.59845,54917
31.60658,56928
31.61470,50346
31.62282,52353
31.63095,47169
31.63907,51140
31.64718,58585
31.65532,51811
31.66343,56626
31.67157,55071
31.67968,58292
31.68780,53429
31.69593,53206
31.70405,53109
31.71218,47440
31.72030,50695
31.72842,49202
31.73655,47943
31.74467,46860
31.75280,50224
31.76092,49381
31.76903,47259
31.77717,46765
31.78528,48430
31.79340,49870
31.80153,47329
31.80965,50366
31.81778,46034
31.82590,46465
31.83402,48722
31.84215,49532
31.85027,45104
31.85840,52028
31.86652,54963
31.87463,53018
31.88277,58430
31.89088,59459
31.89902,59858
31.90713,63647
31.91525,72302
31.92338,76538
31.93150,80277
31.93962,86617
31.94775,84250
31.95587,84938
31.96400,89005
31.97212,90689
31.98023,87726
31.98837,84148
31.99648,88316
32.00462,90573
32.01273,86664
32.02085,87068
32.02898,84877
32.03710,85022
32.04522,83643
32.05335,84034
32.06147,79252
32.06960,80215
32.07772,72186
32.08583,69107
32.09397,65742
32.10208,66278
32.11022,66572
32.11833,62465
32.12645,63674
32.13458,58600
32.14270,57657
32.15083,55682
32.15895,59852
32.16707,53496
32.17520,51710
32.18332,54138
32.19143,50338
32.19957,47356
32.20768,51218
32.21582,50398
32.22393,52594
32.23205,50508
32.24018,49678
32.24830,47074
32.25643,51908
32.26455,55336
32.27267,50051
32.28080,49350
32.28892,49609
32.29705,48259
32.30517,51129
32.31328,50080
32.32142,46383
32.32953,47369
32.33765,46186
32.34578,47652
32.35390,46014
32.36203,48339
32.37015,43141
32.37827,43923
32.38640,43705
32.39452,42661
32.40265,43815
32.41077,44106
32.41888,44776
32.42702,45500
32.43513,45173
32.44325,45992
32.45138,41911
32.45950,46074
32.46763,45619
32.47575,42690
32.48387,44424
32.49200,50120
32.50012,45839
32.50825,43878
32.51637,41656
32.52448,40589
32.53262,43188
32.54073,47183
32.54887,45817
32.55698,43670
32.56510,38907
32.57323,43868
32.58135,47121
32.58947,42413
32.59760,43927
32.60572,44062
32.61385,40176
32.62197,43541
32.63008,46422
32.63822,48061
32.64633,52660
32.65447,53160
32.66258,52925
32.67070,49779
32.67883,47586
32.68695,45844
32.69507,48645
32.70320,43011
32.71132,45884
32.71945,46021
32.72757,48714
32.73568,44101
32.74382,42051
32.75193,42671
32.76007,40848
32.76818,40312
32.77630,39621
32.78443,46459
32.79255,38263
32.80068,38660
32.80880,40358
32.81692,39560
32.82505,36674
32.83317,39965
32.84128,41144
32.84942,39037
32.85753,37015
32.86567,38587
32.87378,40257
32.88190,42853
32.89003,44091
32.89815,42828
32.90628,42368
32.91440,43436
32.92252,45191
32.93065,44963
32.93877,40719
32.94690,39486
32.95502,41013
32.96313,41405
32.97127,46967
32.97938,47887
32.98750,50213
32.99563,57218
33.00375,62007
33.01188,63205
33.02000,54623
33.02812,52656
33.03625,46610
33.04437,49667
33.05250,51130
33.06062,49362
33.06873,47170
33.07687,49564
33.08498,52656
33.09312,54101
33.10123,55271
33.10935,58137
33.11748,59227
33.12560,62459
33.13372,54200
33.14185,53614
33.14997,50770
33.15810,47215
33.16622,45937
33.17433,47660
33.18247,46499
33.19058,42227
33.19872,46719
33.20683,42868
33.21495,44036
33.22308,42286
33.23120,41088
33.23932,43625
33.24745,41940
33.25557,42068
33.26370,43398
33.27182,43661
33.27993,39835
33.28807,38786
33.29618,38018
33.30432,42941
33.31243,39369
33.32055,41386
33.32868,41592
33.33680,39799
33.34493,42330
33.35305,49784
33.36117,46894
33.36930,46938
33.37742,44789
33.38553,45434
33.39367,41108
33.40178,39176
33.40992,42335
33.41803,36552
33.42615,37650
33.43428,41795
33.44240,38443
33.45053,41201
33.45865,40395
33.46677,41219
33.47490,39688
33.48302,36607
33.49113,39290
33.49927,42277
33.50738,38581
33.51552,41317
33.52363,40945
33.53175,39655
33.53988,42768
33.54800,47401
33.55613,49624
33.56425,43006
33.57237,46754
33.58050,46323
33.58862,42193
33.59675,44185
33.60487,44267
33.61298,40317
33.62112,39145
33.62923,42311
33.63735,43573
33.64548,42181
33.65360,44089
33.66173,45521
33.66985,42964
33.67797,44178
33.68610,39642
33.69422,41226
33.70235,40171
33.71047,37349
33.71858,40612
33.72672,38122
33.73483,40220
33.74297,40252
33.75108,38491
33.75920,38631
33.76733,40711
33.77545,39096
33.78357,37575
33.79170,37630
33.79982,39987
33.80795,43633
33.81607,42417
33.82418,39553
33.83232,37002
33.84043,41954
33.84857,39528
33.85668,40248
33.86480,44819
33.87293,42501
33.88105,40646
33.88917,40783
33.89730,39933
33.90542,44009
33.91355,37843
33.92167,43703
33.92978,46301
33.93792,40769
33.94603,39791
33.95417,40077
33.96228,43956
33.97040,38388
33.97853,39589
33.98665,39484
33.99478,39465
34.00290,39083
34.01102,41747
34.01915,41410
34.02727,43559
34.03538,40910
34.04352,41252
34.05163,42651
34.05977,44482
34.06788,40884
34.07600,40469
34.08413,44836
34.09225,43073
34.10038,43392
34.10850,42908
34.11662,41436
34.12475,40947
34.13287,38729
34.14100,42483
34.14912,37514
34.15723,45226
34.16537,41578
34.17348,39671
34.18160,44587
34.18973,43861
34.19785,41552
34.20598,38516
34.21410,41947
34.22222,42337
34.23035,41856
34.23847,39972
34.24660,37871
34.25472,40525
34.26283,40165
34.27097,42206
34.27908,39365
34.28720,42579
34.29533,40962
34.30345,40726
34.31158,41236
34.31970,39422
34.32782,38302
34.33595,39189
34.34407,37567
34.35220,43001
34.36032,41057
34.36843,39911
34.37657,39502
34.38468,40471
34.39282,40846
34.40093,40033
34.40905,40355
34.41718,40378
34.42530,39584
34.43342,36329
34.44155,42546
34.44967,36062
34.45780,39325
34.46592,38328
34.47403,40972
34.48217,42843
34.49028,47221
34.49842,42322
34.50653,51556
34.51465,58205
34.52278,63968
34.53090,73609
34.53902,76879
34.54715,82576
34.55527,76953
34.56340,78833
34.57152,76649
34.57963,74549
34.58777,70175
34.59588,65325
34.60402,63529
34.61213,65112
34.62025,54528
34.62838,54692
34.63650,55208
34.64463,54999
34.65275,55084
34.66087,55662
34.66900,52167
34.67712,48608
34.68523,48940
34.69337,46161
34.70148,49681
34.70962,47311
34.71773,42371
34.72585,49378
34.73398,48361
34.74210,46045
34.75023,49473
34.75835,47308
34.76647,44784
34.77460,46810
34.78272,48292
34.79085,46285
34.79897,48524
34.80708,46659
34.81522,42955
34.82333,46617
34.83145,46355
34.83958,49346
34.84770,51243
34.85583,50327
34.86395,50642
34.87207,45830
34.88020,52552
34.88832,48436
34.89645,47359
34.90457,45483
34.91268,50221
34.92082,46378
34.92893,48567
34.93705,47622
34.94518,50187
34.95330,49414
34.96143,52834
34.96955,53088
34.97767,53061
34.98580,53021
34.99392,51562
35.00205,49421
35.01017,43923
35.01828,49422
35.02642,42666
35.03453,42916
35.04267,45243
35.05078,42398
35.05890,46724
35.06703,43084
35.07515,44324
35.08327,44534
35.09140,43026
35.09952,41321
35.10765,42830
35.11577,44047
35.12388,39626
35.13202,44967
35.14013,46046
35.14827,46252
35.15638,45183
35.16450,45095
35.17263,46439
35.18075,45257
35.18888,42763
35.19700,42361
35.20512,40588
35.21325,40857
35.22137,41048
35.22948,39933
35.23762,38912
35.24573,42710
35.25387,43123
35.26198,47381
35.27010,43672
35.27823,47668
35.28635,42561
35.29448,39506
35.30260,41891
35.31072,44406
35.31885,42890
35.32697,40703
35.33508,40471
35.34322,39072
35.35133,36922
35.35947,43270
35.36758,45451
35.37570,39871
35.38383,43657
35.39195,42789
35.40008,44910
35.40820,44502
35.41632,45296
35.42445,44040
35.43257,46544
35.44070,46636
35.44882,50247
35.45693,49230
35.46507,47353
35.47318,43982
35.48130,42070
35.48943,45821
35.49755,44425
35.50568,44264
35.51380,44717
35.52192,42067
35.53005,44119
35.53817,42234
35.54630,39583
35.55442,45519
35.56253,45110
35.57067,44854
35.57878,42245
35.58692,45600
35.59503,41373
35.60315,41566
35.61128,49399
35.61940,47343
35.62752,42437
35.63565,41200
35.64377,42196
35.65190,46124
35.66002,44361
35.66813,47347
35.67627,45582
35.68438,49134
35.69252,45847
35.70063,45050
35.70875,43236
35.71688,41914
35.72500,41590
35.73312,44019
35.74125,49899
35.74937,44800
35.75750,47883
35.76562,45388
35.77373,47658
35.78187,49244
35.78998,46939
35.79812,46237
35.80623,42954
35.81435,43285
35.82248,47694
35.83060,45179
35.83873,42331
35.84685,44090
35.85497,45493
35.86310,46966
35.87122,40950
35.87933,42583
35.88747,42087
35.89558,47208
35.90372,42896
35.91183,46141
35.91995,45248
35.92808,44029
35.93620,44085
35.94433,43015
35.95245,41472
35.96057,44651
35.96870,44458
35.97682,44165
35.98493,49178
35.99307,43958
36.00118,44274
36.00932,42950
36.01743,43782
36.02555,49204
36.03368,47447
36.04180,44897
36.04993,45162
36.05805,45658
36.06617,49053
36.07430,48199
36.08242,44410
36.09055,45974
36.09867,48075
36.10678,44864
36.11492,48995
36.12303,44271
36.13115,44489
36.13928,45216
36.14740,43861
36.15553,43465
36.16365,45106
36.17177,45612
36.17990,43615
36.18802,45087
36.19615,42426
36.20427,43678
36.21238,42043
36.22052,44274
36.22863,44834
36.23677,44772
36.24488,45552
36.25300,41644
36.26113,46733
36.26925,45543
36.27737,48414
36.28550,52548
36.29362,55729
36.30175,57916
36.30987,55681
36.31798,53064
36.32612,46361
36.33423,45639
36.34237,41241
36.35048,46192
36.35860,46420
36.36673,45910
36.37485,42992
36.38297,47784
36.39110,48916
36.39922,46656
36.40735,48593
36.41547,50955
36.42358,45614
36.43172,46825
36.43983,47099
36.44797,40769
36.45608,43129
36.46420,47136
36.47233,45666
36.48045,47684
36.48858,45251
36.49670,42348
36.50482,47454
36.51295,45206
36.52107,46462
36.52918,45622
36.53732,43810
36.54543,41686
36.55357,42058
36.56168,42970
36.56980,45101
36.57793,45294
36.58605,42812
36.59418,45916
36.60230,48357
36.61042,46526
36.61855,47488
36.62667,49363
36.63480,45132
36.64292,51150
36.65103,48158
36.65917,47968
36.66728,44237
36.67540,46134
36.68353,49513
36.69165,46640
36.69978,47384
36.70790,52724
36.71602,50427
36.72415,48635
36.73227,48809
36.74040,54919
36.74852,51309
36.75663,53340
36.76477,53080
36.77288,49154
36.78100,49732
36.78913,50258
36.79725,54185
36.80538,45482
36.81350,46482
36.82162,49285
36.82975,51246
36.83787,50731
36.84600,50669
36.85412,51073
36.86223,55237
36.87037,50571
36.87848,51186
36.88662,49699
36.89473,50639
36.90285,49267
36.91098,50547
36.91910,53269
36.92722,47265
36.93535,50157
36.94347,56530
36.95160,57202
36.95972,64040
36.96783,62054
36.97597,67958
36.98408,60968
36.99222,58358
37.00033,56962
37.00845,54646
37.01658,51323
37.02470,49484
37.03282,51027
37.04095,51199
37.04907,49062
37.05720,47472
37.06532,48600
37.07343,54046
37.08157,50224
37.08968,51852
37.09782,48777
37.10593,50537
37.11405,50218
37.12218,51877
37.13030,52256
37.13843,49539
37.14655,50449
37.15467,50402
37.16280,52837
37.17092,48519
37.17903,50502
37.18717,50652
37.19528,49354
37.20342,50622
37.21153,50922
37.21965,46035
37.22778,48349
37.23590,49659
37.24403,47169
37.25215,48222
37.26027,48428
37.26840,45333
37.27652,47964
37.28465,52292
37.29277,52026
37.30088,56754
37.30902,57224
37.31713,64632
37.32525,73365
37.33338,77588
37.34150,79054
37.34963,80569
37.35775,76265
37.36587,75916
37.37400,72831
37.38212,66997
37.39025,65143
37.39837,63085
37.40648,65200
37.41462,63777
37.42273,62264
37.43085,65620
37.43898,61371
37.44710,60058
37.45523,60734
37.46335,58014
37.47147,55194
37.47960,57769
37.48772,56539
