D:\MassHunter\GCMS\1\data\JTB-E02\BACandSTRAW\JTB-E02-208-22.D Thu Mar 14 11:22:47 2019
Start of data points
2.09540	100416
2.10352	111718
2.11163	106005
2.11977	112104
2.12788	118725
2.13600	115490
2.14413	126016
2.15225	112590
2.16038	110615
2.16850	106582
2.17662	104898
2.18475	98321
2.19287	94480
2.20100	88134
2.20912	87240
2.21723	89665
2.22537	81058
2.23348	77725
2.24162	78778
2.24973	77189
2.25785	75509
2.26598	74163
2.27410	69997
2.28222	68689
2.29035	72005
2.29847	69283
2.30660	70326
2.31472	61403
2.32283	61833
2.33097	61421
2.33908	59413
2.34722	64449
2.35533	58773
2.36345	73007
2.37158	398914
2.37970	3623043
2.38783	6708244
2.39595	3861178
2.40407	1723497
2.41220	1227889
2.42032	998963
2.42843	890943
2.43657	753804
2.44468	700134
2.45282	634549
2.46093	564411
2.46905	530937
2.47718	504224
2.48530	456188
2.49343	452537
2.50155	423190
2.50967	412164
2.51780	394232
2.52592	384445
2.53403	388584
2.54217	383617
2.55028	353281
2.55842	343889
2.56653	334508
2.57465	323707
2.58278	310395
2.59090	317458
2.59903	301046
2.60715	307803
2.61527	303046
2.62340	283927
2.63152	290420
2.63965	281748
2.64777	277693
2.65588	270370
2.66402	268418
2.67213	275456
2.68025	272547
2.68838	276129
2.69650	261516
2.70463	263236
2.71275	263462
2.72087	252185
2.72900	267647
2.73712	292120
2.74525	356900
2.75337	350453
2.76148	305577
2.76962	276846
2.77773	259177
2.78587	258321
2.79398	243750
2.80210	243477
2.81023	237762
2.81835	231348
2.82647	237166
2.83460	227757
2.84272	230132
2.85085	224524
2.85897	213557
2.86708	219560
2.87522	219307
2.88333	211318
2.89147	218201
2.89958	209376
2.90770	215247
2.91583	217538
2.92395	228024
2.93207	227184
2.94020	224436
2.94832	215843
2.95645	218295
2.96457	313014
2.97268	442866
2.98082	355634
2.98893	258561
2.99707	230230
3.00518	225170
3.01330	214151
3.02143	204112
3.02955	206718
3.03768	210935
3.04580	199173
3.05392	200613
3.06205	195925
3.07017	196342
3.07828	195073
3.08642	194551
3.09453	188914
3.10267	189189
3.11078	191129
3.11890	189257
3.12703	187411
3.13515	188855
3.14328	201104
3.15140	212675
3.15952	217783
3.16765	197388
3.17577	202488
3.18390	195674
3.19202	185492
3.20013	196000
3.20827	236527
3.21638	256827
3.22450	213751
3.23263	186149
3.24075	188627
3.24888	264942
3.25700	1434307
3.26512	5379229
3.27325	7275353
3.28137	4912193
3.28950	3140812
3.29762	2410008
3.30573	1972767
3.31387	1670395
3.32198	1402120
3.33010	1262124
3.33823	2135233
3.34635	8842356
3.35448	1.736628E+07
3.36260	1.655621E+07
3.37072	1.126217E+07
3.37885	8428323
3.38697	6952112
3.39510	5887084
3.40322	5008238
3.41133	4369186
3.41947	3844564
3.42758	3404203
3.43572	3094795
3.44383	3015784
3.45195	3792432
3.46008	5176682
3.46820	5601466
3.47632	4783812
3.48445	3967143
3.49257	3432275
3.50070	3052951
3.50882	2751814
3.51693	2453882
3.52507	2243944
3.53318	2080877
3.54132	1919313
3.54943	1772623
3.55755	1651573
3.56568	1562890
3.57380	1465787
3.58193	1384196
3.59005	1299835
3.59817	1228150
3.60630	1158620
3.61442	1111912
3.62253	1055025
3.63067	1021620
3.63878	987584
3.64692	920628
3.65503	921210
3.66315	884582
3.67128	852402
3.67940	823349
3.68753	788258
3.69565	739043
3.70377	737557
3.71190	707065
3.72002	695581
3.72815	677837
3.73627	656340
3.74438	633097
3.75252	618472
3.76063	598069
3.76875	574135
3.77688	578086
3.78500	562574
3.79313	572086
3.80125	643164
3.80937	819518
3.81750	810934
3.82562	677327
3.83375	597782
3.84187	904517
3.84998	3791976
3.85812	1.124049E+07
3.86623	1.502102E+07
3.87435	1.093213E+07
3.88248	6230659
3.89060	4374123
3.89873	3554375
3.90685	2992589
3.91497	2633260
3.92310	2330444
3.93122	2114119
3.93935	1966085
3.94747	1858345
3.95558	1948148
3.96372	4481466
3.97183	1.476847E+07
3.97997	2.585249E+07
3.98808	2.613905E+07
3.99620	1.676775E+07
4.00433	8693081
4.01245	5457318
4.02057	4126485
4.02870	3419626
4.03682	3043428
4.04495	2679046
4.05307	2382743
4.06118	2116246
4.06932	2086489
4.07743	2127959
4.08557	1935482
4.09368	1661092
4.10180	1504961
4.10993	1392284
4.11805	1300800
4.12618	1225657
4.13430	1164131
4.14242	1116443
4.15055	1058800
4.15867	1009767
4.16678	960908
4.17492	935169
4.18303	896451
4.19117	862650
4.19928	846840
4.20740	818898
4.21553	789058
4.22365	763474
4.23178	763595
4.23990	728512
4.24802	714522
4.25615	694214
4.26427	670816
4.27238	663642
4.28052	659791
4.28863	642381
4.29677	626051
4.30488	593557
4.31300	590136
4.32113	575341
4.32925	575879
4.33738	610450
4.34550	653352
4.35362	907258
4.36175	2213528
4.36987	4774361
4.37800	6107371
4.38612	4586610
4.39423	2661608
4.40237	1684027
4.41048	1279733
4.41860	1051121
4.42673	922917
4.43485	812401
4.44298	797299
4.45110	952217
4.45922	1159452
4.46735	1208352
4.47547	1000454
4.48360	800858
4.49172	694898
4.49983	634497
4.50797	581518
4.51608	546288
4.52422	526487
4.53233	509106
4.54045	491687
4.54858	479872
4.55670	461420
4.56482	450848
4.57295	438338
4.58107	428468
4.58920	415963
4.59732	393563
4.60543	398051
4.61357	395332
4.62168	390853
4.62982	383032
4.63793	373799
4.64605	363622
4.65418	364450
4.66230	355680
4.67042	357195
4.67855	351807
4.68667	362534
4.69480	358015
4.70292	373170
4.71103	388178
4.71917	379065
4.72728	355965
4.73542	344199
4.74353	337949
4.75165	359363
4.75978	424334
4.76790	509641
4.77603	486388
4.78415	411006
4.79227	363010
4.80040	334020
4.80852	333587
4.81663	368881
4.82477	496994
4.83288	638318
4.84102	603854
4.84913	487398
4.85725	385914
4.86538	344371
4.87350	338200
4.88163	325250
4.88975	339265
4.89787	339379
4.90600	334500
4.91412	318240
4.92225	294364
4.93037	289747
4.93848	278329
4.94662	281959
4.95473	272024
4.96285	271326
4.97098	262976
4.97910	272969
4.98723	261848
4.99535	258213
5.00347	256808
5.01160	270661
5.01972	323688
5.02785	398971
5.03597	435641
5.04408	379323
5.05222	318567
5.06033	295801
5.06847	281379
5.07658	298749
5.08470	299011
5.09283	281271
5.10095	264662
5.10907	254129
5.11720	260232
5.12532	273621
5.13345	374610
5.14157	636862
5.14968	1134367
5.15782	1498555
5.16593	1551383
5.17407	1331516
5.18218	1229254
5.19030	1964207
5.19843	6381921
5.20655	1.666158E+07
5.21467	2.602871E+07
5.22280	2.484478E+07
5.23092	1.570956E+07
5.23905	8253901
5.24717	5140549
5.25528	3955483
5.26342	3290774
5.27153	2804843
5.27967	2449383
5.28778	2196797
5.29590	2033709
5.30403	1868087
5.31215	1717073
5.32028	1614675
5.32840	1546627
5.33652	1489564
5.34465	1451309
5.35277	1419787
5.36088	1324779
5.36902	1249217
5.37713	1196960
5.38527	1142076
5.39338	1104024
5.40150	1082173
5.40963	1087523
5.41775	1154824
5.42588	1147123
5.43400	1062785
5.44212	952767
5.45025	889379
5.45837	844831
5.46650	834347
5.47462	809693
5.48273	781088
5.49087	772118
5.49898	745479
5.50710	725501
5.51523	720580
5.52335	699756
5.53148	695696
5.53960	664061
5.54772	655871
5.55585	644608
5.56397	621543
5.57210	627426
5.58022	656773
5.58833	710785
5.59647	731959
5.60458	714863
5.61270	673460
5.62083	658225
5.62895	838953
5.63708	1432135
5.64520	2257583
5.65332	2699650
5.66145	2284988
5.66957	1549926
5.67770	1035418
5.68582	841261
5.69393	823552
5.70207	922290
5.71018	993590
5.71832	951468
5.72643	803830
5.73455	704858
5.74268	631135
5.75080	578706
5.75892	548009
5.76705	539823
5.77517	520233
5.78330	516468
5.79142	512890
5.79953	583542
5.80767	878658
5.81578	1590934
5.82392	2445171
5.83203	2674648
5.84015	2074282
5.84828	1332516
5.85640	902300
5.86453	706654
5.87265	607382
5.88077	584870
5.88890	545299
5.89702	538429
5.90513	533352
5.91327	495518
5.92138	480156
5.92952	462280
5.93763	444169
5.94575	432697
5.95388	459325
5.96200	472745
5.97013	491203
5.97825	500943
5.98637	483568
5.99450	442101
6.00262	417965
6.01073	402128
6.01887	395363
6.02698	385231
6.03512	376172
6.04323	369077
6.05135	352466
6.05948	348207
6.06760	341446
6.07573	325248
6.08385	308464
6.09197	313984
6.10010	301370
6.10822	293190
6.11635	295582
6.12447	287923
6.13258	297208
6.14072	279328
6.14883	319752
6.15695	585622
6.16508	1802642
6.17320	4833310
6.18133	8815016
6.18945	1.030284E+07
6.19757	7904503
6.20570	4365088
6.21382	2198826
6.22195	1333081
6.23007	1044592
6.23818	982189
6.24632	1358642
6.25443	3171369
6.26257	7458287
6.27068	1.284889E+07
6.27880	1.520309E+07
6.28693	1.242409E+07
6.29505	7417988
6.30317	3791237
6.31130	2204643
6.31942	1569587
6.32755	1285989
6.33567	1134122
6.34378	998820
6.35192	896930
6.36003	864709
6.36817	798325
6.37628	753143
6.38440	720697
6.39253	676636
6.40065	659791
6.40878	628910
6.41690	598292
6.42502	588423
6.43315	570140
6.44127	552219
6.44938	540711
6.45752	538662
6.46563	524115
6.47377	527005
6.48188	501645
6.49000	521306
6.49813	480010
6.50625	488110
6.51438	621628
6.52250	962350
6.53062	1580285
6.53875	2036846
6.54687	1958915
6.55498	1423242
6.56312	898576
6.57123	626693
6.57937	530191
6.58748	485508
6.59560	446918
6.60373	434966
6.61185	425806
6.61998	414182
6.62810	403159
6.63622	402162
6.64435	402907
6.65247	399738
6.66060	392288
6.66872	396438
6.67683	377807
6.68497	380654
6.69308	384608
6.70120	372034
6.70933	363500
6.71745	366980
6.72558	359768
6.73370	368329
6.74182	359506
6.74995	362191
6.75807	358167
6.76620	358734
6.77432	357896
6.78243	341243
6.79057	352464
6.79868	345712
6.80682	347098
6.81493	334008
6.82305	334985
6.83118	345208
6.83930	367410
6.84742	425639
6.85555	664661
6.86367	1073650
6.87180	1353931
6.87992	1229722
6.88803	928654
6.89617	693656
6.90428	586777
6.91242	473582
6.92053	434452
6.92865	423215
6.93678	483709
6.94490	666027
6.95302	938995
6.96115	1139148
6.96927	1381428
6.97740	1645510
6.98552	1657760
6.99363	1369007
7.00177	904840
7.00988	617820
7.01802	489270
7.02613	455732
7.03425	432430
7.04238	415968
7.05050	395126
7.05863	383633
7.06675	373144
7.07487	411638
7.08300	362360
7.09112	335901
7.09923	335240
7.10737	325695
7.11548	295456
7.12362	290890
7.13173	291679
7.13985	282604
7.14798	281695
7.15610	290655
7.16423	278118
7.17235	285323
7.18047	262211
7.18860	259704
7.19672	251069
7.20485	245229
7.21297	245299
7.22108	234792
7.22922	238475
7.23733	236349
7.24545	242947
7.25358	264257
7.26170	322620
7.26983	367116
7.27795	377520
7.28607	326966
7.29420	268904
7.30232	239992
7.31045	216048
7.31857	206682
7.32668	190646
7.33482	185263
7.34293	183641
7.35105	179882
7.35918	198777
7.36730	172774
7.37543	179916
7.38355	179242
7.39167	172712
7.39980	170323
7.40792	179547
7.41605	176387
7.42417	181552
7.43228	171718
7.44042	165534
7.44853	163726
7.45667	170703
7.46478	159714
7.47290	165861
7.48103	164477
7.48915	159177
7.49727	163776
7.50540	164128
7.51352	152763
7.52165	155694
7.52977	149826
7.53788	154450
7.54602	168551
7.55413	198737
7.56227	220459
7.57038	222394
7.57850	192521
7.58663	180567
7.59475	163190
7.60288	169089
7.61100	190114
7.61912	181406
7.62725	184458
7.63537	167022
7.64348	155561
7.65162	147096
7.65973	141768
7.66787	146127
7.67598	141480
7.68410	132945
7.69223	142102
7.70035	150359
7.70848	162120
7.71660	172965
7.72472	180394
7.73285	179405
7.74097	165671
7.74910	155330
7.75722	163188
7.76533	191249
7.77347	242621
7.78158	276270
7.78970	272181
7.79783	228744
7.80595	193160
7.81408	169673
7.82220	150589
7.83032	143752
7.83845	138395
7.84657	146231
7.85470	131115
7.86282	128701
7.87093	136275
7.87907	124615
7.88718	133325
7.89530	135296
7.90343	143348
7.91155	158651
7.91968	166950
7.92780	171678
7.93592	178382
7.94405	174074
7.95217	156497
7.96030	142514
7.96842	139280
7.97653	126115
7.98467	121116
7.99278	116452
8.00092	105291
8.00903	98218
8.01715	111221
8.02528	103067
8.03340	97127
8.04152	100369
8.04965	93141
8.05777	96644
8.06590	94431
8.07402	97498
8.08213	91542
8.09027	98475
8.09838	90891
8.10652	87810
8.11463	97053
8.12275	90951
8.13088	110864
8.13900	156629
8.14713	285782
8.15525	513160
8.16337	753013
8.17150	906201
8.17962	1000833
8.18773	1166978
8.19587	1273432
8.20398	1184538
8.21212	921388
8.22023	588031
8.22835	352590
8.23648	228032
8.24460	170356
8.25273	158493
8.26085	153660
8.26897	152252
8.27710	152177
8.28522	142998
8.29333	126273
8.30147	115034
8.30958	109568
8.31772	103074
8.32583	107856
8.33395	108474
8.34208	119756
8.35020	108892
8.35833	117804
8.36645	122188
8.37457	117168
8.38270	116526
8.39082	110896
8.39895	121268
8.40707	131413
8.41518	145355
8.42332	142161
8.43143	139005
8.43955	128407
8.44768	125419
8.45580	111683
8.46393	112655
8.47205	108123
8.48017	108323
8.48830	100031
8.49642	100504
8.50455	105193
8.51267	97657
8.52078	108306
8.52892	127307
8.53703	132487
8.54517	129581
8.55328	121204
8.56140	122967
8.56953	122278
8.57765	121425
8.58577	118375
8.59390	106379
8.60202	102229
8.61015	94732
8.61827	87586
8.62638	89802
8.63452	87132
8.64263	98535
8.65077	98600
8.65888	91661
8.66700	98630
8.67513	95995
8.68325	92296
8.69138	92334
8.69950	92859
8.70762	93072
8.71575	87254
8.72387	85132
8.73198	92249
8.74012	86013
8.74823	101975
8.75637	134372
8.76448	188363
8.77260	231311
8.78073	237282
8.78885	211375
8.79698	161212
8.80510	115456
8.81322	106483
8.82135	90748
8.82947	83884
8.83758	87047
8.84572	85577
8.85383	78318
8.86197	78529
8.87008	78748
8.87820	81085
8.88633	80075
8.89445	92767
8.90258	108809
8.91070	125486
8.91882	138346
8.92695	134923
8.93507	117830
8.94320	98457
8.95132	93599
8.95943	84560
8.96757	82340
8.97568	93290
8.98380	83063
8.99193	81339
9.00005	108541
9.00818	193499
9.01630	351767
9.02442	590791
9.03255	786999
9.04067	811957
9.04880	692669
9.05692	489187
9.06503	343299
9.07317	270529
9.08128	222680
9.08942	206332
9.09753	205750
9.10565	218611
9.11378	216248
9.12190	200111
9.13002	199438
9.13815	190315
9.14627	178354
9.15440	167333
9.16252	163076
9.17063	152183
9.17877	154255
9.18688	159853
9.19502	181839
9.20313	212834
9.21125	242591
9.21938	253213
9.22750	231615
9.23563	208197
9.24375	166857
9.25187	147344
9.26000	136965
9.26812	131927
9.27623	131860
9.28437	129565
9.29248	128734
9.30062	142120
9.30873	162472
9.31685	206084
9.32498	237489
9.33310	251667
9.34123	226176
9.34935	189392
9.35747	156972
9.36560	137204
9.37372	132423
9.38183	120804
9.38997	121402
9.39808	118931
9.40622	118165
9.41433	128611
9.42245	115879
9.43058	116180
9.43870	118301
9.44683	115442
9.45495	110294
9.46307	109070
9.47120	107269
9.47932	105799
9.48745	111224
9.49557	98567
9.50368	108821
9.51182	117621
9.51993	150760
9.52805	203398
9.53618	242076
9.54430	244334
9.55243	219406
9.56055	171490
9.56867	131224
9.57680	115292
9.58492	103000
9.59305	102564
9.60117	106557
9.60928	112972
9.61742	119654
9.62553	119134
9.63367	111925
9.64178	101067
9.64990	99009
9.65803	97685
9.66615	90846
9.67427	102156
9.68240	101011
9.69052	105638
9.69865	123764
9.70677	122758
9.71488	113348
9.72302	109910
9.73113	96580
9.73927	104713
9.74738	93667
9.75550	88416
9.76363	88272
9.77175	85151
9.77987	81805
9.78800	82051
9.79612	75494
9.80425	68814
9.81237	57762
9.82048	60746
9.82862	65418
9.83673	63669
9.84487	62514
9.85298	67222
9.86110	69029
9.86923	72596
9.87735	75749
9.88548	79901
9.89360	78222
9.90172	73688
9.90985	67018
9.91797	64080
9.92608	70858
9.93422	60328
9.94233	65364
9.95047	67263
9.95858	69956
9.96670	93718
9.97483	220373
9.98295	716663
9.99108	2096119
9.99920	4716228
10.00732	7813515
10.01545	9779211
10.02357	9032935
10.03170	6325273
10.03982	3513714
10.04793	1633372
10.05607	741211
10.06418	405143
10.07230	289389
10.08043	289122
10.08855	351032
10.09668	467344
10.10480	574651
10.11292	662550
10.12105	667234
10.12917	626592
10.13730	552957
10.14542	490274
10.15353	443833
10.16167	390302
10.16978	358387
10.17790	332369
10.18603	310809
10.19415	307416
10.20228	305457
10.21040	296606
10.21852	299142
10.22665	294580
10.23477	296429
10.24290	309580
10.25102	305188
10.25913	299445
10.26727	294858
10.27538	285803
10.28352	277348
10.29163	273146
10.29975	257372
10.30788	257353
10.31600	232688
10.32412	239606
10.33225	228676
10.34037	216224
10.34850	210452
10.35662	202589
10.36473	204964
10.37287	190535
10.38098	180083
10.38912	195508
10.39723	188448
10.40535	184577
10.41348	187998
10.42160	184370
10.42973	183186
10.43785	174577
10.44597	181967
10.45410	165615
10.46222	166273
10.47033	162540
10.47847	161317
10.48658	165463
10.49472	157570
10.50283	161373
10.51095	152450
10.51908	154239
10.52720	149298
10.53533	150054
10.54345	142648
10.55157	148159
10.55970	152863
10.56782	157582
10.57595	154643
10.58407	156032
10.59218	149419
10.60032	145713
10.60843	142942
10.61655	137305
10.62468	139181
10.63280	136248
10.64093	130595
10.64905	131441
10.65717	139344
10.66530	165941
10.67342	213182
10.68155	257278
10.68967	285038
10.69778	274091
10.70592	252929
10.71403	265761
10.72215	284958
10.73028	289070
10.73840	251183
10.74653	195413
10.75465	155664
10.76277	134044
10.77090	136942
10.77902	135718
10.78715	129750
10.79527	124488
10.80338	124840
10.81152	131041
10.81963	126078
10.82777	133874
10.83588	130107
10.84400	133518
10.85213	147545
10.86025	151322
10.86837	138895
10.87650	140199
10.88462	125956
10.89275	125403
10.90087	115249
10.90898	107299
10.91712	108363
10.92523	109139
10.93337	122879
10.94148	125441
10.94960	135790
10.95773	164459
10.96585	171808
10.97398	150803
10.98210	119724
10.99022	95853
10.99835	75402
11.00647	64976
11.01458	60887
11.02272	61327
11.03083	72293
11.03897	70446
11.04708	67811
11.05520	64488
11.06333	57653
11.07145	61387
11.07958	58464
11.08770	56905
11.09582	58526
11.10395	64281
11.11207	63479
11.12018	65072
11.12832	72456
11.13643	63177
11.14457	66507
11.15268	58065
11.16080	60750
11.16893	61794
11.17705	65414
11.18518	58548
11.19330	54966
11.20142	56104
11.20955	54330
11.21767	53641
11.22580	55376
11.23392	51468
11.24203	51240
11.25017	53628
11.25828	51812
11.26640	57151
11.27453	53031
11.28265	62045
11.29078	71276
11.29890	84231
11.30702	91446
11.31515	90166
11.32327	80270
11.33140	71470
11.33952	62455
11.34763	64926
11.35577	62737
11.36388	82641
11.37202	134604
11.38013	288612
11.38825	667083
11.39638	1379195
11.40450	2313755
11.41262	3224087
11.42075	3840627
11.42887	3911921
11.43700	3519206
11.44512	2714908
11.45323	1743289
11.46137	961057
11.46948	548215
11.47762	368791
11.48573	314826
11.49385	318358
11.50198	326960
11.51010	344357
11.51822	356933
11.52635	342354
11.53447	319374
11.54260	277738
11.55072	230482
11.55883	208482
11.56697	193810
11.57508	181386
11.58322	168398
11.59133	172449
11.59945	159100
11.60758	152990
11.61570	143631
11.62383	142877
11.63195	147123
11.64007	138389
11.64820	142333
11.65632	129540
11.66443	129175
11.67257	121271
11.68068	128710
11.68882	128592
11.69693	126521
11.70505	120809
11.71318	118530
11.72130	109736
11.72943	108130
11.73755	105451
11.74567	104888
11.75380	101680
11.76192	102792
11.77005	104712
11.77817	105637
11.78628	99850
11.79442	96986
11.80253	103097
11.81065	111217
11.81878	136284
11.82690	152598
11.83503	166538
11.84315	157641
11.85127	148721
11.85940	116006
11.86752	109962
11.87565	103251
11.88377	96467
11.89188	104211
11.90002	109846
11.90813	119274
11.91627	110881
11.92438	107355
11.93250	110184
11.94063	114832
11.94875	102444
11.95687	101125
11.96500	94814
11.97312	96411
11.98125	85589
11.98937	79857
11.99748	84616
12.00562	83863
12.01373	83463
12.02187	88210
12.02998	96440
12.03810	92501
12.04623	95380
12.05435	88032
12.06247	84677
12.07060	92796
12.07872	98461
12.08685	87351
12.09497	97204
12.10308	82831
12.11122	96393
12.11933	81695
12.12747	85996
12.13558	85824
12.14370	79929
12.15183	71773
12.15995	70328
12.16808	69359
12.17620	58620
12.18432	61281
12.19245	59772
12.20057	53718
12.20868	56920
12.21682	56497
12.22493	55221
12.23307	62738
12.24118	61230
12.24930	54425
12.25743	55101
12.26555	55377
12.27368	56991
12.28180	54326
12.28992	60996
12.29805	54405
12.30617	53957
12.31430	53719
12.32242	57558
12.33053	56920
12.33867	63061
12.34678	65189
12.35490	60585
12.36303	62611
12.37115	56352
12.37928	62538
12.38740	56791
12.39552	63848
12.40365	89195
12.41177	125382
12.41990	141500
12.42802	162848
12.43613	155287
12.44427	135604
12.45238	105223
12.46050	75098
12.46863	66822
12.47675	66183
12.48488	60889
12.49300	61004
12.50112	59892
12.50925	66348
12.51737	58571
12.52550	59498
12.53362	50374
12.54173	51039
12.54987	51080
12.55798	49587
12.56612	47953
12.57423	47481
12.58235	48840
12.59048	56646
12.59860	56472
12.60672	97464
12.61485	152318
12.62297	260381
12.63110	353215
12.63922	396210
12.64733	344807
12.65547	253242
12.66358	163438
12.67172	105039
12.67983	85554
12.68795	78642
12.69608	70788
12.70420	70205
12.71233	81026
12.72045	67110
12.72857	65421
12.73670	67144
12.74482	63513
12.75293	61318
12.76107	59872
12.76918	62618
12.77732	71618
12.78543	68623
12.79355	70164
12.80168	68689
12.80980	69956
12.81793	70387
12.82605	70555
12.83417	84411
12.84230	85552
12.85042	74274
12.85853	69801
12.86667	71324
12.87478	58678
12.88292	57530
12.89103	53233
12.89915	54568
12.90728	52321
12.91540	54395
12.92353	56038
12.93165	55108
12.93977	52624
12.94790	49754
12.95602	50009
12.96415	48732
12.97227	51724
12.98038	52036
12.98852	52962
12.99663	52255
13.00475	60854
13.01288	54691
13.02100	53261
13.02913	47594
13.03725	43460
13.04537	52075
13.05350	45302
13.06162	48467
13.06975	50531
13.07787	47235
13.08598	47596
13.09412	47723
13.10223	50912
13.11037	59038
13.11848	57358
13.12660	56416
13.13473	55809
13.14285	58093
13.15097	65785
13.15910	70426
13.16722	89692
13.17535	99401
13.18347	109683
13.19158	93872
13.19972	80449
13.20783	70854
13.21597	60317
13.22408	54057
13.23220	58907
13.24033	54380
13.24845	45322
13.25658	43200
13.26470	45637
13.27282	44157
13.28095	44088
13.28907	44574
13.29718	45247
13.30532	54205
13.31343	52771
13.32157	44648
13.32968	48904
13.33780	49392
13.34593	52990
13.35405	55830
13.36218	61012
13.37030	60234
13.37842	48545
13.38655	48238
13.39467	45838
13.40278	47097
13.41092	48393
13.41903	48568
13.42717	51224
13.43528	43925
13.44340	48391
13.45153	44881
13.45965	56106
13.46778	46756
13.47590	46924
13.48402	50579
13.49215	55491
13.50027	45722
13.50840	46929
13.51652	50831
13.52463	44930
13.53277	51611
13.54088	44246
13.54900	45089
13.55713	44604
13.56525	47291
13.57338	52917
13.58150	43882
13.58962	43128
13.59775	40468
13.60587	47258
13.61400	41963
13.62212	49353
13.63023	44142
13.63837	44573
13.64648	41598
13.65462	46485
13.66273	44101
13.67085	49684
13.67898	49103
13.68710	44580
13.69522	43980
13.70335	40340
13.71147	40309
13.71960	40483
13.72772	36638
13.73583	40356
13.74397	44674
13.75208	41183
13.76022	38490
13.76833	40353
13.77645	40901
13.78458	39278
13.79270	39959
13.80082	37590
13.80895	35196
13.81707	40414
13.82520	37488
13.83332	38651
13.84143	38275
13.84957	38333
13.85768	38363
13.86582	36361
13.87393	46703
13.88205	38199
13.89018	35869
13.89830	34557
13.90643	35312
13.91455	38170
13.92267	34275
13.93080	39490
13.93892	36542
13.94703	33888
13.95517	43555
13.96328	36218
13.97142	39559
13.97953	35392
13.98765	39358
13.99578	43684
14.00390	58464
14.01203	70349
14.02015	92188
14.02827	96726
14.03640	95886
14.04452	77350
14.05265	66529
14.06077	55853
14.06888	47907
14.07702	41209
14.08513	48566
14.09325	49478
14.10138	48376
14.10950	47191
14.11763	44028
14.12575	39981
14.13387	43798
14.14200	42080
14.15012	40434
14.15825	35542
14.16637	38988
14.17448	38006
14.18262	41537
14.19073	49773
14.19885	65060
14.20698	70331
14.21510	73953
14.22323	74144
14.23135	73778
14.23947	70766
14.24760	63977
14.25572	59100
14.26385	62572
14.27197	50872
14.28008	44499
14.28822	50654
14.29633	38865
14.30447	41851
14.31258	46710
14.32070	50854
14.32883	44551
14.33695	45690
14.34507	44940
14.35320	39355
14.36132	39291
14.36945	39652
14.37757	41584
14.38568	39347
14.39382	38211
14.40193	37864
14.41007	35848
14.41818	39913
14.42630	38207
14.43443	40379
14.44255	42480
14.45068	54475
14.45880	52673
14.46692	79966
14.47505	106469
14.48317	152849
14.49128	165272
14.49942	172472
14.50753	150208
14.51567	149284
14.52378	124918
14.53190	113736
14.54003	111898
14.54815	105998
14.55628	111319
14.56440	120910
14.57252	125012
14.58065	108555
14.58877	96710
14.59690	89445
14.60502	80248
14.61313	78588
14.62127	73746
14.62938	68530
14.63750	60807
14.64563	59645
14.65375	72342
14.66188	63480
14.67000	61946
14.67812	56348
14.68625	53161
14.69437	48162
14.70250	46343
14.71062	46893
14.71873	43391
14.72687	40744
14.73498	47851
14.74310	47510
14.75123	45088
14.75935	45580
14.76748	45999
14.77560	44237
14.78372	42056
14.79185	44756
14.79997	47350
14.80810	42957
14.81622	43937
14.82433	52435
14.83247	42354
14.84058	36582
14.84872	39377
14.85683	48001
14.86495	38148
14.87308	37556
14.88120	37813
14.88932	40109
14.89745	39955
14.90557	45893
14.91370	47827
14.92182	53787
14.92993	51970
14.93807	51558
14.94618	50852
14.95432	45763
14.96243	43928
14.97055	42727
14.97868	42812
14.98680	51839
14.99493	46933
15.00305	48251
15.01117	55921
15.01930	54940
15.02742	48566
15.03553	45699
15.04367	42145
15.05178	37052
15.05992	38830
15.06803	41707
15.07615	37403
15.08428	39324
15.09240	37377
15.10053	39239
15.10865	40277
15.11677	37014
15.12490	39405
15.13302	41764
15.14113	39562
15.14927	40311
15.15738	41488
15.16552	39878
15.17363	38521
15.18175	38649
15.18988	37151
15.19800	36358
15.20613	35628
15.21425	37802
15.22237	37149
15.23050	37845
15.23862	36459
15.24675	40177
15.25487	42953
15.26298	57717
15.27112	57992
15.27923	58210
15.28735	59099
15.29548	52339
15.30360	48065
15.31173	45541
15.31985	44006
15.32797	43465
15.33610	45441
15.34422	43026
15.35235	43933
15.36047	44003
15.36858	41599
15.37672	38498
15.38483	38745
15.39297	43324
15.40108	39358
15.40920	46783
15.41733	41883
15.42545	37626
15.43357	44805
15.44170	38546
15.44982	35677
15.45795	40538
15.46607	39882
15.47418	48060
15.48232	43007
15.49043	45423
15.49857	42743
15.50668	40140
15.51480	37391
15.52293	37035
15.53105	40684
15.53917	46793
15.54730	34669
15.55542	35379
15.56355	38484
15.57167	40235
15.57978	39513
15.58792	41120
15.59603	38300
15.60417	43694
15.61228	40921
15.62040	38706
15.62853	44562
15.63665	36965
15.64478	36604
15.65290	43491
15.66102	46406
15.66915	45342
15.67727	35250
15.68538	32556
15.69352	35255
15.70163	33794
15.70977	36889
15.71788	42310
15.72600	38764
15.73413	33559
15.74225	35546
15.75038	36739
15.75850	35382
15.76662	38544
15.77475	32453
15.78287	36730
15.79100	42726
15.79912	39694
15.80723	40671
15.81537	35031
15.82348	38034
15.83160	34168
15.83973	36510
15.84785	35700
15.85598	33444
15.86410	34797
15.87222	32714
15.88035	34497
15.88847	34355
15.89660	33794
15.90472	34536
15.91283	42242
15.92097	35158
15.92908	31679
15.93722	36988
15.94533	33956
15.95345	35755
15.96158	34627
15.96970	42264
15.97782	36291
15.98595	35980
15.99407	38587
16.00220	39952
16.01032	38233
16.01843	35683
16.02657	37336
16.03468	35733
16.04282	34922
16.05093	42807
16.05905	33446
16.06718	34087
16.07530	33414
16.08342	36729
16.09155	34843
16.09967	33846
16.10780	32863
16.11592	41368
16.12403	36596
16.13217	33371
16.14028	32994
16.14842	38858
16.15653	34507
16.16465	38490
16.17278	35493
16.18090	33682
16.18903	35239
16.19715	37605
16.20527	33746
16.21340	41580
16.22152	45907
16.22963	46398
16.23777	49032
16.24588	53384
16.25402	45241
16.26213	43698
16.27025	36493
16.27838	46756
16.28650	32545
16.29463	45705
16.30275	38535
16.31087	40620
16.31900	46060
16.32712	56232
16.33525	55901
16.34337	53539
16.35148	53637
16.35962	49903
16.36773	46712
16.37585	43414
16.38398	44958
16.39210	39809
16.40023	39819
16.40835	41918
16.41647	46102
16.42460	54372
16.43272	60054
16.44085	66293
16.44897	63325
16.45708	54958
16.46522	53772
16.47333	51000
16.48145	39320
16.48958	40938
16.49770	39560
16.50583	41693
16.51395	46838
16.52207	38063
16.53020	41734
16.53832	39865
16.54645	40264
16.55457	38961
16.56268	35944
16.57082	38606
16.57893	40099
16.58707	36371
16.59518	36803
16.60330	35843
16.61143	35024
16.61955	39635
16.62767	34572
16.63580	36672
16.64392	38691
16.65205	45926
16.66017	38435
16.66828	36657
16.67642	39596
16.68453	39598
16.69267	34654
16.70078	39434
16.70890	39883
16.71703	44101
16.72515	36342
16.73328	34278
16.74140	40791
16.74952	37319
16.75765	35768
16.76577	34822
16.77388	35761
16.78202	36105
16.79013	46638
16.79827	40620
16.80638	41678
16.81450	53068
16.82263	44044
16.83075	41906
16.83888	39193
16.84700	45088
16.85512	39581
16.86325	39624
16.87137	36376
16.87948	41166
16.88762	40354
16.89573	40722
16.90387	39089
16.91198	40523
16.92010	47090
16.92823	46882
16.93635	41893
16.94448	38279
16.95260	43404
16.96072	34283
16.96885	35210
16.97697	34980
16.98510	44773
16.99322	37815
17.00133	37169
17.00947	44345
17.01758	43365
17.02570	36898
17.03383	36914
17.04195	35878
17.05008	38750
17.05820	37335
17.06632	35657
17.07445	35860
17.08257	37033
17.09070	33823
17.09882	41832
17.10693	38297
17.11507	37956
17.12318	34621
17.13132	37089
17.13943	35115
17.14755	34726
17.15568	35881
17.16380	38837
17.17192	48660
17.18005	43586
17.18817	39472
17.19630	41818
17.20442	39943
17.21253	34226
17.22067	33477
17.22878	38595
17.23692	35398
17.24503	35258
17.25315	39222
17.26128	40297
17.26940	34318
17.27753	36374
17.28565	36609
17.29377	37501
17.30190	41350
17.31002	33934
17.31813	33484
17.32627	33919
17.33438	39369
17.34252	37979
17.35063	36270
17.35875	37162
17.36688	37105
17.37500	35682
17.38313	34676
17.39125	42469
17.39937	31895
17.40750	35343
17.41562	38867
17.42373	33368
17.43187	34719
17.43998	41629
17.44812	36255
17.45623	42508
17.46435	39492
17.47248	55507
17.48060	55866
17.48873	84917
17.49685	103903
17.50497	110872
17.51310	121427
17.52122	112627
17.52935	96269
17.53747	87260
17.54558	78768
17.55372	66330
17.56183	60471
17.56995	60173
17.57808	49725
17.58620	46542
17.59433	44712
17.60245	47393
17.61057	42164
17.61870	44924
17.62682	42462
17.63495	42593
17.64307	42155
17.65118	42371
17.65932	40192
17.66743	45930
17.67557	47871
17.68368	45283
17.69180	41699
17.69993	38366
17.70805	39103
17.71617	45778
17.72430	37622
17.73242	41774
17.74055	37694
17.74867	39146
17.75678	47184
17.76492	40678
17.77303	44219
17.78117	51127
17.78928	44253
17.79740	46731
17.80553	44827
17.81365	45023
17.82178	44532
17.82990	45707
17.83802	40980
17.84615	38421
17.85427	39036
17.86238	38770
17.87052	38739
17.87863	38886
17.88677	37297
17.89488	41485
17.90300	38016
17.91113	37562
17.91925	34502
17.92738	35762
17.93550	37804
17.94362	38758
17.95175	44261
17.95987	40219
17.96798	44972
17.97612	39543
17.98423	38202
17.99237	38412
18.00048	36523
18.00860	47440
18.01673	35566
18.02485	38399
18.03298	37245
18.04110	36067
18.04922	43068
18.05735	36501
18.06547	36608
18.07360	39442
18.08172	42590
18.08983	41072
18.09797	41417
18.10608	42121
18.11420	41045
18.12233	36437
18.13045	39785
18.13858	41622
18.14670	41865
18.15482	39099
18.16295	39429
18.17107	42697
18.17920	41852
18.18732	42748
18.19543	44123
18.20357	40121
18.21168	39027
18.21982	36309
18.22793	38638
18.23605	43711
18.24418	42445
18.25230	42197
18.26042	39965
18.26855	40104
18.27667	40016
18.28480	44753
18.29292	45470
18.30103	51722
18.30917	53546
18.31728	53435
18.32542	44957
18.33353	46743
18.34165	39587
18.34978	40617
18.35790	35733
18.36602	37266
18.37415	44440
18.38227	39737
18.39040	39949
18.39852	41448
18.40663	39528
18.41477	39717
18.42288	38651
18.43102	37116
18.43913	36093
18.44725	36342
18.45538	35856
18.46350	36727
18.47163	37854
18.47975	35903
18.48787	31839
18.49600	37406
18.50412	38198
18.51223	45627
18.52037	39705
18.52848	40449
18.53662	44429
18.54473	47531
18.55285	39349
18.56098	41937
18.56910	42541
18.57723	40511
18.58535	40811
18.59347	41112
18.60160	41714
18.60972	39670
18.61785	36511
18.62597	38310
18.63408	43523
18.64222	38035
18.65033	35183
18.65845	35328
18.66658	34989
18.67470	41459
18.68283	37129
18.69095	36357
18.69907	44417
18.70720	40741
18.71532	42501
18.72345	45955
18.73157	48768
18.73968	53441
18.74782	50447
18.75593	52508
18.76407	49998
18.77218	53115
18.78030	52992
18.78843	58948
18.79655	53517
18.80467	54153
18.81280	50433
18.82092	57969
18.82905	59055
18.83717	52998
18.84528	50040
18.85342	51037
18.86153	50671
18.86967	46326
18.87778	49164
18.88590	48255
18.89403	50215
18.90215	49130
18.91027	50204
18.91840	57348
18.92652	49299
18.93465	50161
18.94277	53768
18.95088	55066
18.95902	64029
18.96713	52452
18.97527	52322
18.98338	58100
18.99150	44122
18.99963	47561
19.00775	49125
19.01588	49789
19.02400	51375
19.03212	55154
19.04025	54199
19.04837	53893
19.05648	54976
19.06462	46307
19.07273	44565
19.08087	44528
19.08898	42578
19.09710	42871
19.10523	40739
19.11335	38273
19.12148	40462
19.12960	43833
19.13772	38609
19.14585	41690
19.15397	36291
19.16210	36250
19.17022	36569
19.17833	40248
19.18647	39144
19.19458	52257
19.20270	41813
19.21083	44335
19.21895	49181
19.22708	44110
19.23520	44900
19.24332	42473
19.25145	43037
19.25957	43310
19.26770	38529
19.27582	36495
19.28393	45138
19.29207	37721
19.30018	35123
19.30830	37419
19.31643	44012
19.32455	35355
19.33268	36808
19.34080	38852
19.34892	36019
19.35705	33878
19.36517	38012
19.37330	38114
19.38142	46698
19.38953	38811
19.39767	40926
19.40578	38736
19.41392	36425
19.42203	36639
19.43015	35734
19.43828	35307
19.44640	38230
19.45452	39040
19.46265	41927
19.47077	34798
19.47890	34318
19.48702	36144
19.49513	34620
19.50327	43087
19.51138	37219
19.51952	43865
19.52763	40090
19.53575	45138
19.54388	52467
19.55200	57577
19.56013	61498
19.56825	64027
19.57637	63401
19.58450	60224
19.59262	55521
19.60073	54512
19.60887	53778
19.61698	56117
19.62512	49767
19.63323	53752
19.64135	53156
19.64948	48727
19.65760	46825
19.66573	45603
19.67385	42671
19.68197	44733
19.69010	41256
19.69822	52207
19.70633	52543
19.71447	58226
19.72258	65268
19.73072	55633
19.73883	54171
19.74695	55489
19.75508	47782
19.76320	43916
19.77133	46159
19.77945	53796
19.78757	66772
19.79570	84370
19.80382	107572
19.81195	118027
19.82007	124415
19.82818	102588
19.83632	89039
19.84443	63816
19.85255	53269
19.86068	47913
19.86880	54122
19.87693	41580
19.88505	40529
19.89317	44181
19.90130	39293
19.90942	34878
19.91755	41636
19.92567	39186
19.93378	38083
19.94192	35133
19.95003	38606
19.95817	39837
19.96628	41632
19.97440	33988
19.98253	40612
19.99065	40290
19.99877	37611
20.00690	36722
20.01502	53699
20.02315	76146
20.03127	137785
20.03938	219603
20.04752	341020
20.05563	442597
20.06377	476420
20.07188	453207
20.08000	357057
20.08813	293267
20.09625	200673
20.10438	157619
20.11250	137737
20.12062	106859
20.12875	95686
20.13687	79454
20.14498	70566
20.15312	69132
20.16123	60470
20.16937	64650
20.17748	58908
20.18560	54459
20.19373	49882
20.20185	51178
20.20998	50871
20.21810	49827
20.22622	51358
20.23435	48590
20.24247	52922
20.25058	45370
20.25872	48508
20.26683	54445
20.27497	44999
20.28308	45959
20.29120	41977
20.29933	40971
20.30745	39569
20.31558	40382
20.32370	39708
20.33182	39589
20.33995	48577
20.34807	46230
20.35620	47504
20.36432	53943
20.37243	61925
20.38057	65643
20.38868	78516
20.39680	76952
20.40493	71193
20.41305	72799
20.42118	69594
20.42930	67614
20.43742	72201
20.44555	67291
20.45367	66418
20.46180	59886
20.46992	63628
20.47803	63898
20.48617	55233
20.49428	55676
20.50242	56383
20.51053	51546
20.51865	51329
20.52678	48343
20.53490	46823
20.54302	44564
20.55115	40997
20.55927	49544
20.56740	43332
20.57552	43799
20.58363	57245
20.59177	72965
20.59988	116653
20.60802	182817
20.61613	232488
20.62425	286311
20.63238	278588
20.64050	258541
20.64862	224864
20.65675	167680
20.66487	134001
20.67300	103814
20.68112	84863
20.68923	73400
20.69737	74349
20.70548	66139
20.71362	53744
20.72173	55907
20.72985	49723
20.73798	56804
20.74610	53149
20.75423	65513
20.76235	66376
20.77047	71188
20.77860	91950
20.78672	110085
20.79483	120489
20.80297	115438
20.81108	102830
20.81922	93491
20.82733	79931
20.83545	66879
20.84358	58412
20.85170	57419
20.85983	53528
20.86795	50528
20.87607	45392
20.88420	45593
20.89232	46413
20.90045	49166
20.90857	41268
20.91668	39200
20.92482	51074
20.93293	42804
20.94105	40730
20.94918	36834
20.95730	42483
20.96543	41855
20.97355	41881
20.98167	38975
20.98980	39820
20.99792	39241
21.00605	43910
21.01417	37598
21.02228	43189
21.03042	39210
21.03853	43010
21.04665	36543
21.05478	39044
21.06290	39268
21.07103	40320
21.07915	36492
21.08727	36138
21.09540	34484
21.10352	43025
21.11165	36449
21.11977	32339
21.12788	37035
21.13602	37364
21.14413	36233
21.15227	36643
21.16038	40704
21.16850	34713
21.17663	38059
21.18475	35723
21.19287	38628
21.20100	39442
21.20912	36540
21.21725	35600
21.22537	42240
21.23348	44988
21.24162	57126
21.24973	78840
21.25787	95263
21.26598	110879
21.27410	111155
21.28223	96662
21.29035	87588
21.29848	65477
21.30660	52363
21.31472	47568
21.32285	45995
21.33097	44439
21.33908	46345
21.34722	39422
21.35533	43576
21.36347	38232
21.37158	39341
21.37970	38858
21.38783	39515
21.39595	36291
21.40408	37741
21.41220	39969
21.42032	36128
21.42845	35662
21.43657	41615
21.44470	40777
21.45282	39905
21.46093	40391
21.46907	38464
21.47718	42462
21.48530	36946
21.49343	38251
21.50155	36591
21.50968	35670
21.51780	35783
21.52592	35503
21.53405	36879
21.54217	34415
21.55030	35256
21.55842	43780
21.56653	38682
21.57467	39210
21.58278	35656
21.59090	35270
21.59903	34628
21.60715	38425
21.61528	40147
21.62340	42591
21.63152	37020
21.63965	40950
21.64777	43918
21.65590	42065
21.66402	46806
21.67213	39592
21.68027	37526
21.68838	40312
21.69652	51166
21.70463	39831
21.71275	41115
21.72088	44755
21.72900	41427
21.73712	47669
21.74525	49594
21.75337	49106
21.76150	37704
21.76962	42207
21.77773	44719
21.78587	48539
21.79398	37336
21.80212	39879
21.81023	42408
21.81835	37032
21.82648	39525
21.83460	40173
21.84273	41256
21.85085	38558
21.85897	39177
21.86710	44609
21.87522	35854
21.88333	37945
21.89147	42014
21.89958	43462
21.90772	39599
21.91583	38865
21.92395	44074
21.93208	52273
21.94020	67938
21.94833	86288
21.95645	102116
21.96457	112680
21.97270	110754
21.98082	85009
21.98893	72817
21.99707	63603
22.00518	51775
22.01332	56142
22.02143	49956
22.02955	44900
22.03768	39545
22.04580	43768
22.05393	48903
22.06205	45399
22.07017	41073
22.07830	39170
22.08642	43145
22.09455	40554
22.10267	40120
22.11078	37087
22.11892	42360
22.12703	48878
22.13515	55449
22.14328	63640
22.15140	79981
22.15953	96022
22.16765	106986
22.17577	91858
22.18390	81176
22.19202	67246
22.20015	54012
22.20827	52441
22.21638	53117
22.22452	50700
22.23263	55948
22.24077	50759
22.24888	55672
22.25700	46322
22.26513	45253
22.27325	47487
22.28137	46094
22.28950	43432
22.29762	41182
22.30575	41600
22.31387	40454
22.32198	47478
22.33012	39636
22.33823	46721
22.34637	38559
22.35448	36558
22.36260	39495
22.37073	34775
22.37885	37180
22.38697	41029
22.39510	39593
22.40322	38069
22.41135	38886
22.41947	36090
22.42758	40928
22.43572	39388
22.44383	39701
22.45197	41105
22.46008	44817
22.46820	43870
22.47633	38840
22.48445	49032
22.49258	40379
22.50070	39736
22.50882	40831
22.51695	42382
22.52507	41545
22.53318	45556
22.54132	52529
22.54943	65116
22.55757	82694
22.56568	91826
22.57380	121058
22.58193	142953
22.59005	162678
22.59818	138310
22.60630	111065
22.61442	87933
22.62255	72248
22.63067	62340
22.63880	62375
22.64692	50502
22.65503	45752
22.66317	46386
22.67128	45038
22.67940	47058
22.68753	48643
22.69565	44393
22.70378	41966
22.71190	41871
22.72002	41611
22.72815	44248
22.73627	40040
22.74440	42343
22.75252	45103
22.76063	43008
22.76877	40187
22.77688	43925
22.78502	47792
22.79313	44279
22.80125	43068
22.80938	38161
22.81750	49511
22.82562	50826
22.83375	41785
22.84187	41976
22.85000	43001
22.85812	40851
22.86623	43966
22.87437	45426
22.88248	42515
22.89062	41892
22.89873	42278
22.90685	40005
22.91498	40133
22.92310	38157
22.93122	39896
22.93935	40303
22.94747	42295
22.95560	38406
22.96372	42607
22.97183	37324
22.97997	42518
22.98808	43271
22.99622	42855
23.00433	46769
23.01245	40996
23.02058	38020
23.02870	39384
23.03683	40933
23.04495	40456
23.05307	42521
23.06120	39140
23.06932	39774
23.07743	36449
23.08557	45803
23.09368	38146
23.10182	38746
23.10993	36994
23.11805	39712
23.12618	36783
23.13430	38647
23.14243	46049
23.15055	38628
23.15867	53985
23.16680	46584
23.17492	45290
23.18305	47200
23.19117	50672
23.19928	46430
23.20742	51089
23.21553	48325
23.22365	47535
23.23178	45853
23.23990	45537
23.24803	45612
23.25615	43391
23.26427	40607
23.27240	41543
23.28052	38062
23.28865	42992
23.29677	41420
23.30488	39665
23.31302	41020
23.32113	48664
23.32925	41805
23.33738	45041
23.34550	47468
23.35363	52485
23.36175	58954
23.36987	67311
23.37800	74078
23.38612	63858
23.39425	58840
23.40237	56814
23.41048	50664
23.41862	51533
23.42673	49371
23.43487	53855
23.44298	61595
23.45110	63941
23.45923	72771
23.46735	82139
23.47547	101680
23.48360	101773
23.49172	95093
23.49985	90029
23.50797	94248
23.51608	85506
23.52422	84331
23.53233	74846
23.54047	70322
23.54858	63726
23.55670	54615
23.56483	53543
23.57295	51062
23.58108	46631
23.58920	49819
23.59732	46063
23.60545	41772
23.61357	44314
23.62168	50644
23.62982	47481
23.63793	49237
23.64607	49762
23.65418	47185
23.66230	54327
23.67043	42847
23.67855	45070
23.68668	43146
23.69480	41577
23.70292	42059
23.71105	42223
23.71917	39360
23.72728	44366
23.73542	40845
23.74353	41512
23.75167	47034
23.75978	42932
23.76790	43476
23.77603	43191
23.78415	43997
23.79228	40911
23.80040	43395
23.80852	49989
23.81665	40097
23.82477	39989
23.83290	47056
23.84102	40081
23.84913	39339
23.85727	38180
23.86538	41005
23.87350	33631
23.88163	40178
23.88975	40216
23.89788	40425
23.90600	38006
23.91412	46785
23.92225	38793
23.93037	37812
23.93850	39408
23.94662	38829
23.95473	37893
23.96287	43115
23.97098	44157
23.97912	38216
23.98723	44806
23.99535	39203
24.00348	40343
24.01160	37069
24.01972	39153
24.02785	42908
24.03597	40677
24.04410	42749
24.05222	46220
24.06033	53043
24.06847	47257
24.07658	47915
24.08472	49446
24.09283	47012
24.10095	47306
24.10908	48148
24.11720	44226
24.12533	45683
24.13345	46537
24.14157	50896
24.14970	45260
24.15782	44480
24.16593	55563
24.17407	57605
24.18218	59370
24.19032	56542
24.19843	57375
24.20655	64236
24.21468	62680
24.22280	77090
24.23093	162389
24.23905	481138
24.24717	1480880
24.25530	3739082
24.26342	6890074
24.27153	9499876
24.27967	1.049953E+07
24.28778	9987456
24.29592	8308143
24.30403	6256179
24.31215	4539940
24.32028	3369553
24.32840	2541575
24.33653	2002715
24.34465	1561747
24.35277	1248617
24.36090	980879
24.36902	794953
24.37715	680984
24.38527	590152
24.39338	534545
24.40152	487815
24.40963	419442
24.41775	363809
24.42588	325601
24.43400	279664
24.44213	263892
24.45025	237842
24.45837	209687
24.46650	188758
24.47462	185053
24.48275	161188
24.49087	149449
24.49898	139248
24.50712	136411
24.51523	140803
24.52337	133314
24.53148	148380
24.53960	139658
24.54773	145630
24.55585	127660
24.56397	113586
24.57210	103478
24.58022	105438
24.58835	95028
24.59647	91130
24.60458	87301
24.61272	88648
24.62083	88616
24.62897	86910
24.63708	88755
24.64520	81283
24.65333	88375
24.66145	90923
24.66957	98179
24.67770	104416
24.68582	109428
24.69395	118539
24.70207	132894
24.71018	134376
24.71832	137315
24.72643	118148
24.73457	102510
24.74268	88163
24.75080	79457
24.75893	76213
24.76705	67960
24.77518	71104
24.78330	72551
24.79142	72285
24.79955	77959
24.80767	96807
24.81578	88992
24.82392	96593
24.83203	95557
24.84017	86005
24.84828	76102
24.85640	75529
24.86453	70711
24.87265	62852
24.88078	65974
24.88890	67744
24.89702	59230
24.90515	61071
24.91327	62717
24.92140	58729
24.92952	58154
24.93763	57273
24.94577	62469
24.95388	59866
24.96200	56057
24.97013	60689
24.97825	60307
24.98638	59419
24.99450	57796
25.00262	59734
25.01075	54956
25.01887	54890
25.02700	54674
25.03512	59172
25.04323	58772
25.05137	54904
25.05948	56998
25.06760	55969
25.07573	59869
25.08385	53707
25.09198	54956
25.10010	56723
25.10822	53950
25.11635	54091
25.12447	55336
25.13260	58078
25.14072	55644
25.14883	61485
25.15697	60681
25.16508	64319
25.17322	61036
25.18133	62101
25.18945	60008
25.19758	58311
25.20570	56975
25.21382	57614
25.22195	55072
25.23007	52789
25.23820	48652
25.24632	49381
25.25443	49031
25.26257	54354
25.27068	53718
25.27882	56936
25.28693	50652
25.29505	53552
25.30318	54731
25.31130	61544
25.31943	56058
25.32755	60208
25.33567	59933
25.34380	48610
25.35192	55736
25.36003	51791
25.36817	52352
25.37628	49623
25.38442	52521
25.39253	52038
25.40065	51958
25.40878	50555
25.41690	52182
25.42503	50108
25.43315	52951
25.44127	50054
25.44940	51977
25.45752	51161
25.46565	47834
25.47377	49843
25.48188	54098
25.49002	45886
25.49813	48297
25.50625	45012
25.51438	55634
25.52250	51045
25.53063	49123
25.53875	49924
25.54687	52829
25.55500	52680
25.56312	49592
25.57125	57080
25.57937	48955
25.58748	56996
25.59562	49994
25.60373	52759
25.61185	50984
25.61998	54102
25.62810	57311
25.63623	61244
25.64435	66931
25.65247	66152
25.66060	71749
25.66872	73109
25.67685	61932
25.68497	63563
25.69308	56714
25.70122	53641
25.70933	58283
25.71747	47963
25.72558	51240
25.73370	49574
25.74183	47293
25.74995	50155
25.75807	48992
25.76620	50862
25.77432	57796
25.78245	57368
25.79057	66727
25.79868	61271
25.80682	69219
25.81493	66821
25.82307	72679
25.83118	65873
25.83930	66239
25.84743	60352
25.85555	58835
25.86368	57245
25.87180	55523
25.87992	51786
25.88805	51487
25.89617	48958
25.90428	48980
25.91242	50535
25.92053	56312
25.92867	47786
25.93678	54922
25.94490	60248
25.95303	49861
25.96115	45627
25.96928	45939
25.97740	49066
25.98552	52222
25.99365	47322
26.00177	47621
26.00988	50235
26.01802	47019
26.02613	45832
26.03427	54655
26.04238	44676
26.05050	47189
26.05863	47202
26.06675	43657
26.07488	46711
26.08300	42607
26.09112	45434
26.09925	45701
26.10737	47433
26.11550	49168
26.12362	46785
26.13173	46751
26.13987	47397
26.14798	41947
26.15610	43531
26.16423	44644
26.17235	45350
26.18048	46586
26.18860	42197
26.19672	44562
26.20485	50913
26.21297	45494
26.22110	44891
26.22922	50998
26.23733	51900
26.24547	44283
26.25358	46394
26.26172	47952
26.26983	43927
26.27795	53778
26.28608	44937
26.29420	47265
26.30232	47598
26.31045	50457
26.31857	54217
26.32670	60291
26.33482	68695
26.34293	86848
26.35107	93050
26.35918	98284
26.36732	101196
26.37543	101378
26.38355	86541
26.39168	80233
26.39980	70914
26.40792	68126
26.41605	73743
26.42417	78731
26.43230	81407
26.44042	79493
26.44853	79424
26.45667	68259
26.46478	68336
26.47292	58116
26.48103	52097
26.48915	50558
26.49728	47336
26.50540	47638
26.51353	50726
26.52165	48797
26.52977	50614
26.53790	53592
26.54602	48892
26.55413	51740
26.56227	46198
26.57038	49259
26.57852	51569
26.58663	50653
26.59475	48638
26.60288	49336
26.61100	50902
26.61913	51816
26.62725	49317
26.63537	54385
26.64350	58364
26.65162	61464
26.65975	69943
26.66787	75261
26.67598	81804
26.68412	80022
26.69223	78179
26.70035	79649
26.70848	70747
26.71660	65589
26.72473	58089
26.73285	55565
26.74097	55553
26.74910	54645
26.75722	55211
26.76535	51253
26.77347	49491
26.78158	46573
26.78972	53494
26.79783	51668
26.80597	58348
26.81408	57300
26.82220	48881
26.83033	54977
26.83845	47760
26.84657	48247
26.85470	51026
26.86282	47015
26.87095	50914
26.87907	53514
26.88718	49690
26.89532	47914
26.90343	47310
26.91157	50311
26.91968	46952
26.92780	47971
26.93593	46409
26.94405	44681
26.95217	49201
26.96030	55354
26.96842	43158
26.97655	46540
26.98467	47426
26.99278	49583
27.00092	51160
27.00903	51439
27.01717	50667
27.02528	57694
27.03340	56803
27.04153	51721
27.04965	53555
27.05778	52577
27.06590	47797
27.07402	50460
27.08215	49756
27.09027	51081
27.09838	51455
27.10652	48855
27.11463	50884
27.12277	48999
27.13088	53449
27.13900	55877
27.14713	66646
27.15525	56020
27.16338	53915
27.17150	59096
27.17962	59605
27.18775	58231
27.19587	59477
27.20400	59576
27.21212	56198
27.22023	58603
27.22837	55586
27.23648	57150
27.24460	54846
27.25273	52317
27.26085	55711
27.26898	57693
27.27710	53230
27.28522	49018
27.29335	53653
27.30147	56497
27.30960	55281
27.31772	50778
27.32583	51882
27.33397	53005
27.34208	50539
27.35020	54087
27.35833	54915
27.36645	52749
27.37458	49108
27.38270	55963
27.39082	56941
27.39895	61603
27.40707	87229
27.41520	156587
27.42332	303766
27.43143	581062
27.43957	1059148
27.44768	1780118
27.45582	2397524
27.46393	2791679
27.47205	2857181
27.48018	2736876
27.48830	2298316
27.49642	1871324
27.50455	1495702
27.51267	1206230
27.52080	954035
27.52892	762228
27.53703	604368
27.54517	489097
27.55328	391356
27.56142	339774
27.56953	278504
27.57765	242429
27.58578	216133
27.59390	177734
27.60203	171060
27.61015	152688
27.61827	142210
27.62640	126019
27.63452	114571
27.64263	106521
27.65077	107326
27.65888	108132
27.66702	103902
27.67513	102639
27.68325	101077
27.69138	98046
27.69950	102437
27.70763	91000
27.71575	88114
27.72387	83497
27.73200	87982
27.74012	77281
27.74823	74590
27.75637	75548
27.76448	68561
27.77262	70520
27.78073	70827
27.78885	69700
27.79698	65280
27.80510	76803
27.81323	64604
27.82135	66398
27.82947	72002
27.83760	67527
27.84572	68008
27.85385	71375
27.86197	68823
27.87008	66553
27.87822	60457
27.88633	62325
27.89445	59322
27.90258	65028
27.91070	63723
27.91883	61695
27.92695	65600
27.93507	62501
27.94320	64593
27.95132	60491
27.95945	58205
27.96757	59932
27.97568	59054
27.98382	58611
27.99193	54989
28.00007	54875
28.00818	56050
28.01630	55982
28.02443	55969
28.03255	57519
28.04067	55537
28.04880	62164
28.05692	56662
28.06505	58222
28.07317	53153
28.08128	50969
28.08942	55299
28.09753	55400
28.10567	53824
28.11378	57093
28.12190	57105
28.13003	61225
28.13815	60839
28.14628	61908
28.15440	58940
28.16252	58654
28.17065	52511
28.17877	54609
28.18688	48385
28.19502	51604
28.20313	53433
28.21127	60544
28.21938	49577
28.22750	55188
28.23563	53874
28.24375	50306
28.25188	53630
28.26000	53053
28.26812	55059
28.27625	51913
28.28437	52656
28.29248	54616
28.30062	56143
28.30873	56392
28.31687	55207
28.32498	51616
28.33310	53779
28.34123	52504
28.34935	57609
28.35748	59261
28.36560	60785
28.37372	58023
28.38185	55008
28.38997	51778
28.39810	54354
28.40622	54523
28.41433	52929
28.42247	55297
28.43058	54641
28.43870	54489
28.44683	57331
28.45495	52516
28.46308	52109
28.47120	51979
28.47932	57145
28.48745	57009
28.49557	56188
28.50370	65671
28.51182	66948
28.51993	65766
28.52807	68985
28.53618	64606
28.54432	59877
28.55243	59472
28.56055	57793
28.56868	57974
28.57680	59483
28.58492	53422
28.59305	54191
28.60117	51855
28.60930	53687
28.61742	52521
28.62553	56771
28.63367	56569
28.64178	64578
28.64992	54733
28.65803	53932
28.66615	60349
28.67428	56604
28.68240	52528
28.69052	65164
28.69865	86989
28.70677	107234
28.71490	152185
28.72302	209219
28.73113	275772
28.73927	352424
28.74738	393380
28.75552	438621
28.76363	472515
28.77175	485222
28.77988	484647
28.78800	469363
28.79613	450798
28.80425	432431
28.81237	401307
28.82050	387603
28.82862	371238
28.83673	338497
28.84487	321298
28.85298	304008
28.86112	274460
28.86923	263014
28.87735	238308
28.88548	228057
28.89360	216775
28.90173	192410
28.90985	187643
28.91797	182176
28.92610	169930
28.93422	155479
28.94235	146639
28.95047	139011
28.95858	131530
28.96672	128085
28.97483	117737
28.98295	113981
28.99108	116224
28.99920	106001
29.00733	102207
29.01545	93956
29.02357	94593
29.03170	92971
29.03982	96519
29.04795	84998
29.05607	94014
29.06418	88601
29.07232	92094
29.08043	101584
29.08855	96401
29.09668	103291
29.10480	102949
29.11293	90402
29.12105	81547
29.12917	78658
29.13730	76485
29.14542	74462
29.15355	73818
29.16167	71350
29.16978	78856
29.17792	74892
29.18603	80997
29.19417	82045
29.20228	76207
29.21040	72877
29.21853	70319
29.22665	70826
29.23477	67520
29.24290	64330
29.25102	72960
29.25915	63805
29.26727	65251
29.27538	60014
29.28352	58681
29.29163	61376
29.29977	60655
29.30788	60248
29.31600	61610
29.32413	59464
29.33225	60875
29.34038	64543
29.34850	61024
29.35662	58906
29.36475	56423
29.37287	60063
29.38098	57113
29.38912	56136
29.39723	58453
29.40537	53971
29.41348	55356
29.42160	55619
29.42973	55990
29.43785	53708
29.44598	53740
29.45410	55872
29.46222	64775
29.47035	53902
29.47847	59466
29.48660	65554
29.49472	58915
29.50283	60138
29.51097	61715
29.51908	58499
29.52720	58147
29.53533	55882
29.54345	57354
29.55158	56114
29.55970	55900
29.56782	56199
29.57595	60394
29.58407	56076
29.59220	53424
29.60032	54108
29.60843	54749
29.61657	50693
29.62468	49231
29.63280	54225
29.64093	55945
29.64905	57155
29.65718	57931
29.66530	54401
29.67342	62206
29.68155	55088
29.68967	53406
29.69780	65898
29.70592	60794
29.71403	60385
29.72217	58766
29.73028	55969
29.73842	55779
29.74653	55962
29.75465	54463
29.76278	55769
29.77090	60476
29.77902	55812
29.78715	57147
29.79527	59921
29.80340	61936
29.81152	57558
29.81963	60596
29.82777	58611
29.83588	55817
29.84402	63583
29.85213	56132
29.86025	60644
29.86838	55714
29.87650	56987
29.88463	57117
29.89275	64420
29.90087	54565
29.90900	53468
29.91712	50073
29.92523	54218
29.93337	50408
29.94148	56942
29.94962	53146
29.95773	53314
29.96585	52024
29.97398	53185
29.98210	53560
29.99023	53849
29.99835	52101
30.00647	53108
30.01460	52361
30.02272	60202
30.03085	59214
30.03897	58320
30.04708	62207
30.05522	62481
30.06333	61613
30.07145	59051
30.07958	55357
30.08770	53734
30.09583	54043
30.10395	54267
30.11207	52109
30.12020	54374
30.12832	57613
30.13645	57993
30.14457	56204
30.15268	56094
30.16082	60028
30.16893	56665
30.17705	57862
30.18518	67929
30.19330	57958
30.20143	59674
30.20955	65334
30.21767	60993
30.22580	58898
30.23392	58188
30.24205	60371
30.25017	58948
30.25828	58129
30.26642	55720
30.27453	60855
30.28267	61610
30.29078	61125
30.29890	66555
30.30703	77954
30.31515	89620
30.32327	111690
30.33140	133594
30.33952	161901
30.34765	185192
30.35577	198589
30.36388	219213
30.37202	216947
30.38013	224149
30.38827	220954
30.39638	218517
30.40450	215361
30.41263	216326
30.42075	208707
30.42888	202673
30.43700	203501
30.44512	194759
30.45325	187513
30.46137	179166
30.46948	175595
30.47762	162666
30.48573	148448
30.49387	143035
30.50198	138864
30.51010	131627
30.51823	132960
30.52635	125194
30.53448	117563
30.54260	114247
30.55072	118430
30.55885	108333
30.56697	95437
30.57508	91495
30.58322	89922
30.59133	93668
30.59947	98728
30.60758	87966
30.61570	89517
30.62383	87500
30.63195	86854
30.64008	83143
30.64820	83686
30.65632	77956
30.66445	78381
30.67257	76842
30.68070	76693
30.68882	75212
30.69693	77515
30.70507	78469
30.71318	68920
30.72130	69272
30.72943	75299
30.73755	63435
30.74568	67308
30.75380	66652
30.76192	62857
30.77005	67043
30.77817	64924
30.78630	64560
30.79442	64697
30.80253	67065
30.81067	67001
30.81878	65150
30.82692	61281
30.83503	66828
30.84315	64427
30.85128	60532
30.85940	64177
30.86752	64110
30.87565	67960
30.88377	70389
30.89190	62213
30.90002	63206
30.90813	69980
30.91627	61980
30.92438	59053
30.93252	66521
30.94063	56393
30.94875	61544
30.95688	61090
30.96500	57864
30.97313	63831
30.98125	62264
30.98937	57279
30.99750	57979
31.00562	57964
31.01373	53428
31.02187	58172
31.02998	57328
31.03812	60463
31.04623	55558
31.05435	61765
31.06248	64577
31.07060	54431
31.07873	56400
31.08685	56931
31.09497	55886
31.10310	62559
31.11122	52645
31.11933	58700
31.12747	51774
31.13558	57709
31.14372	61582
31.15183	57003
31.15995	57021
31.16808	61732
31.17620	59751
31.18433	66036
31.19245	56585
31.20057	53785
31.20870	60111
31.21682	67332
31.22495	54632
31.23307	60155
31.24118	56628
31.24932	53591
31.25743	56467
31.26555	59206
31.27368	59398
31.28180	56943
31.28993	57327
31.29805	55804
31.30617	56789
31.31430	56345
31.32242	63663
31.33055	55979
31.33867	59410
31.34678	67086
31.35492	61739
31.36303	64583
31.37117	66660
31.37928	59037
31.38740	57194
31.39553	54569
31.40365	60829
31.41177	60327
31.41990	57892
31.42802	58042
31.43615	56507
31.44427	62068
31.45238	56684
31.46052	53968
31.46863	54681
31.47677	51852
31.48488	60157
31.49300	58027
31.50113	59322
31.50925	60589
31.51737	58701
31.52550	61300
31.53362	55302
31.54175	60360
31.54987	59701
31.55798	60948
31.56612	62451
31.57423	64305
31.58237	59485
31.59048	57051
31.59860	56808
31.60673	58119
31.61485	61905
31.62298	70907
31.63110	75656
31.63922	97066
31.64735	115441
31.65547	126378
31.66358	136828
31.67172	130538
31.67983	120525
31.68797	101923
31.69608	93494
31.70420	76467
31.71233	66428
31.72045	67842
31.72858	66279
31.73670	72426
31.74482	66950
31.75295	67980
31.76107	63024
31.76920	61052
31.77732	57778
31.78543	60426
31.79357	55662
31.80168	67936
31.80980	65522
31.81793	59602
31.82605	52465
31.83418	58542
31.84230	57951
31.85042	56886
31.85855	65832
31.86667	58911
31.87480	65556
31.88292	56068
31.89103	57799
31.89917	55657
31.90728	58705
31.91540	57253
31.92353	58952
31.93165	63224
31.93978	60032
31.94790	58880
31.95602	56590
31.96415	56832
31.97227	55618
31.98040	59087
31.98852	57943
31.99663	57413
32.00477	58099
32.01288	60943
32.02102	58800
32.02913	63197
32.03725	61408
32.04538	57454
32.05350	60829
32.06162	59837
32.06975	58959
32.07787	55217
32.08600	60227
32.09412	53872
32.10223	59760
32.11037	59408
32.11848	68711
32.12662	60384
32.13473	66791
32.14285	60706
32.15098	66754
32.15910	61293
32.16723	61274
32.17535	64595
32.18347	61296
32.19160	61670
32.19972	60892
32.20783	62145
32.21597	60727
32.22408	58992
32.23222	62973
32.24033	70624
32.24845	83488
32.25658	94154
32.26470	118113
32.27283	137539
32.28095	151490
32.28907	169984
32.29720	181327
32.30532	181290
32.31345	169649
32.32157	176476
32.32968	164242
32.33782	160907
32.34593	161829
32.35405	144536
32.36218	142844
32.37030	138524
32.37843	127258
32.38655	135594
32.39467	124319
32.40280	119457
32.41092	114706
32.41905	114404
32.42717	116765
32.43528	112261
32.44342	107708
32.45153	101916
32.45965	95936
32.46778	87571
32.47590	97299
32.48403	94280
32.49215	89403
32.50027	79828
32.50840	75420
32.51652	78753
32.52465	75877
32.53277	67485
32.54088	73350
32.54902	73712
32.55713	73219
32.56527	70647
32.57338	77996
32.58150	74942
32.58963	68551
32.59775	70101
32.60587	66405
32.61400	66132
32.62212	63858
32.63025	64225
32.63837	63308
32.64648	68373
32.65462	67561
32.66273	68504
32.67087	66370
32.67898	65919
32.68710	68231
32.69523	62366
32.70335	66157
32.71148	66683
32.71960	64299
32.72772	64598
32.73585	66701
32.74397	61204
32.75208	64282
32.76022	64649
32.76833	74667
32.77647	75817
32.78458	68690
32.79270	73961
32.80083	68467
32.80895	72397
32.81708	69711
32.82520	67384
32.83332	60839
32.84145	68513
32.84957	71180
32.85768	64871
32.86582	61693
32.87393	64027
32.88207	63908
32.89018	65139
32.89830	70351
32.90643	65544
32.91455	71320
32.92268	61862
32.93080	70402
32.93892	66013
32.94705	64089
32.95517	67680
32.96330	64952
32.97142	69308
32.97953	81240
32.98767	84993
32.99578	89803
33.00390	86390
33.01203	77956
33.02015	79206
33.02828	73570
33.03640	74827
33.04452	65527
33.05265	69389
33.06077	62832
33.06890	63751
33.07702	64282
33.08513	62144
33.09327	65820
33.10138	68080
33.10952	75968
33.11763	65869
33.12575	71125
33.13388	71365
33.14200	75500
33.15012	64245
33.15825	65739
33.16637	66334
33.17450	59920
33.18262	64536
33.19073	61199
33.19887	67174
33.20698	65818
33.21512	63716
33.22323	73498
33.23135	66146
33.23948	73410
33.24760	70126
33.25572	63889
33.26385	71118
33.27197	68738
33.28010	75717
33.28822	69817
33.29633	65521
33.30447	70352
33.31258	65211
33.32072	66543
33.32883	67068
33.33695	59402
33.34508	61460
33.35320	66502
33.36133	66358
33.36945	62479
33.37757	63901
33.38570	63272
33.39382	62510
33.40193	66770
33.41007	62984
33.41818	64081
33.42632	61544
33.43443	67361
33.44255	70872
33.45068	64567
33.45880	63811
33.46693	62831
33.47505	68645
33.48317	76657
33.49130	68587
33.49942	69580
33.50755	75575
33.51567	76764
33.52378	70906
33.53192	70601
33.54003	70591
33.54815	71097
33.55628	65801
33.56440	65071
33.57253	69693
33.58065	64124
33.58877	74095
33.59690	65921
33.60502	68585
33.61315	66125
33.62127	71397
33.62938	72282
33.63752	74232
33.64563	87599
33.65377	88165
33.66188	100882
33.67000	94157
33.67813	85125
33.68625	79048
33.69437	80258
33.70250	68968
33.71062	68058
33.71875	68661
33.72687	69378
33.73498	72173
33.74312	68400
33.75123	69099
33.75937	64130
33.76748	67932
33.77560	68769
33.78373	67259
33.79185	64531
33.79997	72375
33.80810	68067
33.81622	68533
33.82435	77589
33.83247	68659
33.84058	65863
33.84872	65625
33.85683	69419
33.86497	72116
33.87308	70095
33.88120	66331
33.88933	74680
33.89745	74956
33.90558	65223
33.91370	73722
33.92182	68272
33.92995	67125
33.93807	64158
33.94618	69920
33.95432	65930
33.96243	66068
33.97057	64828
33.97868	64769
33.98680	62772
33.99493	70357
34.00305	65754
34.01118	65753
34.01930	66582
34.02742	72214
34.03555	68055
34.04367	73349
34.05180	70409
34.05992	73392
34.06803	72343
34.07617	73544
34.08428	75990
34.09240	74690
34.10053	72859
34.10865	75835
34.11678	69720
34.12490	72922
34.13302	75876
34.14115	73095
34.14927	77269
34.15740	75794
34.16552	76189
34.17363	73800
34.18177	74651
34.18988	79881
34.19800	73980
34.20613	78539
34.21425	74755
34.22238	81480
34.23050	74559
34.23862	73790
34.24675	77249
34.25487	74788
34.26300	74029
34.27112	73042
34.27923	77453
34.28737	75871
34.29548	71761
34.30362	70309
34.31173	75890
34.31985	68189
34.32798	80146
34.33610	75457
34.34422	73837
34.35235	71539
34.36047	73543
34.36860	66210
34.37672	72826
34.38483	77694
34.39297	69459
34.40108	68059
34.40922	72349
34.41733	72778
34.42545	76048
34.43358	72552
34.44170	76583
34.44983	77968
34.45795	72630
34.46607	75162
34.47420	71404
34.48232	72870
34.49043	83273
34.49857	74561
34.50668	78641
34.51482	70975
34.52293	74045
34.53105	70508
34.53918	73719
34.54730	74080
34.55543	68315
34.56355	74391
34.57167	71988
34.57980	74946
34.58792	71802
34.59603	75033
34.60417	79180
34.61228	75595
34.62042	71400
34.62853	71927
34.63665	72119
34.64478	75989
34.65290	76952
34.66103	74888
34.66915	73818
34.67727	85045
34.68540	73727
34.69352	85606
34.70165	77057
34.70977	72639
34.71788	80662
34.72602	70790
34.73413	71725
34.74225	72228
34.75038	72322
34.75850	75986
34.76663	73492
34.77475	73765
34.78287	75260
34.79100	72544
34.79912	77290
34.80725	70638
34.81537	75880
34.82348	78035
34.83162	73022
34.83973	79573
34.84787	85623
34.85598	98728
34.86410	122007
34.87223	135239
34.88035	158587
34.88847	177414
34.89660	181962
34.90472	180637
34.91285	180401
34.92097	158709
34.92908	142281
34.93722	128296
34.94533	123889
34.95347	122777
34.96158	111522
34.96970	104084
34.97783	103305
34.98595	97244
34.99408	90651
35.00220	93719
35.01032	96528
35.01845	88693
35.02657	90769
35.03468	91982
35.04282	89184
35.05093	92287
35.05907	86145
35.06718	83966
35.07530	88662
35.08343	85548
35.09155	85557
35.09968	83333
35.10780	82559
35.11592	85391
35.12405	84301
35.13217	84245
35.14028	85246
35.14842	81217
35.15653	83897
35.16467	83606
35.17278	78747
35.18090	83646
35.18903	81612
35.19715	83777
35.20528	91503
35.21340	84186
35.22152	85890
35.22965	81282
35.23777	87782
35.24590	76538
35.25402	85902
35.26213	91044
35.27027	83415
35.27838	85780
35.28650	83134
35.29463	86021
35.30275	81918
35.31088	82314
35.31900	84654
35.32712	84789
35.33525	82824
35.34337	84215
35.35150	78853
35.35962	76452
35.36773	76594
35.37587	81759
35.38398	83577
35.39212	84557
35.40023	80340
35.40835	86796
35.41648	75335
35.42460	78862
35.43272	82342
35.44085	89566
35.44897	87358
35.45710	88183
35.46522	92083
35.47333	92492
35.48147	97768
35.48958	96021
35.49772	103354
35.50583	100590
35.51395	99101
35.52208	99911
35.53020	104033
35.53832	99148
35.54645	100655
35.55457	94179
35.56270	94017
35.57082	109421
35.57893	101063
35.58707	94331
35.59518	103859
35.60332	93113
35.61143	94887
35.61955	93211
35.62768	95785
35.63580	95759
35.64393	93531
35.65205	103100
35.66017	102513
35.66830	94158
35.67642	92979
35.68453	89184
35.69267	93300
35.70078	86523
35.70892	89207
35.71703	89787
35.72515	88080
35.73328	97876
35.74140	87495
35.74953	89482
35.75765	89959
35.76577	90204
35.77390	87784
35.78202	90426
35.79015	89141
35.79827	98757
35.80638	88907
35.81452	101643
35.82263	89465
35.83075	90859
35.83888	90027
35.84700	94160
35.85513	91288
35.86325	92253
35.87137	86770
35.87950	92508
35.88762	91359
35.89575	86744
35.90387	86232
35.91198	89336
35.92012	85535
35.92823	89793
35.93635	90896
35.94448	87372
35.95260	90292
35.96073	87884
35.96885	95838
35.97697	94884
35.98510	101263
35.99322	100780
36.00135	97065
36.00947	107428
36.01758	113216
36.02572	104490
36.03383	103461
36.04197	97804
36.05008	112575
36.05820	102978
36.06633	97634
36.07445	99386
36.08257	90931
36.09070	95351
36.09882	94540
36.10695	92197
36.11507	104190
36.12318	98667
36.13132	92928
36.13943	93172
36.14757	99969
36.15568	105032
36.16380	91092
36.17193	92197
36.18005	89401
36.18818	94372
36.19630	91285
36.20442	94153
36.21255	94217
36.22067	96662
36.22878	93630
36.23692	93146
36.24503	100922
36.25317	92516
36.26128	100976
36.26940	104138
36.27753	104124
36.28565	98911
36.29378	99520
36.30190	101452
36.31002	114089
36.31815	102030
36.32627	102345
36.33440	102607
36.34252	93548
36.35063	94915
36.35877	91847
36.36688	99806
36.37500	99773
36.38313	92010
36.39125	92846
36.39938	94173
36.40750	94842
36.41562	92086
36.42375	92364
36.43187	94969
36.44000	94882
36.44812	96250
36.45623	92491
36.46437	92675
36.47248	103704
36.48060	97480
36.48873	94108
36.49685	90171
36.50498	88829
36.51310	102706
36.52122	96321
36.52935	95577
36.53747	95956
36.54560	97110
36.55372	98802
36.56183	102406
36.56997	96374
36.57808	103616
36.58622	100887
36.59433	98726
36.60245	103143
36.61058	103956
36.61870	114205
36.62682	104126
36.63495	103898
36.64307	111740
36.65120	111454
36.65932	113432
36.66743	118888
36.67557	109585
36.68368	107020
36.69182	107409
36.69993	100960
36.70805	98362
36.71618	97116
36.72430	99221
36.73243	101708
36.74055	100473
36.74867	100723
36.75680	96842
36.76492	103396
36.77303	101949
36.78117	98954
36.78928	102842
36.79742	97484
36.80553	101230
36.81365	99812
36.82178	99064
36.82990	101102
36.83803	109109
36.84615	103925
36.85427	102099
36.86240	103693
36.87052	103384
36.87863	101270
36.88677	104363
36.89488	110951
36.90302	99232
36.91113	114243
36.91925	107938
36.92738	105907
36.93550	102877
36.94363	100493
36.95175	106637
36.95987	107057
36.96800	108590
36.97612	122788
36.98425	119599
36.99237	120165
37.00048	120379
37.00862	120741
37.01673	119988
37.02485	113862
37.03298	114271
37.04110	105566
37.04923	106809
37.05735	104015
37.06547	113016
37.07360	102341
37.08172	102829
37.08985	104653
37.09797	106849
37.10608	112238
37.11422	109836
37.12233	104633
37.13047	109538
37.13858	106721
37.14670	106001
37.15483	102913
37.16295	102880
37.17107	105838
37.17920	106801
37.18732	107393
37.19545	105174
37.20357	110273
37.21168	106526
37.21982	109167
37.22793	107922
37.23607	111798
37.24418	111149
37.25230	108458
37.26043	108170
37.26855	106921
37.27667	103730
37.28480	107315
37.29292	104145
37.30105	110197
37.30917	110831
37.31728	108361
37.32542	102571
37.33353	111522
37.34167	108087
37.34978	107443
37.35790	108592
37.36603	116839
37.37415	112293
37.38228	113199
37.39040	108273
37.39852	110308
37.40665	110555
37.41477	121830
37.42288	108677
37.43102	114814
37.43913	110680
37.44727	113218
37.45538	120446
37.46350	111588
37.47163	109975
37.47975	110040
37.48788	111007
