Z:\data\JTB-E02\BACandBLUE\JTB-E02-201-14.D Fri Mar 01 13:01:40 2019
Start of data points
2.09518,68342
2.10332,75866
2.11143,73649
2.11955,65669
2.12768,69235
2.13580,68814
2.14393,67089
2.15205,68694
2.16017,69705
2.16830,66059
2.17642,68758
2.18453,64185
2.19267,68267
2.20078,66132
2.20892,64643
2.21703,60857
2.22515,60159
2.23328,56973
2.24140,57433
2.24953,60723
2.25765,64796
2.26577,232853
2.27390,796600
2.28202,1287188
2.29015,992191
2.29827,532076
2.30638,378482
2.31452,321318
2.32263,275817
2.33075,255828
2.33888,227068
2.34700,218371
2.35513,194687
2.36325,177224
2.37137,174087
2.37950,159936
2.38762,156278
2.39575,149514
2.40387,154595
2.41198,145390
2.42012,153708
2.42823,151062
2.43635,146183
2.44448,134839
2.45260,133228
2.46073,128340
2.46885,124239
2.47697,122926
2.48510,123381
2.49322,119530
2.50135,121406
2.50947,118695
2.51758,117868
2.52572,120727
2.53383,108603
2.54197,114207
2.55008,133489
2.55820,169500
2.56633,194953
2.57445,173689
2.58257,138697
2.59070,128795
2.59882,135991
2.60695,196932
2.61507,278646
2.62318,291376
2.63132,217682
2.63943,177274
2.64757,151458
2.65568,146279
2.66380,131270
2.67193,123741
2.68005,116506
2.68817,117180
2.69630,116184
2.70442,114252
2.71255,107299
2.72067,101728
2.72878,105595
2.73692,104063
2.74503,104051
2.75317,101596
2.76128,101036
2.76940,112589
2.77753,193075
2.78565,398544
2.79378,479234
2.80190,353804
2.81002,241507
2.81815,213989
2.82627,201923
2.83438,173237
2.84252,161636
2.85063,142523
2.85877,138648
2.86688,134482
2.87500,129680
2.88313,125075
2.89125,126081
2.89938,115131
2.90750,113621
2.91562,109693
2.92375,106466
2.93187,109708
2.94000,104594
2.94812,97914
2.95623,98426
2.96437,99592
2.97248,106254
2.98060,106351
2.98873,97193
2.99685,107806
3.00498,117047
3.01310,134448
3.02122,121646
3.02935,109363
3.03747,101086
3.04560,101566
3.05372,98745
3.06183,102966
3.06997,108421
3.07808,164825
3.08620,471816
3.09433,1259794
3.10245,2939250
3.11058,5300817
3.11870,6083270
3.12682,4645905
3.13495,3096862
3.14307,2293350
3.15120,1813126
3.15932,1458465
3.16743,1213770
3.17557,1058225
3.18368,1089777
3.19182,1370983
3.19993,1669729
3.20805,1483516
3.21618,1131606
3.22430,918876
3.23242,782491
3.24055,676527
3.24867,594769
3.25680,552389
3.26492,488237
3.27303,440517
3.28117,424828
3.28928,577550
3.29742,1287040
3.30553,2823084
3.31365,4328747
3.32178,4419479
3.32990,3416697
3.33803,2370015
3.34615,1752708
3.35427,1389375
3.36240,1152615
3.37052,989182
3.37863,902300
3.38677,804681
3.39488,742317
3.40302,684857
3.41113,639940
3.41925,595837
3.42738,552070
3.43550,518239
3.44363,508932
3.45175,457568
3.45987,448883
3.46800,432653
3.47612,450223
3.48423,427246
3.49237,406876
3.50048,398358
3.50862,376942
3.51673,359812
3.52485,360146
3.53298,359693
3.54110,352625
3.54923,347929
3.55735,332012
3.56547,300278
3.57360,296391
3.58172,292906
3.58985,278480
3.59797,276295
3.60608,262579
3.61422,269301
3.62233,272968
3.63045,269348
3.63858,270786
3.64670,262024
3.65483,298054
3.66295,866740
3.67107,3550537
3.67920,8634393
3.68732,1.16126E+07
3.69545,9400518
3.70357,5910918
3.71168,3853365
3.71982,2964420
3.72793,2457208
3.73607,2100905
3.74418,1801164
3.75230,1637620
3.76043,1447000
3.76855,1356629
3.77667,1244849
3.78480,1169624
3.79292,1129522
3.80105,1284846
3.80917,2039619
3.81728,3337341
3.82542,3915508
3.83353,3198555
3.84167,2287131
3.84978,1739037
3.85790,1483086
3.86603,1303350
3.87415,1184706
3.88227,1079267
3.89040,996988
3.89852,931553
3.90665,868107
3.91477,861586
3.92288,869806
3.93102,942015
3.93913,963626
3.94727,963604
3.95538,1279889
3.96350,2020105
3.97163,2595350
3.97975,2397735
3.98788,1720083
3.99600,1367808
4.00412,1595610
4.01225,2394428
4.02037,3012803
4.02848,2707571
4.03662,1928142
4.04473,1306483
4.05287,991237
4.06098,824067
4.06910,731866
4.07723,654930
4.08535,596611
4.09348,567742
4.10160,543239
4.10972,505570
4.11785,493902
4.12597,470404
4.13408,458045
4.14222,459936
4.15033,479761
4.15847,496752
4.16658,527105
4.17470,508095
4.18283,502709
4.19095,467109
4.19908,427533
4.20720,538560
4.21532,1474672
4.22345,4527995
4.23157,9715761
4.23970,1.440906E+07
4.24782,1.546202E+07
4.25593,1.241112E+07
4.26407,8097546
4.27218,5309490
4.28030,3824978
4.28843,2853596
4.29655,2229556
4.30468,1781923
4.31280,1481050
4.32092,1265150
4.32905,1088735
4.33717,975091
4.34530,866153
4.35342,793956
4.36153,758396
4.36967,719952
4.37778,692538
4.38592,627128
4.39403,566654
4.40215,526668
4.41028,486942
4.41840,458930
4.42652,435758
4.43465,425521
4.44277,389574
4.45090,376940
4.45902,367387
4.46713,359392
4.47527,344940
4.48338,334374
4.49152,340825
4.49963,334570
4.50775,329272
4.51588,318216
4.52400,319676
4.53212,296978
4.54025,306627
4.54837,295621
4.55650,295166
4.56462,283854
4.57273,278451
4.58087,266572
4.58898,254527
4.59712,260259
4.60523,255591
4.61335,255035
4.62148,269292
4.62960,308586
4.63773,406544
4.64585,507553
4.65397,519894
4.66210,448305
4.67022,380641
4.67833,332465
4.68647,317842
4.69458,291253
4.70272,268823
4.71083,252557
4.71895,239601
4.72708,235590
4.73520,223880
4.74333,216791
4.75145,222305
4.75957,212182
4.76770,212048
4.77582,206468
4.78395,230739
4.79207,354717
4.80018,711982
4.80832,1217185
4.81643,1437590
4.82455,1245360
4.83268,919098
4.84080,724505
4.84893,657788
4.85705,580225
4.86517,510558
4.87330,449252
4.88142,402748
4.88955,368872
4.89767,349718
4.90578,327581
4.91392,307781
4.92203,297247
4.93015,300058
4.93828,338593
4.94640,558789
4.95453,1076495
4.96265,1895570
4.97077,2603006
4.97890,2711821
4.98702,2218875
4.99515,1612962
5.00327,1162770
5.01138,890323
5.01952,732526
5.02763,679402
5.03577,684304
5.04388,723893
5.05200,749009
5.06013,662418
5.06825,600798
5.07637,531466
5.08450,477121
5.09262,443967
5.10075,425481
5.10887,402288
5.11698,382275
5.12512,371931
5.13323,349781
5.14137,342866
5.14948,348884
5.15760,365528
5.16573,404136
5.17385,422678
5.18197,415849
5.19010,399060
5.19822,385697
5.20635,388908
5.21447,395091
5.22258,379610
5.23072,368899
5.23883,366386
5.24697,362385
5.25508,342565
5.26320,308932
5.27133,278725
5.27945,251312
5.28758,252015
5.29570,248168
5.30382,241965
5.31195,235567
5.32007,226077
5.32818,239497
5.33632,256738
5.34443,285525
5.35257,289662
5.36068,271332
5.36880,253274
5.37693,240853
5.38505,237584
5.39318,237061
5.40130,253123
5.40942,242004
5.41755,230426
5.42567,218944
5.43380,223353
5.44192,208392
5.45003,208574
5.45817,219211
5.46628,230739
5.47440,220931
5.48253,206481
5.49065,190798
5.49878,201512
5.50690,194955
5.51502,192126
5.52315,206900
5.53127,209939
5.53940,201792
5.54752,200349
5.55563,199596
5.56377,222418
5.57188,259400
5.58002,285379
5.58813,293855
5.59625,271766
5.60438,225582
5.61250,215458
5.62062,193003
5.62875,198738
5.63687,196322
5.64500,208179
5.65312,200630
5.66123,202048
5.66937,190118
5.67748,192318
5.68562,227876
5.69373,276672
5.70185,332582
5.70998,318891
5.71810,294015
5.72622,257161
5.73435,236844
5.74247,198222
5.75060,192437
5.75872,181252
5.76683,172636
5.77497,173712
5.78308,175280
5.79122,170998
5.79933,165348
5.80745,158534
5.81558,157313
5.82370,162354
5.83183,164567
5.83995,168207
5.84807,166725
5.85620,162580
5.86432,159812
5.87243,160768
5.88057,158261
5.88868,156264
5.89682,152777
5.90493,148594
5.91305,151204
5.92118,138827
5.92930,137339
5.93743,138633
5.94555,135818
5.95367,139745
5.96180,163762
5.96992,220126
5.97803,297243
5.98617,408624
5.99428,458426
6.00242,447306
6.01053,396110
6.01865,319798
6.02678,256270
6.03490,224959
6.04303,189588
6.05115,169584
6.05927,159900
6.06740,149002
6.07552,153993
6.08365,144424
6.09177,143125
6.09988,134888
6.10802,131759
6.11613,134957
6.12425,144232
6.13238,187368
6.14050,273935
6.14863,389843
6.15675,445934
6.16487,406017
6.17300,326486
6.18112,257894
6.18925,225939
6.19737,202205
6.20548,184109
6.21362,180157
6.22173,172398
6.22985,169943
6.23798,175392
6.24610,170787
6.25423,172757
6.26235,175655
6.27047,177329
6.27860,174859
6.28672,173751
6.29485,181152
6.30297,164528
6.31108,186475
6.31922,177256
6.32733,196458
6.33547,209598
6.34358,237704
6.35170,259976
6.35983,243468
6.36795,217897
6.37607,200266
6.38420,189553
6.39232,188485
6.40045,187401
6.40857,183451
6.41668,187013
6.42482,185301
6.43293,178034
6.44107,189497
6.44918,191650
6.45730,192815
6.46543,197705
6.47355,203864
6.48168,200583
6.48980,195039
6.49792,199547
6.50605,206406
6.51417,203168
6.52228,195189
6.53042,203687
6.53853,206634
6.54667,193998
6.55478,202710
6.56290,206428
6.57103,229471
6.57915,249000
6.58728,268455
6.59540,274200
6.60352,265875
6.61165,239981
6.61977,224980
6.62790,221840
6.63602,214205
6.64413,219237
6.65227,241296
6.66038,286833
6.66850,399842
6.67663,483761
6.68475,465321
6.69288,391078
6.70100,286559
6.70912,207642
6.71725,178680
6.72537,166634
6.73350,157538
6.74162,159274
6.74973,144838
6.75787,136646
6.76598,132201
6.77410,129314
6.78223,133641
6.79035,128687
6.79848,126856
6.80660,128180
6.81472,121538
6.82285,119802
6.83097,121736
6.83910,114463
6.84722,123796
6.85533,125534
6.86347,125174
6.87158,124373
6.87972,120968
6.88783,109180
6.89595,106347
6.90408,97436
6.91220,90723
6.92032,91856
6.92845,85453
6.93657,94737
6.94470,89689
6.95282,85492
6.96093,96005
6.96907,111451
6.97718,124668
6.98532,149739
6.99343,161827
7.00155,147924
7.00968,134550
7.01780,118894
7.02592,100628
7.03405,91683
7.04217,97881
7.05030,94612
7.05842,87965
7.06653,99962
7.07467,94300
7.08278,96899
7.09092,92350
7.09903,89232
7.10715,92199
7.11528,85611
7.12340,82475
7.13153,81370
7.13965,84085
7.14777,113004
7.15590,138549
7.16402,182136
7.17213,213212
7.18027,214083
7.18838,186442
7.19652,191925
7.20463,316600
7.21275,764655
7.22088,1551083
7.22900,2321254
7.23713,2514139
7.24525,2042061
7.25337,1281880
7.26150,762377
7.26962,423942
7.27775,234644
7.28587,156805
7.29398,116978
7.30212,108867
7.31023,104571
7.31835,105717
7.32648,102074
7.33460,108541
7.34273,114041
7.35085,120789
7.35897,113573
7.36710,104796
7.37522,105651
7.38335,96478
7.39147,92714
7.39958,92810
7.40772,89279
7.41583,94022
7.42395,96242
7.43208,91269
7.44020,90648
7.44833,91036
7.45645,89946
7.46457,88641
7.47270,91516
7.48082,89417
7.48895,82272
7.49707,78483
7.50518,84110
7.51332,77385
7.52143,82395
7.52957,90176
7.53768,117558
7.54580,160970
7.55393,266232
7.56205,360826
7.57017,464348
7.57830,510131
7.58642,457535
7.59455,381102
7.60267,292426
7.61078,215635
7.61892,161723
7.62703,125678
7.63517,113533
7.64328,99737
7.65140,94973
7.65953,90397
7.66765,82043
7.67578,72786
7.68390,75413
7.69202,72861
7.70015,77217
7.70827,73548
7.71638,74523
7.72452,80816
7.73263,72725
7.74077,78172
7.74888,79257
7.75700,79712
7.76513,81858
7.77325,79813
7.78138,81621
7.78950,83815
7.79762,84431
7.80575,87715
7.81387,93098
7.82198,98147
7.83012,93997
7.83823,85126
7.84637,78854
7.85448,72554
7.86260,73645
7.87073,69983
7.87885,75375
7.88698,77212
7.89510,81485
7.90322,95843
7.91135,95010
7.91947,93162
7.92760,116242
7.93572,149262
7.94383,213567
7.95197,271488
7.96008,297815
7.96820,266778
7.97633,219047
7.98445,159520
7.99258,115056
8.00070,98780
8.00882,82637
8.01695,77489
8.02507,72774
8.03320,71172
8.04132,73996
8.04943,70123
8.05757,66857
8.06568,70385
8.07380,66297
8.08193,69742
8.09005,62732
8.09818,72890
8.10630,69760
8.11442,73536
8.12255,69071
8.13067,65431
8.13880,70681
8.14692,89300
8.15503,99747
8.16317,99242
8.17128,99543
8.17942,95134
8.18753,90411
8.19565,73829
8.20378,70321
8.21190,67394
8.22002,65637
8.22815,69528
8.23627,61460
8.24440,58389
8.25252,61309
8.26063,57881
8.26877,57863
8.27688,60394
8.28502,56758
8.29313,55785
8.30125,68343
8.30938,62750
8.31750,67221
8.32563,70291
8.33375,74355
8.34187,75254
8.35000,72383
8.35812,68681
8.36623,67700
8.37437,67578
8.38248,69340
8.39062,71208
8.39873,62914
8.40685,65218
8.41498,63425
8.42310,58500
8.43123,59795
8.43935,61388
8.44747,63253
8.45560,57086
8.46372,56586
8.47183,61822
8.47997,62135
8.48808,56124
8.49622,56678
8.50433,60136
8.51245,65712
8.52058,115713
8.52870,238103
8.53683,509167
8.54495,859494
8.55307,1111837
8.56120,1065413
8.56932,777783
8.57745,462976
8.58557,251723
8.59368,170593
8.60182,128715
8.60993,121345
8.61805,119433
8.62618,112292
8.63430,108313
8.64243,105277
8.65055,100511
8.65867,90240
8.66680,88581
8.67492,86554
8.68305,84524
8.69117,85310
8.69928,85198
8.70742,78876
8.71553,78654
8.72367,79934
8.73178,71555
8.73990,72431
8.74803,78817
8.75615,76649
8.76427,70595
8.77240,103406
8.78052,168320
8.78865,294018
8.79677,456435
8.80488,551729
8.81302,528675
8.82113,443602
8.82927,325235
8.83738,239646
8.84550,203571
8.85363,182229
8.86175,174689
8.86987,159494
8.87800,152347
8.88612,145048
8.89425,135993
8.90237,134457
8.91048,128074
8.91862,124255
8.92673,125705
8.93487,130786
8.94298,147761
8.95110,163592
8.95923,167187
8.96735,146809
8.97548,133075
8.98360,122017
8.99172,126971
8.99985,120932
9.00797,114439
9.01608,115302
9.02422,107699
9.03233,99364
9.04047,101761
9.04858,90755
9.05670,86666
9.06483,87500
9.07295,95313
9.08108,91391
9.08920,91823
9.09732,86693
9.10545,95010
9.11357,99881
9.12170,107042
9.12982,114313
9.13793,111912
9.14607,109981
9.15418,101543
9.16230,96020
9.17043,95757
9.17855,85847
9.18668,87455
9.19480,82644
9.20292,87775
9.21105,86423
9.21917,81570
9.22730,79930
9.23542,83239
9.24353,82589
9.25167,77614
9.25978,81097
9.26790,76384
9.27603,81567
9.28415,75060
9.29228,76381
9.30040,72958
9.30852,80176
9.31665,72732
9.32477,69474
9.33290,68173
9.34102,69806
9.34913,74083
9.35727,73020
9.36538,68228
9.37352,69957
9.38163,66105
9.38975,66963
9.39788,71241
9.40600,70689
9.41412,76114
9.42225,79164
9.43037,86955
9.43850,95578
9.44662,101899
9.45473,106511
9.46287,102914
9.47098,98661
9.47912,89378
9.48723,80840
9.49535,75144
9.50348,74294
9.51160,83847
9.51972,100959
9.52785,123162
9.53597,142911
9.54410,132967
9.55222,127941
9.56033,117316
9.56847,96424
9.57658,81459
9.58472,73158
9.59283,67901
9.60095,62604
9.60908,59876
9.61720,61681
9.62533,62718
9.63345,55991
9.64157,59920
9.64970,56817
9.65782,55667
9.66593,52042
9.67407,51288
9.68218,48126
9.69032,47923
9.69843,46845
9.70655,50460
9.71468,50229
9.72280,49579
9.73093,51314
9.73905,46575
9.74717,50273
9.75530,51431
9.76342,49513
9.77155,46322
9.77967,43032
9.78778,47647
9.79592,45737
9.80403,49788
9.81215,47536
9.82028,45521
9.82840,45626
9.83653,46079
9.84465,47130
9.85277,45003
9.86090,51801
9.86902,49836
9.87715,53282
9.88527,47832
9.89338,53086
9.90152,53451
9.90963,42831
9.91775,46992
9.92588,47186
9.93400,52778
9.94213,61109
9.95025,79284
9.95837,101617
9.96650,114196
9.97462,128657
9.98275,112148
9.99087,100802
9.99898,84040
10.00712,72131
10.01523,67593
10.02337,64673
10.03148,65909
10.03960,69587
10.04773,57923
10.05585,60765
10.06397,60802
10.07210,56135
10.08022,58060
10.08835,59058
10.09647,59395
10.10458,63130
10.11272,57908
10.12083,58083
10.12897,57471
10.13708,55404
10.14520,52552
10.15333,48245
10.16145,52188
10.16958,56958
10.17770,47745
10.18582,48479
10.19395,49806
10.20207,50615
10.21018,50351
10.21832,46447
10.22643,46771
10.23457,48967
10.24268,52452
10.25080,61715
10.25893,72831
10.26705,133171
10.27518,305416
10.28330,774308
10.29142,1568559
10.29955,2766736
10.30767,4203293
10.31578,6243711
10.32392,9503501
10.33203,1.43933E+07
10.34017,1.978018E+07
10.34828,2.251795E+07
10.35640,2.061224E+07
10.36453,1.466025E+07
10.37265,8018002
10.38078,3729697
10.38890,1971872
10.39702,1253766
10.40515,914117
10.41327,745268
10.42140,590469
10.42952,489833
10.43763,435632
10.44577,378872
10.45388,366433
10.46200,332361
10.47013,296046
10.47825,274253
10.48638,269052
10.49450,243462
10.50262,228613
10.51075,214181
10.51887,209140
10.52700,196507
10.53512,190443
10.54323,188903
10.55137,187488
10.55948,181767
10.56760,172462
10.57573,164738
10.58385,163879
10.59198,151685
10.60010,147041
10.60822,143353
10.61635,132521
10.62447,134800
10.63260,122297
10.64072,122567
10.64883,117701
10.65697,116460
10.66508,104011
10.67322,109553
10.68133,111200
10.68945,106844
10.69758,108060
10.70570,112833
10.71382,107041
10.72195,108104
10.73007,102147
10.73820,108808
10.74632,101210
10.75443,105738
10.76257,103025
10.77068,94943
10.77882,96831
10.78693,102193
10.79505,87483
10.80318,88156
10.81130,84548
10.81943,88976
10.82755,83925
10.83567,83781
10.84380,79527
10.85192,78558
10.86003,73150
10.86817,73135
10.87628,73208
10.88442,75000
10.89253,71575
10.90065,70827
10.90878,70496
10.91690,65863
10.92503,69268
10.93315,67198
10.94127,66712
10.94940,70429
10.95752,64841
10.96563,68359
10.97377,67916
10.98188,67218
10.99002,66305
10.99813,66155
11.00625,63638
11.01438,68994
11.02250,63613
11.03063,63984
11.03875,61491
11.04687,60174
11.05500,58530
11.06312,55316
11.07125,58661
11.07937,58578
11.08748,62827
11.09562,63914
11.10373,66071
11.11185,63203
11.11998,58538
11.12810,58845
11.13623,54711
11.14435,52963
11.15247,50697
11.16060,50158
11.16872,52618
11.17685,57514
11.18497,52175
11.19308,50723
11.20122,54438
11.20933,53328
11.21747,58720
11.22558,54699
11.23370,50479
11.24183,46946
11.24995,47183
11.25807,45789
11.26620,44102
11.27432,47973
11.28245,45191
11.29057,45956
11.29868,46914
11.30682,53416
11.31493,65940
11.32307,89586
11.33118,132523
11.33930,188808
11.34743,251675
11.35555,280661
11.36367,276207
11.37180,249931
11.37992,190249
11.38805,141488
11.39617,120677
11.40428,101828
11.41242,91656
11.42053,85523
11.42867,81286
11.43678,75248
11.44490,70117
11.45303,67887
11.46115,64822
11.46928,66351
11.47740,68281
11.48552,88732
11.49365,115337
11.50177,149214
11.50988,175241
11.51802,168519
11.52613,168117
11.53427,149669
11.54238,134784
11.55050,125135
11.55863,112500
11.56675,108693
11.57488,87892
11.58300,82743
11.59112,78392
11.59925,85243
11.60737,107615
11.61548,138957
11.62362,173789
11.63173,189187
11.63987,181262
11.64798,156762
11.65610,122829
11.66423,94039
11.67235,81309
11.68048,69992
11.68860,70555
11.69672,64506
11.70485,71757
11.71297,72735
11.72110,64904
11.72922,65378
11.73733,58986
11.74547,60025
11.75358,64560
11.76170,58122
11.76983,56426
11.77795,52504
11.78608,51408
11.79420,49994
11.80232,55366
11.81045,51896
11.81857,50999
11.82670,48819
11.83482,51857
11.84293,49155
11.85107,50249
11.85918,56176
11.86732,53623
11.87543,50479
11.88355,49619
11.89168,44613
11.89980,44548
11.90792,47318
11.91605,46747
11.92417,46597
11.93230,51207
11.94042,52501
11.94853,54724
11.95667,53450
11.96478,50177
11.97292,47895
11.98103,48133
11.98915,46790
11.99728,58591
12.00540,63936
12.01353,75894
12.02165,79714
12.02977,84095
12.03790,78909
12.04602,66403
12.05413,58754
12.06227,56551
12.07038,51295
12.07852,50638
12.08663,47403
12.09475,48420
12.10288,46926
12.11100,48197
12.11913,53170
12.12725,58400
12.13537,66905
12.14350,71435
12.15162,70957
12.15973,74329
12.16787,65787
12.17598,58714
12.18412,47378
12.19223,48311
12.20035,48504
12.20848,48767
12.21660,51102
12.22473,47906
12.23285,46149
12.24097,47083
12.24910,45256
12.25722,47208
12.26535,46079
12.27347,45931
12.28158,45336
12.28972,46023
12.29783,44221
12.30595,46089
12.31408,42200
12.32220,44527
12.33033,41349
12.33845,43803
12.34657,40741
12.35470,41253
12.36282,45350
12.37095,46852
12.37907,45329
12.38718,46629
12.39532,42702
12.40343,53976
12.41155,54720
12.41968,70799
12.42780,92582
12.43593,102374
12.44405,101248
12.45217,97094
12.46030,85855
12.46842,78604
12.47655,68770
12.48467,62678
12.49278,57486
12.50092,54210
12.50903,49662
12.51717,44845
12.52528,46786
12.53340,49761
12.54153,60191
12.54965,67435
12.55777,85054
12.56590,118452
12.57402,129927
12.58215,127875
12.59027,115642
12.59838,97939
12.60652,74843
12.61463,62140
12.62277,65696
12.63088,54436
12.63900,54905
12.64713,55901
12.65525,57887
12.66338,56208
12.67150,48190
12.67962,48421
12.68775,55235
12.69587,47038
12.70398,45507
12.71212,44732
12.72023,46388
12.72837,48714
12.73648,43674
12.74460,47946
12.75273,50843
12.76085,48004
12.76898,50968
12.77710,48627
12.78522,42461
12.79335,41959
12.80147,42692
12.80958,42510
12.81772,42047
12.82583,36497
12.83397,39016
12.84208,39058
12.85020,38081
12.85833,34725
12.86645,35712
12.87458,35053
12.88270,36512
12.89082,38955
12.89895,36540
12.90707,35644
12.91520,37570
12.92332,34122
12.93143,33445
12.93957,38337
12.94768,37870
12.95580,35488
12.96393,39965
12.97205,38314
12.98018,46241
12.98830,47524
12.99642,51287
13.00455,46441
13.01267,44016
13.02080,40704
13.02892,41714
13.03703,44180
13.04517,38497
13.05328,38174
13.06142,41259
13.06953,41500
13.07765,35921
13.08578,42151
13.09390,39491
13.10202,40727
13.11015,42152
13.11827,42499
13.12640,39214
13.13452,45311
13.14263,39041
13.15077,39010
13.15888,40764
13.16702,41191
13.17513,41876
13.18325,41368
13.19138,49690
13.19950,45310
13.20762,44411
13.21575,43804
13.22387,46209
13.23200,47902
13.24012,44751
13.24823,44841
13.25637,44238
13.26448,41747
13.27262,41128
13.28073,39888
13.28885,40385
13.29698,39220
13.30510,35682
13.31323,36141
13.32135,33669
13.32947,40043
13.33760,33407
13.34572,34686
13.35383,33112
13.36197,38528
13.37008,33785
13.37822,38493
13.38633,36335
13.39445,37687
13.40258,35567
13.41070,35403
13.41883,34277
13.42695,36672
13.43507,36507
13.44320,35429
13.45132,40895
13.45943,34745
13.46757,36088
13.47568,37361
13.48382,34340
13.49193,33310
13.50005,34660
13.50818,38195
13.51630,41030
13.52443,43874
13.53255,36668
13.54067,42048
13.54880,36027
13.55692,40844
13.56505,38922
13.57317,36973
13.58128,37922
13.58942,41111
13.59753,42267
13.60565,41612
13.61378,46559
13.62190,50441
13.63003,55686
13.63815,52607
13.64627,52393
13.65440,47385
13.66252,44010
13.67065,37215
13.67877,41545
13.68688,36512
13.69502,36310
13.70313,36223
13.71127,32079
13.71938,33825
13.72750,34649
13.73563,33599
13.74375,39736
13.75187,45457
13.76000,57080
13.76812,77533
13.77625,116378
13.78437,168859
13.79248,220010
13.80062,267530
13.80873,303044
13.81687,302998
13.82498,273349
13.83310,242146
13.84123,212750
13.84935,212961
13.85747,193959
13.86560,176193
13.87372,141757
13.88185,120031
13.88997,99921
13.89808,81577
13.90622,74795
13.91433,67354
13.92247,65540
13.93058,60887
13.93870,59881
13.94683,55671
13.95495,58404
13.96308,68510
13.97120,79088
13.97932,103273
13.98745,129258
13.99557,166173
14.00368,155306
14.01182,146610
14.01993,129074
14.02807,96414
14.03618,85826
14.04430,74700
14.05243,62116
14.06055,66185
14.06868,63816
14.07680,64727
14.08492,64101
14.09305,56106
14.10117,58059
14.10930,54413
14.11742,54054
14.12553,51475
14.13367,49102
14.14178,52728
14.14990,52958
14.15803,55900
14.16615,54274
14.17428,60229
14.18240,60949
14.19052,64549
14.19865,61465
14.20677,80337
14.21490,101408
14.22302,126821
14.23113,143890
14.23927,153532
14.24738,147423
14.25550,147200
14.26363,143489
14.27175,139532
14.27988,127495
14.28800,111326
14.29612,98034
14.30425,95136
14.31237,76492
14.32050,80495
14.32862,77756
14.33673,72954
14.34487,72853
14.35298,75567
14.36112,87991
14.36923,74377
14.37735,71183
14.38548,67888
14.39360,66399
14.40172,56187
14.40985,55500
14.41797,70346
14.42610,69604
14.43422,74368
14.44233,71111
14.45047,69863
14.45858,62238
14.46672,53795
14.47483,54345
14.48295,47011
14.49108,46511
14.49920,45332
14.50733,44834
14.51545,54128
14.52357,51321
14.53170,48123
14.53982,44984
14.54793,47581
14.55607,44887
14.56418,47882
14.57232,38897
14.58043,37128
14.58855,41640
14.59668,37090
14.60480,40556
14.61293,40269
14.62105,42346
14.62917,39280
14.63730,37595
14.64542,38232
14.65353,38519
14.66167,37251
14.66978,37171
14.67792,34892
14.68603,34030
14.69415,34220
14.70228,34676
14.71040,37519
14.71853,38965
14.72665,39872
14.73477,39318
14.74290,38073
14.75102,37889
14.75915,41082
14.76727,39744
14.77538,44308
14.78352,42915
14.79163,48821
14.79975,94044
14.80788,229436
14.81600,602759
14.82413,1432221
14.83225,2677804
14.84037,3969889
14.84850,4597576
14.85662,4292654
14.86475,3377336
14.87287,2180630
14.88098,1336564
14.88912,837345
14.89723,576321
14.90535,428973
14.91348,363136
14.92160,314431
14.92973,275443
14.93785,257056
14.94597,227203
14.95410,203878
14.96222,191586
14.97035,176781
14.97847,172328
14.98658,162991
14.99472,150272
15.00283,153856
15.01097,144648
15.01908,133200
15.02720,126667
15.03533,120778
15.04345,117751
15.05157,109144
15.05970,106948
15.06782,104341
15.07595,103019
15.08407,103647
15.09218,94774
15.10032,92939
15.10843,88707
15.11657,90357
15.12468,88741
15.13280,97661
15.14093,103642
15.14905,118118
15.15718,125483
15.16530,132404
15.17342,115801
15.18155,95748
15.18967,83507
15.19778,74560
15.20592,67547
15.21403,61294
15.22217,62247
15.23028,55199
15.23840,50379
15.24653,51885
15.25465,54821
15.26278,48200
15.27090,48577
15.27902,48075
15.28715,46509
15.29527,45961
15.30338,48071
15.31152,46690
15.31963,48016
15.32777,42055
15.33588,51745
15.34400,41938
15.35213,45271
15.36025,42648
15.36838,45113
15.37650,49389
15.38462,44399
15.39275,48324
15.40087,45160
15.40900,47551
15.41712,43996
15.42523,42809
15.43337,46785
15.44148,41313
15.44960,41146
15.45773,41488
15.46585,41126
15.47398,41448
15.48210,45905
15.49022,55019
15.49835,57705
15.50647,71527
15.51460,83248
15.52272,83625
15.53083,77854
15.53897,76103
15.54708,71464
15.55522,64185
15.56333,54590
15.57145,51025
15.57958,46038
15.58770,49957
15.59582,48025
15.60395,41749
15.61207,48129
15.62020,47526
15.62832,42885
15.63643,43706
15.64457,43140
15.65268,43997
15.66082,48123
15.66893,42859
15.67705,47111
15.68518,46208
15.69330,43701
15.70142,39019
15.70955,41232
15.71767,37811
15.72580,38141
15.73392,38702
15.74203,42744
15.75017,42607
15.75828,53326
15.76642,86456
15.77453,153658
15.78265,284611
15.79078,456804
15.79890,631635
15.80703,712098
15.81515,624290
15.82327,476115
15.83140,321191
15.83952,209157
15.84763,149475
15.85577,124553
15.86388,104274
15.87202,95425
15.88013,91904
15.88825,96002
15.89638,99872
15.90450,102250
15.91263,103752
15.92075,89536
15.92887,88245
15.93700,78552
15.94512,75598
15.95323,69788
15.96137,68241
15.96948,64672
15.97762,73685
15.98573,72153
15.99385,84755
16.00198,80094
16.01010,79632
16.01823,73839
16.02635,76513
16.03447,80873
16.04260,75589
16.05072,72942
16.05885,69909
16.06697,60243
16.07508,61455
16.08322,62847
16.09133,55380
16.09945,51549
16.10758,52157
16.11570,50810
16.12383,48804
16.13195,53975
16.14007,50789
16.14820,51772
16.15632,57589
16.16445,56108
16.17257,52130
16.18068,54075
16.18882,51886
16.19693,47808
16.20507,48553
16.21318,44664
16.22130,45508
16.22943,49773
16.23755,49379
16.24567,45826
16.25380,51173
16.26192,45159
16.27005,46974
16.27817,45296
16.28628,47375
16.29442,50284
16.30253,51081
16.31067,52896
16.31878,49353
16.32690,48414
16.33503,51344
16.34315,46613
16.35128,55214
16.35940,57277
16.36752,65818
16.37565,77218
16.38377,89598
16.39188,94039
16.40002,88514
16.40813,81558
16.41627,75476
16.42438,62302
16.43250,58938
16.44063,59710
16.44875,63479
16.45688,90146
16.46500,146951
16.47312,281561
16.48125,516274
16.48937,785444
16.49748,967633
16.50562,934138
16.51373,733534
16.52187,510354
16.52998,325389
16.53810,199589
16.54623,158631
16.55435,125208
16.56248,103345
16.57060,94819
16.57872,99849
16.58685,85259
16.59497,82761
16.60310,80161
16.61122,83780
16.61933,84278
16.62747,85332
16.63558,79630
16.64370,77606
16.65183,72977
16.65995,72553
16.66808,68575
16.67620,64266
16.68432,56763
16.69245,59909
16.70057,57170
16.70870,52841
16.71682,58364
16.72493,51157
16.73307,48381
16.74118,49983
16.74930,52580
16.75743,53892
16.76555,50008
16.77368,59786
16.78180,60789
16.78992,60244
16.79805,53771
16.80617,55538
16.81430,45209
16.82242,53818
16.83053,42193
16.83867,45343
16.84678,47489
16.85492,40349
16.86303,40917
16.87115,43097
16.87928,36929
16.88740,40821
16.89552,43322
16.90365,39575
16.91177,39677
16.91990,39129
16.92802,40567
16.93613,38595
16.94427,43067
16.95238,40766
16.96052,43445
16.96863,42359
16.97675,42285
16.98488,41721
16.99300,41003
17.00113,41602
17.00925,44093
17.01737,39056
17.02550,38325
17.03362,39543
17.04173,42987
17.04987,43955
17.05798,52491
17.06612,53942
17.07423,54240
17.08235,51514
17.09048,54278
17.09860,49349
17.10673,48817
17.11485,50652
17.12297,49706
17.13110,53806
17.13922,54581
17.14733,51261
17.15547,49036
17.16358,50618
17.17172,46001
17.17983,46529
17.18795,42929
17.19608,37254
17.20420,40723
17.21233,41430
17.22045,44840
17.22857,43069
17.23670,45058
17.24482,44688
17.25295,45403
17.26107,44961
17.26918,45463
17.27732,48627
17.28543,45452
17.29355,47181
17.30168,43486
17.30980,42665
17.31793,42192
17.32605,46581
17.33417,46753
17.34230,47169
17.35042,48156
17.35855,51800
17.36667,55696
17.37478,54484
17.38292,54429
17.39103,52228
17.39917,53796
17.40728,50775
17.41540,49860
17.42353,51567
17.43165,44710
17.43977,50486
17.44790,47558
17.45602,46125
17.46415,46705
17.47227,45876
17.48038,45029
17.48852,47475
17.49663,42208
17.50477,40759
17.51288,40999
17.52100,41404
17.52913,42721
17.53725,43260
17.54537,39007
17.55350,46970
17.56162,50886
17.56975,70939
17.57787,110946
17.58598,194849
17.59412,363966
17.60223,616125
17.61037,936935
17.61848,1178576
17.62660,1206929
17.63473,1064541
17.64285,812527
17.65098,594085
17.65910,433530
17.66722,367102
17.67535,337060
17.68347,320172
17.69158,284257
17.69972,250770
17.70783,202062
17.71597,168376
17.72408,139568
17.73220,118868
17.74033,103867
17.74845,99585
17.75658,88028
17.76470,89284
17.77282,84659
17.78095,79797
17.78907,79871
17.79718,69745
17.80532,66976
17.81343,70279
17.82157,65960
17.82968,68360
17.83780,71276
17.84593,76153
17.85405,72258
17.86218,73505
17.87030,82096
17.87842,81275
17.88655,83318
17.89467,79552
17.90280,72785
17.91092,60707
17.91903,59897
17.92717,63963
17.93528,55641
17.94340,51869
17.95153,46997
17.95965,49775
17.96778,49299
17.97590,48985
17.98402,46586
17.99215,45068
18.00027,48225
18.00840,48825
18.01652,48959
18.02463,54152
18.03277,63654
18.04088,84749
18.04902,93165
18.05713,99908
18.06525,109350
18.07338,115511
18.08150,161153
18.08962,231069
18.09775,330668
18.10587,432070
18.11400,452718
18.12212,424535
18.13023,341517
18.13837,265994
18.14648,226888
18.15462,188459
18.16273,163215
18.17085,155050
18.17898,139673
18.18710,129097
18.19522,127147
18.20335,119871
18.21147,109945
18.21960,100498
18.22772,103381
18.23583,97624
18.24397,89249
18.25208,86502
18.26022,83086
18.26833,78244
18.27645,79890
18.28458,73507
18.29270,68399
18.30083,62764
18.30895,59632
18.31707,52817
18.32520,57530
18.33332,51346
18.34143,49552
18.34957,46147
18.35768,40825
18.36582,45058
18.37393,44475
18.38205,46621
18.39018,47809
18.39830,46109
18.40643,44883
18.41455,45240
18.42267,48494
18.43080,44886
18.43892,53189
18.44705,60790
18.45517,78927
18.46328,114733
18.47142,180925
18.47953,265358
18.48765,358213
18.49578,436083
18.50390,452078
18.51203,403491
18.52015,322074
18.52827,228000
18.53640,159521
18.54452,123354
18.55265,96626
18.56077,90742
18.56888,74731
18.57702,71017
18.58513,69326
18.59325,63814
18.60138,64245
18.60950,61104
18.61763,57587
18.62575,58596
18.63387,60102
18.64200,57248
18.65012,57362
18.65825,50502
18.66637,50739
18.67448,45664
18.68262,50406
18.69073,52114
18.69887,47038
18.70698,45289
18.71510,48301
18.72323,56291
18.73135,83816
18.73947,128891
18.74760,169890
18.75572,187462
18.76385,206492
18.77197,209324
18.78008,218617
18.78822,229225
18.79633,229890
18.80447,225976
18.81258,236570
18.82070,239588
18.82883,229083
18.83695,235518
18.84508,232709
18.85320,236455
18.86132,234966
18.86945,237095
18.87757,239488
18.88568,242239
18.89382,230081
18.90193,236027
18.91007,234288
18.91818,232221
18.92630,229720
18.93443,234965
18.94255,226837
18.95068,245930
18.95880,241238
18.96692,256473
18.97505,253005
18.98317,245045
18.99128,233360
18.99942,230764
19.00753,233945
19.01567,220467
19.02378,216938
19.03190,218329
19.04003,216732
19.04815,211837
19.05628,214067
19.06440,216240
19.07252,210319
19.08065,212088
19.08877,212252
19.09690,225173
19.10502,248442
19.11313,249039
19.12127,270835
19.12938,265735
19.13750,253095
19.14563,249148
19.15375,233975
19.16188,231689
19.17000,221109
19.17812,215653
19.18625,213128
19.19437,218680
19.20250,203723
19.21062,208315
19.21873,221098
19.22687,195822
19.23498,195253
19.24310,195618
19.25123,186235
19.25935,187936
19.26748,190497
19.27560,184378
19.28372,184986
19.29185,192136
19.29997,191344
19.30810,197573
19.31622,189709
19.32433,187734
19.33247,194398
19.34058,184444
19.34872,188298
19.35683,188001
19.36495,192982
19.37308,200659
19.38120,217155
19.38932,229373
19.39745,232643
19.40557,222715
19.41370,207156
19.42182,192458
19.42993,173109
19.43807,176803
19.44618,168829
19.45432,163620
19.46243,157572
19.47055,163431
19.47868,163818
19.48680,156274
19.49493,158234
19.50305,171275
19.51117,177893
19.51930,201527
19.52742,210621
19.53553,220743
19.54367,214819
19.55178,208455
19.55992,191185
19.56803,183843
19.57615,161017
19.58428,162233
19.59240,145724
19.60053,144500
19.60865,145205
19.61677,138592
19.62490,142428
19.63302,142727
19.64113,145522
19.64927,167020
19.65738,216493
19.66552,275673
19.67363,349673
19.68175,455433
19.68988,512112
19.69800,497831
19.70613,481654
19.71425,429928
19.72237,362821
19.73050,320385
19.73862,274356
19.74675,239965
19.75487,222805
19.76298,199981
19.77112,189894
19.77923,170890
19.78735,169819
19.79548,167830
19.80360,176454
19.81173,172489
19.81985,178971
19.82797,173629
19.83610,173622
19.84422,163199
19.85235,150879
19.86047,173681
19.86858,271509
19.87672,535214
19.88483,1083095
19.89297,2071002
19.90108,3485178
19.90920,4909541
19.91733,5618757
19.92545,5701777
19.93357,5052089
19.94170,4227106
19.94982,3397247
19.95795,2779985
19.96607,2424209
19.97418,2167044
19.98232,1964365
19.99043,1831043
19.99857,1775146
20.00668,1632931
20.01480,1564710
20.02293,1449507
20.03105,1396436
20.03917,1307981
20.04730,1218657
20.05542,1059276
20.06355,911414
20.07167,709985
20.07978,560536
20.08792,448280
20.09603,380166
20.10417,335121
20.11228,314610
20.12040,297445
20.12853,269566
20.13665,275849
20.14478,264648
20.15290,250033
20.16102,260875
20.16915,265405
20.17727,267958
20.18538,290388
20.19352,290067
20.20163,292297
20.20977,298099
20.21788,291594
20.22600,279144
20.23413,263826
20.24225,244556
20.25038,239758
20.25850,248120
20.26662,278795
20.27475,326597
20.28287,386473
20.29098,461598
20.29912,504396
20.30723,504557
20.31537,465894
20.32348,395401
20.33160,325564
20.33973,273713
20.34785,217699
20.35598,187243
20.36410,160265
20.37222,145918
20.38035,136675
20.38847,125211
20.39660,119968
20.40472,112947
20.41283,112372
20.42097,113278
20.42908,121739
20.43720,124882
20.44533,130406
20.45345,147249
20.46158,150576
20.46970,156322
20.47782,150076
20.48595,139931
20.49407,126589
20.50220,118486
20.51032,115519
20.51843,113584
20.52657,106212
20.53468,101932
20.54282,99371
20.55093,96027
20.55905,96134
20.56718,96282
20.57530,96967
20.58342,90521
20.59155,95981
20.59967,93840
20.60780,89533
20.61592,87755
20.62403,89941
20.63217,89502
20.64028,86951
20.64842,94393
20.65653,86687
20.66465,86311
20.67278,90297
20.68090,92454
20.68903,86838
20.69715,92822
20.70527,85799
20.71340,84891
20.72152,83328
20.72963,80611
20.73777,88272
20.74588,82704
20.75402,83005
20.76213,82512
20.77025,82216
20.77838,88640
20.78650,91611
20.79463,97299
20.80275,115868
20.81087,144400
20.81900,191839
20.82712,221468
20.83523,246788
20.84337,226977
20.85148,209197
20.85962,162017
20.86773,130843
20.87585,109719
20.88398,102216
20.89210,90437
20.90023,92251
20.90835,88748
20.91647,86272
20.92460,82811
20.93272,80067
20.94085,81925
20.94897,82998
20.95708,79255
20.96522,74724
20.97333,76271
20.98145,74365
20.98958,76282
20.99770,76066
21.00583,73955
21.01395,72654
21.02207,75219
21.03020,66425
21.03832,71485
21.04645,75846
21.05457,77156
21.06268,76059
21.07082,73355
21.07893,77596
21.08705,76301
21.09518,75499
21.10330,79187
21.11143,74477
21.11955,84264
21.12767,74832
21.13580,83191
21.14392,85822
21.15205,103144
21.16017,129030
21.16828,152102
21.17642,172282
21.18453,175105
21.19267,161841
21.20078,144616
21.20890,122807
21.21703,106161
21.22515,95640
21.23327,92663
21.24140,92193
21.24952,87486
21.25765,85808
21.26577,86959
21.27388,82988
21.28202,81154
21.29013,75455
21.29827,77401
21.30638,78528
21.31450,71421
21.32263,76956
21.33075,77864
21.33887,75752
21.34700,75828
21.35512,77206
21.36325,75255
21.37137,72471
21.37948,76949
21.38762,75053
21.39573,72084
21.40387,76455
21.41198,80499
21.42010,82358
21.42823,86241
21.43635,88761
21.44448,89426
21.45260,85284
21.46072,84582
21.46885,78747
21.47697,73407
21.48508,68488
21.49322,69721
21.50133,68498
21.50947,68335
21.51758,66666
21.52570,63416
21.53383,71378
21.54195,67664
21.55008,70637
21.55820,62128
21.56632,63448
21.57445,63669
21.58257,67299
21.59070,73739
21.59882,75126
21.60693,82505
21.61507,79524
21.62318,81086
21.63130,83974
21.63943,82155
21.64755,91914
21.65568,99160
21.66380,95788
21.67192,105780
21.68005,110911
21.68817,99558
21.69630,85069
21.70442,81851
21.71253,76913
21.72067,67183
21.72878,65198
21.73692,63195
21.74503,55691
21.75315,56609
21.76128,54746
21.76940,56710
21.77752,53404
21.78565,55458
21.79377,58535
21.80190,51361
21.81002,49935
21.81813,57318
21.82627,54524
21.83438,71342
21.84252,74403
21.85063,82324
21.85875,84995
21.86688,92530
21.87500,95006
21.88312,84709
21.89125,76116
21.89937,68112
21.90750,63564
21.91562,59721
21.92373,55829
21.93187,52584
21.93998,55614
21.94812,49392
21.95623,49328
21.96435,47062
21.97248,50373
21.98060,46600
21.98873,43919
21.99685,44640
22.00497,45104
22.01310,45952
22.02122,42316
22.02933,40129
22.03747,48579
22.04558,46405
22.05372,50833
22.06183,52112
22.06995,44275
22.07808,41066
22.08620,49072
22.09433,47686
22.10245,44366
22.11057,46805
22.11870,41372
22.12682,49667
22.13493,45518
22.14307,41492
22.15118,43030
22.15932,42584
22.16743,44262
22.17555,45461
22.18368,44125
22.19180,46626
22.19993,44577
22.20805,44974
22.21617,39684
22.22430,42803
22.23242,46076
22.24055,48302
22.24867,49010
22.25678,53081
22.26492,53273
22.27303,46003
22.28115,48352
22.28928,49979
22.29740,51446
22.30553,59141
22.31365,65016
22.32177,72496
22.32990,86118
22.33802,101969
22.34615,118203
22.35427,118435
22.36238,118535
22.37052,101859
22.37863,88941
22.38677,82076
22.39488,87127
22.40300,100403
22.41113,112073
22.41925,131408
22.42737,150301
22.43550,161881
22.44362,152084
22.45175,145487
22.45987,133443
22.46798,125013
22.47612,122092
22.48423,117344
22.49237,121726
22.50048,122158
22.50860,124436
22.51673,134035
22.52485,123942
22.53297,125614
22.54110,118372
22.54922,122437
22.55735,117330
22.56547,115218
22.57358,119414
22.58172,112764
22.58983,104059
22.59797,105921
22.60608,101514
22.61420,102618
22.62233,100432
22.63045,104044
22.63858,101707
22.64670,97014
22.65482,111543
22.66295,100315
22.67107,102121
22.67918,100825
22.68732,103505
22.69543,110217
22.70357,121475
22.71168,127127
22.71980,129497
22.72793,146972
22.73605,146379
22.74418,143808
22.75230,131872
22.76042,121892
22.76855,111900
22.77667,109886
22.78480,107922
22.79292,103718
22.80103,110304
22.80917,114064
22.81728,126807
22.82540,125747
22.83353,130619
22.84165,131524
22.84978,118604
22.85790,113807
22.86602,110904
22.87415,107740
22.88227,102194
22.89040,104685
22.89852,99104
22.90663,103434
22.91477,105941
22.92288,110508
22.93100,125035
22.93913,144659
22.94725,153560
22.95538,153043
22.96350,139830
22.97162,124758
22.97975,106661
22.98787,100520
22.99600,90629
23.00412,81112
23.01223,76473
23.02037,72927
23.02848,68959
23.03662,67370
23.04473,62420
23.05285,57017
23.06098,59291
23.06910,56832
23.07722,60067
23.08535,61698
23.09347,59194
23.10160,59191
23.10972,54525
23.11783,57729
23.12597,51665
23.13408,54780
23.14222,58921
23.15033,48387
23.15845,55209
23.16658,58798
23.17470,67940
23.18282,92338
23.19095,102048
23.19907,107342
23.20720,112590
23.21532,118073
23.22343,117690
23.23157,126358
23.23968,128354
23.24782,141351
23.25593,143068
23.26405,163185
23.27218,165609
23.28030,176335
23.28843,167843
23.29655,156774
23.30467,149152
23.31280,149168
23.32092,140047
23.32903,142207
23.33717,140988
23.34528,141510
23.35342,145326
23.36153,152602
23.36965,154977
23.37778,165811
23.38590,182380
23.39403,169900
23.40215,183125
23.41027,183106
23.41840,180204
23.42652,165268
23.43465,164365
23.44277,173177
23.45088,168409
23.45902,165553
23.46713,157920
23.47525,154311
23.48338,156738
23.49150,149054
23.49963,147140
23.50775,156753
23.51587,144654
23.52400,144928
23.53212,140206
23.54025,140037
23.54837,133691
23.55648,141311
23.56462,138505
23.57273,138520
23.58085,144050
23.58898,151763
23.59710,167284
23.60523,176203
23.61335,195807
23.62147,193274
23.62960,190274
23.63772,184630
23.64585,212167
23.65397,254756
23.66208,339864
23.67022,440436
23.67833,513439
23.68647,542275
23.69458,507030
23.70270,423442
23.71083,339211
23.71895,269829
23.72707,223053
23.73520,195624
23.74332,182141
23.75145,158365
23.75957,165066
23.76768,239559
23.77582,404033
23.78393,757171
23.79207,1242579
23.80018,1797101
23.80830,2198756
23.81643,2283153
23.82455,2061433
23.83268,1697432
23.84080,1258822
23.84892,984293
23.85705,755008
23.86517,618043
23.87328,500692
23.88142,422772
23.88953,382170
23.89767,331540
23.90578,310122
23.91390,295075
23.92203,283698
23.93015,285199
23.93828,278559
23.94640,258047
23.95452,248758
23.96265,227504
23.97077,224869
23.97888,213600
23.98702,202188
23.99513,194504
24.00327,187006
24.01138,195040
24.01950,201131
24.02763,231879
24.03575,285583
24.04388,354923
24.05200,373469
24.06012,360957
24.06825,314898
24.07637,254584
24.08450,206352
24.09262,185632
24.10073,161617
24.10887,161226
24.11698,146123
24.12510,143920
24.13323,146848
24.14135,153554
24.14948,159040
24.15760,170064
24.16572,169775
24.17385,170561
24.18197,160581
24.19010,152795
24.19822,152611
24.20633,150622
24.21447,139553
24.22258,144203
24.23072,137354
24.23883,144041
24.24695,131276
24.25508,132336
24.26320,122217
24.27132,115555
24.27945,113055
24.28757,114820
24.29570,111598
24.30382,119537
24.31193,109695
24.32007,101890
24.32818,96472
24.33632,92598
24.34443,93742
24.35255,89842
24.36068,87502
24.36880,85540
24.37692,78263
24.38505,77919
24.39317,84407
24.40130,86847
24.40942,98395
24.41753,97383
24.42567,109357
24.43378,102406
24.44192,91242
24.45003,82500
24.45815,76097
24.46628,74786
24.47440,75072
24.48253,69599
24.49065,73276
24.49877,80482
24.50690,74717
24.51502,79395
24.52313,86301
24.53127,91233
24.53938,100041
24.54752,107059
24.55563,113236
24.56375,107690
24.57188,108460
24.58000,104794
24.58813,106498
24.59625,106183
24.60437,94843
24.61250,85326
24.62062,85663
24.62873,84600
24.63687,82197
24.64498,86207
24.65312,85823
24.66123,80911
24.66935,78897
24.67748,73614
24.68560,68574
24.69373,72121
24.70185,68331
24.70997,62975
24.71810,61902
24.72622,68223
24.73435,61162
24.74247,63914
24.75058,59640
24.75872,61507
24.76683,60074
24.77495,64521
24.78308,64993
24.79120,66576
24.79933,71752
24.80745,74181
24.81557,73191
24.82370,85556
24.83182,104965
24.83995,136473
24.84807,169344
24.85618,208758
24.86432,256571
24.87243,286888
24.88057,356548
24.88868,429057
24.89680,498375
24.90493,555901
24.91305,578097
24.92117,533805
24.92930,477102
24.93742,395781
24.94555,341917
24.95367,301661
24.96178,282339
24.96992,265113
24.97803,262092
24.98617,270206
24.99428,246353
25.00240,251526
25.01053,251782
25.01865,245882
25.02677,244867
25.03490,238923
25.04302,246845
25.05115,238951
25.05927,236160
25.06738,227794
25.07552,242655
25.08363,242681
25.09177,242775
25.09988,241153
25.10800,267726
25.11613,333362
25.12425,471582
25.13238,746409
25.14050,1229346
25.14862,1832885
25.15675,2273364
25.16487,2465764
25.17298,2340258
25.18112,1888925
25.18923,1327803
25.19737,933653
25.20548,648799
25.21360,472236
25.22173,365986
25.22985,321952
25.23798,299431
25.24610,309291
25.25422,372086
25.26235,494930
25.27047,660457
25.27860,863727
25.28672,973170
25.29483,1049830
25.30297,948687
25.31108,760139
25.31920,565649
25.32733,410626
25.33545,323074
25.34358,266724
25.35170,236446
25.35982,211129
25.36795,202598
25.37607,198125
25.38420,186245
25.39232,180613
25.40043,185781
25.40857,179776
25.41668,168709
25.42480,168582
25.43293,168467
25.44105,156483
25.44918,141167
25.45730,122923
25.46542,103913
25.47355,95353
25.48167,91166
25.48980,92010
25.49792,91989
25.50603,85525
25.51417,82971
25.52228,85374
25.53042,85925
25.53853,69121
25.54665,73473
25.55478,68949
25.56290,69200
25.57102,70526
25.57915,64504
25.58727,69730
25.59540,72888
25.60352,69628
25.61163,64557
25.61977,73188
25.62788,62304
25.63602,71130
25.64413,74642
25.65225,83660
25.66038,80829
25.66850,85954
25.67662,84500
25.68475,85324
25.69287,74552
25.70100,70128
25.70912,62933
25.71723,66565
25.72537,64289
25.73348,67614
25.74162,59840
25.74973,67080
25.75785,58080
25.76598,63007
25.77410,64793
25.78223,66204
25.79035,66902
25.79847,57252
25.80660,62200
25.81472,66031
25.82283,67622
25.83097,72107
25.83908,84730
25.84722,125306
25.85533,173456
25.86345,221937
25.87158,255222
25.87970,269993
25.88783,271218
25.89595,264785
25.90407,272007
25.91220,275889
25.92032,280682
25.92845,283501
25.93657,285444
25.94468,288229
25.95282,276148
25.96093,290167
25.96905,287343
25.97718,285241
25.98530,284650
25.99343,280420
26.00155,282734
26.00967,267021
26.01780,276518
26.02592,270527
26.03405,269029
26.04217,266409
26.05028,267053
26.05842,262333
26.06653,269756
26.07465,264255
26.08278,269548
26.09090,266857
26.09903,266492
26.10715,264797
26.11527,259118
26.12340,258077
26.13152,252280
26.13965,251920
26.14777,260233
26.15588,252556
26.16402,252139
26.17213,256015
26.18027,258918
26.18838,249543
26.19650,250624
26.20463,244411
26.21275,240639
26.22087,230297
26.22900,224342
26.23712,226104
26.24525,223437
26.25337,211588
26.26148,215249
26.26962,218724
26.27773,223096
26.28587,205792
26.29398,214335
26.30210,214010
26.31023,211987
26.31835,206307
26.32648,212357
26.33460,206663
26.34272,193089
26.35085,198737
26.35897,183823
26.36708,206496
26.37522,192966
26.38333,195272
26.39147,207218
26.39958,219089
26.40770,219952
26.41583,223135
26.42395,218816
26.43208,210724
26.44020,202725
26.44832,190598
26.45645,190761
26.46457,181535
26.47268,177808
26.48082,180526
26.48893,181454
26.49707,179309
26.50518,173259
26.51330,167633
26.52143,161334
26.52955,166682
26.53768,176813
26.54580,162276
26.55392,152295
26.56205,156642
26.57017,148450
26.57830,151152
26.58642,154855
26.59453,149134
26.60267,156060
26.61078,144607
26.61890,144323
26.62703,150934
26.63515,144902
26.64328,144416
26.65140,142590
26.65952,140126
26.66765,145955
26.67577,154684
26.68390,153393
26.69202,151187
26.70013,137984
26.70827,148734
26.71638,136828
26.72450,130693
26.73263,131390
26.74075,127574
26.74888,127253
26.75700,127502
26.76512,122152
26.77325,127246
26.78137,128055
26.78950,126473
26.79762,121738
26.80573,125277
26.81387,124109
26.82198,130797
26.83012,127120
26.83823,132593
26.84635,124177
26.85448,124377
26.86260,117205
26.87072,112285
26.87885,112293
26.88697,106827
26.89510,110586
26.90322,111959
26.91133,106352
26.91947,107631
26.92758,109913
26.93572,105723
26.94383,105061
26.95195,103972
26.96008,108031
26.96820,106790
26.97633,118406
26.98445,129667
26.99257,160655
27.00070,219153
27.00882,303293
27.01693,433676
27.02507,584814
27.03318,689476
27.04132,753419
27.04943,707370
27.05755,649353
27.06568,549181
27.07380,444340
27.08193,366682
27.09005,302981
27.09817,262083
27.10630,230762
27.11442,213634
27.12255,193217
27.13067,188212
27.13878,173183
27.14692,163925
27.15503,163312
27.16315,160770
27.17128,161883
27.17940,169362
27.18753,185043
27.19565,194829
27.20377,197547
27.21190,188161
27.22002,180873
27.22815,161793
27.23627,146881
27.24438,133433
27.25252,126180
27.26063,124748
27.26875,121197
27.27688,117604
27.28500,110306
27.29313,108464
27.30125,105093
27.30937,99191
27.31750,101998
27.32562,100809
27.33375,108412
27.34187,95306
27.34998,93095
27.35812,98344
27.36623,95162
27.37437,95252
27.38248,105072
27.39060,105479
27.39873,102172
27.40685,96858
27.41497,96711
27.42310,90533
27.43122,88900
27.43935,84739
27.44747,83947
27.45558,86516
27.46372,80311
27.47183,80004
27.47997,82616
27.48808,82683
27.49620,84369
27.50433,81470
27.51245,81573
27.52057,77903
27.52870,82596
27.53682,79343
27.54495,77417
27.55307,82496
27.56118,75245
27.56932,78488
27.57743,81081
27.58557,81632
27.59368,90091
27.60180,93370
27.60993,95217
27.61805,91999
27.62618,88986
27.63430,93744
27.64242,86226
27.65055,75107
27.65867,75620
27.66678,74630
27.67492,70607
27.68303,70335
27.69117,69121
27.69928,72402
27.70740,68057
27.71553,74015
27.72365,66523
27.73178,67961
27.73990,67702
27.74802,71526
27.75615,70056
27.76427,72672
27.77240,80372
27.78052,96052
27.78863,114993
27.79677,134651
27.80488,145092
27.81300,139569
27.82113,124190
27.82925,108454
27.83738,93867
27.84550,88326
27.85362,75953
27.86175,73122
27.86987,70517
27.87800,69718
27.88612,66492
27.89423,62986
27.90237,67428
27.91048,65976
27.91860,66068
27.92673,59679
27.93485,58697
27.94298,61613
27.95110,58412
27.95922,59709
27.96735,57262
27.97547,57809
27.98360,58823
27.99172,63741
27.99983,65555
28.00797,63249
28.01608,68879
28.02422,72039
28.03233,67323
28.04045,65612
28.04858,74002
28.05670,64942
28.06482,62576
28.07295,64314
28.08107,63126
28.08920,64616
28.09732,59280
28.10543,59985
28.11357,66019
28.12168,55904
28.12982,55546
28.13793,55994
28.14605,55400
28.15418,57859
28.16230,51309
28.17043,53063
28.17855,55399
28.18667,51018
28.19480,57742
28.20292,61380
28.21103,71048
28.21917,75631
28.22728,83520
28.23542,93442
28.24353,87224
28.25165,81423
28.25978,73955
28.26790,72520
28.27603,68597
28.28415,62270
28.29227,56315
28.30040,56235
28.30852,63286
28.31663,64328
28.32477,72957
28.33288,75299
28.34102,79554
28.34913,92101
28.35725,100939
28.36538,122225
28.37350,128255
28.38163,131748
28.38975,147223
28.39787,150900
28.40600,150185
28.41412,144751
28.42225,134280
28.43037,135177
28.43848,129692
28.44662,113613
28.45473,108296
28.46285,102060
28.47098,94363
28.47910,91325
28.48723,91599
28.49535,86378
28.50347,77846
28.51160,76197
28.51972,77470
28.52785,77698
28.53597,76546
28.54408,75031
28.55222,68211
28.56033,73685
28.56845,65283
28.57658,68522
28.58470,63341
28.59283,62566
28.60095,59549
28.60907,64992
28.61720,63255
28.62532,66067
28.63345,66406
28.64157,66505
28.64968,66927
28.65782,67896
28.66593,69387
28.67407,73302
28.68218,75656
28.69030,71373
28.69843,73566
28.70655,64812
28.71467,64527
28.72280,65272
28.73092,63725
28.73905,64374
28.74717,63356
28.75528,65429
28.76342,66697
28.77153,64203
28.77967,63925
28.78778,72175
28.79590,67172
28.80403,74552
28.81215,65674
28.82028,66176
28.82840,68515
28.83652,65454
28.84465,66189
28.85277,61620
28.86088,64179
28.86902,60141
28.87713,56671
28.88527,55802
28.89338,56565
28.90150,62579
28.90963,67318
28.91775,68720
28.92588,70595
28.93400,63730
28.94212,64970
28.95025,61152
28.95837,70693
28.96648,74925
28.97462,77653
28.98273,80810
28.99087,72359
28.99898,62363
29.00710,64702
29.01523,54183
29.02335,58634
29.03148,60971
29.03960,63355
29.04772,55679
29.05585,58403
29.06397,62677
29.07210,66835
29.08022,74696
29.08833,80463
29.09647,80645
29.10458,81740
29.11270,80468
29.12083,65072
29.12895,62621
29.13708,61066
29.14520,62317
29.15332,54771
29.16145,58117
29.16957,59796
29.17770,58861
29.18582,58954
29.19393,65405
29.20207,71960
29.21018,84540
29.21832,88394
29.22643,103090
29.23455,107613
29.24268,99983
29.25080,93824
29.25892,93378
29.26705,84448
29.27517,77123
29.28330,76360
29.29142,68533
29.29953,62471
29.30767,57353
29.31578,59537
29.32392,57064
29.33203,56543
29.34015,54645
29.34828,52422
29.35640,54303
29.36452,58261
29.37265,57048
29.38077,52665
29.38890,54367
29.39702,55249
29.40513,57285
29.41327,53640
29.42138,53102
29.42952,61361
29.43763,56082
29.44575,52711
29.45388,54471
29.46200,51734
29.47013,53680
29.47825,55235
29.48637,51337
29.49450,52216
29.50262,53014
29.51073,57031
29.51887,56727
29.52698,62751
29.53512,58131
29.54323,54833
29.55135,48220
29.55948,54496
29.56760,56603
29.57573,53334
29.58385,51702
29.59197,56050
29.60010,53464
29.60822,52026
29.61635,47407
29.62447,53219
29.63258,51843
29.64072,52648
29.64883,55462
29.65695,52511
29.66508,49413
29.67320,48427
29.68133,55296
29.68945,54846
29.69757,57394
29.70570,51815
29.71382,56525
29.72195,57652
29.73007,51475
29.73818,49205
29.74632,57817
29.75443,49571
29.76255,50514
29.77068,52474
29.77880,49020
29.78693,46126
29.79505,47921
29.80317,48950
29.81130,51162
29.81942,43326
29.82755,46530
29.83567,44596
29.84378,46421
29.85192,51089
29.86003,58182
29.86817,68938
29.87628,121237
29.88440,223239
29.89253,422221
29.90065,690443
29.90877,987608
29.91690,1113821
29.92502,1057525
29.93315,818959
29.94127,548925
29.94938,329226
29.95752,185919
29.96563,124020
29.97377,100525
29.98188,91807
29.99000,88164
29.99813,90624
30.00625,91364
30.01437,97423
30.02250,97420
30.03062,100893
30.03875,97435
30.04687,103029
30.05498,103115
30.06312,106371
30.07123,106911
30.07937,93715
30.08748,99274
30.09560,95744
30.10373,94092
30.11185,86991
30.11998,85620
30.12810,80935
30.13622,78112
30.14435,73393
30.15247,66565
30.16058,71028
30.16872,67661
30.17683,64089
30.18497,65490
30.19308,65808
30.20120,62104
30.20933,62564
30.21745,64062
30.22558,59912
30.23370,63967
30.24182,60284
30.24995,55925
30.25807,56083
30.26620,54845
30.27432,53504
30.28243,55614
30.29057,52398
30.29868,55166
30.30680,59708
30.31493,58174
30.32305,59717
30.33118,57757
30.33930,60544
30.34742,54587
30.35555,58469
30.36367,52573
30.37180,54781
30.37992,53028
30.38803,55584
30.39617,54335
30.40428,54863
30.41240,50233
30.42053,55353
30.42865,51298
30.43678,52088
30.44490,53574
30.45302,50406
30.46115,54654
30.46927,52222
30.47740,49525
30.48552,49524
30.49363,57345
30.50177,61550
30.50988,57993
30.51802,58281
30.52613,67998
30.53425,61908
30.54238,52059
30.55050,53606
30.55862,50987
30.56675,49659
30.57487,50832
30.58300,46919
30.59112,49227
30.59923,49214
30.60737,51820
30.61548,49531
30.62362,50390
30.63173,49232
30.63985,43132
30.64798,50521
30.65610,45750
30.66423,48768
30.67235,50852
30.68047,50363
30.68860,49670
30.69672,48530
30.70483,52428
30.71297,47778
30.72108,53975
30.72922,54134
30.73733,48634
30.74545,52568
30.75358,50482
30.76170,54741
30.76983,55056
30.77795,66348
30.78607,92090
30.79420,136614
30.80232,206235
30.81043,311021
30.81857,403222
30.82668,451312
30.83482,457599
30.84293,357976
30.85105,258262
30.85918,172320
30.86730,126114
30.87543,88998
30.88355,81988
30.89167,76372
30.89980,71102
30.90792,64360
30.91605,64380
30.92417,63623
30.93228,62320
30.94042,60715
30.94853,65327
30.95665,61968
30.96478,63368
30.97290,67265
30.98103,65686
30.98915,65098
30.99727,59851
31.00540,59346
31.01352,56950
31.02165,58018
31.02977,60617
31.03788,59680
31.04602,60849
31.05413,66001
31.06225,62369
31.07038,64758
31.07850,70058
31.08663,75605
31.09475,106106
31.10287,128705
31.11100,166696
31.11912,186049
31.12725,199850
31.13537,181924
31.14348,157307
31.15162,126106
31.15973,98329
31.16787,77261
31.17598,73847
31.18410,66304
31.19223,69784
31.20035,75468
31.20847,85536
31.21660,96574
31.22472,111089
31.23285,120612
31.24097,119428
31.24908,122303
31.25722,98976
31.26533,87241
31.27347,70761
31.28158,60529
31.28970,56314
31.29783,52418
31.30595,55120
31.31408,52215
31.32220,50985
31.33032,52037
31.33845,55823
31.34657,57151
31.35468,63176
31.36282,53851
31.37093,52953
31.37907,63540
31.38718,67068
31.39530,68155
31.40343,78424
31.41155,72078
31.41968,68009
31.42780,64011
31.43592,58402
31.44405,54349
31.45217,53453
31.46030,55048
31.46842,59166
31.47653,59294
31.48467,65754
31.49278,75537
31.50090,86182
31.50903,84767
31.51715,82630
31.52528,72156
31.53340,65888
31.54152,65730
31.54965,61060
31.55777,72713
31.56590,88196
31.57402,85874
31.58213,95896
31.59027,95805
31.59838,97412
31.60650,90025
31.61463,85899
31.62275,80737
31.63088,72552
31.63900,82010
31.64712,77618
31.65525,82290
31.66337,87627
31.67150,83880
31.67962,87135
31.68773,88316
31.69587,80552
31.70398,85691
31.71212,81718
31.72023,77122
31.72835,84377
31.73648,77976
31.74460,79008
31.75272,75795
31.76085,78022
31.76897,76832
31.77710,75137
31.78522,72358
31.79333,76697
31.80147,72333
31.80958,79163
31.81772,79303
31.82583,74746
31.83395,76487
31.84208,78493
31.85020,75550
31.85832,77718
31.86645,88074
31.87457,83050
31.88270,87283
31.89082,85605
31.89893,83910
31.90707,89295
31.91518,92113
31.92332,98050
31.93143,95199
31.93955,101183
31.94768,99540
31.95580,90395
31.96393,98742
31.97205,105343
31.98017,94528
31.98830,98059
31.99642,98653
32.00453,100482
32.01267,94614
32.02078,94343
32.02892,90029
32.03703,94506
32.04515,88078
32.05328,87872
32.06140,79116
32.06953,85344
32.07765,80531
32.08577,81608
32.09390,78326
32.10202,78237
32.11015,76168
32.11827,69260
32.12638,78248
32.13452,73518
32.14263,68117
32.15075,68511
32.15888,67424
32.16700,66341
32.17513,61928
32.18325,60300
32.19137,64693
32.19950,66180
32.20762,62161
32.21575,65224
32.22387,64748
32.23198,60936
32.24012,65480
32.24823,65096
32.25635,62504
32.26448,64093
32.27260,68877
32.28073,68118
32.28885,70093
32.29697,74126
32.30510,75613
32.31322,62877
32.32135,61253
32.32947,65874
32.33758,56692
32.34572,58562
32.35383,63980
32.36197,70098
32.37008,65781
32.37820,62795
32.38633,59785
32.39445,61929
32.40257,58377
32.41070,58361
32.41882,56210
32.42695,55080
32.43507,57423
32.44318,54749
32.45132,54640
32.45943,58124
32.46757,54709
32.47568,54940
32.48380,59739
32.49193,53920
32.50005,53500
32.50818,55500
32.51630,50646
32.52442,51405
32.53255,55325
32.54067,55344
32.54878,54952
32.55692,54018
32.56503,54319
32.57317,53174
32.58128,54504
32.58940,55876
32.59753,56136
32.60565,51627
32.61378,49894
32.62190,51972
32.63002,54294
32.63815,57865
32.64627,48692
32.65438,54143
32.66252,53740
32.67063,58536
32.67877,53066
32.68688,61760
32.69500,63725
32.70313,61994
32.71125,62910
32.71938,59130
32.72750,60368
32.73562,54383
32.74375,52467
32.75187,54115
32.76000,53581
32.76812,51696
32.77623,50677
32.78437,48280
32.79248,49631
32.80060,52867
32.80873,47568
32.81685,44908
32.82498,48432
32.83310,51649
32.84122,46081
32.84935,44955
32.85747,45359
32.86560,53292
32.87372,46983
32.88183,51048
32.88997,52739
32.89808,51267
32.90620,51792
32.91433,51076
32.92245,54499
32.93058,50299
32.93870,48780
32.94682,50062
32.95495,54092
32.96307,53013
32.97120,52810
32.97932,62053
32.98743,80130
32.99557,97486
33.00368,129448
33.01182,150959
33.01993,170458
33.02805,162129
33.03618,137620
33.04430,114875
33.05242,90433
33.06055,81514
33.06867,77333
33.07680,66552
33.08492,68769
33.09303,74457
33.10117,68748
33.10928,78757
33.11742,85474
33.12553,98301
33.13365,100306
33.14178,111218
33.14990,99164
33.15803,87939
33.16615,81975
33.17427,72767
33.18240,67774
33.19052,67164
33.19863,58846
33.20677,57882
33.21488,58919
33.22302,61224
33.23113,62372
33.23925,59709
33.24738,54766
33.25550,55865
33.26363,56327
33.27175,51074
33.27987,52522
33.28800,52362
33.29612,51498
33.30423,51069
33.31237,51645
33.32048,53883
33.32862,47534
33.33673,51577
33.34485,53921
33.35298,55543
33.36110,57657
33.36923,53627
33.37735,55878
33.38547,57445
33.39360,49630
33.40172,59209
33.40985,56225
33.41797,52881
33.42608,51794
33.43422,53746
33.44233,51513
33.45045,51703
33.45858,47656
33.46670,48936
33.47483,53893
33.48295,49806
33.49107,51880
33.49920,52525
33.50732,51271
33.51545,57671
33.52357,56348
33.53168,61341
33.53982,64485
33.54793,60041
33.55607,62681
33.56418,64773
33.57230,62986
33.58043,62275
33.58855,56407
33.59667,55787
33.60480,55020
33.61292,54203
33.62105,51093
33.62917,51572
33.63728,53060
33.64542,48491
33.65353,49900
33.66167,55019
33.66978,54174
33.67790,51915
33.68603,50475
33.69415,53754
33.70227,51643
33.71040,51363
33.71852,48796
33.72665,49031
33.73477,53638
33.74288,51620
33.75102,51984
33.75913,51613
33.76727,49801
33.77538,55305
33.78350,52478
33.79163,52521
33.79975,46966
33.80788,51341
33.81600,52718
33.82412,53605
33.83225,52992
33.84037,49116
33.84848,47137
33.85662,53049
33.86473,54806
33.87287,52201
33.88098,54721
33.88910,53713
33.89723,53069
33.90535,55064
33.91348,55751
33.92160,50419
33.92972,49953
33.93785,48952
33.94597,52601
33.95408,51785
33.96222,50828
33.97033,50375
33.97847,54419
33.98658,51280
33.99470,48268
34.00283,52261
34.01095,46855
34.01908,52189
34.02720,52098
34.03532,47857
34.04345,48278
34.05157,52762
34.05970,49766
34.06782,47692
34.07593,50118
34.08407,48993
34.09218,49924
34.10030,49280
34.10843,48116
34.11655,49775
34.12468,51213
34.13280,52322
34.14092,49992
34.14905,48756
34.15717,51228
34.16530,50566
34.17342,49812
34.18153,50999
34.18967,50557
34.19778,54180
34.20592,48527
34.21403,51347
34.22215,52877
34.23028,48481
34.23840,52515
34.24652,50713
34.25465,54152
34.26277,49757
34.27090,48355
34.27902,48681
34.28713,49301
34.29527,50804
34.30338,47182
34.31152,50294
34.31963,47600
34.32775,50543
34.33588,47902
34.34400,49951
34.35212,48952
34.36025,49779
34.36837,52015
34.37650,50783
34.38462,46165
34.39273,52640
34.40087,49004
34.40898,47033
34.41712,49123
34.42523,49006
34.43335,49207
34.44148,51134
34.44960,49610
34.45773,49830
34.46585,50156
34.47397,49631
34.48210,53026
34.49022,50375
34.49833,50668
34.50647,52539
34.51458,46580
34.52272,54050
34.53083,51996
34.53895,55833
34.54708,54928
34.55520,57073
34.56333,59227
34.57145,64051
34.57957,70221
34.58770,64750
34.59582,64185
34.60395,63907
34.61207,62315
34.62018,58324
34.62832,63686
34.63643,56992
34.64455,54643
34.65268,52250
34.66080,52695
34.66893,53327
34.67705,55091
34.68517,52606
34.69330,53628
34.70142,55916
34.70955,56038
34.71767,51837
34.72578,54448
34.73392,51522
34.74203,48425
34.75015,55148
34.75828,51212
34.76640,61476
34.77453,56658
34.78265,54632
34.79077,51862
34.79890,57241
34.80702,48545
34.81515,50782
34.82327,55586
34.83138,52482
34.83952,50344
34.84763,49897
34.85577,54196
34.86388,49951
34.87200,53105
34.88013,57319
34.88825,53719
34.89637,56918
34.90450,49071
34.91262,49381
34.92075,49719
34.92887,51319
34.93698,56701
34.94512,62546
34.95323,71906
34.96137,104177
34.96948,151410
34.97760,224183
34.98573,298783
34.99385,336097
35.00198,314274
35.01010,261813
35.01822,181088
35.02635,125101
35.03447,86163
35.04258,71866
35.05072,64911
35.05883,64711
35.06697,64239
35.07508,63973
35.08320,63022
35.09133,63479
35.09945,61255
35.10758,59097
35.11570,57354
35.12382,56534
35.13195,58515
35.14007,56227
35.14818,57433
35.15632,61636
35.16443,56818
35.17257,58960
35.18068,64664
35.18880,59652
35.19693,59984
35.20505,62322
35.21318,56933
35.22130,57525
35.22942,55352
35.23755,50988
35.24567,56062
35.25380,55179
35.26192,58431
35.27003,53894
35.27817,61323
35.28628,54389
35.29440,55311
35.30253,57007
35.31065,53711
35.31878,52892
35.32690,53823
35.33502,53274
35.34315,53186
35.35127,49755
35.35940,52288
35.36752,54029
35.37563,47630
35.38377,51316
35.39188,52615
35.40000,54355
35.40813,49713
35.41625,54819
35.42438,56891
35.43250,55005
35.44062,54055
35.44875,57528
35.45687,63641
35.46500,53970
35.47312,55943
35.48123,57769
35.48937,58876
35.49748,62171
35.50562,58078
35.51373,57371
35.52185,58952
35.52998,55636
35.53810,52949
35.54622,56014
35.55435,54115
35.56247,59171
35.57060,56243
35.57872,53817
35.58683,62725
35.59497,56651
35.60308,54674
35.61122,56527
35.61933,54196
35.62745,52756
35.63558,52697
35.64370,54407
35.65183,55016
35.65995,58063
35.66807,54478
35.67620,54706
35.68432,57132
35.69243,57623
35.70057,59988
35.70868,53922
35.71682,53859
35.72493,55095
35.73305,57605
35.74118,55853
35.74930,54036
35.75743,54463
35.76555,55378
35.77367,60679
35.78180,65275
35.78992,62077
35.79803,60519
35.80617,59777
35.81428,54998
35.82242,55047
35.83053,57601
35.83865,52708
35.84678,53819
35.85490,58053
35.86303,52466
35.87115,48486
35.87927,54190
35.88740,58614
35.89552,55807
35.90365,60359
35.91177,52534
35.91988,55141
35.92802,57238
35.93613,52579
35.94425,55452
35.95238,54109
35.96050,52006
35.96863,56167
35.97675,60336
35.98487,53751
35.99300,49336
36.00112,54850
36.00925,54661
36.01737,56996
36.02548,58290
36.03362,60215
36.04173,58421
36.04987,65542
36.05798,56889
36.06610,60993
36.07423,57229
36.08235,55651
36.09047,57775
36.09860,53734
36.10672,58120
36.11485,54921
36.12297,56300
36.13108,57716
36.13922,56509
36.14733,56530
36.15547,56066
36.16358,58666
36.17170,57991
36.17983,56207
36.18795,59472
36.19607,60741
36.20420,53483
36.21232,54026
36.22045,56236
36.22857,54243
36.23668,55172
36.24482,52110
36.25293,49265
36.26107,55276
36.26918,54757
36.27730,55274
36.28543,52023
36.29355,55461
36.30168,56350
36.30980,57497
36.31792,53250
36.32605,60667
36.33417,63061
36.34228,60181
36.35042,61079
36.35853,60623
36.36667,60093
36.37478,56599
36.38290,56858
36.39103,60382
36.39915,55125
36.40728,60078
36.41540,58436
36.42352,58627
36.43165,61503
36.43977,57718
36.44788,54838
36.45602,57777
36.46413,54548
36.47227,54655
36.48038,54297
36.48850,56510
36.49663,55057
36.50475,52450
36.51288,57263
36.52100,55632
36.52912,55000
36.53725,56365
36.54537,57192
36.55350,52106
36.56162,53048
36.56973,57810
36.57787,53538
36.58598,49357
36.59410,52910
36.60223,58477
36.61035,59217
36.61848,57204
36.62660,60554
36.63472,53474
36.64285,57532
36.65097,53583
36.65910,53064
36.66722,57643
36.67533,54374
36.68347,60084
36.69158,62729
36.69972,59774
36.70783,59467
36.71595,57079
36.72408,57458
36.73220,57984
36.74032,58822
36.74845,54448
36.75657,57266
36.76470,60397
36.77282,65226
36.78093,58625
36.78907,51898
36.79718,57198
36.80532,59752
36.81343,58496
36.82155,56014
36.82968,63198
36.83780,57647
36.84593,54156
36.85405,53741
36.86217,56974
36.87030,57245
36.87842,61448
36.88653,54483
36.89467,57925
36.90278,56551
36.91092,59394
36.91903,60505
36.92715,60982
36.93528,63687
36.94340,74349
36.95153,86472
36.95965,113288
36.96777,143607
36.97590,169269
36.98402,184399
36.99213,190289
37.00027,168914
37.00838,138213
37.01652,109368
37.02463,94096
37.03275,86671
37.04088,80284
37.04900,79850
37.05713,80711
37.06525,86254
37.07337,76128
37.08150,75890
37.08962,77618
37.09775,80670
37.10587,80313
37.11398,83350
37.12212,81691
37.13023,82026
37.13835,74854
37.14648,81388
37.15460,81697
37.16273,83189
37.17085,75887
37.17897,76927
37.18710,80395
37.19522,81000
37.20335,88266
37.21147,79588
37.21958,82036
37.22772,78806
37.23583,81828
37.24395,82638
37.25208,85039
37.26020,76266
37.26833,79559
37.27645,79478
37.28457,81563
37.29270,81316
37.30082,77403
37.30895,76309
37.31707,77466
37.32518,76059
37.33332,83793
37.34143,79369
37.34957,83174
37.35768,81812
37.36580,83555
37.37393,83659
37.38205,85696
37.39017,85014
37.39830,89063
37.40642,87442
37.41455,88207
37.42267,81881
37.43078,86510
37.43892,78138
37.44703,83433
37.45517,78869
37.46328,77713
37.47140,79850
37.47953,81518
37.48765,78488
