Z:\data\JTB-E02\BACandBLUE\JTB-E02-200-07.D Thu Feb 28 09:09:47 2019
Start of data points
2.09518	76535
2.10330	76390
2.11142	72511
2.11955	74419
2.12767	71021
2.13580	72054
2.14392	67989
2.15203	70064
2.16017	67384
2.16828	63821
2.17642	62624
2.18453	68232
2.19265	65089
2.20078	61742
2.20890	61168
2.21703	68768
2.22515	62244
2.23327	63174
2.24140	60356
2.24952	53245
2.25763	63655
2.26577	323873
2.27388	1443168
2.28202	2058132
2.29013	1536501
2.29825	800214
2.30638	537720
2.31450	434282
2.32263	385597
2.33075	355980
2.33887	323014
2.34700	280090
2.35512	253033
2.36323	237901
2.37137	213619
2.37948	213223
2.38762	213781
2.39573	215985
2.40385	315433
2.41198	383327
2.42010	680189
2.42823	880459
2.43635	572399
2.44447	411878
2.45260	351011
2.46072	288479
2.46885	256103
2.47697	223098
2.48508	202645
2.49322	196366
2.50133	185074
2.50945	171250
2.51758	163226
2.52570	148158
2.53383	153581
2.54195	152991
2.55007	155405
2.55820	237821
2.56632	307699
2.57445	241798
2.58257	180795
2.59068	155052
2.59882	144653
2.60693	141679
2.61505	144705
2.62318	142982
2.63130	137965
2.63943	129258
2.64755	130083
2.65567	112030
2.66380	112896
2.67192	112874
2.68005	117796
2.68817	117336
2.69628	114298
2.70442	110195
2.71253	115196
2.72067	111076
2.72878	103472
2.73690	104595
2.74503	110227
2.75315	97737
2.76127	100688
2.76940	99397
2.77752	102727
2.78565	103266
2.79377	103156
2.80188	112825
2.81002	110013
2.81813	112558
2.82627	102876
2.83438	97416
2.84250	97451
2.85063	101851
2.85875	101415
2.86687	101964
2.87500	103600
2.88312	98155
2.89125	97896
2.89937	98615
2.90748	97663
2.91562	94227
2.92373	95021
2.93187	93062
2.93998	97092
2.94810	96597
2.95623	90992
2.96435	87404
2.97248	91300
2.98060	92677
2.98872	90543
2.99685	85250
3.00497	96396
3.01308	98699
3.02122	103022
3.02933	93208
3.03747	88783
3.04558	92280
3.05370	88678
3.06183	91553
3.06995	88912
3.07808	85952
3.08620	90350
3.09432	92494
3.10245	93973
3.11057	110178
3.11870	122581
3.12682	121093
3.13493	121293
3.14307	108577
3.15118	105660
3.15930	102573
3.16743	96795
3.17555	88394
3.18368	92573
3.19180	93873
3.19992	95055
3.20805	87414
3.21617	93355
3.22430	86347
3.23242	83624
3.24053	84712
3.24867	79094
3.25678	83295
3.26492	78942
3.27303	83383
3.28115	83876
3.28928	121410
3.29740	398588
3.30552	1593280
3.31365	4357236
3.32177	7153515
3.32990	7744580
3.33802	6318784
3.34613	4657763
3.35427	3434895
3.36238	2675454
3.37052	2125411
3.37863	1797953
3.38675	1548831
3.39488	1352464
3.40300	1194503
3.41112	1061729
3.41925	985909
3.42737	905715
3.43550	836647
3.44362	786389
3.45173	747600
3.45987	692801
3.46798	665031
3.47612	614690
3.48423	576542
3.49235	561061
3.50048	504254
3.50860	474845
3.51673	429545
3.52485	399073
3.53297	394558
3.54110	371685
3.54922	355550
3.55733	349250
3.56547	352291
3.57358	341154
3.58172	350110
3.58983	359621
3.59795	357247
3.60608	356070
3.61420	356719
3.62233	362785
3.63045	356183
3.63857	353385
3.64670	340093
3.65482	317487
3.66293	310154
3.67107	297390
3.67918	287228
3.68732	281041
3.69543	284930
3.70355	280429
3.71168	283224
3.71980	273733
3.72793	264926
3.73605	264796
3.74417	251685
3.75230	263877
3.76042	258561
3.76855	252493
3.77667	248832
3.78478	249427
3.79292	254211
3.80103	249586
3.80915	246339
3.81728	251994
3.82540	251260
3.83353	243316
3.84165	233465
3.84977	236621
3.85790	229550
3.86602	219122
3.87415	212582
3.88227	211415
3.89038	209535
3.89852	224262
3.90663	214078
3.91477	209974
3.92288	201980
3.93100	204690
3.93913	208045
3.94725	204651
3.95537	201989
3.96350	200748
3.97162	199947
3.97975	206691
3.98787	196809
3.99598	192281
4.00412	201836
4.01223	198033
4.02037	195421
4.02848	203233
4.03660	205808
4.04473	204992
4.05285	192241
4.06097	193222
4.06910	189055
4.07722	182967
4.08535	185853
4.09347	182438
4.10158	178582
4.10972	184226
4.11783	173432
4.12597	181796
4.13408	183831
4.14220	194471
4.15033	271415
4.15845	449067
4.16658	587495
4.17470	536195
4.18282	424701
4.19095	326826
4.19907	279037
4.20718	241335
4.21532	224478
4.22343	203865
4.23157	207515
4.23968	221188
4.24780	226873
4.25593	236224
4.26405	217747
4.27218	201142
4.28030	194684
4.28842	182285
4.29655	177315
4.30467	178365
4.31280	171578
4.32092	169671
4.32903	167303
4.33717	178351
4.34528	178185
4.35340	172253
4.36153	165013
4.36965	163921
4.37778	173324
4.38590	173739
4.39402	171808
4.40215	166125
4.41027	163180
4.41840	160122
4.42652	162170
4.43463	156624
4.44277	151135
4.45088	153572
4.45900	150749
4.46713	147507
4.47525	149151
4.48338	151881
4.49150	144807
4.49962	149616
4.50775	149375
4.51587	155522
4.52400	146734
4.53212	154665
4.54023	153911
4.54837	144588
4.55648	149893
4.56462	147818
4.57273	139699
4.58085	142735
4.58898	142376
4.59710	140149
4.60522	146777
4.61335	144047
4.62147	143581
4.62960	141045
4.63772	146326
4.64583	135285
4.65397	146295
4.66208	142114
4.67022	134300
4.67833	136660
4.68645	134171
4.69458	131233
4.70270	138823
4.71082	138442
4.71895	136172
4.72707	136510
4.73520	133460
4.74332	136753
4.75143	134979
4.75957	128767
4.76768	131254
4.77582	137159
4.78393	131546
4.79205	127491
4.80018	127473
4.80830	126783
4.81643	131424
4.82455	125484
4.83267	134285
4.84080	129161
4.84892	126960
4.85703	132739
4.86517	125953
4.87328	136391
4.88142	128468
4.88953	132580
4.89765	128954
4.90578	127909
4.91390	129572
4.92203	125926
4.93015	126981
4.93827	134394
4.94640	148439
4.95452	253525
4.96265	602927
4.97077	1358105
4.97888	2397366
4.98702	3177870
4.99513	3197165
5.00325	2687261
5.01138	2028742
5.01950	1526083
5.02763	1198384
5.03575	983191
5.04387	826877
5.05200	749918
5.06012	666283
5.06825	594050
5.07637	538005
5.08448	482818
5.09262	439456
5.10073	411274
5.10885	376977
5.11698	364724
5.12510	358194
5.13323	348933
5.14135	352727
5.14947	354581
5.15760	351511
5.16572	349234
5.17385	344766
5.18197	335489
5.19008	327710
5.19822	317184
5.20633	317394
5.21447	298377
5.22258	283870
5.23070	275336
5.23883	283894
5.24695	281250
5.25507	293594
5.26320	286369
5.27132	278518
5.27945	263662
5.28757	258070
5.29568	257443
5.30382	246497
5.31193	234032
5.32007	239098
5.32818	242336
5.33630	228015
5.34443	240131
5.35255	231696
5.36068	232485
5.36880	237994
5.37692	224520
5.38505	219590
5.39317	219398
5.40128	207093
5.40942	208121
5.41753	205158
5.42567	208500
5.43378	210309
5.44190	207604
5.45003	203188
5.45815	211217
5.46628	207956
5.47440	207305
5.48252	203506
5.49065	195405
5.49877	191652
5.50688	194382
5.51502	189039
5.52313	194332
5.53127	186706
5.53938	184654
5.54750	188438
5.55563	189145
5.56375	187201
5.57188	183820
5.58000	183286
5.58812	178767
5.59625	174003
5.60437	179166
5.61250	180405
5.62062	187788
5.62873	200972
5.63687	208208
5.64498	216940
5.65310	227220
5.66123	218651
5.66935	200765
5.67748	189465
5.68560	192251
5.69372	197902
5.70185	205784
5.70997	215248
5.71810	231234
5.72622	213428
5.73433	197438
5.74247	184014
5.75058	180282
5.75872	170494
5.76683	171924
5.77495	170146
5.78308	160158
5.79120	156956
5.79932	164308
5.80745	162763
5.81557	161643
5.82370	165265
5.83182	159637
5.83993	157580
5.84807	161441
5.85618	159746
5.86432	160744
5.87243	157809
5.88055	157105
5.88868	152214
5.89680	157707
5.90492	154301
5.91305	147573
5.92117	139391
5.92930	124274
5.93742	118917
5.94553	113859
5.95367	113724
5.96178	118843
5.96992	122382
5.97803	133125
5.98615	166806
5.99428	204254
6.00240	215941
6.01053	210324
6.01865	183935
6.02677	161394
6.03490	147000
6.04302	141207
6.05113	135861
6.05927	132762
6.06738	122976
6.07552	125151
6.08363	125733
6.09175	127879
6.09988	121178
6.10800	114198
6.11613	117786
6.12425	116438
6.13237	120158
6.14050	126500
6.14862	125155
6.15673	125976
6.16487	135494
6.17298	131146
6.18112	131811
6.18923	136475
6.19735	135378
6.20548	133072
6.21360	135183
6.22173	133684
6.22985	145179
6.23797	142041
6.24610	140467
6.25422	146656
6.26235	142047
6.27047	145289
6.27858	149873
6.28672	147792
6.29483	153559
6.30295	150030
6.31108	157853
6.31920	161293
6.32733	165180
6.33545	155911
6.34357	165119
6.35170	167280
6.35982	158574
6.36795	168030
6.37607	172334
6.38418	168029
6.39232	171761
6.40043	169982
6.40857	166033
6.41668	160471
6.42480	174342
6.43293	177528
6.44105	177290
6.44917	182842
6.45730	181332
6.46542	188641
6.47355	185787
6.48167	183255
6.48978	192385
6.49792	187532
6.50603	197355
6.51417	191884
6.52228	196689
6.53040	170446
6.53853	157733
6.54665	148395
6.55477	143244
6.56290	140950
6.57102	136965
6.57915	129544
6.58727	127941
6.59538	120688
6.60352	123951
6.61163	129760
6.61977	129651
6.62788	123044
6.63600	120899
6.64413	120768
6.65225	119517
6.66038	127465
6.66850	116237
6.67662	118970
6.68475	117077
6.69287	121736
6.70098	118609
6.70912	122398
6.71723	119226
6.72537	121818
6.73348	117673
6.74160	120531
6.74973	113737
6.75785	113719
6.76598	116656
6.77410	111505
6.78222	110264
6.79035	108820
6.79847	113075
6.80660	109808
6.81472	108144
6.82283	106237
6.83097	103667
6.83908	101650
6.84720	106974
6.85533	100683
6.86345	101572
6.87158	87687
6.87970	79710
6.88782	83676
6.89595	84114
6.90407	82011
6.91220	84257
6.92032	81547
6.92843	84820
6.93657	74605
6.94468	73977
6.95280	69254
6.96093	69956
6.96905	73716
6.97718	71774
6.98530	71399
6.99342	72520
7.00155	73043
7.00967	72816
7.01780	75833
7.02592	74267
7.03403	70440
7.04217	71140
7.05028	71411
7.05842	67139
7.06653	70241
7.07465	62315
7.08278	68527
7.09090	69820
7.09902	68610
7.10715	69854
7.11527	64917
7.12340	67596
7.13152	70856
7.13963	64086
7.14777	71811
7.15588	69380
7.16402	69216
7.17213	65803
7.18025	70685
7.18838	74420
7.19650	71354
7.20462	69699
7.21275	73800
7.22087	69205
7.22900	66872
7.23712	63444
7.24523	61718
7.25337	69353
7.26148	65737
7.26962	71364
7.27773	66992
7.28585	65269
7.29398	65729
7.30210	64544
7.31023	71414
7.31835	65768
7.32647	71249
7.33460	66837
7.34272	64784
7.35083	72241
7.35897	67458
7.36708	65433
7.37522	66047
7.38333	63047
7.39145	61128
7.39958	65203
7.40770	64940
7.41583	67467
7.42395	63382
7.43207	69150
7.44020	79039
7.44832	74114
7.45645	76578
7.46457	84045
7.47268	83032
7.48082	86939
7.48893	79307
7.49705	70946
7.50518	70520
7.51330	63360
7.52143	67974
7.52955	64578
7.53767	66947
7.54580	67053
7.55392	65661
7.56205	66135
7.57017	61845
7.57828	62033
7.58642	67019
7.59453	62987
7.60267	70091
7.61078	63401
7.61890	63868
7.62703	67005
7.63515	64287
7.64327	60685
7.65140	61019
7.65952	63619
7.66765	65937
7.67577	63486
7.68388	64325
7.69202	59232
7.70013	60788
7.70827	61140
7.71638	64579
7.72450	60821
7.73263	64813
7.74075	61241
7.74887	61690
7.75700	66082
7.76512	63943
7.77325	57963
7.78137	65588
7.78948	60590
7.79762	67913
7.80573	58451
7.81387	56280
7.82198	60405
7.83010	60004
7.83823	61507
7.84635	58352
7.85448	57034
7.86260	58015
7.87072	56799
7.87885	56504
7.88697	57249
7.89508	60194
7.90322	56940
7.91133	58085
7.91947	58085
7.92758	63865
7.93570	53959
7.94383	56737
7.95195	56989
7.96008	55782
7.96820	55544
7.97632	56504
7.98445	59502
7.99257	60326
8.00068	55174
8.00882	60036
8.01693	61584
8.02507	58150
8.03318	58940
8.04130	53801
8.04943	55591
8.05755	53639
8.06568	53353
8.07380	55898
8.08192	55390
8.09005	55511
8.09817	54146
8.10630	53127
8.11442	54652
8.12253	57766
8.13067	54763
8.13878	54509
8.14690	54567
8.15503	59695
8.16315	54775
8.17128	57677
8.17940	58933
8.18752	63733
8.19565	60419
8.20377	62046
8.21190	57237
8.22002	60455
8.22813	58305
8.23627	51851
8.24438	59678
8.25252	58168
8.26063	56746
8.26875	57939
8.27688	55031
8.28500	53252
8.29312	59322
8.30125	57867
8.30937	58083
8.31750	56510
8.32562	55047
8.33373	54391
8.34187	55889
8.34998	60484
8.35812	61123
8.36623	64765
8.37435	65244
8.38248	60959
8.39060	57837
8.39872	59751
8.40685	58784
8.41497	57942
8.42310	53748
8.43122	59317
8.43933	54358
8.44747	60577
8.45558	60142
8.46372	56001
8.47183	53338
8.47995	58280
8.48808	55192
8.49620	57251
8.50433	57783
8.51245	59708
8.52057	61542
8.52870	62199
8.53682	73650
8.54493	65736
8.55307	69812
8.56118	63534
8.56932	58375
8.57743	63087
8.58555	58782
8.59368	60995
8.60180	60274
8.60993	60926
8.61805	54776
8.62617	59668
8.63430	58700
8.64242	60507
8.65055	60188
8.65867	57176
8.66678	62213
8.67492	59122
8.68303	59993
8.69115	58192
8.69928	60631
8.70740	56463
8.71553	56879
8.72365	59152
8.73177	59111
8.73990	56171
8.74802	60245
8.75615	60352
8.76427	57178
8.77238	60845
8.78052	62186
8.78863	82371
8.79675	146567
8.80488	270447
8.81300	473324
8.82113	689791
8.82925	805080
8.83737	747681
8.84550	630022
8.85362	503719
8.86175	408537
8.86987	319241
8.87798	279501
8.88612	255627
8.89423	224558
8.90237	209191
8.91048	203374
8.91860	192208
8.92673	189505
8.93485	178908
8.94297	168489
8.95110	167473
8.95922	154240
8.96735	154557
8.97547	150876
8.98358	139269
8.99172	137986
8.99983	143592
9.00797	131675
9.01608	140253
9.02420	135070
9.03233	134251
9.04045	134802
9.04857	134444
9.05670	122220
9.06482	121679
9.07295	115787
9.08107	114203
9.08918	117124
9.09732	110987
9.10543	114009
9.11357	104820
9.12168	109886
9.12980	106087
9.13793	110781
9.14605	104729
9.15418	108557
9.16230	110832
9.17042	104561
9.17855	102326
9.18667	102476
9.19478	103739
9.20292	105696
9.21103	105832
9.21917	102550
9.22728	106790
9.23540	101477
9.24353	100756
9.25165	92349
9.25978	98723
9.26790	98509
9.27602	100312
9.28415	103547
9.29227	93990
9.30040	84822
9.30852	91436
9.31663	88793
9.32477	83757
9.33288	84039
9.34100	82815
9.34913	80731
9.35725	89048
9.36538	81216
9.37350	82761
9.38162	84796
9.38975	76876
9.39787	81628
9.40600	77289
9.41412	75967
9.42223	78746
9.43037	74436
9.43848	77450
9.44660	75658
9.45473	79722
9.46285	80859
9.47098	75949
9.47910	71984
9.48722	78162
9.49535	78604
9.50347	76044
9.51160	75010
9.51972	74158
9.52783	71148
9.53597	70887
9.54408	75674
9.55222	74401
9.56033	80188
9.56845	73820
9.57658	72191
9.58470	67516
9.59282	59658
9.60095	56904
9.60907	56398
9.61720	59946
9.62532	63415
9.63343	57594
9.64157	57541
9.64968	57210
9.65782	55959
9.66593	53416
9.67405	53928
9.68218	53594
9.69030	49243
9.69843	45810
9.70655	51489
9.71467	47074
9.72280	48271
9.73092	48414
9.73903	49765
9.74717	53127
9.75528	50271
9.76342	47456
9.77153	46841
9.77965	46416
9.78778	49465
9.79590	48472
9.80403	47682
9.81215	54584
9.82027	49017
9.82840	50477
9.83652	54368
9.84463	49296
9.85277	52359
9.86088	52351
9.86902	52585
9.87713	60532
9.88525	52386
9.89338	52726
9.90150	50571
9.90963	49401
9.91775	48059
9.92587	47856
9.93400	46415
9.94212	47773
9.95025	45723
9.95837	45242
9.96648	49208
9.97462	48722
9.98273	49289
9.99085	51363
9.99898	54172
10.00710	56433
10.01523	53429
10.02335	56915
10.03147	60210
10.03960	65603
10.04772	72262
10.05585	75837
10.06397	68105
10.07208	75416
10.08022	73738
10.08833	72916
10.09647	62201
10.10458	62243
10.11270	61461
10.12083	53187
10.12895	54299
10.13707	54718
10.14520	50885
10.15332	51111
10.16145	53289
10.16957	53455
10.17768	49173
10.18582	47530
10.19393	50418
10.20207	52297
10.21018	50004
10.21830	55149
10.22643	50810
10.23455	50044
10.24267	48183
10.25080	56270
10.25892	60564
10.26705	56071
10.27517	63229
10.28328	59504
10.29142	61463
10.29953	58258
10.30767	58270
10.31578	61655
10.32390	58934
10.33203	62262
10.34015	66934
10.34828	68116
10.35640	67120
10.36452	61070
10.37265	62044
10.38077	54149
10.38888	53921
10.39702	57658
10.40513	56253
10.41327	50694
10.42138	58565
10.42950	54310
10.43763	55487
10.44575	51867
10.45388	52275
10.46200	52944
10.47012	59989
10.47825	55371
10.48637	54573
10.49448	51689
10.50262	45666
10.51073	54823
10.51887	49938
10.52698	55636
10.53510	53192
10.54323	48742
10.55135	47550
10.55948	47893
10.56760	50933
10.57572	53466
10.58385	50011
10.59197	49575
10.60010	54757
10.60822	51554
10.61633	53958
10.62447	49960
10.63258	49168
10.64070	49307
10.64883	45682
10.65695	46310
10.66508	49392
10.67320	47525
10.68132	52044
10.68945	46112
10.69757	52312
10.70570	51270
10.71382	48871
10.72193	51113
10.73007	44582
10.73818	48115
10.74632	51327
10.75443	46268
10.76255	48230
10.77068	46252
10.77880	51435
10.78692	55194
10.79505	53529
10.80317	53500
10.81130	51329
10.81942	53629
10.82753	50800
10.83567	50488
10.84378	46762
10.85192	48731
10.86003	45843
10.86815	46238
10.87628	50995
10.88440	48250
10.89252	49407
10.90065	48650
10.90877	50601
10.91690	43939
10.92502	43344
10.93313	46254
10.94127	42474
10.94938	47572
10.95752	51771
10.96563	47902
10.97375	48944
10.98188	49957
10.99000	45152
10.99813	48882
11.00625	48800
11.01437	46076
11.02250	48757
11.03062	43582
11.03873	43779
11.04687	48408
11.05498	44804
11.06312	43424
11.07123	42426
11.07935	46378
11.08748	43986
11.09560	40586
11.10373	42807
11.11185	42071
11.11997	47460
11.12810	41019
11.13622	44157
11.14435	41216
11.15247	39490
11.16058	42299
11.16872	41554
11.17683	41265
11.18495	44186
11.19308	48717
11.20120	50543
11.20933	62254
11.21745	64341
11.22557	76605
11.23370	70147
11.24182	70218
11.24995	62581
11.25807	59030
11.26618	48028
11.27432	48691
11.28243	44426
11.29055	44843
11.29868	40424
11.30680	43399
11.31493	39775
11.32305	41580
11.33117	39738
11.33930	42742
11.34742	43441
11.35555	40639
11.36367	44549
11.37178	42784
11.37992	41774
11.38803	42521
11.39617	43950
11.40428	39201
11.41240	42945
11.42053	47136
11.42865	44358
11.43677	49336
11.44490	40377
11.45302	43851
11.46115	38556
11.46927	39038
11.47738	41169
11.48552	39249
11.49363	42314
11.50177	45769
11.50988	42353
11.51800	41787
11.52613	40524
11.53425	41447
11.54237	38650
11.55050	38315
11.55862	37007
11.56675	37779
11.57487	39450
11.58298	37468
11.59112	40265
11.59923	40943
11.60737	41760
11.61548	41275
11.62360	36988
11.63173	39626
11.63985	41402
11.64798	42429
11.65610	42626
11.66422	42665
11.67235	41963
11.68047	36958
11.68858	39823
11.69672	39530
11.70483	38527
11.71297	38928
11.72108	40517
11.72920	41910
11.73733	42259
11.74545	47635
11.75358	42961
11.76170	44766
11.76982	44973
11.77795	47002
11.78607	42783
11.79420	44183
11.80232	48564
11.81043	48373
11.81857	43370
11.82668	45675
11.83480	42123
11.84293	48134
11.85105	45165
11.85918	40151
11.86730	40320
11.87542	41717
11.88355	47729
11.89167	42055
11.89980	42184
11.90792	39681
11.91603	41004
11.92417	37704
11.93228	39873
11.94042	39087
11.94853	39428
11.95665	43460
11.96478	38023
11.97290	41563
11.98102	33989
11.98915	37882
11.99727	40206
12.00540	37633
12.01352	38589
12.02163	36565
12.02977	37790
12.03788	38095
12.04602	39804
12.05413	37484
12.06225	41420
12.07038	38959
12.07850	41881
12.08662	39017
12.09475	42263
12.10287	41323
12.11100	38936
12.11912	40977
12.12723	37921
12.13537	40547
12.14348	40908
12.15162	43397
12.15973	40280
12.16785	44836
12.17598	47112
12.18410	49525
12.19223	52383
12.20035	55073
12.20847	55578
12.21660	59109
12.22472	53941
12.23283	58641
12.24097	56277
12.24908	55101
12.25722	55596
12.26533	55876
12.27345	53655
12.28158	58049
12.28970	59062
12.29783	58942
12.30595	54779
12.31407	53937
12.32220	55877
12.33032	55434
12.33843	51541
12.34657	53271
12.35468	52576
12.36282	50552
12.37093	50338
12.37905	48914
12.38718	51944
12.39530	51038
12.40343	49724
12.41155	53964
12.41967	50791
12.42780	52372
12.43592	58203
12.44405	47050
12.45217	54588
12.46028	55022
12.46842	54755
12.47653	53100
12.48465	53860
12.49278	50074
12.50090	55607
12.50903	48802
12.51715	53740
12.52527	54530
12.53340	53574
12.54152	49071
12.54965	48113
12.55777	49531
12.56588	47873
12.57402	47930
12.58213	48163
12.59025	47097
12.59838	52082
12.60650	49955
12.61463	48499
12.62275	48296
12.63087	47968
12.63900	44249
12.64712	48701
12.65525	47211
12.66337	48635
12.67148	47728
12.67962	45392
12.68773	43477
12.69587	45240
12.70398	48841
12.71210	50434
12.72023	51095
12.72835	47941
12.73647	48831
12.74460	52561
12.75272	54356
12.76085	55611
12.76897	60330
12.77708	56011
12.78522	57249
12.79333	54169
12.80147	48437
12.80958	46495
12.81770	45668
12.82583	42478
12.83395	50602
12.84208	42915
12.85020	40987
12.85832	37634
12.86645	39822
12.87457	39621
12.88268	38502
12.89082	36096
12.89893	34350
12.90707	40059
12.91518	42900
12.92330	38830
12.93143	38173
12.93955	38582
12.94768	38939
12.95580	35173
12.96392	40596
12.97205	47407
12.98017	44990
12.98830	38551
12.99642	35507
13.00453	36770
13.01267	37496
13.02078	37180
13.02890	35323
13.03703	38662
13.04515	41992
13.05328	40132
13.06140	38327
13.06952	37115
13.07765	38000
13.08577	36760
13.09390	36700
13.10202	35471
13.11013	34993
13.11827	34615
13.12638	36945
13.13450	37920
13.14263	38377
13.15075	35993
13.15888	40852
13.16700	44475
13.17512	37888
13.18325	39004
13.19137	41241
13.19950	42431
13.20762	41903
13.21573	48415
13.22387	44870
13.23198	47782
13.24012	49461
13.24823	51612
13.25635	44714
13.26448	41844
13.27260	40572
13.28072	36684
13.28885	42449
13.29697	40707
13.30510	43299
13.31322	41204
13.32133	35940
13.32947	39035
13.33758	39849
13.34572	34833
13.35383	39072
13.36195	37888
13.37008	36610
13.37820	35583
13.38632	35105
13.39445	35171
13.40257	39078
13.41070	36033
13.41882	35241
13.42693	37528
13.43507	38249
13.44318	35632
13.45132	35366
13.45943	38957
13.46755	37294
13.47568	36547
13.48380	39373
13.49193	37137
13.50005	40636
13.50817	40162
13.51630	38313
13.52442	36809
13.53253	36772
13.54067	39609
13.54878	36014
13.55692	43530
13.56503	33495
13.57315	32086
13.58128	42449
13.58940	36181
13.59753	37781
13.60565	38281
13.61377	36283
13.62190	38214
13.63002	42073
13.63815	41308
13.64627	35331
13.65438	36404
13.66252	35586
13.67063	38103
13.67875	34933
13.68688	41771
13.69500	43233
13.70313	32798
13.71125	39267
13.71937	37244
13.72750	36303
13.73562	30589
13.74375	34954
13.75187	38168
13.75998	40520
13.76812	35172
13.77623	34227
13.78435	37541
13.79248	36362
13.80060	36989
13.80873	39240
13.81685	38266
13.82497	41924
13.83310	37893
13.84122	41487
13.84935	41993
13.85747	37882
13.86558	42229
13.87372	43678
13.88183	45804
13.88997	38413
13.89808	42737
13.90620	40625
13.91433	42901
13.92245	39598
13.93057	41085
13.93870	40483
13.94682	40425
13.95495	42113
13.96307	46108
13.97118	46090
13.97932	46314
13.98743	43851
13.99557	44537
14.00368	40234
14.01180	39084
14.01993	42975
14.02805	41070
14.03618	46411
14.04430	43893
14.05242	41871
14.06055	43815
14.06867	40958
14.07678	47983
14.08492	47987
14.09303	47210
14.10117	49255
14.10928	46126
14.11740	47438
14.12553	41081
14.13365	43258
14.14178	46322
14.14990	42930
14.15802	46642
14.16615	41083
14.17427	50168
14.18238	48390
14.19052	48718
14.19863	53968
14.20677	77045
14.21488	116952
14.22300	164953
14.23113	231551
14.23925	262888
14.24738	264767
14.25550	238308
14.26362	196940
14.27175	166760
14.27987	161547
14.28800	144481
14.29612	136745
14.30423	116612
14.31237	106991
14.32048	98134
14.32860	100417
14.33673	96018
14.34485	85783
14.35298	85797
14.36110	80349
14.36922	73090
14.37735	64281
14.38547	63690
14.39360	54196
14.40172	49877
14.40983	48751
14.41797	52570
14.42608	47126
14.43420	50609
14.44233	44763
14.45045	46225
14.45858	41654
14.46670	44691
14.47482	41387
14.48295	39255
14.49107	46037
14.49920	52349
14.50732	44579
14.51543	41778
14.52357	41909
14.53168	41032
14.53982	46520
14.54793	44311
14.55605	46618
14.56418	49108
14.57230	42783
14.58042	42154
14.58855	41992
14.59667	47120
14.60480	40334
14.61292	43998
14.62103	42363
14.62917	39018
14.63728	39916
14.64542	41598
14.65353	38938
14.66165	41608
14.66978	39144
14.67790	38642
14.68603	40711
14.69415	37214
14.70227	46428
14.71040	39137
14.71852	41472
14.72663	39829
14.73477	41475
14.74288	39255
14.75102	38930
14.75913	42173
14.76725	42544
14.77538	38826
14.78350	40445
14.79163	40769
14.79975	37368
14.80787	41382
14.81600	37598
14.82412	40895
14.83223	44943
14.84037	51494
14.84848	61897
14.85662	68546
14.86473	75824
14.87285	75817
14.88098	78196
14.88910	72484
14.89723	74502
14.90535	72809
14.91347	70289
14.92160	75324
14.92972	68953
14.93785	69440
14.94597	68067
14.95408	65010
14.96222	62475
14.97033	63820
14.97845	63067
14.98658	60242
14.99470	62562
15.00283	58475
15.01095	66954
15.01907	59361
15.02720	61936
15.03532	58035
15.04345	62709
15.05157	55645
15.05968	57306
15.06782	54665
15.07593	56680
15.08407	55293
15.09218	52397
15.10030	56394
15.10843	59336
15.11655	52483
15.12467	51868
15.13280	50942
15.14092	50621
15.14905	54844
15.15717	50223
15.16528	48484
15.17342	48937
15.18153	46622
15.18967	47879
15.19778	45179
15.20590	41528
15.21403	43658
15.22215	45959
15.23027	45995
15.23840	45973
15.24652	41923
15.25465	41943
15.26277	44911
15.27088	47113
15.27902	42425
15.28713	44384
15.29527	43175
15.30338	41832
15.31150	39599
15.31963	40297
15.32775	41425
15.33588	44063
15.34400	42026
15.35212	41491
15.36025	42858
15.36837	39693
15.37648	45297
15.38462	42324
15.39273	43409
15.40087	41626
15.40898	40960
15.41710	44746
15.42523	38707
15.43335	38274
15.44148	39058
15.44960	45361
15.45772	41533
15.46585	37298
15.47397	39935
15.48210	42820
15.49022	41723
15.49833	40054
15.50647	42038
15.51458	45204
15.52270	46406
15.53083	44627
15.53895	41884
15.54708	46405
15.55520	44099
15.56332	41203
15.57145	41123
15.57957	42348
15.58770	45212
15.59582	42201
15.60393	40654
15.61207	41770
15.62018	43283
15.62830	44548
15.63643	39197
15.64455	42907
15.65268	39437
15.66080	37604
15.66892	41298
15.67705	42552
15.68517	37955
15.69330	41379
15.70142	42049
15.70953	39907
15.71767	42338
15.72578	40728
15.73392	44559
15.74203	39052
15.75015	38986
15.75828	40832
15.76640	41195
15.77452	41378
15.78265	39083
15.79077	40509
15.79890	42569
15.80702	40497
15.81513	43727
15.82327	44158
15.83138	44019
15.83952	46534
15.84763	46725
15.85575	42648
15.86388	43617
15.87200	40766
15.88012	41363
15.88825	41988
15.89637	42413
15.90450	40085
15.91262	41307
15.92073	43521
15.92887	42316
15.93698	41082
15.94512	42259
15.95323	41963
15.96135	38346
15.96948	38576
15.97760	43515
15.98573	43465
15.99385	40413
16.00197	47794
16.01010	47710
16.01822	50276
16.02633	61700
16.03447	67621
16.04258	79961
16.05072	93348
16.05883	98031
16.06695	89637
16.07508	78388
16.08320	73088
16.09133	65159
16.09945	60083
16.10757	51417
16.11570	52023
16.12382	45058
16.13195	46751
16.14007	43305
16.14818	49545
16.15632	47982
16.16443	46932
16.17255	44982
16.18068	48624
16.18880	52164
16.19693	47482
16.20505	43285
16.21317	39142
16.22130	44893
16.22942	44892
16.23755	41542
16.24567	43540
16.25378	41460
16.26192	44832
16.27003	41657
16.27815	41810
16.28628	40411
16.29440	47142
16.30253	41653
16.31065	43141
16.31877	44953
16.32690	42109
16.33502	42612
16.34315	44644
16.35127	45153
16.35938	42621
16.36752	48122
16.37563	40866
16.38377	42818
16.39188	41961
16.40000	47135
16.40813	42589
16.41625	44572
16.42437	47507
16.43250	39987
16.44062	43376
16.44875	48775
16.45687	40242
16.46498	43529
16.47312	45171
16.48123	44320
16.48937	46631
16.49748	44213
16.50560	49417
16.51373	49153
16.52185	46556
16.52998	49108
16.53810	47061
16.54622	47717
16.55435	54043
16.56247	43969
16.57058	49830
16.57872	44806
16.58683	48948
16.59497	44384
16.60308	46625
16.61120	46824
16.61933	45233
16.62745	46498
16.63558	45007
16.64370	46295
16.65182	41556
16.65995	47548
16.66807	42429
16.67618	46565
16.68432	41926
16.69243	41305
16.70057	42815
16.70868	43338
16.71680	43086
16.72493	43981
16.73305	42601
16.74118	40433
16.74930	40187
16.75742	37799
16.76555	37832
16.77367	42421
16.78180	39316
16.78992	36571
16.79803	39007
16.80617	38360
16.81428	37500
16.82240	38269
16.83053	44492
16.83865	40245
16.84678	38574
16.85490	38319
16.86302	36898
16.87115	43487
16.87927	39908
16.88740	38157
16.89552	41805
16.90363	42564
16.91177	37958
16.91988	42535
16.92800	39990
16.93613	39149
16.94425	38550
16.95238	36999
16.96050	42058
16.96862	40828
16.97675	38964
16.98487	37924
16.99300	39046
17.00112	38230
17.00923	38790
17.01737	34434
17.02548	40548
17.03362	36332
17.04173	40908
17.04985	35853
17.05798	35794
17.06610	38597
17.07422	38604
17.08235	36869
17.09047	36136
17.09860	38856
17.10672	41341
17.11483	37333
17.12297	35470
17.13108	38047
17.13922	37817
17.14733	40896
17.15545	38098
17.16358	41173
17.17170	43029
17.17983	39651
17.18795	41396
17.19607	38208
17.20420	37203
17.21232	36415
17.22043	35813
17.22857	36754
17.23668	39910
17.24482	35234
17.25293	40319
17.26105	37567
17.26918	35087
17.27730	38214
17.28543	39546
17.29355	36966
17.30167	35936
17.30980	38073
17.31792	34670
17.32605	38382
17.33417	37322
17.34228	39906
17.35042	37792
17.35853	40915
17.36665	40049
17.37478	40370
17.38290	46998
17.39103	51454
17.39915	46741
17.40727	52029
17.41540	50502
17.42352	48283
17.43165	48611
17.43977	47868
17.44788	41234
17.45602	45574
17.46413	45221
17.47225	43830
17.48038	40869
17.48850	45449
17.49663	43351
17.50475	41737
17.51287	38609
17.52100	43117
17.52912	44329
17.53725	46270
17.54537	43458
17.55348	43288
17.56162	42743
17.56973	49211
17.57787	40708
17.58598	44711
17.59410	42566
17.60223	42602
17.61035	39641
17.61847	38243
17.62660	42889
17.63472	43891
17.64285	38015
17.65097	43832
17.65908	38014
17.66722	38045
17.67533	39101
17.68347	45953
17.69158	45560
17.69970	50528
17.70783	43869
17.71595	46927
17.72407	51363
17.73220	45688
17.74032	44077
17.74845	48191
17.75657	48660
17.76468	44125
17.77282	42348
17.78093	40896
17.78907	45349
17.79718	42810
17.80530	42867
17.81343	43213
17.82155	41420
17.82968	41863
17.83780	41862
17.84592	45168
17.85405	46133
17.86217	43722
17.87028	45467
17.87842	45712
17.88653	44878
17.89467	43930
17.90278	44292
17.91090	40895
17.91903	41406
17.92715	43378
17.93528	38831
17.94340	39030
17.95152	38958
17.95965	34208
17.96777	39385
17.97590	42202
17.98402	36213
17.99213	37813
18.00027	40143
18.00838	36322
18.01650	39932
18.02463	39966
18.03275	37142
18.04088	39184
18.04900	37327
18.05712	39694
18.06525	39223
18.07337	36080
18.08150	43763
18.08962	48648
18.09773	54769
18.10587	62809
18.11398	73567
18.12210	82310
18.13023	88591
18.13835	91099
18.14648	80348
18.15460	84678
18.16272	85799
18.17085	78540
18.17897	78438
18.18710	74189
18.19522	78508
18.20333	71013
18.21147	69075
18.21958	66993
18.22772	70491
18.23583	69462
18.24395	66734
18.25208	66057
18.26020	69503
18.26832	65474
18.27645	71449
18.28457	67089
18.29270	66710
18.30082	60723
18.30893	54763
18.31707	48805
18.32518	45096
18.33332	48138
18.34143	44655
18.34955	45053
18.35768	43814
18.36580	44814
18.37393	40322
18.38205	40552
18.39017	42419
18.39830	39307
18.40642	39991
18.41453	39379
18.42267	40476
18.43078	35785
18.43892	38433
18.44703	41602
18.45515	41598
18.46328	38080
18.47140	38775
18.47953	38613
18.48765	46940
18.49577	44634
18.50390	40656
18.51202	44291
18.52013	44853
18.52827	46229
18.53638	42258
18.54452	39028
18.55263	43279
18.56075	41417
18.56888	39030
18.57700	41966
18.58513	40524
18.59325	41481
18.60137	38705
18.60950	40695
18.61762	44080
18.62575	41273
18.63387	38670
18.64198	43977
18.65012	42482
18.65823	43511
18.66635	43542
18.67448	43390
18.68260	39941
18.69073	35736
18.69885	39971
18.70697	44939
18.71510	35216
18.72322	43924
18.73135	34983
18.73947	37457
18.74758	37500
18.75572	35195
18.76383	38110
18.77195	42011
18.78008	41973
18.78820	42706
18.79633	38057
18.80445	41549
18.81257	38808
18.82070	41862
18.82882	39082
18.83695	41258
18.84507	38854
18.85318	41748
18.86132	40770
18.86943	33491
18.87757	43095
18.88568	38572
18.89380	38198
18.90193	36725
18.91005	39389
18.91817	41209
18.92630	36896
18.93442	37624
18.94255	40206
18.95067	42577
18.95878	43356
18.96692	42219
18.97503	38960
18.98317	44830
18.99128	44835
18.99940	45875
19.00753	41114
19.01565	40924
19.02378	43768
19.03190	39123
19.04002	38361
19.04815	38607
19.05627	39495
19.06438	39747
19.07252	37075
19.08063	37294
19.08877	37930
19.09688	39289
19.10500	40394
19.11313	39871
19.12125	43132
19.12938	44724
19.13750	41547
19.14562	40056
19.15375	43430
19.16187	44588
19.16998	39950
19.17812	40767
19.18623	38450
19.19437	42742
19.20248	40414
19.21060	41893
19.21873	39305
19.22685	39795
19.23498	41801
19.24310	38719
19.25122	36591
19.25935	37034
19.26747	43645
19.27560	38840
19.28372	45029
19.29183	53305
19.29997	61933
19.30808	66094
19.31620	75041
19.32433	78611
19.33245	71836
19.34058	69597
19.34870	61774
19.35682	56297
19.36495	48538
19.37307	49973
19.38120	51433
19.38932	48246
19.39743	49589
19.40557	46857
19.41368	47000
19.42182	48181
19.42993	44171
19.43805	48399
19.44618	54193
19.45430	50392
19.46242	46884
19.47055	43386
19.47867	46178
19.48680	47094
19.49492	52446
19.50303	58373
19.51117	79404
19.51928	96859
19.52742	135302
19.53553	158267
19.54365	162362
19.55178	146546
19.55990	111873
19.56802	76877
19.57615	61743
19.58427	55161
19.59240	52476
19.60052	51623
19.60863	45755
19.61677	44040
19.62488	43524
19.63302	47854
19.64113	50506
19.64925	62673
19.65738	85320
19.66550	124461
19.67363	187548
19.68175	255409
19.68987	309450
19.69800	330013
19.70612	315430
19.71423	263949
19.72237	197395
19.73048	163925
19.73862	117342
19.74673	104041
19.75485	89887
19.76298	84710
19.77110	70441
19.77923	72548
19.78735	64485
19.79547	59420
19.80360	51864
19.81172	55609
19.81983	53643
19.82797	46455
19.83608	50440
19.84422	51086
19.85233	50698
19.86045	51075
19.86858	56319
19.87670	62762
19.88483	96329
19.89295	160329
19.90107	294926
19.90920	510560
19.91732	843268
19.92545	1257681
19.93357	1587749
19.94168	1841293
19.94982	1911596
19.95793	1921668
19.96605	1849421
19.97418	1803302
19.98230	1733539
19.99043	1630433
19.99855	1525487
20.00667	1452618
20.01480	1384230
20.02292	1364671
20.03105	1287979
20.03917	1239170
20.04728	1150981
20.05542	1011381
20.06353	882838
20.07167	708750
20.07978	550449
20.08790	447200
20.09603	365093
20.10415	300479
20.11227	275050
20.12040	253729
20.12852	243606
20.13665	239100
20.14477	236598
20.15288	228908
20.16102	217714
20.16913	212036
20.17727	207635
20.18538	200635
20.19350	204463
20.20163	198059
20.20975	206901
20.21787	193971
20.22600	197895
20.23412	188503
20.24225	190007
20.25037	191411
20.25848	198827
20.26662	212479
20.27473	255644
20.28287	309604
20.29098	389747
20.29910	474652
20.30723	515825
20.31535	513812
20.32348	455954
20.33160	370031
20.33972	310180
20.34785	251067
20.35597	218792
20.36408	176952
20.37222	143916
20.38033	130111
20.38847	116852
20.39658	105623
20.40470	103938
20.41283	99833
20.42095	98930
20.42908	101322
20.43720	107630
20.44532	123981
20.45345	145695
20.46157	165758
20.46970	156369
20.47782	159632
20.48593	147934
20.49407	140837
20.50218	121340
20.51030	106504
20.51843	94369
20.52655	93552
20.53468	89616
20.54280	89225
20.55092	83165
20.55905	78322
20.56717	79664
20.57530	74020
20.58342	77479
20.59153	74564
20.59967	73225
20.60778	74114
20.61590	73365
20.62403	74419
20.63215	75873
20.64028	68001
20.64840	69448
20.65652	68482
20.66465	72848
20.67277	70379
20.68090	70963
20.68902	74403
20.69713	70736
20.70527	69927
20.71338	68072
20.72152	68522
20.72963	68670
20.73775	68778
20.74588	64886
20.75400	65718
20.76212	67180
20.77025	68703
20.77837	70397
20.78650	64312
20.79462	66986
20.80273	62735
20.81087	64078
20.81898	63837
20.82712	65645
20.83523	71433
20.84335	70577
20.85148	68421
20.85960	68759
20.86773	64303
20.87585	64737
20.88397	70705
20.89210	64269
20.90022	65451
20.90833	59595
20.91647	64712
20.92458	56463
20.93272	57634
20.94083	67053
20.94895	61342
20.95708	58816
20.96520	59335
20.97333	61177
20.98145	59366
20.98957	59080
20.99770	56654
21.00582	58011
21.01393	58909
21.02207	58464
21.03018	57481
21.03832	58738
21.04643	54158
21.05455	58966
21.06268	59702
21.07080	52998
21.07893	65616
21.08705	53878
21.09517	55170
21.10330	54226
21.11142	57447
21.11955	57909
21.12767	58444
21.13578	60916
21.14392	54675
21.15203	56929
21.16015	55712
21.16828	58480
21.17640	61023
21.18453	62587
21.19265	64088
21.20077	65860
21.20890	63164
21.21702	67124
21.22515	61775
21.23327	64334
21.24138	62964
21.24952	61018
21.25763	61702
21.26575	56700
21.27388	60259
21.28200	60099
21.29013	61570
21.29825	59246
21.30637	59992
21.31450	59817
21.32262	56842
21.33075	59283
21.33887	51506
21.34698	54475
21.35512	58967
21.36323	50166
21.37137	51180
21.37948	50241
21.38760	55796
21.39573	54151
21.40385	57323
21.41197	52233
21.42010	54845
21.42822	55023
21.43635	56577
21.44447	58868
21.45258	63283
21.46072	58335
21.46883	56221
21.47697	58100
21.48508	56908
21.49320	57952
21.50133	55898
21.50945	51473
21.51758	55305
21.52570	51006
21.53382	50057
21.54195	52618
21.55007	56049
21.55818	55105
21.56632	49659
21.57443	48440
21.58257	54457
21.59068	51849
21.59880	49652
21.60693	53921
21.61505	53965
21.62318	56044
21.63130	70455
21.63942	85144
21.64755	99273
21.65567	123837
21.66378	137778
21.67192	139615
21.68003	125992
21.68817	110040
21.69628	98185
21.70440	79032
21.71253	62949
21.72065	61718
21.72878	60997
21.73690	53935
21.74502	65630
21.75315	59564
21.76127	54213
21.76940	57328
21.77752	58098
21.78563	59854
21.79377	60190
21.80188	55090
21.81000	57423
21.81813	58921
21.82625	62519
21.83438	68230
21.84250	86752
21.85062	92440
21.85875	106016
21.86687	114693
21.87500	105623
21.88312	91701
21.89123	84769
21.89937	66980
21.90748	63115
21.91562	54816
21.92373	54728
21.93185	52800
21.93998	54714
21.94810	55939
21.95622	56169
21.96435	53127
21.97247	49047
21.98060	53034
21.98872	50075
21.99683	51131
22.00497	50141
22.01308	42931
22.02122	42485
22.02933	48503
22.03745	47573
22.04558	49238
22.05370	46970
22.06182	49703
22.06995	49115
22.07807	43352
22.08620	45859
22.09432	49013
22.10243	44590
22.11057	49847
22.11868	46120
22.12682	45264
22.13493	41673
22.14305	48335
22.15118	48675
22.15930	46805
22.16743	50771
22.17555	51043
22.18367	47057
22.19180	50498
22.19992	48264
22.20803	48671
22.21617	50707
22.22428	52703
22.23242	49115
22.24053	58933
22.24865	55738
22.25678	57692
22.26490	57122
22.27303	56162
22.28115	54140
22.28927	46102
22.29740	45139
22.30552	43413
22.31363	48709
22.32177	43424
22.32988	50906
22.33802	47278
22.34613	48536
22.35425	52489
22.36238	54422
22.37050	56267
22.37863	56696
22.38675	56960
22.39487	51242
22.40300	53396
22.41112	51277
22.41925	48154
22.42737	48958
22.43548	50600
22.44362	54125
22.45173	49875
22.45985	50800
22.46798	49678
22.47610	52987
22.48423	53776
22.49235	50430
22.50047	47998
22.50860	46043
22.51672	43618
22.52485	42764
22.53297	52157
22.54108	41949
22.54922	44972
22.55733	49138
22.56547	45209
22.57358	42379
22.58170	45184
22.58983	48134
22.59795	43956
22.60607	43916
22.61420	41370
22.62232	41523
22.63045	36480
22.63857	42771
22.64668	36952
22.65482	38499
22.66293	35414
22.67107	42298
22.67918	40380
22.68730	43786
22.69543	44010
22.70355	40107
22.71167	43206
22.71980	44286
22.72792	45235
22.73605	47618
22.74417	49487
22.75228	43616
22.76042	49056
22.76853	45392
22.77667	48030
22.78478	43507
22.79290	46877
22.80103	43752
22.80915	41340
22.81728	43589
22.82540	43595
22.83352	38768
22.84165	43703
22.84977	39916
22.85788	44921
22.86602	45346
22.87413	54275
22.88227	47150
22.89038	46575
22.89850	50286
22.90663	47540
22.91475	47727
22.92288	53997
22.93100	58827
22.93912	62898
22.94725	69155
22.95537	72936
22.96350	75039
22.97162	72971
22.97973	68928
22.98787	75019
22.99598	64897
23.00410	62411
23.01223	56630
23.02035	57584
23.02848	53093
23.03660	54944
23.04472	52390
23.05285	49886
23.06097	41273
23.06910	43092
23.07722	41875
23.08533	40317
23.09347	42608
23.10158	44333
23.10970	40875
23.11783	41199
23.12595	43027
23.13408	45380
23.14220	39771
23.15032	41099
23.15845	43589
23.16657	43543
23.17470	37510
23.18282	38393
23.19093	40513
23.19907	39205
23.20718	36790
23.21532	37815
23.22343	38704
23.23155	40853
23.23968	36691
23.24780	40383
23.25592	37846
23.26405	39287
23.27217	39850
23.28030	36847
23.28842	43664
23.29653	40335
23.30467	37532
23.31278	36151
23.32092	39460
23.32903	34490
23.33715	38457
23.34528	39609
23.35340	38065
23.36152	36794
23.36965	39831
23.37777	39966
23.38590	43465
23.39402	39804
23.40213	44941
23.41027	42725
23.41838	43686
23.42652	42903
23.43463	40361
23.44275	38238
23.45088	37994
23.45900	44800
23.46713	37597
23.47525	40813
23.48337	40357
23.49150	38952
23.49962	43961
23.50773	36520
23.51587	40488
23.52398	37868
23.53212	40102
23.54023	41412
23.54835	44546
23.55648	38742
23.56460	39436
23.57273	42761
23.58085	43272
23.58897	43704
23.59710	42971
23.60522	40210
23.61335	43331
23.62147	49555
23.62958	46519
23.63772	46634
23.64583	45705
23.65395	49030
23.66208	50642
23.67020	60923
23.67833	69213
23.68645	82938
23.69457	93734
23.70270	95443
23.71082	92146
23.71895	97590
23.72707	89189
23.73518	88378
23.74332	77496
23.75143	79621
23.75957	110859
23.76768	223424
23.77580	547446
23.78393	1278650
23.79205	2556545
23.80017	3901459
23.80830	4673540
23.81642	4642039
23.82455	4008347
23.83267	3119822
23.84078	2244656
23.84892	1624220
23.85703	1146013
23.86517	844770
23.87328	671195
23.88140	543541
23.88953	464311
23.89765	406233
23.90577	370302
23.91390	319773
23.92202	282229
23.93015	266101
23.93827	258335
23.94638	234696
23.95452	219931
23.96263	212721
23.97077	202764
23.97888	182065
23.98700	169869
23.99513	170957
24.00325	169083
24.01138	155529
24.01950	150316
24.02762	138731
24.03575	140747
24.04387	136430
24.05198	135210
24.06012	132089
24.06823	130690
24.07637	131683
24.08448	127503
24.09260	120386
24.10073	119790
24.10885	110968
24.11698	111281
24.12510	112527
24.13322	110729
24.14135	118533
24.14947	114039
24.15758	123373
24.16572	126211
24.17383	118017
24.18197	116635
24.19008	109002
24.19820	108967
24.20633	95895
24.21445	100966
24.22258	109760
24.23070	110815
24.23882	116542
24.24695	117160
24.25507	110130
24.26320	106237
24.27132	96972
24.27943	92676
24.28757	89476
24.29568	85354
24.30380	81901
24.31193	84429
24.32005	81562
24.32818	84837
24.33630	78564
24.34442	78251
24.35255	76832
24.36067	79972
24.36880	75584
24.37692	76109
24.38503	74830
24.39317	82060
24.40128	93286
24.40942	110682
24.41753	138811
24.42565	143331
24.43378	141056
24.44190	123220
24.45002	101376
24.45815	87622
24.46627	81078
24.47440	71024
24.48252	65720
24.49063	71397
24.49877	70313
24.50688	75858
24.51502	85531
24.52313	90064
24.53125	105906
24.53938	109442
24.54750	103603
24.55562	91582
24.56375	86775
24.57187	82781
24.58000	78441
24.58812	75066
24.59623	81333
24.60437	85892
24.61248	83532
24.62062	83843
24.62873	78028
24.63685	84879
24.64498	80899
24.65310	81138
24.66123	81987
24.66935	75958
24.67747	76093
24.68560	72914
24.69372	73267
24.70183	70659
24.70997	69615
24.71808	67946
24.72622	61898
24.73433	61000
24.74245	60079
24.75058	64245
24.75870	61616
24.76683	60843
24.77495	61012
24.78307	59348
24.79120	56022
24.79932	53208
24.80745	55000
24.81557	55691
24.82368	56908
24.83182	53439
24.83993	55184
24.84805	55065
24.85618	52005
24.86430	52836
24.87243	57709
24.88055	57162
24.88867	58940
24.89680	56934
24.90492	62062
24.91305	61983
24.92117	56140
24.92928	58396
24.93742	58532
24.94553	57223
24.95365	53553
24.96178	54352
24.96990	56632
24.97803	54182
24.98615	51999
24.99427	50891
25.00240	51852
25.01052	51924
25.01865	49970
25.02677	47797
25.03488	46922
25.04302	46590
25.05113	52588
25.05927	47323
25.06738	48625
25.07550	44192
25.08363	55354
25.09175	48055
25.09987	49581
25.10800	49723
25.11612	49213
25.12425	53872
25.13237	57238
25.14048	70258
25.14862	84711
25.15673	100688
25.16487	116934
25.17298	122517
25.18110	122233
25.18923	118183
25.19735	100007
25.20547	86164
25.21360	73850
25.22172	72939
25.22985	59897
25.23797	58935
25.24608	57512
25.25422	57579
25.26233	55936
25.27047	56096
25.27858	56833
25.28670	56463
25.29483	52683
25.30295	56637
25.31108	58828
25.31920	57598
25.32732	68241
25.33545	58206
25.34357	65162
25.35168	58195
25.35982	61255
25.36793	54599
25.37607	57814
25.38418	48512
25.39230	47135
25.40043	48970
25.40855	46535
25.41668	47343
25.42480	43223
25.43292	49997
25.44105	47145
25.44917	44946
25.45730	45384
25.46542	46497
25.47353	48468
25.48167	49012
25.48978	51125
25.49790	56145
25.50603	55275
25.51415	57109
25.52228	57380
25.53040	52394
25.53852	52834
25.54665	47116
25.55477	48385
25.56290	47567
25.57102	47439
25.57913	47038
25.58727	44842
25.59538	42710
25.60350	46231
25.61163	47001
25.61975	43466
25.62788	44582
25.63600	42988
25.64412	43582
25.65225	41161
25.66037	41297
25.66850	45199
25.67662	45437
25.68473	41000
25.69287	41726
25.70098	43579
25.70912	45852
25.71723	44771
25.72535	44205
25.73348	45852
25.74160	40943
25.74972	47840
25.75785	42091
25.76597	46313
25.77410	40203
25.78222	42366
25.79033	39189
25.79847	49865
25.80658	47800
25.81472	46986
25.82283	42217
25.83095	45637
25.83908	47085
25.84720	41445
25.85533	49095
25.86345	43991
25.87157	47977
25.87970	44238
25.88782	44528
25.89593	39569
25.90407	38734
25.91218	41512
25.92032	41950
25.92843	41827
25.93655	44222
25.94468	42694
25.95280	45521
25.96093	40163
25.96905	43282
25.97717	46532
25.98530	46171
25.99342	48569
26.00153	44302
26.00967	40281
26.01778	45929
26.02592	46421
26.03403	43653
26.04215	39336
26.05028	42178
26.05840	45044
26.06653	41100
26.07465	41755
26.08277	41972
26.09090	47962
26.09902	42057
26.10715	44324
26.11527	44128
26.12338	46498
26.13152	53042
26.13963	50982
26.14775	53439
26.15588	59233
26.16400	58213
26.17213	60416
26.18025	58598
26.18837	57494
26.19650	61024
26.20462	55262
26.21275	58826
26.22087	48435
26.22898	45481
26.23712	50397
26.24523	47992
26.25337	43643
26.26148	47428
26.26960	45917
26.27773	46660
26.28585	47964
26.29397	47672
26.30210	46542
26.31022	43292
26.31835	46119
26.32647	44611
26.33458	42141
26.34272	40755
26.35083	41816
26.35897	41562
26.36708	45913
26.37520	47864
26.38333	52803
26.39145	61684
26.39957	72135
26.40770	84105
26.41582	108468
26.42395	110657
26.43207	117775
26.44018	114357
26.44832	102098
26.45643	93820
26.46457	75250
26.47268	63493
26.48080	63502
26.48893	54636
26.49705	48592
26.50518	50898
26.51330	47574
26.52142	50702
26.52955	45328
26.53767	43548
26.54578	43896
26.55392	40264
26.56203	40934
26.57017	39460
26.57828	43615
26.58640	39105
26.59453	44077
26.60265	41943
26.61078	43463
26.61890	39323
26.62702	38518
26.63515	40393
26.64327	40483
26.65138	41124
26.65952	42557
26.66763	40320
26.67577	40847
26.68388	38663
26.69200	41590
26.70013	42224
26.70825	40558
26.71638	40098
26.72450	36168
26.73262	39637
26.74075	37013
26.74887	36105
26.75700	41765
26.76512	39596
26.77323	42702
26.78137	41996
26.78948	47823
26.79760	38455
26.80573	42856
26.81385	43736
26.82198	45974
26.83010	44955
26.83822	46232
26.84635	41296
26.85447	49545
26.86260	45222
26.87072	47145
26.87883	42482
26.88697	43119
26.89508	51537
26.90322	45007
26.91133	45118
26.91945	41593
26.92758	41100
26.93570	42264
26.94382	45363
26.95195	42445
26.96007	44228
26.96820	56152
26.97632	79833
26.98443	136194
26.99257	270167
27.00068	514134
27.00882	1024373
27.01693	1866107
27.02505	2803803
27.03318	3475908
27.04130	3704630
27.04942	3343072
27.05755	2655077
27.06567	1988814
27.07380	1460045
27.08192	1037691
27.09003	783437
27.09817	615841
27.10628	511148
27.11442	419896
27.12253	360654
27.13065	336447
27.13878	298445
27.14690	268558
27.15503	242486
27.16315	236419
27.17127	207282
27.17940	194839
27.18752	190059
27.19563	178329
27.20377	173126
27.21188	175355
27.22002	167838
27.22813	158561
27.23625	149337
27.24438	147733
27.25250	131309
27.26063	129225
27.26875	129676
27.27687	122085
27.28500	122785
27.29312	112065
27.30125	102030
27.30937	106437
27.31748	100250
27.32562	107527
27.33373	104187
27.34185	95663
27.34998	94972
27.35810	92148
27.36623	93428
27.37435	95785
27.38247	90337
27.39060	85165
27.39872	87243
27.40685	83327
27.41497	80737
27.42308	83937
27.43122	78279
27.43933	75867
27.44745	73929
27.45558	82257
27.46370	74491
27.47183	73775
27.47995	76968
27.48807	71872
27.49620	72769
27.50432	71421
27.51245	72330
27.52057	72653
27.52868	74010
27.53682	71740
27.54493	69070
27.55307	70233
27.56118	80287
27.56930	70564
27.57743	68042
27.58555	64840
27.59367	67730
27.60180	64642
27.60992	63538
27.61805	67670
27.62617	70246
27.63428	66812
27.64242	71769
27.65053	68257
27.65867	62496
27.66678	67510
27.67490	61587
27.68303	67062
27.69115	57550
27.69927	56711
27.70740	56897
27.71552	59770
27.72365	59918
27.73177	62019
27.73988	59407
27.74802	57121
27.75613	55978
27.76427	59242
27.77238	60662
27.78050	56028
27.78863	57438
27.79675	53701
27.80488	60367
27.81300	52888
27.82112	52199
27.82925	53594
27.83737	52142
27.84548	59680
27.85362	56169
27.86173	55574
27.86987	58288
27.87798	57438
27.88610	57870
27.89423	57256
27.90235	56363
27.91048	54077
27.91860	54302
27.92672	50532
27.93485	49856
27.94297	55855
27.95110	52406
27.95922	47740
27.96733	50695
27.97547	47245
27.98358	50501
27.99170	52191
27.99983	48976
28.00795	50824
28.01608	51704
28.02420	46425
28.03232	46908
28.04045	52862
28.04857	51913
28.05670	47272
28.06482	55590
28.07293	60504
28.08107	54039
28.08918	55515
28.09730	53292
28.10543	54439
28.11355	45211
28.12168	52786
28.12980	48645
28.13792	50323
28.14605	46218
28.15417	45173
28.16230	46867
28.17042	45421
28.17853	43410
28.18667	44404
28.19478	50300
28.20292	47223
28.21103	50662
28.21915	57053
28.22728	57983
28.23540	61037
28.24352	68900
28.25165	61125
28.25977	55495
28.26790	50505
28.27602	49119
28.28413	48046
28.29227	46758
28.30038	54624
28.30852	62345
28.31663	77822
28.32475	109379
28.33288	167448
28.34100	239284
28.34913	312203
28.35725	403463
28.36537	495971
28.37350	552707
28.38162	581538
28.38973	599282
28.39787	591240
28.40598	578762
28.41412	514756
28.42223	449540
28.43035	380574
28.43848	349556
28.44660	290936
28.45473	264525
28.46285	240614
28.47097	214635
28.47910	184784
28.48722	171310
28.49533	160920
28.50347	154379
28.51158	137316
28.51972	133999
28.52783	129115
28.53595	122151
28.54408	113466
28.55220	108873
28.56033	110058
28.56845	100938
28.57657	100497
28.58470	99658
28.59282	91913
28.60095	95667
28.60907	94737
28.61718	94861
28.62532	88150
28.63343	92242
28.64155	84417
28.64968	85242
28.65780	90593
28.66593	89686
28.67405	90434
28.68217	88422
28.69030	82121
28.69842	84762
28.70655	81631
28.71467	79829
28.72278	78227
28.73092	77523
28.73903	69189
28.74715	73724
28.75528	71007
28.76340	74557
28.77153	76664
28.77965	86196
28.78777	91804
28.79590	101051
28.80402	98052
28.81215	97500
28.82027	88004
28.82838	77937
28.83652	68721
28.84463	67831
28.85277	61366
28.86088	59865
28.86900	61419
28.87713	58999
28.88525	67746
28.89337	60326
28.90150	57730
28.90962	62803
28.91775	64347
28.92587	64862
28.93398	60380
28.94212	58918
28.95023	57031
28.95837	60982
28.96648	63253
28.97460	63991
28.98273	59964
28.99085	58309
28.99898	57709
29.00710	56624
29.01522	53445
29.02335	56367
29.03147	51731
29.03958	56623
29.04772	51990
29.05583	54233
29.06397	54021
29.07208	50217
29.08020	53137
29.08833	52968
29.09645	55759
29.10458	52676
29.11270	57513
29.12082	53644
29.12895	52272
29.13707	52773
29.14520	55397
29.15332	55231
29.16143	49967
29.16957	53256
29.17768	54223
29.18580	54554
29.19393	54323
29.20205	54822
29.21018	53733
29.21830	55374
29.22642	56284
29.23455	54533
29.24267	55500
29.25080	51522
29.25892	56933
29.26703	55269
29.27517	55297
29.28328	52960
29.29140	63497
29.29953	54200
29.30765	53474
29.31578	56333
29.32390	57042
29.33202	54819
29.34015	53702
29.34827	51329
29.35640	51315
29.36452	55049
29.37263	56929
29.38077	50536
29.38888	47165
29.39702	55228
29.40513	54219
29.41325	57494
29.42138	55590
29.42950	52529
29.43762	50424
29.44575	51861
29.45387	53152
29.46200	53596
29.47012	45164
29.47823	53179
29.48637	48130
29.49448	53117
29.50262	55506
29.51073	59295
29.51885	59887
29.52698	61403
29.53510	60839
29.54322	55311
29.55135	57173
29.55947	50990
29.56760	45977
29.57572	46732
29.58383	49824
29.59197	48256
29.60008	50502
29.60822	46092
29.61633	52461
29.62445	49206
29.63258	47877
29.64070	46406
29.64883	48739
29.65695	49475
29.66507	44235
29.67320	47864
29.68132	51813
29.68943	42835
29.69757	45116
29.70568	45987
29.71382	45005
29.72193	45802
29.73005	43996
29.73818	47621
29.74630	48551
29.75443	45902
29.76255	45197
29.77067	46553
29.77880	52920
29.78692	43189
29.79505	45140
29.80317	44124
29.81128	43078
29.81942	46120
29.82753	41815
29.83565	42614
29.84378	43966
29.85190	45317
29.86003	44080
29.86815	43509
29.87627	46210
29.88440	50350
29.89252	50066
29.90065	62625
29.90877	67871
29.91688	73941
29.92502	76717
29.93313	72353
29.94125	65473
29.94938	63953
29.95750	69344
29.96563	76612
29.97375	89425
29.98187	102674
29.99000	129072
29.99812	153369
30.00625	169411
30.01437	186809
30.02248	216320
30.03062	217996
30.03873	231681
30.04687	241244
30.05498	245656
30.06310	234376
30.07123	213336
30.07935	215056
30.08747	198336
30.09560	184539
30.10372	179472
30.11185	163003
30.11997	150984
30.12808	137853
30.13622	132215
30.14433	120696
30.15247	110231
30.16058	106329
30.16870	96457
30.17683	96120
30.18495	87703
30.19308	90303
30.20120	84965
30.20932	86079
30.21745	81575
30.22557	80949
30.23368	81467
30.24182	73780
30.24993	74364
30.25807	70154
30.26618	69562
30.27430	66537
30.28243	63853
30.29055	63853
30.29868	67562
30.30680	61627
30.31492	58610
30.32305	61808
30.33117	60441
30.33928	56485
30.34742	62111
30.35553	60376
30.36367	61088
30.37178	58233
30.37990	54652
30.38803	55202
30.39615	54851
30.40428	57008
30.41240	54448
30.42052	51766
30.42865	56372
30.43677	57146
30.44490	56092
30.45302	50764
30.46113	50306
30.46927	53568
30.47738	51980
30.48550	47771
30.49363	49357
30.50175	49591
30.50988	51284
30.51800	51797
30.52612	50955
30.53425	46759
30.54237	49267
30.55050	49841
30.55862	52913
30.56673	53385
30.57487	44101
30.58298	50391
30.59110	52030
30.59923	50281
30.60735	50653
30.61548	47323
30.62360	49787
30.63172	46485
30.63985	49869
30.64797	47598
30.65610	48165
30.66422	47376
30.67233	46720
30.68047	50509
30.68858	50109
30.69672	48449
30.70483	45352
30.71295	49566
30.72108	48397
30.72920	48185
30.73732	41215
30.74545	44725
30.75357	46053
30.76170	46048
30.76982	48296
30.77793	44868
30.78607	47661
30.79418	51227
30.80232	52646
30.81043	48283
30.81855	54154
30.82668	49680
30.83480	50577
30.84293	52926
30.85105	51972
30.85917	53609
30.86730	50382
30.87542	43838
30.88353	43174
30.89167	46039
30.89978	45417
30.90792	48687
30.91603	42411
30.92415	45673
30.93228	46097
30.94040	45189
30.94853	45475
30.95665	50637
30.96477	43257
30.97290	41883
30.98102	43315
30.98913	43834
30.99727	40220
31.00538	44131
31.01352	44152
31.02163	39804
31.02975	41691
31.03788	47648
31.04600	49081
31.05413	48561
31.06225	46151
31.07037	58714
31.07850	49870
31.08662	47790
31.09475	47269
31.10287	55110
31.11098	58601
31.11912	60191
31.12723	67185
31.13535	66663
31.14348	59590
31.15160	56179
31.15973	53807
31.16785	54673
31.17597	51175
31.18410	50270
31.19222	53097
31.20035	61066
31.20847	70156
31.21658	85618
31.22472	97550
31.23283	112370
31.24097	106665
31.24908	103213
31.25720	102340
31.26533	81585
31.27345	65745
31.28157	58156
31.28970	49843
31.29782	51583
31.30595	47248
31.31407	47937
31.32218	45341
31.33032	45480
31.33843	45478
31.34657	41996
31.35468	43839
31.36280	45898
31.37093	43168
31.37905	43856
31.38717	43730
31.39530	42128
31.40342	44146
31.41155	44700
31.41967	44533
31.42778	46771
31.43592	51247
31.44403	54796
31.45217	51415
31.46028	50974
31.46840	43042
31.47653	49593
31.48465	42068
31.49278	43364
31.50090	42180
31.50902	42369
31.51715	46145
31.52527	45816
31.53338	45306
31.54152	42106
31.54963	45067
31.55777	44779
31.56588	44791
31.57400	47093
31.58213	45093
31.59025	43089
31.59838	50793
31.60650	40579
31.61462	39619
31.62275	42313
31.63087	40892
31.63900	44984
31.64712	41995
31.65523	41187
31.66337	45226
31.67148	42210
31.67960	41692
31.68773	42007
31.69585	41306
31.70398	41146
31.71210	42889
31.72022	41419
31.72835	44121
31.73647	41486
31.74460	39924
31.75272	43133
31.76083	40109
31.76897	39376
31.77708	39498
31.78520	42297
31.79333	38332
31.80145	42946
31.80958	47382
31.81770	44759
31.82582	45064
31.83395	42754
31.84207	46093
31.85020	48728
31.85832	43020
31.86643	54617
31.87457	46882
31.88268	53887
31.89082	46723
31.89893	49530
31.90705	54804
31.91518	56832
31.92330	58227
31.93142	71343
31.93955	81533
31.94767	99775
31.95580	103919
31.96392	117961
31.97203	131714
31.98017	128682
31.98828	137466
31.99642	137475
32.00453	132782
32.01265	140949
32.02078	131832
32.02890	123771
32.03702	107405
32.04515	107267
32.05327	93864
32.06140	97743
32.06952	85021
32.07763	83531
32.08577	83793
32.09388	85768
32.10202	84197
32.11013	79976
32.11825	76218
32.12638	71994
32.13450	71849
32.14263	66439
32.15075	59238
32.15887	62323
32.16700	58680
32.17512	55007
32.18323	60228
32.19137	57084
32.19948	50060
32.20762	55301
32.21573	55240
32.22385	58141
32.23198	55668
32.24010	54451
32.24823	50075
32.25635	57520
32.26447	56870
32.27260	54846
32.28072	51940
32.28885	48393
32.29697	48399
32.30508	51107
32.31322	50389
32.32133	48874
32.32945	52444
32.33758	55625
32.34570	54249
32.35383	49540
32.36195	49593
32.37007	51970
32.37820	49307
32.38632	49348
32.39445	46530
32.40257	48896
32.41068	51966
32.41882	48795
32.42693	47519
32.43505	47643
32.44318	45181
32.45130	46432
32.45943	47424
32.46755	47325
32.47567	48188
32.48380	46056
32.49192	46744
32.50005	53306
32.50817	49406
32.51628	40624
32.52442	45682
32.53253	49702
32.54067	46311
32.54878	43334
32.55690	48919
32.56503	43776
32.57315	44513
32.58127	52850
32.58940	44448
32.59752	45301
32.60565	46027
32.61377	42529
32.62188	49842
32.63002	42845
32.63813	42389
32.64627	46947
32.65438	46121
32.66250	55065
32.67063	55210
32.67875	65152
32.68688	68507
32.69500	69125
32.70312	64079
32.71125	66685
32.71937	58313
32.72748	55082
32.73562	54041
32.74373	52804
32.75187	48779
32.75998	48588
32.76810	44596
32.77623	45590
32.78435	44589
32.79248	44492
32.80060	42461
32.80872	44673
32.81685	43004
32.82497	40221
32.83308	40036
32.84122	43173
32.84933	45964
32.85747	49277
32.86558	42852
32.87370	43873
32.88183	44836
32.88995	44301
32.89808	42382
32.90620	43789
32.91432	47579
32.92245	43994
32.93057	47793
32.93870	44661
32.94682	46153
32.95493	44250
32.96307	46432
32.97118	47155
32.97930	52111
32.98743	43602
32.99555	47820
33.00368	47519
33.01180	46795
33.01992	50888
33.02805	48551
33.03617	48386
33.04430	51123
33.05242	45948
33.06053	44457
33.06867	48064
33.07678	45970
33.08490	45816
33.09303	48035
33.10115	45760
33.10928	58717
33.11740	56449
33.12552	54385
33.13365	62937
33.14177	57760
33.14990	58614
33.15802	54366
33.16613	46847
33.17427	46410
33.18238	49234
33.19052	44604
33.19863	43562
33.20675	46449
33.21488	46139
33.22300	46497
33.23112	49858
33.23925	46013
33.24737	52201
33.25550	44634
33.26362	46077
33.27173	42972
33.27987	46619
33.28798	45471
33.29612	42017
33.30423	43301
33.31235	49224
33.32048	46305
33.32860	44771
33.33673	45569
33.34485	49351
33.35297	45714
33.36110	45400
33.36922	44262
33.37733	44943
33.38547	42206
33.39358	52134
33.40172	41946
33.40983	44830
33.41795	43618
33.42608	41073
33.43420	42674
33.44233	42917
33.45045	40452
33.45857	38786
33.46670	40982
33.47482	44771
33.48295	47547
33.49107	42592
33.49918	46741
33.50732	40348
33.51543	43142
33.52355	43032
33.53168	46215
33.53980	45814
33.54793	44745
33.55605	46671
33.56417	41093
33.57230	43047
33.58042	47361
33.58855	41496
33.59667	44965
33.60478	47388
33.61292	45568
33.62103	48854
33.62915	45563
33.63728	44504
33.64540	41195
33.65353	39921
33.66165	46672
33.66977	47870
33.67790	42943
33.68602	43573
33.69415	44297
33.70227	42139
33.71038	42807
33.71852	41448
33.72663	43647
33.73477	40143
33.74288	42630
33.75100	42284
33.75913	46436
33.76725	47124
33.77537	44659
33.78350	41406
33.79162	42146
33.79975	46197
33.80787	40756
33.81598	42711
33.82412	47938
33.83223	46512
33.84037	47255
33.84848	43968
33.85660	44817
33.86473	43700
33.87285	49360
33.88097	49514
33.88910	51878
33.89722	47353
33.90535	47006
33.91347	55284
33.92158	49533
33.92972	46475
33.93783	46200
33.94597	45196
33.95408	44567
33.96220	45943
33.97033	43266
33.97845	46145
33.98658	44512
33.99470	43996
34.00282	40811
34.01095	45741
34.01907	44426
34.02718	43080
34.03532	42654
34.04343	47294
34.05157	39557
34.05968	41055
34.06780	44861
34.07593	43493
34.08405	42504
34.09218	44906
34.10030	39508
34.10842	45122
34.11655	46264
34.12467	45558
34.13280	51807
34.14092	39753
34.14903	44299
34.15717	47385
34.16528	51734
34.17340	43528
34.18153	47654
34.18965	45309
34.19778	47924
34.20590	43988
34.21402	42271
34.22215	42917
34.23027	43534
34.23840	45811
34.24652	43688
34.25463	43208
34.26277	45921
34.27088	50082
34.27900	44508
34.28713	44862
34.29525	43376
34.30338	49735
34.31150	50899
34.31962	42935
34.32775	38220
34.33587	46849
34.34400	45005
34.35212	47029
34.36023	45976
34.36837	42888
34.37648	47516
34.38462	46885
34.39273	45243
34.40085	42724
34.40898	43558
34.41710	48456
34.42522	45760
34.43335	50669
34.44147	41869
34.44960	46132
34.45772	49158
34.46583	48122
34.47397	45070
34.48208	42704
34.49022	48083
34.49833	41752
34.50645	45739
34.51458	46241
34.52270	50686
34.53083	55380
34.53895	70050
34.54707	76170
34.55520	84443
34.56332	99189
34.57143	105981
34.57957	108017
34.58768	99046
34.59582	92955
34.60393	90915
34.61205	82036
34.62018	79074
34.62830	75527
34.63643	72836
34.64455	71293
34.65267	63875
34.66080	62827
34.66892	64128
34.67703	60498
34.68517	58626
34.69328	64587
34.70142	53026
34.70953	57733
34.71765	57119
34.72578	49729
34.73390	54176
34.74203	57579
34.75015	56605
34.75827	55481
34.76640	57360
34.77452	51262
34.78265	56315
34.79077	58325
34.79888	51920
34.80702	51687
34.81513	57167
34.82325	49982
34.83138	50002
34.83950	50641
34.84763	50357
34.85575	51171
34.86387	55312
34.87200	49595
34.88012	50039
34.88825	51068
34.89637	50769
34.90448	48952
34.91262	51371
34.92073	52671
34.92885	52312
34.93698	56838
34.94510	58288
34.95323	55397
34.96135	57009
34.96947	58418
34.97760	69259
34.98572	71950
34.99385	75493
35.00197	73011
35.01008	71179
35.01822	64035
35.02633	58721
35.03447	56442
35.04258	56722
35.05070	53604
35.05883	62150
35.06695	57714
35.07507	52144
35.08320	54434
35.09132	57077
35.09945	53597
35.10757	54720
35.11568	54405
35.12382	51897
35.13193	54460
35.14007	51874
35.14818	52245
35.15630	53197
35.16443	55898
35.17255	58620
35.18068	58686
35.18880	60298
35.19692	60964
35.20505	56209
35.21317	59178
35.22128	48851
35.22942	49901
35.23753	51841
35.24567	51964
35.25378	54010
35.26190	52026
35.27003	53759
35.27815	51936
35.28628	54914
35.29440	51426
35.30252	55160
35.31065	54273
35.31877	57416
35.32688	51944
35.33502	48355
35.34313	49021
35.35127	47411
35.35938	51662
35.36750	48196
35.37563	53704
35.38375	47247
35.39188	49315
35.40000	51024
35.40812	52456
35.41625	52260
35.42437	51932
35.43250	50670
35.44062	55409
35.44873	53661
35.45687	62011
35.46498	55891
35.47310	51735
35.48123	51990
35.48935	55660
35.49748	51397
35.50560	55529
35.51372	52848
35.52185	54103
35.52997	55805
35.53810	51462
35.54622	48382
35.55433	49814
35.56247	51873
35.57058	54778
35.57872	51145
35.58683	53131
35.59495	50346
35.60308	51934
35.61120	52021
35.61932	48656
35.62745	54813
35.63557	50677
35.64370	50002
35.65182	48547
35.65993	52585
35.66807	48773
35.67618	48649
35.68432	51648
35.69243	53841
35.70055	58104
35.70868	63337
35.71680	60839
35.72492	58135
35.73305	54993
35.74117	56880
35.74930	49593
35.75742	52100
35.76553	60011
35.77367	53704
35.78178	61085
35.78992	57920
35.79803	52686
35.80615	56537
35.81428	53730
35.82240	50124
35.83053	51738
35.83865	52092
35.84677	53131
35.85490	53108
35.86302	52105
35.87113	54190
35.87927	53791
35.88738	55611
35.89552	55749
35.90363	52561
35.91175	49603
35.91988	52144
35.92800	53000
35.93613	51698
35.94425	55846
35.95237	55562
35.96050	50896
35.96862	52048
35.97675	51434
35.98487	52794
35.99298	51249
36.00112	51393
36.00923	57586
36.01735	48121
36.02548	54865
36.03360	55649
36.04173	52985
36.04985	54617
36.05797	56935
36.06610	56299
36.07422	54689
36.08235	53952
36.09047	53398
36.09858	51413
36.10672	51330
36.11483	52487
36.12295	52053
36.13108	55435
36.13920	54924
36.14733	54957
36.15545	59260
36.16357	53566
36.17170	58865
36.17982	48513
36.18795	57453
36.19607	52821
36.20418	56878
36.21232	51370
36.22043	52311
36.22857	51746
36.23668	50897
36.24480	51369
36.25293	51393
36.26105	56290
36.26917	54702
36.27730	54611
36.28542	53584
36.29355	58130
36.30167	56206
36.30978	59476
36.31792	58288
36.32603	65594
36.33417	76731
36.34228	76716
36.35040	66966
36.35853	64366
36.36665	63358
36.37477	62713
36.38290	63576
36.39102	64438
36.39915	64361
36.40727	64857
36.41538	61431
36.42352	62625
36.43163	58612
36.43977	54557
36.44788	56195
36.45600	59040
36.46413	57512
36.47225	58103
36.48038	53374
36.48850	51780
36.49662	52808
36.50475	50323
36.51287	51633
36.52098	53942
36.52912	53417
36.53723	57782
36.54537	52248
36.55348	55477
36.56160	50751
36.56973	55987
36.57785	55834
36.58598	53123
36.59410	53335
36.60222	56186
36.61035	55838
36.61847	55098
36.62660	53842
36.63472	54469
36.64283	57127
36.65097	52675
36.65908	52252
36.66720	52951
36.67533	53384
36.68345	55281
36.69158	56136
36.69970	58336
36.70782	55353
36.71595	58773
36.72407	63905
36.73220	55982
36.74032	52179
36.74843	59509
36.75657	55121
36.76468	56587
36.77280	55412
36.78093	57833
36.78905	52202
36.79718	51889
36.80530	57317
36.81342	53278
36.82155	53772
36.82967	55768
36.83780	52733
36.84592	53126
36.85403	58880
36.86217	54955
36.87028	54993
36.87842	53830
36.88653	59250
36.89465	60401
36.90278	52253
36.91090	52954
36.91902	55282
36.92715	59596
36.93527	62338
36.94340	55263
36.95152	51444
36.95963	56464
36.96777	51390
36.97588	63798
36.98402	54958
36.99213	50749
37.00025	56552
37.00838	51261
37.01650	51867
37.02463	54450
37.03275	52690
37.04087	52012
37.04900	55258
37.05712	52750
37.06523	54383
37.07337	50527
37.08148	58232
37.08962	62047
37.09773	63067
37.10585	60877
37.11398	52217
37.12210	56780
37.13023	55330
37.13835	55120
37.14647	55481
37.15460	57366
37.16272	55151
37.17083	60675
37.17897	55989
37.18708	56063
37.19522	59139
37.20333	59215
37.21145	57731
37.21958	55669
37.22770	57654
37.23583	62966
37.24395	59425
37.25207	57593
37.26020	57961
37.26832	57865
37.27645	53224
37.28457	61467
37.29268	59582
37.30082	60648
37.30893	59386
37.31705	63725
37.32518	61995
37.33330	65915
37.34143	71451
37.34955	70766
37.35767	76033
37.36580	91786
37.37392	87211
37.38205	94748
37.39017	92535
37.39828	95318
37.40642	87148
37.41453	81989
37.42265	78952
37.43078	72871
37.43890	76617
37.44703	67783
37.45515	69653
37.46327	72720
37.47140	69578
37.47952	68220
37.48765	71468
