Z:\data\JTB-E02\BACandBLUE\JTB-E02-189-24.D Mon Dec 10 20:26:37 2018
Start of data points
2.09537,97246
2.10350,101217
2.11162,103531
2.11975,102198
2.12787,103018
2.13598,104295
2.14412,102772
2.15223,100227
2.16037,96206
2.16848,99029
2.17660,93817
2.18473,93789
2.19285,93323
2.20097,89897
2.20910,86187
2.21722,85585
2.22535,82698
2.23347,82147
2.24158,83809
2.24972,80060
2.25783,84696
2.26597,325950
2.27408,1104048
2.28220,1418430
2.29033,999849
2.29845,519735
2.30658,355001
2.31470,286057
2.32282,263286
2.33095,234318
2.33907,213402
2.34718,205021
2.35532,182306
2.36343,183368
2.37157,178440
2.37968,165565
2.38780,164579
2.39593,148763
2.40405,165147
2.41218,152333
2.42030,148542
2.42842,150611
2.43655,143538
2.44467,146848
2.45280,144434
2.46092,135891
2.46903,140374
2.47717,131704
2.48528,143700
2.49340,137546
2.50153,160703
2.50965,143131
2.51778,141293
2.52590,132925
2.53402,131570
2.54215,127307
2.55027,134250
2.55840,148356
2.56652,142087
2.57463,133897
2.58277,130809
2.59088,123496
2.59900,127342
2.60713,172118
2.61525,279478
2.62338,304054
2.63150,225171
2.63962,173426
2.64775,156614
2.65587,141915
2.66400,136628
2.67212,131966
2.68023,122283
2.68837,118848
2.69648,119925
2.70462,124869
2.71273,117654
2.72085,117082
2.72898,114513
2.73710,114825
2.74522,112299
2.75335,115537
2.76147,111506
2.76960,232537
2.77772,1757027
2.78583,6532881
2.79397,9952839
2.80208,7137445
2.81022,3932735
2.81833,2638579
2.82645,2016569
2.83458,1529809
2.84270,1205943
2.85083,987909
2.85895,835108
2.86707,720134
2.87520,623792
2.88332,554500
2.89143,508305
2.89957,456725
2.90768,411816
2.91582,374800
2.92393,355701
2.93205,323891
2.94018,310920
2.94830,288927
2.95643,275835
2.96455,263301
2.97267,262886
2.98080,244114
2.98892,247996
2.99703,247870
3.00517,249925
3.01328,245843
3.02142,240703
3.02953,234076
3.03765,218716
3.04578,198147
3.05390,191479
3.06203,188101
3.07015,184009
3.07827,196936
3.08640,277977
3.09452,524159
3.10265,1223796
3.11077,2762364
3.11888,3701615
3.12702,2823405
3.13513,1788959
3.14325,1225951
3.15138,958287
3.15950,761805
3.16763,746518
3.17575,937886
3.18387,1633359
3.19200,4326050
3.20012,7937919
3.20825,7795276
3.21637,5372408
3.22448,3672220
3.23262,2758530
3.24073,2191842
3.24885,1765946
3.25698,1499592
3.26510,1259828
3.27323,1091422
3.28135,991430
3.28947,1100801
3.29760,2159754
3.30572,5016273
3.31385,8162431
3.32197,8761581
3.33008,6750360
3.33822,4426686
3.34633,3012959
3.35447,2174936
3.36258,1714139
3.37070,1415929
3.37883,1193404
3.38695,1054143
3.39507,953301
3.40320,864677
3.41132,768067
3.41945,716337
3.42757,686486
3.43568,721904
3.44382,752536
3.45193,728784
3.46007,685383
3.46818,788157
3.47630,1024975
3.48443,1047329
3.49255,834653
3.50068,638087
3.50880,540475
3.51692,490350
3.52505,458237
3.53317,487833
3.54128,559645
3.54942,611450
3.55753,558630
3.56567,467274
3.57378,413405
3.58190,382282
3.59003,362221
3.59815,334679
3.60628,325681
3.61440,314387
3.62252,318840
3.63065,335663
3.63877,358188
3.64688,368785
3.65502,514604
3.66313,2717800
3.67127,1.503183E+07
3.67938,3.836544E+07
3.68750,5.554941E+07
3.69563,5.755552E+07
3.70375,4.680657E+07
3.71188,3.431898E+07
3.72000,2.618959E+07
3.72812,2.152048E+07
3.73625,1.793905E+07
3.74437,1.543957E+07
3.75250,1.338857E+07
3.76062,1.175331E+07
3.76873,1.037761E+07
3.77687,9179604
3.78498,8320844
3.79310,7595179
3.80123,7058228
3.80935,6707496
3.81748,6844158
3.82560,6941529
3.83372,6499052
3.84185,5699735
3.84997,5181229
3.85810,4705128
3.86622,4323585
3.87433,4091198
3.88247,3819103
3.89058,3620758
3.89872,3472175
3.90683,3289195
3.91495,3276857
3.92308,3600441
3.93120,4281350
3.93932,4556380
3.94745,4095947
3.95557,3408417
3.96370,3026498
3.97182,2870013
3.97993,2720921
3.98807,2459246
3.99618,2291608
4.00432,2193409
4.01243,2182620
4.02055,2205120
4.02868,2154148
4.03680,2021127
4.04492,1876434
4.05305,1765128
4.06117,1669575
4.06930,1604526
4.07742,1556194
4.08553,1534041
4.09367,1524595
4.10178,1534031
4.10992,1477453
4.11803,1419363
4.12615,1371762
4.13428,1283440
4.14240,1297997
4.15053,1282717
4.15865,1284679
4.16677,1279730
4.17490,1262163
4.18302,1260504
4.19113,1243355
4.19927,1226698
4.20738,1413194
4.21552,3092483
4.22363,8418974
4.23175,1.718285E+07
4.23988,2.527823E+07
4.24800,3.106314E+07
4.25613,3.515824E+07
4.26425,3.615891E+07
4.27237,2.869043E+07
4.28050,1.494778E+07
4.28862,9200081
4.29675,7059817
4.30487,5721974
4.31298,4720668
4.32112,4009573
4.32923,3429205
4.33735,3021085
4.34548,2700131
4.35360,2499065
4.36173,2556256
4.36985,2888622
4.37797,3217304
4.38610,3031681
4.39422,2521956
4.40235,2065087
4.41047,1762809
4.41858,1579517
4.42672,1456709
4.43483,1365629
4.44295,1285355
4.45108,1234269
4.45920,1167145
4.46733,1125663
4.47545,1082360
4.48357,1059322
4.49170,1044904
4.49982,1013478
4.50795,967736
4.51607,936493
4.52418,919448
4.53232,914731
4.54043,917126
4.54857,978166
4.55668,1024063
4.56480,1032355
4.57293,964129
4.58105,885442
4.58917,825279
4.59730,807471
4.60542,795159
4.61355,789918
4.62167,851320
4.62978,1215938
4.63792,2160462
4.64603,3443293
4.65417,4109507
4.66228,3631315
4.67040,2674794
4.67853,2059042
4.68665,1747692
4.69477,1559985
4.70290,1322779
4.71102,1105568
4.71915,955267
4.72727,862408
4.73538,798305
4.74352,750466
4.75163,722386
4.75977,700840
4.76788,675730
4.77600,655072
4.78413,652273
4.79225,666953
4.80038,757403
4.80850,917454
4.81662,1034153
4.82475,978372
4.83287,872582
4.84098,838918
4.84912,906283
4.85723,1020890
4.86537,1016262
4.87348,928698
4.88160,807664
4.88973,722796
4.89785,685224
4.90598,651614
4.91410,624781
4.92222,603118
4.93035,582463
4.93847,592405
4.94660,695853
4.95472,957297
4.96283,1398161
4.97097,1834013
4.97908,1952259
4.98720,1764352
4.99533,1472844
5.00345,1217447
5.01158,1074537
5.01970,1023146
5.02782,1073075
5.03595,1380911
5.04407,1983590
5.05220,2413662
5.06032,2360907
5.06843,2003488
5.07657,1653924
5.08468,1407145
5.09280,1250864
5.10093,1136025
5.10905,1052979
5.11718,998097
5.12530,925653
5.13342,872602
5.14155,833935
5.14967,866934
5.15780,1054386
5.16592,1480702
5.17403,1869608
5.18217,1965909
5.19028,1781217
5.19842,1585336
5.20653,1633160
5.21465,1848111
5.22278,1946651
5.23090,1758544
5.23902,1423399
5.24715,1233533
5.25527,984648
5.26340,834926
5.27152,722122
5.27963,662360
5.28777,619175
5.29588,591654
5.30402,551096
5.31213,557293
5.32025,527491
5.32838,540998
5.33650,551588
5.34463,582284
5.35275,596621
5.36087,588315
5.36900,552269
5.37712,518343
5.38523,534301
5.39337,595970
5.40148,728600
5.40962,852889
5.41773,851318
5.42585,752996
5.43398,644923
5.44210,593924
5.45023,640613
5.45835,799937
5.46647,953313
5.47460,975216
5.48272,824345
5.49083,680016
5.49897,562181
5.50708,498516
5.51522,468586
5.52333,455535
5.53145,450330
5.53958,452592
5.54770,481060
5.55583,666771
5.56395,1221567
5.57207,2289341
5.58020,3347379
5.58832,3807663
5.59645,3301881
5.60457,2400110
5.61268,1593611
5.62082,1102648
5.62893,841361
5.63705,721293
5.64518,639506
5.65330,578101
5.66143,521217
5.66955,504822
5.67767,482891
5.68580,513729
5.69392,567023
5.70205,637515
5.71017,690467
5.71828,689913
5.72642,616024
5.73453,559480
5.74267,492777
5.75078,442935
5.75890,432472
5.76703,405707
5.77515,400611
5.78327,380544
5.79140,375940
5.79952,358956
5.80765,362950
5.81577,356130
5.82388,364881
5.83202,355339
5.84013,347438
5.84827,351155
5.85638,333865
5.86450,333765
5.87263,333535
5.88075,326243
5.88887,331988
5.89700,324633
5.90512,339341
5.91325,391662
5.92137,466283
5.92948,528565
5.93762,527272
5.94573,488124
5.95387,457271
5.96198,491294
5.97010,582356
5.97823,717391
5.98635,920452
5.99448,1125456
6.00260,1219342
6.01072,1155948
6.01885,957309
6.02697,737375
6.03508,569968
6.04322,468026
6.05133,413509
6.05947,381251
6.06758,359503
6.07570,361283
6.08383,359288
6.09195,357087
6.10008,335280
6.10820,319989
6.11632,313960
6.12445,340302
6.13257,528089
6.14070,995117
6.14882,1659127
6.15693,2148138
6.16507,2173349
6.17318,1786426
6.18130,1364445
6.18943,1078482
6.19755,903311
6.20568,770745
6.21380,671930
6.22192,620784
6.23005,556337
6.23817,539441
6.24630,550098
6.25442,641270
6.26253,805727
6.27067,938521
6.27878,946777
6.28690,814174
6.29503,654247
6.30315,564025
6.31128,525987
6.31940,490039
6.32752,476744
6.33565,452236
6.34377,443575
6.35190,426745
6.36002,409238
6.36813,396879
6.37627,393726
6.38438,410935
6.39252,419103
6.40063,410404
6.40875,397165
6.41688,376808
6.42500,359283
6.43312,353240
6.44125,353333
6.44937,375998
6.45750,383507
6.46562,399872
6.47373,404886
6.48187,387366
6.48998,372725
6.49812,346353
6.50623,368065
6.51435,360385
6.52248,375130
6.53060,389213
6.53872,387267
6.54685,368506
6.55497,323512
6.56310,454218
6.57122,875356
6.57933,1783693
6.58747,2997732
6.59558,3763061
6.60372,3663972
6.61183,2765934
6.61995,1822138
6.62808,1170313
6.63620,829190
6.64433,650563
6.65245,529574
6.66057,457621
6.66870,414106
6.67682,375920
6.68493,386052
6.69307,366381
6.70118,344081
6.70932,304858
6.71743,285973
6.72555,273322
6.73368,263433
6.74180,259690
6.74993,256151
6.75805,244787
6.76617,229826
6.77430,229426
6.78242,247683
6.79055,255252
6.79867,281826
6.80678,278062
6.81492,263660
6.82303,255043
6.83115,235236
6.83928,235689
6.84740,228012
6.85553,216627
6.86365,228987
6.87177,224303
6.87990,226237
6.88802,232517
6.89615,250955
6.90427,232532
6.91238,222888
6.92052,202761
6.92863,192340
6.93675,181730
6.94488,173125
6.95300,176977
6.96113,176359
6.96925,186366
6.97737,208848
6.98550,236867
6.99362,249009
7.00175,238563
7.00987,228628
7.01798,201655
7.02612,208747
7.03423,198060
7.04237,192989
7.05048,191207
7.05860,186082
7.06673,191143
7.07485,212221
7.08297,274469
7.09110,435215
7.09922,681878
7.10735,923925
7.11547,1063133
7.12358,1021001
7.13172,834548
7.13983,638840
7.14797,517125
7.15608,640199
7.16420,1399771
7.17233,3351247
7.18045,6615664
7.18858,9987124
7.19670,1.104801E+07
7.20482,9026469
7.21295,5034068
7.22107,2056322
7.22918,765154
7.23732,373538
7.24543,305016
7.25357,273013
7.26168,291389
7.26980,265205
7.27793,268175
7.28605,246662
7.29418,244563
7.30230,246048
7.31042,256690
7.31855,244597
7.32667,247731
7.33478,231766
7.34292,227180
7.35103,240504
7.35917,271159
7.36728,347715
7.37540,435290
7.38353,494360
7.39165,516136
7.39978,470963
7.40790,411219
7.41602,354302
7.42415,282908
7.43227,246118
7.44040,218484
7.44852,189612
7.45663,177339
7.46477,183546
7.47288,184214
7.48100,205166
7.48913,221184
7.49725,242234
7.50538,246864
7.51350,235528
7.52162,234684
7.52975,215985
7.53787,217108
7.54600,256228
7.55412,401591
7.56223,883406
7.57037,2052897
7.57848,4465414
7.58660,8403928
7.59473,1.320836E+07
7.60285,1.770182E+07
7.61098,1.971742E+07
7.61910,1.859056E+07
7.62722,1.481575E+07
7.63535,1.036777E+07
7.64347,6412364
7.65160,3775181
7.65972,2305774
7.66783,1444122
7.67597,979580
7.68408,767356
7.69222,788591
7.70033,996830
7.70845,1252122
7.71658,1477711
7.72470,1540245
7.73282,1465704
7.74095,1387505
7.74907,1256683
7.75720,1144888
7.76532,1023180
7.77343,895687
7.78157,791310
7.78968,674728
7.79782,590647
7.80593,538271
7.81405,543834
7.82218,578939
7.83030,612955
7.83843,611963
7.84655,553185
7.85467,473567
7.86280,413592
7.87092,396985
7.87903,430396
7.88717,515957
7.89528,628243
7.90342,812221
7.91153,986130
7.91965,1063935
7.92778,983323
7.93590,818153
7.94403,681058
7.95215,551564
7.96027,501310
7.96840,466876
7.97652,441389
7.98463,393656
7.99277,342853
8.00088,312069
8.00902,270388
8.01713,245506
8.02525,223011
8.03338,203062
8.04150,193316
8.04963,188750
8.05775,172949
8.06587,177549
8.07400,176494
8.08212,183799
8.09025,188013
8.09837,190436
8.10648,179274
8.11462,169638
8.12273,159061
8.13085,173310
8.13898,196716
8.14710,278195
8.15523,360053
8.16335,448340
8.17147,473593
8.17960,429900
8.18772,365989
8.19585,306472
8.20397,252090
8.21208,230101
8.22022,216643
8.22833,193670
8.23647,184694
8.24458,176490
8.25270,168292
8.26083,152725
8.26895,152115
8.27707,149318
8.28520,140952
8.29332,135575
8.30145,134856
8.30957,139610
8.31768,133655
8.32582,142317
8.33393,162396
8.34207,199504
8.35018,236862
8.35830,265358
8.36643,268448
8.37455,240805
8.38267,194553
8.39080,158610
8.39892,129101
8.40705,128725
8.41517,124694
8.42328,130712
8.43142,127242
8.43953,122919
8.44767,124714
8.45578,128659
8.46390,127049
8.47203,121432
8.48015,121741
8.48828,118410
8.49640,122631
8.50452,135118
8.51265,180457
8.52077,251639
8.52888,317953
8.53702,332505
8.54513,295880
8.55327,222785
8.56138,166097
8.56950,140749
8.57763,125375
8.58575,128338
8.59388,116326
8.60200,113517
8.61012,107155
8.61825,113602
8.62637,113193
8.63450,133234
8.64262,149842
8.65073,160117
8.65887,177539
8.66698,184914
8.67510,169211
8.68323,151052
8.69135,132554
8.69948,116131
8.70760,110331
8.71572,114082
8.72385,111298
8.73197,115538
8.74010,116619
8.74822,112632
8.75633,115113
8.76447,116590
8.77258,110477
8.78070,125161
8.78883,154958
8.79695,206938
8.80508,284592
8.81320,334012
8.82132,354632
8.82945,332038
8.83757,309137
8.84570,279868
8.85382,252932
8.86193,239971
8.87007,222486
8.87818,210060
8.88632,201848
8.89443,192422
8.90255,189518
8.91068,202035
8.91880,261354
8.92692,354049
8.93505,441179
8.94317,493526
8.95130,419343
8.95942,328632
8.96753,265826
8.97567,232160
8.98378,279669
8.99192,353245
9.00003,435578
9.00815,478356
9.01628,463519
9.02440,392211
9.03252,321670
9.04065,283968
9.04877,243275
9.05690,216100
9.06502,206963
9.07313,195015
9.08127,187836
9.08938,191182
9.09752,204564
9.10563,248057
9.11375,343297
9.12188,504279
9.13000,695463
9.13813,821688
9.14625,759701
9.15437,645315
9.16250,487183
9.17062,384665
9.17873,334836
9.18687,305399
9.19498,287607
9.20312,265348
9.21123,246954
9.21935,233732
9.22748,230329
9.23560,223858
9.24373,223116
9.25185,220203
9.25997,216863
9.26810,220239
9.27622,232611
9.28435,229454
9.29247,214548
9.30058,209597
9.30872,194383
9.31683,179345
9.32495,182700
9.33308,180318
9.34120,182213
9.34933,176074
9.35745,175521
9.36557,161960
9.37370,155675
9.38182,154521
9.38995,166389
9.39807,161439
9.40618,201508
9.41432,291547
9.42243,481126
9.43055,751269
9.43868,1066313
9.44680,1378090
9.45493,1604133
9.46305,1678620
9.47117,1580567
9.47930,1352051
9.48742,1066037
9.49555,833317
9.50367,669503
9.51178,613904
9.51992,588775
9.52803,577043
9.53617,559765
9.54428,580100
9.55240,575944
9.56053,538455
9.56865,465846
9.57677,397519
9.58490,317555
9.59302,266884
9.60115,234065
9.60927,214162
9.61738,205700
9.62552,186400
9.63363,182796
9.64177,170542
9.64988,161026
9.65800,157478
9.66613,162020
9.67425,162455
9.68238,167314
9.69050,169585
9.69862,167740
9.70675,167515
9.71487,158230
9.72298,158712
9.73112,154037
9.73923,143650
9.74737,136042
9.75548,125923
9.76360,122607
9.77173,117012
9.77985,118622
9.78798,118031
9.79610,112881
9.80422,117181
9.81235,120538
9.82047,108624
9.82858,116432
9.83672,109546
9.84483,113772
9.85297,111692
9.86108,119902
9.86920,115279
9.87733,109569
9.88545,104098
9.89358,103546
9.90170,105098
9.90982,106378
9.91795,103217
9.92607,104525
9.93420,115591
9.94232,123970
9.95043,146958
9.95857,236456
9.96668,417215
9.97480,731112
9.98293,1107627
9.99105,1426496
9.99918,1522693
10.00730,1350525
10.01542,1011949
10.02355,657979
10.03167,475533
10.03980,424197
10.04792,434363
10.05603,442115
10.06417,433219
10.07228,405292
10.08040,381226
10.08853,334535
10.09665,317106
10.10478,288086
10.11290,260247
10.12102,249514
10.12915,248402
10.13727,224256
10.14540,213841
10.15352,199771
10.16163,194958
10.16977,196746
10.17788,183361
10.18602,180369
10.19413,179348
10.20225,165971
10.21038,165776
10.21850,156479
10.22662,158114
10.23475,156123
10.24287,161705
10.25100,191575
10.25912,299615
10.26723,693676
10.27537,1614086
10.28348,3417106
10.29162,6033421
10.29973,9239022
10.30785,1.280446E+07
10.31598,1.712612E+07
10.32410,2.27017E+07
10.33223,2.987272E+07
10.34035,3.762372E+07
10.34847,4.624852E+07
10.35660,5.129765E+07
10.36472,4.953099E+07
10.37283,3.828025E+07
10.38097,2.397361E+07
10.38908,1.813044E+07
10.39722,1.790662E+07
10.40533,1.735776E+07
10.41345,1.513143E+07
10.42158,1.155953E+07
10.42970,8451324
10.43783,6481124
10.44595,5510296
10.45407,5090879
10.46220,4795249
10.47032,4332446
10.47845,3661118
10.48657,2838678
10.49468,2182441
10.50282,1720470
10.51093,1445519
10.51905,1269756
10.52718,1119852
10.53530,1014964
10.54343,937687
10.55155,888137
10.55967,827278
10.56780,802942
10.57592,755095
10.58405,736373
10.59217,694103
10.60028,672989
10.60842,631391
10.61653,586676
10.62465,563514
10.63278,530994
10.64090,515715
10.64903,497770
10.65715,482590
10.66527,460737
10.67340,447090
10.68152,427406
10.68965,408600
10.69777,419619
10.70588,427001
10.71402,466991
10.72213,495229
10.73027,514968
10.73838,508712
10.74650,489011
10.75463,458534
10.76275,427612
10.77087,397356
10.77900,374492
10.78712,343946
10.79525,328488
10.80337,321164
10.81148,352554
10.81962,405765
10.82773,467431
10.83587,513667
10.84398,513644
10.85210,460950
10.86023,396277
10.86835,329993
10.87647,295240
10.88460,275157
10.89272,251968
10.90085,250881
10.90897,238566
10.91708,237947
10.92522,235427
10.93333,243388
10.94147,238022
10.94958,221209
10.95770,216122
10.96583,218268
10.97395,208575
10.98208,204719
10.99020,197961
10.99832,207517
11.00645,222465
11.01457,259998
11.02268,301805
11.03082,355875
11.03893,395030
11.04707,406538
11.05518,377535
11.06330,356285
11.07143,333247
11.07955,334317
11.08768,358280
11.09580,422088
11.10392,489194
11.11205,545532
11.12017,555598
11.12830,539940
11.13642,488047
11.14453,429618
11.15267,382335
11.16078,337539
11.16890,308137
11.17703,299981
11.18515,271730
11.19328,248793
11.20140,220755
11.20952,198390
11.21765,180414
11.22577,162831
11.23390,155724
11.24202,144817
11.25013,139490
11.25827,137449
11.26638,122227
11.27450,122395
11.28263,118074
11.29075,112547
11.29888,114906
11.30700,137887
11.31512,242773
11.32325,582135
11.33137,1532699
11.33950,3484690
11.34762,6737513
11.35573,1.067887E+07
11.36387,1.428046E+07
11.37198,1.632895E+07
11.38012,1.594256E+07
11.38823,1.389812E+07
11.39635,1.09425E+07
11.40448,8222526
11.41260,6078556
11.42072,4567381
11.42885,3457562
11.43697,2626417
11.44510,2025133
11.45322,1645314
11.46133,1345866
11.46947,1150107
11.47758,1010318
11.48572,893441
11.49383,803858
11.50195,784179
11.51008,798685
11.51820,863631
11.52633,979660
11.53445,1062460
11.54257,1111956
11.55070,1075408
11.55882,1011113
11.56693,931238
11.57507,858961
11.58318,793924
11.59132,779859
11.59943,816281
11.60755,884077
11.61568,992185
11.62380,1074959
11.63193,1071731
11.64005,954931
11.64817,766965
11.65630,615569
11.66442,487311
11.67253,409085
11.68067,354504
11.68878,347523
11.69692,343297
11.70503,337989
11.71315,359916
11.72128,348875
11.72940,351638
11.73753,332898
11.74565,298513
11.75377,271315
11.76190,239484
11.77002,207432
11.77815,206679
11.78627,192274
11.79438,183421
11.80252,176285
11.81063,161124
11.81875,163071
11.82688,157055
11.83500,150638
11.84313,152898
11.85125,154168
11.85937,150007
11.86750,140877
11.87562,144160
11.88375,132870
11.89187,138058
11.89998,129294
11.90812,123268
11.91623,134148
11.92435,126853
11.93248,133343
11.94060,139008
11.94873,137541
11.95685,131432
11.96497,120842
11.97310,113737
11.98122,111049
11.98935,107438
11.99747,107215
12.00558,103513
12.01372,98570
12.02183,102769
12.02997,102440
12.03808,100514
12.04620,105026
12.05433,103739
12.06245,105934
12.07057,118836
12.07870,121776
12.08682,135663
12.09495,169609
12.10307,216176
12.11118,320682
12.11932,577384
12.12743,1111481
12.13557,2228143
12.14368,3840911
12.15180,5769123
12.15993,7119891
12.16805,7597303
12.17618,6805874
12.18430,5458529
12.19242,4084384
12.20055,3071700
12.20867,2370024
12.21678,1916060
12.22492,1559279
12.23303,1311137
12.24117,1111821
12.24928,1000377
12.25740,921148
12.26553,842477
12.27365,836300
12.28178,808422
12.28990,762988
12.29802,724844
12.30615,671421
12.31427,626873
12.32238,578423
12.33052,530668
12.33863,497133
12.34677,475055
12.35488,458432
12.36300,441004
12.37113,439691
12.37925,423176
12.38738,424090
12.39550,413988
12.40362,468290
12.41175,561321
12.41987,722465
12.42800,866365
12.43612,967199
12.44423,896083
12.45237,776199
12.46048,622377
12.46860,515376
12.47673,467673
12.48485,428975
12.49298,425329
12.50110,407359
12.50922,391893
12.51735,382172
12.52547,362279
12.53360,379841
12.54172,418095
12.54983,499210
12.55797,646772
12.56608,775195
12.57422,822334
12.58233,799105
12.59045,701426
12.59858,610730
12.60670,524953
12.61482,456066
12.62295,415422
12.63107,365116
12.63920,346898
12.64732,322506
12.65543,299987
12.66357,290152
12.67168,265350
12.67982,261463
12.68793,248285
12.69605,244174
12.70418,240802
12.71230,231700
12.72042,229725
12.72855,223534
12.73667,233093
12.74480,222248
12.75292,218695
12.76103,221527
12.76917,216734
12.77728,216824
12.78542,209211
12.79353,192378
12.80165,181611
12.80978,176503
12.81790,172863
12.82603,156298
12.83415,139071
12.84227,113684
12.85040,103233
12.85852,98015
12.86663,95502
12.87477,90133
12.88288,87847
12.89102,88679
12.89913,94646
12.90725,91061
12.91538,90543
12.92350,92540
12.93163,93098
12.93975,87332
12.94787,84682
12.95600,92253
12.96412,90944
12.97223,103098
12.98037,108492
12.98848,117721
12.99662,118445
13.00473,113192
13.01285,105378
13.02098,100808
13.02910,91506
13.03723,90339
13.04535,89963
13.05347,87118
13.06160,83922
13.06972,87067
13.07785,94937
13.08597,94917
13.09408,101120
13.10222,98511
13.11033,108289
13.11845,96640
13.12658,85500
13.13470,89354
13.14283,89152
13.15095,83841
13.15907,87995
13.16720,90797
13.17532,98211
13.18345,96357
13.19157,106534
13.19968,100778
13.20782,103437
13.21593,106494
13.22407,115109
13.23218,119725
13.24030,136489
13.24843,135751
13.25655,146907
13.26467,143307
13.27280,143220
13.28092,133351
13.28905,125089
13.29717,116763
13.30528,107646
13.31342,95805
13.32153,90602
13.32967,85490
13.33778,78925
13.34590,76717
13.35403,80377
13.36215,79710
13.37027,84753
13.37840,76402
13.38652,69758
13.39465,74974
13.40277,77649
13.41088,77253
13.41902,76988
13.42713,75173
13.43527,76935
13.44338,84802
13.45150,76645
13.45963,80367
13.46775,94890
13.47588,102388
13.48400,115381
13.49212,119473
13.50025,133796
13.50837,124488
13.51648,128527
13.52462,119630
13.53273,124738
13.54087,116679
13.54898,104697
13.55710,96185
13.56523,89822
13.57335,85481
13.58148,93375
13.58960,113812
13.59772,139790
13.60585,179340
13.61397,230516
13.62210,251787
13.63022,271275
13.63833,251294
13.64647,220724
13.65458,179258
13.66270,150048
13.67083,126362
13.67895,109707
13.68708,92864
13.69520,84873
13.70332,74658
13.71145,71380
13.71957,66649
13.72770,70903
13.73582,63159
13.74393,72329
13.75207,75213
13.76018,101008
13.76830,131409
13.77643,188866
13.78455,274244
13.79268,428215
13.80080,623622
13.80892,829439
13.81705,1005177
13.82517,1242733
13.83330,1563802
13.84142,2101688
13.84953,2697354
13.85767,3124274
13.86578,3142398
13.87392,2783845
13.88203,2166913
13.89015,1549414
13.89828,1101528
13.90640,748684
13.91452,511394
13.92265,382689
13.93077,303482
13.93890,254663
13.94702,219872
13.95513,197963
13.96327,170303
13.97138,150286
13.97952,142049
13.98763,132768
13.99575,130825
14.00388,132650
14.01200,129391
14.02013,137544
14.02825,124011
14.03637,121312
14.04450,116171
14.05262,108377
14.06073,101849
14.06887,98129
14.07698,96253
14.08512,94740
14.09323,99007
14.10135,94565
14.10948,98102
14.11760,88930
14.12573,87812
14.13385,86019
14.14197,87545
14.15010,102926
14.15822,128941
14.16633,172841
14.17447,205995
14.18258,246531
14.19072,279248
14.19883,275272
14.20695,281370
14.21508,273788
14.22320,295535
14.23133,295856
14.23945,316845
14.24757,347564
14.25570,399349
14.26382,465020
14.27195,516611
14.28007,514620
14.28818,454661
14.29632,382035
14.30443,303462
14.31255,244143
14.32068,204364
14.32880,175512
14.33693,169680
14.34505,163517
14.35317,153052
14.36130,151661
14.36942,147001
14.37755,141605
14.38567,134550
14.39378,130304
14.40192,134591
14.41003,152661
14.41815,195459
14.42628,243053
14.43440,292000
14.44253,292094
14.45065,275492
14.45877,229556
14.46690,205680
14.47502,185793
14.48315,195424
14.49127,209283
14.49938,233553
14.50752,258085
14.51563,250236
14.52377,237522
14.53188,212369
14.54000,187007
14.54813,167942
14.55625,159943
14.56437,149582
14.57250,137419
14.58062,131171
14.58875,116240
14.59687,107347
14.60498,98786
14.61312,91993
14.62123,88131
14.62937,80018
14.63748,77503
14.64560,80807
14.65373,74948
14.66185,71900
14.66998,74120
14.67810,73339
14.68622,68339
14.69435,67685
14.70247,66963
14.71058,64903
14.71872,68840
14.72683,79472
14.73497,76230
14.74308,85290
14.75120,93120
14.75933,102065
14.76745,108779
14.77558,124312
14.78370,133514
14.79182,163638
14.79995,306766
14.80807,762892
14.81618,2080161
14.82432,4743038
14.83243,9320654
14.84057,1.521647E+07
14.84868,2.123001E+07
14.85680,2.540548E+07
14.86493,2.632807E+07
14.87305,2.248115E+07
14.88118,1.483799E+07
14.88930,8551700
14.89742,4869022
14.90555,3238760
14.91367,2474536
14.92180,2076410
14.92992,1806928
14.93803,1603779
14.94617,1477768
14.95428,1390709
14.96240,1307923
14.97053,1210274
14.97865,1089202
14.98678,985837
14.99490,944274
15.00302,857236
15.01115,804630
15.01927,784515
15.02740,748704
15.03552,724374
15.04363,702992
15.05177,683646
15.05988,676143
15.06802,657261
15.07613,623162
15.08425,596437
15.09238,554619
15.10050,497157
15.10862,489210
15.11675,458602
15.12487,443056
15.13300,455899
15.14112,489712
15.14923,541190
15.15737,574576
15.16548,565056
15.17362,506131
15.18173,414085
15.18985,297559
15.19798,234280
15.20610,194386
15.21422,176628
15.22235,168570
15.23047,163715
15.23860,153668
15.24672,151881
15.25483,146416
15.26297,146712
15.27108,138322
15.27922,137441
15.28733,135798
15.29545,134722
15.30358,127311
15.31170,118659
15.31983,113733
15.32795,107560
15.33607,105505
15.34420,102638
15.35232,102228
15.36043,96706
15.36857,102230
15.37668,104594
15.38482,110352
15.39293,115839
15.40105,126635
15.40918,122829
15.41730,117859
15.42543,110742
15.43355,105220
15.44167,103873
15.44980,109386
15.45792,109155
15.46603,114549
15.47417,158598
15.48228,263980
15.49042,489910
15.49853,918025
15.50665,1544874
15.51478,2284014
15.52290,2926342
15.53103,3240451
15.53915,3094294
15.54727,2622758
15.55540,2017740
15.56352,1413291
15.57165,965571
15.57977,669274
15.58788,490301
15.59602,391174
15.60413,329793
15.61225,291928
15.62038,271154
15.62850,240481
15.63663,224696
15.64475,216406
15.65287,195623
15.66100,184282
15.66912,168962
15.67725,165460
15.68537,147353
15.69348,135792
15.70162,134115
15.70973,121697
15.71787,115961
15.72598,113009
15.73410,120124
15.74223,118922
15.75035,120332
15.75847,146929
15.76660,225050
15.77472,427819
15.78285,814934
15.79097,1337902
15.79908,1823323
15.80722,2101346
15.81533,1934203
15.82347,1549609
15.83158,1066554
15.83970,715410
15.84783,497578
15.85595,393100
15.86408,334507
15.87220,282532
15.88032,261080
15.88845,249816
15.89657,238302
15.90468,231876
15.91282,224957
15.92093,220275
15.92907,213380
15.93718,193786
15.94530,183860
15.95343,180350
15.96155,179442
15.96968,170817
15.97780,165172
15.98592,158610
15.99405,149298
16.00217,155785
16.01028,144707
16.01842,150559
16.02653,159898
16.03467,162034
16.04278,177083
16.05090,176474
16.05903,169210
16.06715,157490
16.07528,144277
16.08340,134220
16.09152,114184
16.09965,114037
16.10777,102107
16.11590,104822
16.12402,119983
16.13213,134581
16.14027,171144
16.14838,200342
16.15650,248041
16.16463,289251
16.17275,306659
16.18088,282891
16.18900,257747
16.19712,222639
16.20525,184294
16.21337,164414
16.22150,152629
16.22962,153634
16.23773,152569
16.24587,143830
16.25398,136966
16.26210,127105
16.27023,115011
16.27835,110059
16.28648,118305
16.29460,139015
16.30272,178804
16.31085,222860
16.31897,262620
16.32710,275785
16.33522,271417
16.34333,246767
16.35147,209095
16.35958,181912
16.36772,159303
16.37583,146894
16.38395,151482
16.39208,134468
16.40020,130934
16.40832,120424
16.41645,121376
16.42457,119240
16.43270,111623
16.44082,118094
16.44893,146194
16.45707,262294
16.46518,597172
16.47332,1383623
16.48143,2741569
16.48955,4438418
16.49768,5732356
16.50580,6159525
16.51393,5470445
16.52205,3938103
16.53017,2483655
16.53830,1578566
16.54642,1012540
16.55453,736297
16.56267,615773
16.57078,532294
16.57892,462673
16.58703,421998
16.59515,387532
16.60328,376537
16.61140,362878
16.61953,337894
16.62765,320147
16.63577,313085
16.64390,293788
16.65202,268800
16.66013,247081
16.66827,235804
16.67638,222203
16.68452,213877
16.69263,207041
16.70075,200281
16.70888,183774
16.71700,172490
16.72513,163079
16.73325,145810
16.74137,135445
16.74950,134047
16.75762,140858
16.76575,156710
16.77387,184981
16.78198,200034
16.79012,210061
16.79823,174399
16.80635,154529
16.81448,130384
16.82260,108992
16.83073,97328
16.83885,92767
16.84697,89713
16.85510,84941
16.86322,83009
16.87135,88595
16.87947,84527
16.88758,75022
16.89572,73477
16.90383,74278
16.91197,76859
16.92008,78218
16.92820,87817
16.93633,79365
16.94445,84948
16.95257,92036
16.96070,91478
16.96882,83011
16.97695,79787
16.98507,85526
16.99318,77454
17.00132,85109
17.00943,89709
17.01757,93468
17.02568,101346
17.03380,103119
17.04193,113581
17.05005,134985
17.05817,164145
17.06630,196862
17.07442,206899
17.08255,205436
17.09067,182185
17.09878,150575
17.10692,126690
17.11503,114672
17.12317,113106
17.13128,128657
17.13940,147161
17.14753,151069
17.15565,160758
17.16378,161755
17.17190,157626
17.18002,152911
17.18815,141277
17.19627,131362
17.20438,118752
17.21252,110251
17.22063,105351
17.22877,92808
17.23688,87737
17.24500,88281
17.25313,95456
17.26125,97046
17.26938,105482
17.27750,103311
17.28562,102887
17.29375,89593
17.30187,87056
17.30998,82796
17.31812,86403
17.32623,101244
17.33437,141154
17.34248,199949
17.35060,272704
17.35873,345680
17.36685,395606
17.37498,398493
17.38310,373517
17.39122,334572
17.39935,308033
17.40747,303046
17.41560,286285
17.42372,290738
17.43183,296649
17.43997,312011
17.44808,312073
17.45620,310988
17.46433,289685
17.47245,257082
17.48058,216239
17.48870,190501
17.49682,160233
17.50495,152560
17.51307,137972
17.52120,138093
17.52932,139497
17.53743,139662
17.54557,136813
17.55368,134371
17.56182,145671
17.56993,196053
17.57805,353166
17.58618,756238
17.59430,1564616
17.60242,2896994
17.61055,4553006
17.61867,5829331
17.62680,6536468
17.63492,6145488
17.64303,4847969
17.65117,3313538
17.65928,2104275
17.66742,1260020
17.67553,784184
17.68365,527409
17.69178,400548
17.69990,345901
17.70802,298072
17.71615,289229
17.72427,296743
17.73240,297142
17.74052,288236
17.74863,308458
17.75677,305532
17.76488,293683
17.77302,287962
17.78113,264301
17.78925,238430
17.79738,204791
17.80550,176125
17.81363,152651
17.82175,148480
17.82987,149200
17.83800,149606
17.84612,174395
17.85423,230043
17.86237,304638
17.87048,421721
17.87862,507351
17.88673,558327
17.89485,525401
17.90298,430258
17.91110,324827
17.91923,236147
17.92735,171515
17.93547,148670
17.94360,127286
17.95172,121108
17.95985,115844
17.96797,110577
17.97608,107755
17.98422,97439
17.99233,93926
18.00045,92543
18.00858,95927
18.01670,112757
18.02483,160245
18.03295,242599
18.04107,380344
18.04920,549410
18.05732,692352
18.06545,816006
18.07357,1057189
18.08168,1751908
18.08982,3159597
18.09793,5141031
18.10605,7224820
18.11418,8415636
18.12230,8576066
18.13043,7590051
18.13855,5989477
18.14667,4564655
18.15480,3525726
18.16292,2983025
18.17105,2523876
18.17917,2163557
18.18728,1893260
18.19542,1664077
18.20353,1514055
18.21167,1346627
18.21978,1219944
18.22790,1084380
18.23603,996934
18.24415,941019
18.25227,853775
18.26040,837491
18.26852,758811
18.27665,691136
18.28477,626289
18.29288,521619
18.30102,407212
18.30913,318819
18.31727,257915
18.32538,210380
18.33350,179539
18.34163,159910
18.34975,159390
18.35787,150772
18.36600,149605
18.37412,140154
18.38225,141412
18.39037,133315
18.39848,125951
18.40662,139970
18.41473,158434
18.42287,192920
18.43098,281120
18.43910,417311
18.44723,599287
18.45535,836434
18.46348,1089430
18.47160,1385300
18.47972,1769778
18.48785,2118189
18.49597,2467532
18.50408,2517246
18.51222,2255120
18.52033,1816575
18.52847,1243683
18.53658,810787
18.54470,518940
18.55283,371768
18.56095,286989
18.56908,231212
18.57720,198984
18.58532,175985
18.59345,167626
18.60157,176335
18.60970,180189
18.61782,207274
18.62593,254407
18.63407,304011
18.64218,339222
18.65030,343258
18.65843,354296
18.66655,290107
18.67468,246231
18.68280,205486
18.69092,167578
18.69905,145529
18.70717,133835
18.71530,139457
18.72342,149619
18.73153,150424
18.73967,155298
18.74778,150476
18.75590,146702
18.76403,136822
18.77215,129335
18.78028,122126
18.78840,117709
18.79652,103161
18.80465,112635
18.81277,110115
18.82090,113554
18.82902,121627
18.83713,114355
18.84527,113002
18.85338,111705
18.86152,112635
18.86963,127408
18.87775,158372
18.88588,210535
18.89400,247741
18.90212,285315
18.91025,279280
18.91837,268512
18.92650,237001
18.93462,211278
18.94273,220781
18.95087,214430
18.95898,223887
18.96712,231758
18.97523,251127
18.98335,241283
18.99148,235206
18.99960,217947
19.00773,191284
19.01585,163854
19.02397,145789
19.03210,140335
19.04022,140056
19.04833,128780
19.05647,125137
19.06458,123140
19.07272,117146
19.08083,122321
19.08895,164558
19.09708,240211
19.10520,396880
19.11333,579252
19.12145,704750
19.12957,773460
19.13770,683439
19.14582,547790
19.15393,373514
19.16207,261200
19.17018,190151
19.17832,142920
19.18643,122878
19.19455,114894
19.20268,98153
19.21080,98441
19.21893,95951
19.22705,89756
19.23517,93173
19.24330,92766
19.25142,86419
19.25955,96249
19.26767,91903
19.27578,92123
19.28392,92227
19.29203,102323
19.30015,115528
19.30828,135945
19.31640,158709
19.32453,162665
19.33265,161901
19.34077,149642
19.34890,141076
19.35702,131527
19.36515,166274
19.37327,212526
19.38138,290050
19.38952,374318
19.39763,417686
19.40577,412090
19.41388,358491
19.42200,290882
19.43013,235963
19.43825,199875
19.44637,174257
19.45450,168968
19.46262,149652
19.47075,141770
19.47887,136300
19.48698,138298
19.49512,136357
19.50323,155672
19.51137,175382
19.51948,214854
19.52760,256061
19.53573,295256
19.54385,347231
19.55197,376969
19.56010,380272
19.56822,375730
19.57635,338426
19.58447,284126
19.59258,245797
19.60072,207826
19.60883,198575
19.61697,194662
19.62508,192750
19.63320,200461
19.64133,198524
19.64945,215130
19.65758,248512
19.66570,307556
19.67382,425713
19.68195,557998
19.69007,692278
19.69818,800095
19.70632,865891
19.71443,865159
19.72257,807116
19.73068,745292
19.73880,630301
19.74693,572199
19.75505,499636
19.76318,438621
19.77130,405065
19.77942,382645
19.78755,450718
19.79567,579194
19.80378,784754
19.81192,1009695
19.82003,1194475
19.82817,1242880
19.83628,1151107
19.84440,946195
19.85253,742347
19.86065,567259
19.86878,432984
19.87690,387174
19.88502,385891
19.89315,440015
19.90127,550442
19.90940,668050
19.91752,755191
19.92563,770675
19.93377,735542
19.94188,637079
19.95000,523378
19.95813,462314
19.96625,403395
19.97438,373673
19.98250,332862
19.99062,316172
19.99875,302788
20.00687,296570
20.01500,308422
20.02312,323707
20.03123,346155
20.03937,362123
20.04748,359846
20.05562,373922
20.06373,423621
20.07185,533126
20.07998,761928
20.08810,1089004
20.09622,1475916
20.10435,1739698
20.11247,1783348
20.12060,1616002
20.12872,1332976
20.13683,1070211
20.14497,844832
20.15308,766145
20.16122,1000693
20.16933,1623076
20.17745,3009132
20.18558,5126443
20.19370,7784484
20.20182,1.087284E+07
20.20995,1.30775E+07
20.21807,1.363104E+07
20.22620,1.257923E+07
20.23432,1.059765E+07
20.24243,8070485
20.25057,6120926
20.25868,5175837
20.26682,5292552
20.27493,6185712
20.28305,7517298
20.29118,8647227
20.29930,9118922
20.30743,8441889
20.31555,6827561
20.32367,5077693
20.33180,3523148
20.33992,2431968
20.34803,1658938
20.35617,1151143
20.36428,851817
20.37242,677157
20.38053,550782
20.38865,466451
20.39678,412866
20.40490,367798
20.41303,328149
20.42115,294361
20.42927,276658
20.43740,264415
20.44552,255465
20.45365,275494
20.46177,281801
20.46988,290669
20.47802,304350
20.48613,304332
20.49425,275158
20.50238,266656
20.51050,242314
20.51863,222449
20.52675,205295
20.53487,192949
20.54300,196898
20.55112,202959
20.55925,204283
20.56737,218594
20.57548,217836
20.58362,212027
20.59173,209909
20.59985,191721
20.60798,181934
20.61610,179782
20.62423,179625
20.63235,182457
20.64047,196842
20.64860,227336
20.65672,253591
20.66485,292861
20.67297,310469
20.68108,313250
20.68922,290857
20.69733,259672
20.70547,219768
20.71358,192375
20.72170,173153
20.72983,166916
20.73795,161961
20.74607,165359
20.75420,175722
20.76232,203686
20.77045,237226
20.77857,276255
20.78668,341186
20.79482,484056
20.80293,808589
20.81107,1494597
20.81918,2682613
20.82730,3948114
20.83543,4860534
20.84355,5165264
20.85167,4498581
20.85980,3234876
20.86792,2045850
20.87605,1176293
20.88417,696219
20.89228,462794
20.90042,354433
20.90853,315559
20.91667,328100
20.92478,372915
20.93290,429101
20.94103,502282
20.94915,568209
20.95728,598275
20.96540,588879
20.97352,541143
20.98165,449903
20.98977,358350
20.99788,293852
21.00602,253511
21.01413,223484
21.02227,209239
21.03038,210343
21.03850,223765
21.04663,226060
21.05475,245477
21.06288,238273
21.07100,224142
21.07912,200586
21.08725,188793
21.09537,185524
21.10350,169487
21.11162,157342
21.11973,157563
21.12787,161904
21.13598,185533
21.14410,254121
21.15223,414161
21.16035,733177
21.16848,1082048
21.17660,1474909
21.18472,1648082
21.19285,1544696
21.20097,1260231
21.20910,938391
21.21722,646747
21.22533,484427
21.23347,380807
21.24158,311514
21.24972,274725
21.25783,233938
21.26595,213133
21.27408,190900
21.28220,174982
21.29032,162175
21.29845,156613
21.30657,149325
21.31470,149877
21.32282,148622
21.33093,139782
21.33907,146583
21.34718,141961
21.35532,147308
21.36343,153807
21.37155,148983
21.37968,150563
21.38780,158488
21.39592,178021
21.40405,226586
21.41217,259952
21.42030,345516
21.42842,390665
21.43653,429003
21.44467,430217
21.45278,412115
21.46092,375672
21.46903,338279
21.47715,292127
21.48528,264254
21.49340,231021
21.50153,207198
21.50965,193995
21.51777,180569
21.52590,163193
21.53402,149972
21.54213,147268
21.55027,141625
21.55838,151913
21.56652,136053
21.57463,147608
21.58275,145107
21.59088,166722
21.59900,192989
21.60713,215997
21.61525,243052
21.62337,245829
21.63150,229786
21.63962,215120
21.64773,213793
21.65587,224308
21.66398,258335
21.67212,307231
21.68023,355594
21.68835,425937
21.69648,477312
21.70460,480169
21.71273,444197
21.72085,365336
21.72897,298415
21.73710,237744
21.74522,202737
21.75335,173753
21.76147,156056
21.76958,149498
21.77772,150808
21.78583,139765
21.79395,152809
21.80208,153465
21.81020,169604
21.81833,180933
21.82645,190366
21.83457,190041
21.84270,194045
21.85082,193867
21.85895,206423
21.86707,228303
21.87518,234294
21.88332,244555
21.89143,224805
21.89955,208817
21.90768,195442
21.91580,194596
21.92393,187123
21.93205,172355
21.94017,165742
21.94830,157882
21.95642,138738
21.96455,125468
21.97267,115768
21.98078,114474
21.98892,101273
21.99703,102571
22.00517,106748
22.01328,107641
22.02140,119204
22.02953,125302
22.03765,138408
22.04577,162571
22.05390,169802
22.06202,175802
22.07015,183091
22.07827,172908
22.08638,163493
22.09452,161098
22.10263,157322
22.11077,140589
22.11888,130475
22.12700,123320
22.13513,115988
22.14325,105374
22.15138,106342
22.15950,100208
22.16762,106539
22.17575,104968
22.18387,99515
22.19198,97477
22.20012,102612
22.20823,98845
22.21637,106071
22.22448,98803
22.23260,102681
22.24073,110889
22.24885,118143
22.25698,127913
22.26510,136287
22.27322,139951
22.28135,155039
22.28947,185877
22.29760,213870
22.30572,239678
22.31383,263895
22.32197,257694
22.33008,245960
22.33820,208205
22.34633,184893
22.35445,162304
22.36258,158222
22.37070,137997
22.37882,135304
22.38695,139599
22.39507,168526
22.40320,248538
22.41132,382143
22.41943,609657
22.42757,915407
22.43568,1128953
22.44380,1219486
22.45193,1146373
22.46005,932326
22.46818,678137
22.47630,464149
22.48442,338581
22.49255,299735
22.50067,304260
22.50880,379754
22.51692,469273
22.52503,581406
22.53317,668553
22.54128,717290
22.54942,701357
22.55753,615900
22.56565,510985
22.57378,403292
22.58190,320519
22.59002,261586
22.59815,232668
22.60627,198222
22.61440,184763
22.62252,164626
22.63063,143762
22.63877,133183
22.64688,133266
22.65502,143247
22.66313,155132
22.67125,164578
22.67938,171253
22.68750,187919
22.69562,215765
22.70375,275820
22.71187,372423
22.72000,510071
22.72812,675492
22.73623,778221
22.74437,806294
22.75248,704294
22.76062,604044
22.76873,467098
22.77685,365054
22.78498,334047
22.79310,329856
22.80123,397740
22.80935,514036
22.81747,660115
22.82560,784610
22.83372,845862
22.84183,810837
22.84997,702055
22.85808,563059
22.86622,469123
22.87433,445966
22.88245,471531
22.89058,587101
22.89870,743444
22.90683,883117
22.91495,927497
22.92307,947602
22.93120,882440
22.93932,783873
22.94745,725211
22.95557,641387
22.96368,524928
22.97182,425903
22.97993,323766
22.98805,253946
22.99618,204469
23.00430,167221
23.01243,143785
23.02055,139514
23.02867,120872
23.03680,117667
23.04492,114910
23.05305,110130
23.06117,128405
23.06928,144738
23.07742,166210
23.08553,183871
23.09365,208053
23.10178,203401
23.10990,201542
23.11803,186287
23.12615,172582
23.13427,152068
23.14240,130658
23.15052,132972
23.15865,120826
23.16677,118156
23.17488,116131
23.18302,117828
23.19113,108016
23.19927,102180
23.20738,98036
23.21550,96036
23.22363,88666
23.23175,90269
23.23987,96020
23.24800,103757
23.25612,121382
23.26425,163811
23.27237,207879
23.28048,258571
23.28862,287156
23.29673,286693
23.30487,248583
23.31298,206858
23.32110,171723
23.32923,148673
23.33735,166539
23.34548,199333
23.35360,261435
23.36172,389514
23.36985,538394
23.37797,685911
23.38608,788666
23.39422,769839
23.40233,704707
23.41047,556378
23.41858,412887
23.42670,290779
23.43483,206655
23.44295,168636
23.45108,131753
23.45920,121733
23.46732,104388
23.47545,97049
23.48357,96705
23.49168,97537
23.49982,90973
23.50793,88677
23.51607,85527
23.52418,100425
23.53230,97073
23.54043,98893
23.54855,107073
23.55668,124392
23.56480,159934
23.57292,206896
23.58105,309726
23.58917,480099
23.59730,742006
23.60542,1112111
23.61353,1424449
23.62167,1597865
23.62978,1525914
23.63790,1310011
23.64603,962892
23.65415,654671
23.66228,435361
23.67040,291911
23.67852,226386
23.68665,201993
23.69477,170728
23.70290,163826
23.71102,141283
23.71913,130721
23.72727,131590
23.73538,136157
23.74350,119143
23.75163,120969
23.75975,117970
23.76788,123351
23.77600,181683
23.78412,317761
23.79225,562857
23.80037,931455
23.80850,1237781
23.81662,1429582
23.82473,1427991
23.83287,1231616
23.84098,984705
23.84912,773384
23.85723,594393
23.86535,468386
23.87348,380479
23.88160,316889
23.88972,286904
23.89785,292164
23.90597,328443
23.91410,409474
23.92222,531147
23.93033,664557
23.93847,757236
23.94658,731247
23.95472,629638
23.96283,501826
23.97095,368146
23.97908,279265
23.98720,235666
23.99533,202501
24.00345,187087
24.01157,179993
24.01970,180412
24.02782,177746
24.03593,181569
24.04407,190639
24.05218,186948
24.06032,188684
24.06843,174586
24.07655,158193
24.08468,142628
24.09280,132085
24.10093,125385
24.10905,120497
24.11717,122336
24.12530,123159
24.13342,140616
24.14153,176276
24.14967,255933
24.15778,366188
24.16592,470746
24.17403,574047
24.18215,609524
24.19028,594220
24.19840,554342
24.20653,510274
24.21465,505793
24.22277,494262
24.23090,435546
24.23902,365460
24.24715,303840
24.25527,252275
24.26338,217749
24.27152,190700
24.27963,166217
24.28775,161913
24.29588,151040
24.30400,144757
24.31213,149179
24.32025,164033
24.32837,170956
24.33650,185077
24.34462,189528
24.35275,183994
24.36087,174142
24.36898,160391
24.37712,146514
24.38523,133746
24.39337,126728
24.40148,120262
24.40960,123441
24.41773,135112
24.42585,151000
24.43397,161355
24.44210,163048
24.45022,153569
24.45835,140800
24.46647,141846
24.47458,130191
24.48272,131496
24.49083,140042
24.49897,144824
24.50708,150168
24.51520,160231
24.52333,169868
24.53145,174695
24.53957,210261
24.54770,258357
24.55582,342566
24.56395,441991
24.57207,545679
24.58018,599890
24.58832,593425
24.59643,555965
24.60457,456531
24.61268,388279
24.62080,321916
24.62893,264761
24.63705,220313
24.64518,183320
24.65330,159023
24.66142,159636
24.66955,155157
24.67767,158257
24.68578,160531
24.69392,153123
24.70203,149056
24.71017,145031
24.71828,147561
24.72640,137007
24.73453,144375
24.74265,144425
24.75078,152712
24.75890,139218
24.76702,145308
24.77515,150736
24.78327,158552
24.79140,180283
24.79952,210460
24.80763,231622
24.81577,237806
24.82388,243899
24.83200,261431
24.84013,306853
24.84825,373596
24.85638,501972
24.86450,695835
24.87262,1005732
24.88075,1434449
24.88887,2052789
24.89700,2773682
24.90512,3414759
24.91323,3806182
24.92137,3590604
24.92948,3109158
24.93760,2336671
24.94573,1483804
24.95385,873377
24.96198,513824
24.97010,333130
24.97822,249594
24.98635,197529
24.99447,175132
25.00260,155501
25.01072,151284
25.01883,143023
25.02697,134589
25.03508,136867
25.04322,135371
25.05133,132726
25.05945,125287
25.06758,138154
25.07570,133277
25.08382,149161
25.09195,148829
25.10007,163321
25.10820,237324
25.11632,503918
25.12443,1220404
25.13257,2958889
25.14068,6256234
25.14882,1.119672E+07
25.15693,1.676329E+07
25.16505,2.062157E+07
25.17318,2.184563E+07
25.18130,1.97007E+07
25.18942,1.512635E+07
25.19755,9789788
25.20567,5762661
25.21380,3035804
25.22192,1585927
25.23003,865611
25.23817,551721
25.24628,430388
25.25442,446066
25.26253,603001
25.27065,860781
25.27878,1170095
25.28690,1411453
25.29503,1448963
25.30315,1368615
25.31127,1141830
25.31940,820824
25.32752,560670
25.33563,378460
25.34377,272412
25.35188,209061
25.36002,170437
25.36813,156252
25.37625,146567
25.38438,140848
25.39250,129679
25.40063,122633
25.40875,114745
25.41687,122044
25.42500,107855
25.43312,105922
25.44125,105407
25.44937,112222
25.45748,107699
25.46562,111211
25.47373,117412
25.48185,116734
25.48998,125800
25.49810,128772
25.50623,129948
25.51435,122724
25.52247,124522
25.53060,114694
25.53872,110432
25.54685,97357
25.55497,100850
25.56308,100810
25.57122,101179
25.57933,103861
25.58745,104182
25.59558,109939
25.60370,114347
25.61183,116188
25.61995,109982
25.62807,106930
25.63620,102435
25.64432,95972
25.65245,91154
25.66057,103999
25.66868,103680
25.67682,119973
25.68493,126652
25.69307,156221
25.70118,189077
25.70930,215074
25.71743,242866
25.72555,242259
25.73367,225340
25.74180,198694
25.74992,178341
25.75805,153640
25.76617,129489
25.77428,116571
25.78242,103219
25.79053,97039
25.79867,95814
25.80678,98318
25.81490,95959
25.82303,97912
25.83115,95367
25.83928,98151
25.84740,103123
25.85552,114844
25.86365,115833
25.87177,114404
25.87988,117290
25.88802,117592
25.89613,123352
25.90427,123353
25.91238,118648
25.92050,126805
25.92863,117618
25.93675,119698
25.94488,118621
25.95300,117328
25.96112,124400
25.96925,132555
25.97737,136029
25.98548,136157
25.99362,134440
26.00173,123770
26.00987,114077
26.01798,109191
26.02610,99926
26.03423,90722
26.04235,98704
26.05048,95202
26.05860,108934
26.06672,124608
26.07485,129581
26.08297,148960
26.09110,154531
26.09922,164331
26.10733,172952
26.11547,177454
26.12358,186083
26.13170,168272
26.13983,155465
26.14795,146962
26.15608,153000
26.16420,155226
26.17232,172255
26.18045,178418
26.18857,192129
26.19670,196490
26.20482,184201
26.21293,176040
26.22107,161690
26.22918,150691
26.23730,139578
26.24543,138392
26.25355,124141
26.26168,115667
26.26980,106127
26.27792,103971
26.28605,101602
26.29417,97324
26.30230,101147
26.31042,94309
26.31853,96491
26.32667,93522
26.33478,91196
26.34292,94318
26.35103,112550
26.35915,171276
26.36728,320201
26.37540,660006
26.38352,1353557
26.39165,2380920
26.39977,3684522
26.40790,4959501
26.41602,5776153
26.42413,5700408
26.43227,5069246
26.44038,3979747
26.44852,2783551
26.45663,1907776
26.46475,1257729
26.47288,836981
26.48100,628721
26.48913,527327
26.49725,459681
26.50537,425719
26.51350,401884
26.52162,366007
26.52973,362172
26.53787,340335
26.54598,323092
26.55412,311719
26.56223,302375
26.57035,302311
26.57848,288213
26.58660,297832
26.59473,302541
26.60285,300482
26.61097,311412
26.61910,305026
26.62722,302641
26.63535,307563
26.64347,310144
26.65158,308130
26.65972,300317
26.66783,304610
26.67595,294013
26.68408,303321
26.69220,292828
26.70033,291501
26.70845,288781
26.71657,290370
26.72470,290538
26.73282,281748
26.74095,295659
26.74907,298421
26.75718,295812
26.76532,298680
26.77343,299485
26.78155,308041
26.78968,298611
26.79780,301117
26.80593,310787
26.81405,318692
26.82217,319573
26.83030,318246
26.83842,315465
26.84655,304939
26.85467,298163
26.86278,286234
26.87092,280749
26.87903,266633
26.88717,275013
26.89528,277604
26.90340,276382
26.91153,282894
26.91965,273673
26.92777,270558
26.93590,258676
26.94402,246872
26.95215,246544
26.96027,255314
26.96838,253459
26.97652,274900
26.98463,285868
26.99277,327809
27.00088,377064
27.00900,468881
27.01713,581347
27.02525,754219
27.03337,873963
27.04150,969698
27.04962,967248
27.05775,915775
27.06587,769110
27.07398,647192
27.08212,540902
27.09023,466090
27.09837,408256
27.10648,391171
27.11460,372219
27.12273,355547
27.13085,337100
27.13898,344433
27.14710,329560
27.15522,330347
27.16335,325484
27.17147,351558
27.17958,391804
27.18772,478575
27.19583,632802
27.20397,751413
27.21208,831538
27.22020,835526
27.22833,756355
27.23645,637024
27.24458,529346
27.25270,450587
27.26082,389370
27.26895,339645
27.27707,299746
27.28520,275325
27.29332,259858
27.30143,264857
27.30957,250323
27.31768,257824
27.32580,267430
27.33393,263669
27.34205,269063
27.35018,279482
27.35830,300191
27.36642,290596
27.37455,289453
27.38267,292163
27.39080,284842
27.39892,274772
27.40703,270172
27.41517,247297
27.42328,249528
27.43140,239802
27.43953,251090
27.44765,253359
27.45578,254939
27.46390,260056
27.47202,237266
27.48015,217152
27.48827,218776
27.49640,200519
27.50452,195250
27.51263,188393
27.52077,185460
27.52888,183293
27.53702,197551
27.54513,189930
27.55325,191947
27.56138,195161
27.56950,192532
27.57762,203635
27.58575,233131
27.59387,267460
27.60200,354087
27.61012,415901
27.61823,438767
27.62637,440858
27.63448,417672
27.64262,375754
27.65073,326348
27.65885,302947
27.66698,263727
27.67510,254929
27.68323,252080
27.69135,273326
27.69947,295666
27.70760,317591
27.71572,329486
27.72383,326371
27.73197,289653
27.74008,247539
27.74822,214245
27.75633,189292
27.76445,179067
27.77258,175107
27.78070,186405
27.78883,199214
27.79695,227141
27.80507,256196
27.81320,254036
27.82132,250399
27.82943,231807
27.83757,208110
27.84568,191339
27.85382,173276
27.86193,160290
27.87005,145900
27.87818,147291
27.88630,144851
27.89443,147886
27.90255,144942
27.91067,145219
27.91880,149491
27.92692,158536
27.93505,147414
27.94317,145702
27.95128,152433
27.95942,152974
27.96753,152425
27.97565,143151
27.98378,154719
27.99190,150885
28.00003,150399
28.00815,160279
28.01627,187530
28.02440,211092
28.03252,264702
28.04065,338835
28.04877,466542
28.05688,604397
28.06502,720494
28.07313,808945
28.08125,752175
28.08938,615493
28.09750,463029
28.10563,323044
28.11375,239801
28.12187,189062
28.13000,163338
28.13812,148447
28.14625,139597
28.15437,138892
28.16248,140487
28.17062,130424
28.17873,134783
28.18687,133181
28.19498,147327
28.20310,176269
28.21123,210981
28.21935,272381
28.22747,331330
28.23560,393523
28.24372,405931
28.25185,402763
28.25997,362615
28.26808,300900
28.27622,240492
28.28433,191007
28.29247,169290
28.30058,159354
28.30870,164150
28.31683,208460
28.32495,252064
28.33308,329810
28.34120,387786
28.34932,386110
28.35745,366597
28.36557,337811
28.37368,301043
28.38182,271363
28.38993,269002
28.39807,277416
28.40618,279599
28.41430,278832
28.42243,284162
28.43055,274394
28.43868,256979
28.44680,239541
28.45492,215288
28.46305,193178
28.47117,189025
28.47928,197884
28.48742,201363
28.49553,237817
28.50367,284472
28.51178,348618
28.51990,409067
28.52803,448620
28.53615,435801
28.54428,391258
28.55240,315907
28.56052,239936
28.56865,190398
28.57677,156050
28.58490,129334
28.59302,125798
28.60113,122707
28.60927,122224
28.61738,134912
28.62550,141773
28.63363,166906
28.64175,191891
28.64988,217005
28.65800,241953
28.66612,231242
28.67425,222065
28.68237,187763
28.69050,179867
28.69862,153411
28.70673,140463
28.71487,124509
28.72298,117597
28.73112,113879
28.73923,107941
28.74735,112501
28.75548,108364
28.76360,102317
28.77172,112474
28.77985,113755
28.78797,122586
28.79610,133386
28.80422,147663
28.81233,173450
28.82047,184245
28.82858,206056
28.83672,200852
28.84483,200616
28.85295,182872
28.86108,167355
28.86920,157842
28.87732,156168
28.88545,164261
28.89357,187477
28.90170,220517
28.90982,262116
28.91793,305683
28.92607,308222
28.93418,287739
28.94232,263509
28.95043,229188
28.95855,192305
28.96668,176547
28.97480,165681
28.98293,148730
28.99105,137464
28.99917,124661
29.00730,119526
29.01542,112180
29.02353,107090
29.03167,108316
29.03978,108076
29.04792,106551
29.05603,110818
29.06415,112788
29.07228,111953
29.08040,112606
29.08853,130815
29.09665,134678
29.10477,141986
29.11290,145360
29.12102,144542
29.12913,134702
29.13727,123559
29.14538,109043
29.15352,102429
29.16163,98630
29.16975,96461
29.17788,95943
29.18600,100139
29.19413,123585
29.20225,149917
29.21037,217891
29.21850,294504
29.22662,374443
29.23475,451947
29.24287,490696
29.25098,459445
29.25912,433629
29.26723,408579
29.27535,399928
29.28348,355517
29.29160,329331
29.29973,271707
29.30785,212326
29.31597,168630
29.32410,136189
29.33222,119271
29.34035,105042
29.34847,102346
29.35658,101891
29.36472,98228
29.37283,89216
29.38097,94813
29.38908,98335
29.39720,101815
29.40533,101869
29.41345,108164
29.42157,112397
29.42970,115168
29.43782,129352
29.44595,126010
29.45407,122304
29.46218,121031
29.47032,115113
29.47843,105882
29.48657,100938
29.49468,100360
29.50280,101990
29.51093,101170
29.51905,106861
29.52717,111151
29.53530,108529
29.54342,105694
29.55155,107813
29.55967,107630
29.56778,105768
29.57592,103368
29.58403,96048
29.59217,93948
29.60028,90447
29.60840,90694
29.61653,85123
29.62465,92041
29.63278,90793
29.64090,89295
29.64902,94238
29.65715,90342
29.66527,85684
29.67338,87737
29.68152,90844
29.68963,105998
29.69777,127608
29.70588,141120
29.71400,164779
29.72213,169241
29.73025,161289
29.73838,149178
29.74650,127791
29.75462,113440
29.76275,103619
29.77087,103411
29.77900,98457
29.78712,91046
29.79523,85112
29.80337,82947
29.81148,82089
29.81960,82338
29.82773,81536
29.83585,79823
29.84398,86406
29.85210,84125
29.86022,87045
29.86835,88647
29.87647,95211
29.88460,104195
29.89272,135435
29.90083,182295
29.90897,237649
29.91708,280076
29.92520,301233
29.93333,275843
29.94145,233295
29.94958,180852
29.95770,138764
29.96582,123371
29.97395,104202
29.98207,104900
29.99020,107734
29.99832,109669
30.00643,122296
30.01457,130193
30.02268,135252
30.03082,135112
30.03893,138034
30.04705,149134
30.05518,152705
30.06330,146380
30.07142,145231
30.07955,150464
30.08767,148696
30.09580,150243
30.10392,151900
30.11203,141442
30.12017,136729
30.12828,139503
30.13642,129580
30.14453,129216
30.15265,123881
30.16078,123418
30.16890,125011
30.17703,120774
30.18515,138799
30.19327,149599
30.20140,164707
30.20952,194558
30.21763,208601
30.22577,223786
30.23388,213114
30.24202,200799
30.25013,169049
30.25825,150329
30.26638,121665
30.27450,107836
30.28263,94210
30.29075,92728
30.29887,89674
30.30700,89946
30.31512,93990
30.32323,88684
30.33137,87529
30.33948,92593
30.34762,92343
30.35573,92664
30.36385,98592
30.37198,99860
30.38010,100953
30.38823,100563
30.39635,87722
30.40447,91670
30.41260,85741
30.42072,82686
30.42885,82298
30.43697,77406
30.44508,77389
30.45322,83886
30.46133,82578
30.46945,91085
30.47758,86393
30.48570,88560
30.49383,96372
30.50195,102964
30.51007,108008
30.51820,114690
30.52632,111530
30.53445,115731
30.54257,109304
30.55068,110372
30.55882,107374
30.56693,99511
30.57505,108146
30.58318,106872
30.59130,113309
30.59943,117150
30.60755,109054
30.61567,113654
30.62380,117089
30.63192,119181
30.64005,118527
30.64817,112971
30.65628,109622
30.66442,100749
30.67253,103666
30.68067,94098
30.68878,91411
30.69690,84629
30.70503,84766
30.71315,87485
30.72127,91804
30.72940,86720
30.73752,88224
30.74565,93907
30.75377,91955
30.76188,92180
30.77002,94132
30.77813,94221
30.78627,106535
30.79438,126532
30.80250,166462
30.81063,250999
30.81875,344307
30.82688,432502
30.83500,455240
30.84312,410263
30.85125,333195
30.85937,267923
30.86748,211337
30.87562,167950
30.88373,165371
30.89187,165909
30.89998,176686
30.90810,176675
30.91623,172538
30.92435,159136
30.93248,134620
30.94060,121740
30.94872,114269
30.95685,107701
30.96497,112473
30.97308,115204
30.98122,120234
30.98933,123059
30.99747,117043
31.00558,112830
31.01370,104415
31.02183,102390
31.02995,96896
31.03808,97394
31.04620,97284
31.05432,97056
31.06245,93417
31.07057,99666
31.07870,100018
31.08682,104811
31.09493,106557
31.10307,113876
31.11118,137470
31.11930,164890
31.12743,174354
31.13555,173723
31.14368,159037
31.15180,158115
31.15992,148078
31.16805,146829
31.17617,148546
31.18430,158996
31.19242,164828
31.20053,169333
31.20867,187571
31.21678,216794
31.22492,258699
31.23303,307651
31.24115,342186
31.24928,351373
31.25740,315138
31.26552,254533
31.27365,200614
31.28177,150884
31.28990,116208
31.29802,102469
31.30613,98375
31.31427,100452
31.32238,101575
31.33052,106824
31.33863,120637
31.34675,133150
31.35488,152477
31.36300,153325
31.37112,146689
31.37925,139946
31.38737,126926
31.39550,114017
31.40362,107377
31.41173,101245
31.41987,92404
31.42798,93218
31.43612,94087
31.44423,90594
31.45235,92765
31.46048,93972
31.46860,90704
31.47673,97301
31.48485,109617
31.49297,114831
31.50110,126698
31.50922,139079
31.51733,156123
31.52547,178328
31.53358,202784
31.54172,224428
31.54983,229085
31.55795,233972
31.56608,220473
31.57420,199091
31.58233,190992
31.59045,164735
31.59857,144086
31.60670,129215
31.61482,119646
31.62293,109806
31.63107,103500
31.63918,103392
31.64732,98265
31.65543,107839
31.66355,118961
31.67168,134994
31.67980,151149
31.68793,159706
31.69605,181630
31.70417,180316
31.71230,174354
31.72042,150584
31.72855,132775
31.73667,116143
31.74478,106726
31.75292,96309
31.76103,99602
31.76915,96370
31.77728,88977
31.78540,92184
31.79353,92706
31.80165,88772
31.80977,87007
31.81790,90246
31.82602,90308
31.83415,91571
31.84227,94169
31.85038,85951
31.85852,92597
31.86663,100022
31.87477,101316
31.88288,107104
31.89100,103103
31.89913,105508
31.90725,105472
31.91537,106138
31.92350,98001
31.93162,104149
31.93975,99643
31.94787,105456
31.95598,105068
31.96412,109081
31.97223,116878
31.98037,120616
31.98848,131288
31.99660,150684
32.00473,163053
32.01285,200154
32.02097,231977
32.02910,251870
32.03722,260763
32.04535,254051
32.05347,221551
32.06158,188875
32.06972,156220
32.07783,142964
32.08597,138345
32.09408,130120
32.10220,120954
32.11033,111213
32.11845,123515
32.12658,116772
32.13470,112893
32.14282,107407
32.15095,102601
32.15907,101826
32.16718,100089
32.17532,93174
32.18343,99581
32.19157,95199
32.19968,99394
32.20780,103065
32.21593,98562
32.22405,99607
32.23218,100398
32.24030,104446
32.24842,96087
32.25655,92063
32.26467,94718
32.27280,96347
32.28092,106131
32.28903,109131
32.29717,104649
32.30528,108651
32.31340,104138
32.32153,102735
32.32965,101493
32.33778,96983
32.34590,106127
32.35402,101633
32.36215,103657
32.37027,98884
32.37840,103834
32.38652,102864
32.39463,100917
32.40277,96728
32.41088,89805
32.41900,91625
32.42713,96602
32.43525,92895
32.44338,88874
32.45150,88112
32.45962,90728
32.46775,85290
32.47587,85989
32.48400,88242
32.49212,85104
32.50023,83056
32.50837,91944
32.51648,91999
32.52462,90517
32.53273,95982
32.54085,97823
32.54898,102190
32.55710,96141
32.56522,102256
32.57335,107447
32.58147,104144
32.58960,104303
32.59772,105614
32.60583,110167
32.61397,109085
32.62208,105685
32.63022,110767
32.63833,105911
32.64645,110059
32.65458,113143
32.66270,107152
32.67082,111043
32.67895,111393
32.68707,114893
32.69520,121455
32.70332,128530
32.71143,120597
32.71957,123690
32.72768,119965
32.73582,114953
32.74393,112786
32.75205,110094
32.76018,111867
32.76830,105213
32.77643,102117
32.78455,102871
32.79267,92269
32.80080,97671
32.80892,97548
32.81703,98567
32.82517,104762
32.83328,106320
32.84142,110900
32.84953,113038
32.85765,111477
32.86578,115925
32.87390,114822
32.88203,116175
32.89015,109066
32.89827,119719
32.90640,124892
32.91452,135272
32.92265,137103
32.93077,134924
32.93888,133252
32.94702,121702
32.95513,114568
32.96325,107350
32.97138,105604
32.97950,116175
32.98763,138641
32.99575,195257
33.00387,284247
33.01200,381165
33.02012,476145
33.02825,514327
33.03637,476122
33.04448,381674
33.05262,293143
33.06073,229818
33.06887,207113
33.07698,215222
33.08510,246299
33.09323,299436
33.10135,379041
33.10947,481025
33.11760,547571
33.12572,604641
33.13385,564771
33.14197,493952
33.15008,424196
33.15822,344495
33.16633,289741
33.17447,250236
33.18258,219012
33.19070,198350
33.19883,165024
33.20695,138999
33.21507,130668
33.22320,132917
33.23132,122851
33.23945,131094
33.24757,131665
33.25568,138123
33.26382,129843
33.27193,127758
33.28007,118171
33.28818,121308
33.29630,114787
33.30443,120670
33.31255,122235
33.32068,126408
33.32880,123817
33.33692,128816
33.34505,133039
33.35317,139755
33.36128,160008
33.36942,168699
33.37753,183119
33.38567,195532
33.39378,190064
33.40190,168354
33.41003,148018
33.41815,123289
33.42628,113102
33.43440,103632
33.44252,102227
33.45065,93621
33.45877,90584
33.46688,87298
33.47502,87452
33.48313,95457
33.49127,90763
33.49938,93922
33.50750,107338
33.51563,115713
33.52375,128071
33.53188,131441
33.54000,133023
33.54812,137367
33.55625,153617
33.56437,166038
33.57250,173919
33.58062,185214
33.58873,180297
33.59687,157713
33.60498,136839
33.61310,121558
33.62123,108955
33.62935,101412
33.63748,100429
33.64560,112975
33.65372,118392
33.66185,133407
33.66997,134422
33.67810,148619
33.68622,139922
33.69433,133882
33.70247,121887
33.71058,107851
33.71872,99875
33.72683,92307
33.73495,90444
33.74308,94774
33.75120,92310
33.75932,92055
33.76745,90240
33.77557,87119
33.78370,94456
33.79182,85293
33.79993,87739
33.80807,90199
33.81618,94780
33.82432,86575
33.83243,88103
33.84055,87364
33.84868,90817
33.85680,89564
33.86492,90683
33.87305,97779
33.88117,102824
33.88930,101749
33.89742,104272
33.90553,105143
33.91367,110001
33.92178,110273
33.92992,108189
33.93803,98275
33.94615,102752
33.95428,93663
33.96240,93572
33.97053,93213
33.97865,97005
33.98677,84120
33.99490,90037
34.00302,83670
34.01113,88363
34.01927,86865
34.02738,88087
34.03552,86684
34.04363,92542
34.05175,89309
34.05988,96100
34.06800,94879
34.07613,91292
34.08425,93204
34.09237,98804
34.10050,95081
34.10862,89504
34.11675,96342
34.12487,92446
34.13298,95034
34.14112,100859
34.14923,94624
34.15735,90660
34.16548,92944
34.17360,95732
34.18173,97497
34.18985,93518
34.19797,98522
34.20610,91153
34.21422,96919
34.22235,98008
34.23047,95323
34.23858,94799
34.24672,92627
34.25483,95885
34.26295,86350
34.27108,88361
34.27920,87036
34.28733,84096
34.29545,89033
34.30357,84177
34.31170,89166
34.31982,89572
34.32795,89907
34.33607,86917
34.34418,87101
34.35232,85803
34.36043,88699
34.36857,90279
34.37668,87849
34.38480,88081
34.39293,96641
34.40105,89838
34.40917,88403
34.41730,85696
34.42542,92551
34.43355,91360
34.44167,92074
34.44978,89349
34.45792,92781
34.46603,91391
34.47417,94561
34.48228,94333
34.49040,90653
34.49853,92550
34.50665,90190
34.51477,90862
34.52290,88234
34.53102,92943
34.53915,99940
34.54727,106120
34.55538,117464
34.56352,128669
34.57163,142558
34.57977,160719
34.58788,165986
34.59600,163174
34.60413,160900
34.61225,143662
34.62038,131641
34.62850,127449
34.63662,112683
34.64475,114922
34.65287,105666
34.66098,104754
34.66912,105333
34.67723,106792
34.68537,108899
34.69348,101870
34.70160,100881
34.70973,96849
34.71785,99467
34.72598,93878
34.73410,98147
34.74222,97714
34.75035,97464
34.75847,104476
34.76660,105349
34.77472,104645
34.78283,118625
34.79097,119368
34.79908,124427
34.80720,124829
34.81533,125042
34.82345,123755
34.83158,110881
34.83970,100700
34.84782,106947
34.85595,104539
34.86407,105945
34.87220,109454
34.88032,107834
34.88843,101099
34.89657,96482
34.90468,96135
34.91280,96227
34.92093,94954
34.92905,96065
34.93718,98201
34.94530,98619
34.95342,111820
34.96155,108039
34.96967,118922
34.97780,123043
34.98592,129806
34.99403,132506
35.00217,134256
35.01028,123524
35.01842,116429
35.02653,108546
35.03465,103445
35.04278,100829
35.05090,105817
35.05902,96286
35.06715,101867
35.07527,100211
35.08340,103850
35.09152,98948
35.09963,97085
35.10777,102850
35.11588,97888
35.12402,103796
35.13213,95288
35.14025,100706
35.14838,98458
35.15650,91755
35.16463,102715
35.17275,112672
35.18087,115919
35.18900,108429
35.19712,102212
35.20523,107190
35.21337,104596
35.22148,101274
35.22962,96830
35.23773,100207
35.24585,96942
35.25398,96151
35.26210,101987
35.27023,100175
35.27835,96835
35.28647,109419
35.29460,99662
35.30272,103157
35.31083,104997
35.31897,101526
35.32708,102363
35.33522,101449
35.34333,101733
35.35145,100419
35.35958,89606
35.36770,103765
35.37583,96271
35.38395,98345
35.39207,96232
35.40020,104878
35.40832,119141
35.41645,130845
35.42457,153125
35.43268,172759
35.44082,203721
35.44893,212602
35.45705,214848
35.46518,205013
35.47330,175627
35.48143,155283
35.48955,141471
35.49767,132079
35.50580,132787
35.51392,121951
35.52205,119663
35.53017,129716
35.53828,120707
35.54642,116998
35.55453,113005
35.56267,110592
35.57078,106040
35.57890,97992
35.58703,101595
35.59515,100203
35.60327,97429
35.61140,104022
35.61952,97192
35.62765,100798
35.63577,99953
35.64388,94250
35.65202,103574
35.66013,97349
35.66827,100777
35.67638,102248
35.68450,98805
35.69263,100748
35.70075,107081
35.70887,102029
35.71700,109961
35.72512,114856
35.73325,113025
35.74137,122987
35.74948,124078
35.75762,136501
35.76573,168566
35.77387,206321
35.78198,242356
35.79010,273792
35.79823,265598
35.80635,243042
35.81448,212917
35.82260,173739
35.83072,137726
35.83885,125882
35.84697,117255
35.85508,112844
35.86322,112150
35.87133,111256
35.87947,111031
35.88758,104172
35.89570,113271
35.90383,111101
35.91195,106410
35.92008,106193
35.92820,106802
35.93632,111294
35.94445,109207
35.95257,103116
35.96068,111866
35.96882,100994
35.97693,98069
35.98507,101428
35.99318,103044
36.00130,105738
36.00943,107097
36.01755,109832
36.02568,109636
36.03380,112879
36.04192,108263
36.05005,113196
36.05817,110116
36.06630,110799
36.07442,107224
36.08253,113025
36.09067,104985
36.09878,104949
36.10690,108045
36.11503,104335
36.12315,110716
36.13128,115384
36.13940,130281
36.14752,139308
36.15565,152907
36.16377,164762
36.17190,162988
36.18002,167382
36.18813,151940
36.19627,141395
36.20438,125064
36.21252,122508
36.22063,109598
36.22875,109576
36.23688,102932
36.24500,109102
36.25312,115455
36.26125,107907
36.26937,110167
36.27750,112070
36.28562,108255
36.29373,113374
36.30187,112990
36.30998,115783
36.31812,115077
36.32623,115541
36.33435,124211
36.34248,133538
36.35060,128377
36.35872,132068
36.36685,127202
36.37497,125518
36.38310,125063
36.39122,123358
36.39933,114014
36.40747,121791
36.41558,121184
36.42372,135699
36.43183,123130
36.43995,132903
36.44808,129414
36.45620,125595
36.46433,126272
36.47245,123428
36.48057,121767
36.48870,117819
36.49682,110280
36.50493,112074
36.51307,105889
36.52118,106472
36.52932,109644
36.53743,107586
36.54555,112158
36.55368,110218
36.56180,113726
36.56993,113910
36.57805,111314
36.58617,112528
36.59430,115636
36.60242,112704
36.61055,109771
36.61867,113623
36.62678,115714
36.63492,116894
36.64303,116043
36.65115,122210
36.65928,116153
36.66740,124785
36.67553,118274
36.68365,116448
36.69177,112842
36.69990,109779
36.70802,116078
36.71615,111194
36.72427,125195
36.73238,126601
36.74052,127941
36.74863,129352
36.75675,133598
36.76488,132014
36.77300,129866
36.78113,119066
36.78925,123373
36.79737,132611
36.80550,122927
36.81362,127899
36.82175,126564
36.82987,127198
36.83798,119951
36.84612,122374
36.85423,123410
36.86237,118039
36.87048,114099
36.87860,115785
36.88673,111368
36.89485,118255
36.90297,115735
36.91110,118948
36.91922,115109
36.92735,118445
36.93547,123521
36.94358,122940
36.95172,143847
36.95983,186942
36.96797,241489
36.97608,331360
36.98420,401970
36.99233,434591
37.00045,433342
37.00857,379113
37.01670,289854
37.02482,234588
37.03295,180362
37.04107,151803
37.04918,136654
37.05732,133554
37.06543,133974
37.07357,132930
37.08168,144276
37.08980,146579
37.09793,152028
37.10605,162164
37.11418,167359
37.12230,166914
37.13042,158665
37.13855,146757
37.14667,138718
37.15478,130896
37.16292,130375
37.17103,125409
37.17917,122724
37.18728,123113
37.19540,122801
37.20353,123328
37.21165,122051
37.21978,123134
37.22790,121116
37.23602,127788
37.24415,132084
37.25227,137309
37.26040,132636
37.26852,135023
37.27663,129547
37.28477,125984
37.29288,121828
37.30100,125291
37.30913,127884
37.31725,119497
37.32538,124209
37.33350,120736
37.34162,128366
37.34975,120648
37.35787,125462
37.36600,127570
37.37412,127532
37.38223,135909
37.39037,131304
37.39848,142575
37.40662,142451
37.41473,147954
37.42285,150113
37.43098,154350
37.43910,153638
37.44722,161629
37.45535,156765
37.46347,163515
37.47160,162843
37.47972,163971
37.48783,153773
