Z:\data\JTB-E02\BACandBLUE\JTB-E18-005-09.D Wed Apr 10 13:56:02 2019
Start of data points
2.09525,152296
2.10338,153924
2.11150,149271
2.11963,148707
2.12775,146535
2.13587,145671
2.14400,150011
2.15212,146461
2.16025,149043
2.16837,142422
2.17648,139112
2.18462,141474
2.19273,146112
2.20085,141702
2.20898,137589
2.21710,144697
2.22523,139392
2.23335,135842
2.24147,136768
2.24960,139304
2.25772,144256
2.26585,211259
2.27397,941704
2.28208,1863596
2.29022,1312024
2.29833,709762
2.30647,527973
2.31458,478370
2.32270,429608
2.33083,388239
2.33895,360829
2.34707,331362
2.35520,296182
2.36332,283033
2.37145,281103
2.37957,256746
2.38768,253566
2.39582,256936
2.40393,254491
2.41207,236179
2.42018,239622
2.42830,242024
2.43643,233712
2.44455,221189
2.45267,221623
2.46080,224495
2.46892,217915
2.47705,221205
2.48517,214250
2.49328,219703
2.50142,215176
2.50953,211532
2.51767,208172
2.52578,208333
2.53390,210725
2.54203,210746
2.55015,228068
2.55828,497825
2.56640,938688
2.57452,892609
2.58265,668763
2.59077,539798
2.59888,516739
2.60702,992615
2.61513,2037733
2.62327,1911775
2.63138,1192044
2.63950,801053
2.64763,610258
2.65575,498420
2.66388,418326
2.67200,382915
2.68012,348910
2.68825,329044
2.69637,301976
2.70450,295256
2.71262,272122
2.72073,272084
2.72887,263006
2.73698,271483
2.74510,263721
2.75323,252342
2.76135,244838
2.76948,252642
2.77760,442369
2.78572,1464576
2.79385,2372288
2.80197,1860681
2.81010,1237503
2.81822,956578
2.82633,819122
2.83447,715474
2.84258,632694
2.85070,552261
2.85883,478303
2.86695,435243
2.87508,404116
2.88320,371080
2.89132,346590
2.89945,321672
2.90757,310631
2.91570,290898
2.92382,282812
2.93193,272584
2.94007,264381
2.94818,260826
2.95632,271599
2.96443,305083
2.97255,322988
2.98068,296159
2.98880,355373
2.99692,601117
3.00505,764932
3.01317,668797
3.02130,561448
3.02942,464764
3.03753,427301
3.04567,393546
3.05378,370539
3.06192,420459
3.07003,470566
3.07815,725062
3.08628,2991442
3.09440,8861292
3.10252,1.533885E+07
3.11065,2.131989E+07
3.11877,2.216842E+07
3.12690,1.73549E+07
3.13502,1.256054E+07
3.14313,9759183
3.15127,7757914
3.15938,6276649
3.16752,5137914
3.17563,4307765
3.18375,3771342
3.19188,3723098
3.20000,3846011
3.20813,3420506
3.21625,2816046
3.22437,2348538
3.23250,2071906
3.24062,1799955
3.24873,1609507
3.25687,1427126
3.26498,1312435
3.27312,1173444
3.28123,1105437
3.28935,1113757
3.29748,1597252
3.30560,3115823
3.31373,5004033
3.32185,5761787
3.32997,5115067
3.33810,4080451
3.34622,3310283
3.35435,2738748
3.36247,2346874
3.37058,2049966
3.37872,1815289
3.38683,1650925
3.39495,1501379
3.40308,1374427
3.41120,1320947
3.41933,1303427
3.42745,1265096
3.43557,1196910
3.44370,1111326
3.45182,1004012
3.45995,931542
3.46807,879118
3.47618,826440
3.48432,808705
3.49243,778706
3.50055,743848
3.50868,730167
3.51680,745750
3.52493,824408
3.53305,932302
3.54117,930228
3.54930,833084
3.55742,767596
3.56555,756623
3.57367,811184
3.58178,890932
3.58992,855740
3.59803,769504
3.60617,705951
3.61428,678751
3.62240,665694
3.63053,658847
3.63865,692832
3.64677,697397
3.65490,689489
3.66302,1099963
3.67115,3884320
3.67927,1.035161E+07
3.68738,1.502517E+07
3.69552,1.335512E+07
3.70363,9472189
3.71177,6938207
3.71988,5639692
3.72800,4821581
3.73613,4183491
3.74425,3785306
3.75238,3383512
3.76050,3058285
3.76862,2829070
3.77675,2599314
3.78487,2409297
3.79298,2245645
3.80112,2185236
3.80923,2466446
3.81737,3166503
3.82548,3589528
3.83360,3211263
3.84173,2663582
3.84985,2325379
3.85798,2096639
3.86610,1935261
3.87422,1787479
3.88235,1660574
3.89047,1571527
3.89858,1495205
3.90672,1414846
3.91483,1372043
3.92297,1394531
3.93108,1470319
3.93920,1598207
3.94733,2562207
3.95545,7592156
3.96358,1.934986E+07
3.97170,3.059896E+07
3.97982,3.320235E+07
3.98795,2.705017E+07
3.99607,1.924843E+07
4.00420,2.299677E+07
4.01232,4.242309E+07
4.02043,6.26018E+07
4.02857,7.163628E+07
4.03668,6.463809E+07
4.04480,4.236869E+07
4.05293,2.330144E+07
4.06105,1.461911E+07
4.06918,1.05379E+07
4.07730,8159688
4.08542,6581529
4.09355,5526015
4.10167,4666340
4.10980,4104013
4.11792,3628114
4.12603,3254550
4.13417,2964048
4.14228,2735521
4.15040,2559671
4.15853,2362011
4.16665,2213364
4.17478,2131203
4.18290,2056389
4.19102,1950532
4.19915,1830781
4.20727,1788862
4.21540,2494911
4.22352,5144432
4.23163,9803897
4.23977,1.34713E+07
4.24788,1.356033E+07
4.25602,1.040785E+07
4.26413,6976170
4.27225,4928383
4.28038,3690328
4.28850,2884231
4.29662,2358915
4.30475,2031563
4.31287,1769848
4.32100,1616814
4.32912,1496952
4.33723,1408001
4.34537,1331580
4.35348,1303333
4.36162,1326053
4.36973,1373194
4.37785,1414383
4.38598,1320129
4.39410,1211592
4.40223,1108173
4.41035,1045751
4.41847,995570
4.42660,942472
4.43472,922853
4.44283,901537
4.45097,886056
4.45908,887368
4.46722,865328
4.47533,848847
4.48345,846382
4.49158,862070
4.49970,844020
4.50783,809673
4.51595,789683
4.52407,782751
4.53220,762938
4.54032,743987
4.54843,739015
4.55657,732806
4.56468,736396
4.57282,725702
4.58093,693293
4.58905,688689
4.59718,677948
4.60530,660921
4.61343,654102
4.62155,689148
4.62967,776420
4.63780,948806
4.64592,1195651
4.65405,1260973
4.66217,1131691
4.67028,968167
4.67842,859173
4.68653,820706
4.69465,782483
4.70278,730733
4.71090,691230
4.71903,652666
4.72715,613754
4.73527,608026
4.74340,605435
4.75152,583413
4.75965,574105
4.76777,565545
4.77588,560412
4.78402,556855
4.79213,623355
4.80027,824084
4.80838,1106805
4.81650,1254281
4.82463,1142955
4.83275,988900
4.84087,889075
4.84900,864675
4.85712,816087
4.86525,809999
4.87337,758543
4.88148,717275
4.88962,684067
4.89773,645245
4.90587,615302
4.91398,612090
4.92210,599463
4.93023,597681
4.93835,696073
4.94647,1117605
4.95460,2184630
4.96272,3841555
4.97085,5181247
4.97897,5401770
4.98708,4569935
4.99522,3424961
5.00333,2508018
5.01147,1928389
5.01958,1542381
5.02770,1365601
5.03583,1283467
5.04395,1268806
5.05208,1221139
5.06020,1169277
5.06832,1078230
5.07645,994931
5.08457,945801
5.09268,910208
5.10082,865232
5.10893,851877
5.11707,799225
5.12518,772955
5.13330,747124
5.14143,732553
5.14955,731994
5.15768,766852
5.16580,834973
5.17392,892507
5.18205,893343
5.19017,856269
5.19830,826845
5.20642,870609
5.21453,907427
5.22267,902076
5.23078,853401
5.23890,775028
5.24703,719800
5.25515,670378
5.26328,631059
5.27140,598089
5.27952,583415
5.28765,536473
5.29577,556630
5.30390,536814
5.31202,538421
5.32013,519481
5.32827,537419
5.33638,562172
5.34450,597146
5.35263,613511
5.36075,584292
5.36888,554022
5.37700,541637
5.38512,563199
5.39325,605755
5.40137,643514
5.40950,669512
5.41762,638185
5.42573,583210
5.43387,539188
5.44198,527864
5.45012,528825
5.45823,547993
5.46635,571253
5.47448,557877
5.48260,515500
5.49072,479892
5.49885,452722
5.50697,446969
5.51510,432298
5.52322,434800
5.53133,442366
5.53947,433326
5.54758,434252
5.55572,491623
5.56383,638499
5.57195,883998
5.58008,1103053
5.58820,1163404
5.59632,1018813
5.60445,828776
5.61257,666800
5.62070,564014
5.62882,511307
5.63693,508528
5.64507,479222
5.65318,477723
5.66132,446612
5.66943,440916
5.67755,432629
5.68568,430612
5.69380,458406
5.70193,457778
5.71005,461098
5.71817,447443
5.72630,443475
5.73442,442115
5.74253,435572
5.75067,429810
5.75878,422650
5.76692,407435
5.77503,419749
5.78315,408479
5.79128,396501
5.79940,391862
5.80753,405315
5.81565,387984
5.82377,417871
5.83190,472725
5.84002,546752
5.84815,609391
5.85627,623263
5.86438,602753
5.87252,561394
5.88063,525436
5.88875,521019
5.89688,502343
5.90500,462239
5.91313,429433
5.92125,391968
5.92937,374054
5.93750,382496
5.94562,392880
5.95375,393464
5.96187,407567
5.96998,418155
5.97812,441023
5.98623,463343
5.99435,492096
6.00248,490646
6.01060,545904
6.01873,629751
6.02685,770161
6.03497,808012
6.04310,728795
6.05122,588758
6.05935,468364
6.06747,407069
6.07558,367300
6.08372,338460
6.09183,332433
6.09997,311007
6.10808,310986
6.11620,299741
6.12433,306830
6.13245,340128
6.14057,432970
6.14870,538331
6.15682,601286
6.16495,576322
6.17307,518390
6.18118,457159
6.18932,412944
6.19743,379568
6.20557,374461
6.21368,343687
6.22180,331205
6.22993,322751
6.23805,313231
6.24618,328055
6.25430,348547
6.26242,379564
6.27055,400387
6.27867,403766
6.28678,364466
6.29492,328668
6.30303,315227
6.31117,303251
6.31928,326262
6.32740,362895
6.33553,456761
6.34365,574661
6.35178,617252
6.35990,566567
6.36802,483054
6.37615,407142
6.38427,365433
6.39238,353380
6.40052,337835
6.40863,311323
6.41677,301664
6.42488,292651
6.43300,289387
6.44113,269891
6.44925,268409
6.45738,267980
6.46550,257911
6.47362,249551
6.48175,251721
6.48987,257626
6.49800,247690
6.50612,245171
6.51423,246781
6.52237,251554
6.53048,254390
6.53860,242716
6.54673,256385
6.55485,261836
6.56298,296110
6.57110,415199
6.57922,620222
6.58735,846403
6.59547,879256
6.60360,728086
6.61172,544047
6.61983,407608
6.62797,337248
6.63608,319207
6.64420,305485
6.65233,351125
6.66045,569461
6.66858,1001781
6.67670,1422802
6.68482,1514183
6.69295,1206965
6.70107,888886
6.70920,760670
6.71732,636978
6.72543,545151
6.73357,467842
6.74168,408418
6.74982,389419
6.75793,361573
6.76605,354436
6.77418,333029
6.78230,319688
6.79042,308180
6.79855,317080
6.80667,339419
6.81480,391097
6.82292,456192
6.83103,505825
6.83917,523181
6.84728,508424
6.85542,496629
6.86353,490266
6.87165,484413
6.87978,481720
6.88790,446749
6.89603,372047
6.90415,304017
6.91227,273044
6.92040,249790
6.92852,248408
6.93663,220375
6.94477,217251
6.95288,213968
6.96102,234011
6.96913,248990
6.97725,273105
6.98538,290450
6.99350,290884
7.00163,281849
7.00975,268690
7.01787,245128
7.02600,223472
7.03412,219826
7.04223,218732
7.05037,235993
7.05848,271147
7.06662,313258
7.07473,372165
7.08285,395319
7.09098,391192
7.09910,360635
7.10723,296984
7.11535,268782
7.12347,237161
7.13160,221834
7.13972,218847
7.14785,237621
7.15597,276443
7.16408,345970
7.17222,388998
7.18033,397817
7.18845,370475
7.19658,358974
7.20470,454904
7.21283,767185
7.22095,1335791
7.22907,1830405
7.23720,1905936
7.24532,1452238
7.25345,964166
7.26157,605417
7.26968,409662
7.27782,312161
7.28593,271257
7.29407,253407
7.30218,248548
7.31030,242815
7.31843,249050
7.32655,259686
7.33467,275005
7.34280,293610
7.35092,303101
7.35905,289436
7.36717,281176
7.37528,263848
7.38342,255092
7.39153,227905
7.39967,222253
7.40778,217169
7.41590,215549
7.42403,204809
7.43215,207382
7.44027,198997
7.44840,205548
7.45652,202294
7.46465,209346
7.47277,209784
7.48088,208666
7.48902,202311
7.49713,195019
7.50527,191142
7.51338,207537
7.52150,239589
7.52963,383706
7.53775,734635
7.54588,1491526
7.55400,2611397
7.56212,3921990
7.57025,5017594
7.57837,5439235
7.58648,4946587
7.59462,3874293
7.60273,2689296
7.61087,1717506
7.61898,1106217
7.62710,730629
7.63523,520778
7.64335,405949
7.65148,343348
7.65960,298989
7.66772,264851
7.67585,235319
7.68397,219619
7.69210,210431
7.70022,202818
7.70833,206295
7.71647,213510
7.72458,218981
7.73270,229540
7.74083,236262
7.74895,232016
7.75708,244330
7.76520,247074
7.77332,244562
7.78145,250449
7.78957,249244
7.79770,260640
7.80582,278380
7.81393,290375
7.82207,292802
7.83018,270107
7.83830,241209
7.84643,223001
7.85455,223224
7.86268,225657
7.87080,242116
7.87892,268308
7.88705,300159
7.89517,321992
7.90330,328369
7.91142,311859
7.91953,268910
7.92767,251575
7.93578,240330
7.94392,255797
7.95203,275129
7.96015,278918
7.96828,281560
7.97640,271788
7.98452,266708
7.99265,240379
8.00077,217222
8.00890,207107
8.01702,204683
8.02513,202141
8.03327,198693
8.04138,193055
8.04952,187158
8.05763,189001
8.06575,185853
8.07388,182248
8.08200,180078
8.09013,180418
8.09825,184211
8.10637,183793
8.11450,176340
8.12262,175906
8.13073,182076
8.13887,196603
8.14698,202444
8.15512,208972
8.16323,225449
8.17135,208563
8.17948,199575
8.18760,189895
8.19573,182329
8.20385,188036
8.21197,171314
8.22010,166654
8.22822,171094
8.23633,174617
8.24447,168545
8.25258,165594
8.26072,170574
8.26883,176283
8.27695,162597
8.28508,168748
8.29320,166301
8.30133,166570
8.30945,171322
8.31757,168767
8.32570,183933
8.33382,189612
8.34195,189253
8.35007,182701
8.35818,177999
8.36632,192146
8.37443,199262
8.38255,229401
8.39068,251624
8.39880,253870
8.40693,242673
8.41505,215108
8.42317,194673
8.43130,185283
8.43942,166302
8.44755,156487
8.45567,159117
8.46378,169314
8.47192,160799
8.48003,155875
8.48815,156789
8.49628,161303
8.50440,162128
8.51253,186266
8.52065,308473
8.52877,645118
8.53690,1310419
8.54502,2105417
8.55315,2629152
8.56127,2556587
8.56938,1827854
8.57752,1110044
8.58563,649392
8.59377,469991
8.60188,437029
8.61000,460518
8.61813,492411
8.62625,453585
8.63437,423047
8.64250,344523
8.65062,291442
8.65875,264941
8.66687,246430
8.67498,234743
8.68312,222526
8.69123,218959
8.69937,215032
8.70748,215828
8.71560,220496
8.72373,213012
8.73185,200237
8.73998,194430
8.74810,191829
8.75622,215818
8.76435,265208
8.77247,429443
8.78058,780194
8.78872,1297714
8.79683,1733869
8.80497,1864415
8.81308,1605674
8.82120,1176851
8.82933,797878
8.83745,564780
8.84558,458897
8.85370,419334
8.86182,418852
8.86995,387279
8.87807,366939
8.88618,353276
8.89432,326931
8.90243,317771
8.91057,301100
8.91868,286412
8.92680,277216
8.93493,302716
8.94305,291440
8.95118,295583
8.95930,295747
8.96742,284176
8.97555,273336
8.98367,275824
8.99180,270760
8.99992,272854
9.00803,261156
9.01617,253288
9.02428,245586
9.03240,233386
9.04053,224933
9.04865,218943
9.05678,209807
9.06490,212613
9.07302,213382
9.08115,200522
9.08927,208790
9.09740,217077
9.10552,234929
9.11363,253673
9.12177,274115
9.12988,286252
9.13802,290086
9.14613,275490
9.15425,248729
9.16238,233897
9.17050,219601
9.17862,210639
9.18675,207401
9.19487,201785
9.20300,205862
9.21112,202759
9.21923,214266
9.22737,200560
9.23548,204270
9.24362,187682
9.25173,201914
9.25985,199077
9.26798,197902
9.27610,193061
9.28422,191020
9.29235,183410
9.30047,181914
9.30860,177827
9.31672,173088
9.32483,177057
9.33297,171973
9.34108,169611
9.34922,162162
9.35733,165195
9.36545,166713
9.37358,165228
9.38170,166181
9.38983,166898
9.39795,172907
9.40607,184564
9.41420,204307
9.42232,253712
9.43043,315747
9.43857,383032
9.44668,466880
9.45482,503471
9.46293,473115
9.47105,400552
9.47918,330198
9.48730,258548
9.49543,227843
9.50355,204746
9.51167,214663
9.51980,232346
9.52792,254615
9.53603,270222
9.54417,268679
9.55228,250124
9.56042,238447
9.56853,217529
9.57665,208576
9.58478,211297
9.59290,211220
9.60103,211754
9.60915,221771
9.61727,194263
9.62540,177686
9.63352,153484
9.64165,141840
9.64977,135906
9.65788,132589
9.66602,132933
9.67413,132865
9.68225,126406
9.69038,129791
9.69850,122643
9.70663,130306
9.71475,124655
9.72287,117206
9.73100,114088
9.73912,111109
9.74725,111523
9.75537,110029
9.76348,113888
9.77162,105992
9.77973,107830
9.78787,103931
9.79598,104631
9.80410,103722
9.81223,104837
9.82035,106171
9.82847,102786
9.83660,105583
9.84472,106196
9.85285,109785
9.86097,124029
9.86908,136283
9.87722,128599
9.88533,126188
9.89347,122380
9.90158,111215
9.90970,105180
9.91783,102518
9.92595,112069
9.93407,125580
9.94220,159227
9.95032,222786
9.95845,293733
9.96657,337945
9.97468,347239
9.98282,314692
9.99093,271313
9.99907,242869
10.00718,215291
10.01530,203246
10.02343,185420
10.03155,177517
10.03968,173664
10.04780,165960
10.05592,152074
10.06405,158185
10.07217,158239
10.08028,165853
10.08842,158164
10.09653,160426
10.10467,157593
10.11278,148323
10.12090,140034
10.12903,141795
10.13715,139810
10.14528,132890
10.15340,134969
10.16152,125312
10.16965,119760
10.17777,124671
10.18590,123157
10.19402,114887
10.20213,112566
10.21027,115018
10.21838,114220
10.22650,115327
10.23463,119322
10.24275,124384
10.25088,129616
10.25900,155609
10.26712,229983
10.27525,445122
10.28337,900192
10.29150,1626871
10.29962,2500714
10.30773,3607436
10.31587,5066976
10.32398,7180532
10.33210,9555135
10.34023,1.111982E+07
10.34835,1.087311E+07
10.35648,9449277
10.36460,7578291
10.37272,6749154
10.38085,6263299
10.38897,5611614
10.39710,4577686
10.40522,3338434
10.41333,2286415
10.42147,1628272
10.42958,1333713
10.43772,1252404
10.44583,1266365
10.45395,1275914
10.46208,1224396
10.47020,1116235
10.47832,1018188
10.48645,916914
10.49457,804597
10.50270,737184
10.51082,646016
10.51893,609282
10.52707,561175
10.53518,523696
10.54332,496126
10.55143,479084
10.55955,449238
10.56768,422434
10.57580,399194
10.58393,383297
10.59205,372581
10.60017,357496
10.60830,338090
10.61642,328718
10.62453,309643
10.63267,303376
10.64078,298989
10.64892,282140
10.65703,276700
10.66515,265601
10.67328,260224
10.68140,262299
10.68953,249812
10.69765,264109
10.70577,255873
10.71390,264406
10.72202,260992
10.73013,263336
10.73827,234102
10.74638,228997
10.75452,217593
10.76263,207541
10.77075,210692
10.77888,204630
10.78700,204480
10.79513,205706
10.80325,202600
10.81137,204486
10.81950,206331
10.82762,196163
10.83575,204602
10.84387,197981
10.85198,185306
10.86012,178491
10.86823,171827
10.87635,175017
10.88448,161997
10.89260,160002
10.90073,155694
10.90885,150736
10.91697,153992
10.92510,148811
10.93322,150252
10.94135,149644
10.94947,148890
10.95758,158696
10.96572,179642
10.97383,203559
10.98195,229412
10.99008,239790
10.99820,235214
11.00633,215772
11.01445,207155
11.02257,195683
11.03070,176750
11.03882,173478
11.04695,164564
11.05507,168273
11.06318,156645
11.07132,155457
11.07943,161963
11.08757,168688
11.09568,181662
11.10380,188304
11.11193,187754
11.12005,186850
11.12817,169121
11.13630,162421
11.14442,153036
11.15255,145377
11.16067,142014
11.16878,148919
11.17692,151361
11.18503,145845
11.19317,153111
11.20128,151355
11.20940,143565
11.21753,136474
11.22565,133240
11.23378,127603
11.24190,120145
11.25002,112025
11.25815,112546
11.26627,107242
11.27438,103883
11.28252,105567
11.29063,107720
11.29877,123566
11.30688,187187
11.31500,350037
11.32313,711160
11.33125,1372367
11.33938,2209094
11.34750,2897302
11.35562,3206975
11.36375,3047196
11.37187,2511017
11.37998,1879150
11.38812,1422601
11.39623,1153361
11.40437,1062162
11.41248,954401
11.42060,874352
11.42873,772569
11.43685,676011
11.44498,574198
11.45310,490238
11.46122,415453
11.46935,372223
11.47747,342144
11.48560,337369
11.49372,339677
11.50183,354020
11.50997,389367
11.51808,385143
11.52620,368044
11.53433,341273
11.54245,295610
11.55058,268447
11.55870,249864
11.56682,247654
11.57495,237631
11.58307,229536
11.59120,219899
11.59932,225693
11.60743,222912
11.61557,244607
11.62368,250260
11.63182,253561
11.63993,240607
11.64805,224046
11.65618,200636
11.66430,186848
11.67242,181177
11.68055,188848
11.68867,186937
11.69680,182347
11.70492,176319
11.71303,179795
11.72117,183006
11.72928,180496
11.73742,179473
11.74553,187650
11.75365,186034
11.76178,171976
11.76990,168812
11.77802,155939
11.78615,146431
11.79427,137283
11.80240,134750
11.81052,140294
11.81863,129480
11.82677,136770
11.83488,144537
11.84302,141361
11.85113,145801
11.85925,135088
11.86738,126580
11.87550,125777
11.88363,120197
11.89175,115409
11.89987,120699
11.90800,137498
11.91612,175309
11.92423,231891
11.93237,293761
11.94048,327798
11.94862,322260
11.95673,281484
11.96485,228706
11.97298,213070
11.98110,300862
11.98923,609107
11.99735,1303412
12.00547,2506825
12.01360,3594204
12.02172,4364548
12.02983,4126765
12.03797,3506531
12.04608,2743369
12.05422,2120195
12.06233,1692146
12.07045,1436922
12.07858,1254046
12.08670,1234856
12.09483,1078271
12.10295,1074976
12.11107,1054569
12.11920,1112889
12.12732,1205153
12.13545,1363479
12.14357,1454416
12.15168,1455048
12.15982,1310292
12.16793,1144755
12.17605,982895
12.18418,893688
12.19230,837636
12.20043,819511
12.20855,806764
12.21667,785479
12.22480,741121
12.23292,729876
12.24105,687418
12.24917,673818
12.25728,638485
12.26542,608467
12.27353,594012
12.28167,583802
12.28978,550726
12.29790,561369
12.30603,523258
12.31415,516300
12.32227,497951
12.33040,480273
12.33852,464103
12.34665,457998
12.35477,443740
12.36288,453514
12.37102,444232
12.37913,442746
12.38727,458519
12.39538,528472
12.40350,594783
12.41163,679968
12.41975,677301
12.42787,646957
12.43600,585842
12.44412,540670
12.45225,480686
12.46037,450715
12.46848,437949
12.47662,406738
12.48473,406630
12.49287,412804
12.50098,377268
12.50910,382237
12.51723,365599
12.52535,362690
12.53348,346460
12.54160,352867
12.54972,358321
12.55785,371381
12.56597,382413
12.57408,396120
12.58222,387784
12.59033,361518
12.59847,342188
12.60658,322517
12.61470,319242
12.62283,313222
12.63095,317461
12.63908,308410
12.64720,287884
12.65532,277414
12.66345,268615
12.67157,243609
12.67970,224718
12.68782,207955
12.69593,181685
12.70407,166574
12.71218,151554
12.72030,158308
12.72843,157574
12.73655,164225
12.74468,176054
12.75280,164474
12.76092,166165
12.76905,151803
12.77717,147068
12.78530,144975
12.79342,133100
12.80153,138321
12.80967,131150
12.81778,131382
12.82590,119384
12.83403,120980
12.84215,116088
12.85028,112425
12.85840,116651
12.86652,109918
12.87465,116604
12.88277,110387
12.89090,112892
12.89902,112129
12.90713,111122
12.91527,112751
12.92338,110677
12.93152,108741
12.93963,116875
12.94775,129403
12.95588,196947
12.96400,365915
12.97212,754789
12.98025,1331447
12.98837,1823920
12.99650,1973245
13.00462,1669156
13.01273,1183127
13.02087,789633
13.02898,508532
13.03712,381259
13.04523,309991
13.05335,259863
13.06148,230122
13.06960,215053
13.07772,196956
13.08585,178543
13.09397,170262
13.10210,166637
13.11022,158336
13.11833,150460
13.12647,148802
13.13458,141051
13.14272,131527
13.15083,131123
13.15895,134794
13.16708,129318
13.17520,132250
13.18333,125566
13.19145,118979
13.19957,125639
13.20770,126311
13.21582,123046
13.22393,127790
13.23207,136247
13.24018,123543
13.24832,130385
13.25643,118072
13.26455,119764
13.27268,117271
13.28080,113958
13.28893,108072
13.29705,109719
13.30517,102846
13.31330,98864
13.32142,100689
13.32955,95048
13.33767,99549
13.34578,100872
13.35392,97362
13.36203,93111
13.37015,95284
13.37828,97381
13.38640,97211
13.39453,99156
13.40265,96468
13.41077,96360
13.41890,90197
13.42702,95455
13.43515,89987
13.44327,92556
13.45138,96032
13.45952,94330
13.46763,95508
13.47577,98806
13.48388,103137
13.49200,96253
13.50013,92577
13.50825,92166
13.51637,96370
13.52450,99389
13.53262,95700
13.54075,97640
13.54887,98313
13.55698,90728
13.56512,90825
13.57323,91688
13.58137,93505
13.58948,104223
13.59760,106539
13.60573,111898
13.61385,115166
13.62197,118576
13.63010,118662
13.63822,107409
13.64635,105204
13.65447,102877
13.66258,99537
13.67072,93840
13.67883,92411
13.68697,89175
13.69508,92357
13.70320,87550
13.71133,86457
13.71945,85749
13.72758,87686
13.73570,94457
13.74382,129126
13.75195,228470
13.76007,447221
13.76818,866749
13.77632,1424407
13.78443,2015860
13.79257,2258618
13.80068,2254770
13.80880,1870842
13.81693,1604961
13.82505,1363928
13.83318,1238785
13.84130,1207017
13.84942,1161196
13.85755,1143657
13.86567,1057028
13.87378,940961
13.88192,815400
13.89003,708677
13.89817,603570
13.90628,573552
13.91440,518772
13.92253,499005
13.93065,473929
13.93878,467874
13.94690,494072
13.95502,525061
13.96315,639144
13.97127,860139
13.97940,1168563
13.98752,1563501
13.99563,1611167
14.00377,1553623
14.01188,1351828
14.02000,1192067
14.02813,946010
14.03625,816491
14.04438,727625
14.05250,681542
14.06062,676183
14.06875,617995
14.07687,607423
14.08500,601909
14.09312,575352
14.10123,548760
14.10937,540718
14.11748,523737
14.12562,511171
14.13373,569239
14.14185,584452
14.14998,675142
14.15810,762621
14.16622,798034
14.17435,800749
14.18247,775761
14.19060,765596
14.19872,872082
14.20683,970726
14.21497,1141816
14.22308,1192526
14.23122,1137513
14.23933,1003928
14.24745,857674
14.25558,727920
14.26370,648390
14.27182,574633
14.27995,517745
14.28807,487188
14.29620,452323
14.30432,418582
14.31243,389285
14.32057,369183
14.32868,348733
14.33682,342756
14.34493,334160
14.35305,311581
14.36118,306101
14.36930,291338
14.37743,267873
14.38555,251168
14.39367,234958
14.40180,229508
14.40992,224018
14.41803,221333
14.42617,216589
14.43428,213291
14.44242,204008
14.45053,190484
14.45865,178935
14.46678,178622
14.47490,174067
14.48303,176298
14.49115,177726
14.49927,178229
14.50740,192142
14.51552,198299
14.52365,222297
14.53177,233095
14.53988,253155
14.54802,240490
14.55613,229120
14.56425,205693
14.57238,189148
14.58050,174667
14.58863,161336
14.59675,149133
14.60487,140810
14.61300,133934
14.62112,131685
14.62925,125005
14.63737,128216
14.64548,120333
14.65362,113686
14.66173,120460
14.66985,115690
14.67798,107588
14.68610,105462
14.69423,108651
14.70235,108420
14.71047,102642
14.71860,110119
14.72672,112315
14.73485,117293
14.74297,124377
14.75108,135514
14.75922,137657
14.76733,151765
14.77547,141473
14.78358,147141
14.79170,171956
14.79983,237469
14.80795,437799
14.81607,946848
14.82420,1838378
14.83232,2887568
14.84045,3641393
14.84857,3865749
14.85668,3494824
14.86482,2677748
14.87293,1862768
14.88107,1327500
14.88918,986647
14.89730,785053
14.90543,677080
14.91355,575289
14.92167,517956
14.92980,465691
14.93792,427504
14.94605,400500
14.95417,378404
14.96228,348415
14.97042,343831
14.97853,328068
14.98667,304200
14.99478,286235
15.00290,278042
15.01103,256087
15.01915,251080
15.02728,242314
15.03540,233001
15.04352,227890
15.05165,214369
15.05977,215371
15.06788,205643
15.07602,197644
15.08413,182947
15.09227,184311
15.10038,181994
15.10850,172055
15.11663,168568
15.12475,163052
15.13288,165280
15.14100,168031
15.14912,167918
15.15725,162657
15.16537,156628
15.17350,143188
15.18162,141557
15.18973,121692
15.19787,116547
15.20598,107199
15.21410,110678
15.22223,106802
15.23035,100915
15.23848,106082
15.24660,103646
15.25472,101978
15.26285,96243
15.27097,91479
15.27910,98224
15.28722,100150
15.29533,90608
15.30347,93476
15.31158,93455
15.31970,91322
15.32783,92312
15.33595,86015
15.34408,88223
15.35220,86421
15.36032,89419
15.36845,90235
15.37657,82015
15.38470,83622
15.39282,89683
15.40093,80457
15.40907,86110
15.41718,85147
15.42532,84693
15.43343,85923
15.44155,84709
15.44968,88859
15.45780,85409
15.46592,95948
15.47405,113774
15.48217,149404
15.49030,213824
15.49842,294218
15.50653,380147
15.51467,442478
15.52278,477433
15.53092,482269
15.53903,438529
15.54715,389122
15.55528,343014
15.56340,283553
15.57153,237449
15.57965,208751
15.58777,184615
15.59590,163916
15.60402,155358
15.61213,141746
15.62027,135824
15.62838,139737
15.63652,130619
15.64463,118404
15.65275,112182
15.66088,113642
15.66900,106428
15.67713,99958
15.68525,102067
15.69337,98724
15.70150,93824
15.70962,88608
15.71773,89055
15.72587,87700
15.73398,89799
15.74212,86048
15.75023,92141
15.75835,99828
15.76648,118077
15.77460,158182
15.78273,220252
15.79085,287498
15.79897,345081
15.80710,369326
15.81522,344574
15.82335,296115
15.83147,248582
15.83958,203374
15.84772,178569
15.85583,167751
15.86395,150310
15.87208,142536
15.88020,133113
15.88833,129822
15.89645,132266
15.90457,128868
15.91270,117029
15.92082,118806
15.92895,117102
15.93707,115490
15.94518,121385
15.95332,125228
15.96143,135382
15.96955,158048
15.97768,197601
15.98580,224905
15.99393,244180
16.00205,254678
16.01017,250806
16.01830,247142
16.02642,233968
16.03455,243091
16.04267,228984
16.05078,215411
16.05892,207324
16.06703,185165
16.07517,167306
16.08328,157703
16.09140,149859
16.09953,150333
16.10765,134710
16.11577,134944
16.12390,141393
16.13202,130651
16.14015,127853
16.14827,137508
16.15638,137813
16.16452,144409
16.17263,137941
16.18077,128988
16.18888,126690
16.19700,119652
16.20513,117935
16.21325,105900
16.22138,106715
16.22950,103243
16.23762,102940
16.24575,106266
16.25387,107852
16.26198,106589
16.27012,105128
16.27823,102988
16.28637,104855
16.29448,108780
16.30260,114203
16.31073,117087
16.31885,123058
16.32698,111173
16.33510,109617
16.34322,118011
16.35135,106478
16.35947,112882
16.36758,133648
16.37572,170873
16.38383,213231
16.39197,246232
16.40008,281087
16.40820,261952
16.41633,234536
16.42445,206399
16.43258,172491
16.44070,166628
16.44882,155068
16.45695,156266
16.46507,186110
16.47320,254782
16.48132,413690
16.48943,600778
16.49757,754616
16.50568,768598
16.51380,692993
16.52193,533887
16.53005,395340
16.53818,289995
16.54630,244179
16.55442,211514
16.56255,190824
16.57067,180413
16.57880,166556
16.58692,155708
16.59503,152851
16.60317,148484
16.61128,148773
16.61942,143984
16.62753,139113
16.63565,141248
16.64378,132586
16.65190,133074
16.66002,121802
16.66815,118739
16.67627,114021
16.68440,117797
16.69252,112875
16.70063,109962
16.70877,102368
16.71688,102974
16.72502,106214
16.73313,95635
16.74125,92677
16.74938,98677
16.75750,93213
16.76562,96136
16.77375,97925
16.78187,97182
16.79000,94979
16.79812,96816
16.80623,100581
16.81437,94951
16.82248,91276
16.83062,91764
16.83873,82040
16.84685,83359
16.85498,87631
16.86310,90929
16.87123,90523
16.87935,101047
16.88747,95813
16.89560,100804
16.90372,96556
16.91183,90520
16.91997,85378
16.92808,83439
16.93622,84094
16.94433,80681
16.95245,84398
16.96058,84589
16.96870,81010
16.97683,80671
16.98495,78217
16.99307,82023
17.00120,84562
17.00932,82603
17.01745,83725
17.02557,81143
17.03368,81396
17.04182,86322
17.04993,83112
17.05805,85032
17.06618,82998
17.07430,85814
17.08243,87744
17.09055,90121
17.09867,85331
17.10680,88848
17.11492,98516
17.12305,106372
17.13117,117110
17.13928,110958
17.14742,123949
17.15553,121409
17.16365,118722
17.17178,116752
17.17990,110870
17.18803,103591
17.19615,96369
17.20427,92696
17.21240,95274
17.22052,94383
17.22865,90520
17.23677,87499
17.24488,88379
17.25302,90754
17.26113,84354
17.26927,90603
17.27738,84364
17.28550,87823
17.29363,82681
17.30175,85299
17.30987,87531
17.31800,96144
17.32612,106617
17.33425,120686
17.34237,138037
17.35048,156428
17.35862,152942
17.36673,157891
17.37487,149068
17.38298,143649
17.39110,142212
17.39923,133392
17.40735,134006
17.41547,138524
17.42360,132722
17.43172,135618
17.43985,134159
17.44797,132815
17.45608,122192
17.46422,118725
17.47233,111631
17.48047,108493
17.48858,102898
17.49670,98519
17.50483,93343
17.51295,89575
17.52108,90268
17.52920,89051
17.53732,91153
17.54545,90899
17.55357,87823
17.56168,88216
17.56982,88297
17.57793,97485
17.58607,107508
17.59418,126022
17.60230,149724
17.61043,206241
17.61855,271592
17.62668,337901
17.63480,408148
17.64292,748720
17.65105,5271843
17.65917,1.848388E+07
17.66730,2.365041E+07
17.67542,2.383763E+07
17.68353,2.251838E+07
17.69167,2.128425E+07
17.69978,2.018523E+07
17.70790,1.89691E+07
17.71603,1.784623E+07
17.72415,1.654743E+07
17.73228,1.547136E+07
17.74040,1.424287E+07
17.74852,1.328617E+07
17.75665,1.249581E+07
17.76477,1.151413E+07
17.77290,1.063211E+07
17.78102,9810888
17.78913,9274053
17.79727,8695494
17.80538,8102122
17.81350,7673511
17.82163,7177115
17.82975,6804522
17.83788,6425382
17.84600,6012028
17.85412,5687770
17.86225,5397361
17.87037,5220994
17.87850,4938859
17.88662,4751705
17.89473,4469327
17.90287,4170395
17.91098,4034416
17.91912,3921534
17.92723,3708308
17.93535,3542003
17.94348,3348879
17.95160,3262495
17.95972,3116083
17.96785,3006321
17.97597,2914372
17.98410,2778819
17.99222,2655240
18.00033,2556027
18.00847,2487292
18.01658,2397503
18.02472,2322559
18.03283,2266461
18.04095,2194038
18.04908,2215386
18.05720,2091777
18.06533,2075526
18.07345,2101006
18.08157,2257632
18.08970,2535803
18.09782,2843994
18.10593,3059849
18.11407,3142294
18.12218,3038994
18.13032,2762518
18.13843,2460582
18.14655,2293925
18.15468,2118811
18.16280,2033444
18.17093,1910703
18.17905,1786302
18.18717,1734754
18.19530,1663301
18.20342,1553459
18.21153,1516863
18.21967,1424166
18.22778,1387287
18.23592,1337600
18.24403,1282141
18.25215,1245285
18.26028,1184206
18.26840,1177955
18.27653,1122839
18.28465,1066672
18.29277,1018769
18.30090,961167
18.30902,922164
18.31715,893948
18.32527,876115
18.33338,867134
18.34152,833793
18.34963,827432
18.35775,790608
18.36588,783195
18.37400,773083
18.38213,742232
18.39025,747849
18.39837,737812
18.40650,713472
18.41462,706927
18.42275,709896
18.43087,700095
18.43898,714948
18.44712,725330
18.45523,715909
18.46335,745210
18.47148,745155
18.47960,759140
18.48773,782840
18.49585,786686
18.50397,778917
18.51210,734978
18.52022,692577
18.52835,654954
18.53647,628715
18.54458,596467
18.55272,585247
18.56083,583427
18.56897,558577
18.57708,542366
18.58520,560505
18.59333,537753
18.60145,533039
18.60957,534796
18.61770,545586
18.62582,536083
18.63395,527679
18.64207,530542
18.65018,525241
18.65832,517369
18.66643,497411
18.67457,485752
18.68268,477037
18.69080,471643
18.69893,452896
18.70705,446835
18.71518,444950
18.72330,440296
18.73142,422335
18.73955,422752
18.74767,414340
18.75578,429001
18.76392,410023
18.77203,400713
18.78017,399132
18.78828,393335
18.79640,387401
18.80453,388873
18.81265,386659
18.82078,381558
18.82890,374198
18.83702,368211
18.84515,376477
18.85327,367227
18.86140,366272
18.86952,367940
18.87763,373400
18.88577,365596
18.89388,360089
18.90200,367170
18.91013,356304
18.91825,369131
18.92638,355055
18.93450,365360
18.94262,366474
18.95075,397086
18.95887,411124
18.96700,432453
18.97512,443295
18.98323,438915
18.99137,426845
18.99948,407958
19.00760,379372
19.01573,370224
19.02385,352139
19.03198,347606
19.04010,348399
19.04822,337768
19.05635,326088
19.06447,331201
19.07260,332375
19.08072,346664
19.08883,389297
19.09697,447453
19.10508,530100
19.11322,580002
19.12133,605437
19.12945,570357
19.13758,527420
19.14570,466513
19.15382,418531
19.16195,389001
19.17007,365887
19.17820,358769
19.18632,337833
19.19443,337456
19.20257,314741
19.21068,307926
19.21882,305117
19.22693,298674
19.23505,294697
19.24318,283215
19.25130,271367
19.25942,266841
19.26755,268983
19.27567,253770
19.28380,260510
19.29192,266586
19.30003,268923
19.30817,279134
19.31628,278131
19.32442,271156
19.33253,273926
19.34065,267238
19.34878,274052
19.35690,286219
19.36503,299981
19.37315,327579
19.38127,354333
19.38940,361202
19.39752,371088
19.40563,358060
19.41377,335722
19.42188,311414
19.43002,306683
19.43813,285871
19.44625,287398
19.45438,276255
19.46250,280240
19.47063,295951
19.47875,318235
19.48687,354739
19.49500,397040
19.50312,447919
19.51123,514476
19.51937,602664
19.52748,611110
19.53562,602324
19.54373,548067
19.55185,471609
19.55998,399079
19.56810,341890
19.57623,309277
19.58435,290112
19.59247,270024
19.60060,270313
19.60872,255706
19.61685,247300
19.62497,249371
19.63308,251907
19.64122,274513
19.64933,308187
19.65745,396541
19.66558,503928
19.67370,602690
19.68183,672912
19.68995,676100
19.69807,646938
19.70620,564017
19.71432,499389
19.72245,436748
19.73057,393476
19.73868,373262
19.74682,337253
19.75493,323592
19.76307,310751
19.77118,297697
19.77930,273830
19.78743,274761
19.79555,288173
19.80367,291262
19.81180,317924
19.81992,322968
19.82805,302963
19.83617,291302
19.84428,273630
19.85242,260445
19.86053,264000
19.86867,305177
19.87678,406115
19.88490,615888
19.89303,942938
19.90115,1365814
19.90928,1691089
19.91740,1834090
19.92552,1838230
19.93365,1668826
19.94177,1432845
19.94988,1232815
19.95802,1106602
19.96613,988925
19.97427,908253
19.98238,857888
19.99050,804497
19.99863,751363
20.00675,717767
20.01488,686278
20.02300,662958
20.03112,638515
20.03925,589788
20.04737,577518
20.05548,533032
20.06362,478158
20.07173,461989
20.07987,457808
20.08798,462210
20.09610,492761
20.10423,497558
20.11235,480906
20.12048,457577
20.12860,412346
20.13672,376220
20.14485,365973
20.15297,385666
20.16110,453537
20.16922,596832
20.17733,841111
20.18547,1218753
20.19358,1660441
20.20170,2054392
20.20983,2344201
20.21795,2313343
20.22608,2103540
20.23420,1767564
20.24232,1408627
20.25045,1179276
20.25857,1103871
20.26670,1206647
20.27482,1418929
20.28293,1604918
20.29107,1775944
20.29918,1790313
20.30730,1559903
20.31543,1304926
20.32355,990723
20.33168,746468
20.33980,558520
20.34792,445143
20.35605,356049
20.36417,315040
20.37230,278357
20.38042,258372
20.38853,247793
20.39667,232421
20.40478,230857
20.41292,226693
20.42103,229437
20.42915,234288
20.43728,241010
20.44540,239302
20.45352,256202
20.46165,268263
20.46977,253787
20.47790,250300
20.48602,236623
20.49413,232050
20.50227,210767
20.51038,205602
20.51852,193273
20.52663,184732
20.53475,182753
20.54288,177269
20.55100,174910
20.55913,170101
20.56725,170004
20.57537,172696
20.58350,168667
20.59162,161013
20.59973,162236
20.60787,166441
20.61598,170958
20.62412,153870
20.63223,156965
20.64035,160978
20.64848,157457
20.65660,161444
20.66473,160886
20.67285,153298
20.68097,157758
20.68910,157210
20.69722,151106
20.70533,147004
20.71347,144155
20.72158,145597
20.72972,146865
20.73783,143839
20.74595,148432
20.75408,141069
20.76220,148559
20.77033,150352
20.77845,158277
20.78657,167073
20.79470,199595
20.80282,258882
20.81095,329607
20.81907,442181
20.82718,529833
20.83532,529584
20.84343,480350
20.85155,382535
20.85968,309211
20.86780,243536
20.87593,209721
20.88405,185607
20.89217,171501
20.90030,160833
20.90842,163989
20.91655,171856
20.92467,173570
20.93278,176866
20.94092,188037
20.94903,193150
20.95717,197402
20.96528,187656
20.97340,182684
20.98153,172923
20.98965,168347
20.99777,154340
21.00590,144575
21.01402,144149
21.02215,148222
21.03027,151306
21.03838,149289
21.04652,152481
21.05463,156937
21.06277,155242
21.07088,161694
21.07900,167201
21.08713,166114
21.09525,162347
21.10337,160251
21.11150,150276
21.11962,151159
21.12775,145019
21.13587,142800
21.14398,162970
21.15212,168923
21.16023,192646
21.16837,211363
21.17648,221803
21.18460,222734
21.19273,207126
21.20085,195756
21.20898,176260
21.21710,168856
21.22522,157779
21.23335,153767
21.24147,154120
21.24958,149688
21.25772,139987
21.26583,141005
21.27397,136825
21.28208,138084
21.29020,140593
21.29833,132752
21.30645,129070
21.31458,134842
21.32270,132114
21.33082,129132
21.33895,125648
21.34707,126824
21.35518,118719
21.36332,124490
21.37143,120955
21.37957,126853
21.38768,129848
21.39580,139144
21.40393,150266
21.41205,171972
21.42018,190691
21.42830,208903
21.43642,205684
21.44455,199889
21.45267,183006
21.46080,176370
21.46892,156978
21.47703,151996
21.48517,145960
21.49328,143558
21.50140,141123
21.50953,134507
21.51765,141935
21.52578,139452
21.53390,141802
21.54202,137844
21.55015,140177
21.55827,138498
21.56640,140727
21.57452,137006
21.58263,135548
21.59077,133937
21.59888,137550
21.60702,140418
21.61513,149157
21.62325,162092
21.63138,173725
21.63950,193646
21.64762,203133
21.65575,211655
21.66387,212128
21.67200,206011
21.68012,199828
21.68823,184973
21.69637,179319
21.70448,171100
21.71262,153881
21.72073,149317
21.72885,145881
21.73698,147002
21.74510,135286
21.75322,136613
21.76135,147462
21.76947,135684
21.77760,133572
21.78572,148785
21.79383,160100
21.80197,162779
21.81008,175289
21.81822,178494
21.82633,191323
21.83445,199067
21.84258,201478
21.85070,205456
21.85883,200647
21.86695,191551
21.87507,173946
21.88320,160303
21.89132,156717
21.89943,132544
21.90757,132658
21.91568,126314
21.92382,123681
21.93193,124061
21.94005,118431
21.94818,123009
21.95630,114480
21.96443,117343
21.97255,107427
21.98067,100640
21.98880,104954
21.99692,103285
22.00505,102555
22.01317,103969
22.02128,102262
22.02942,104172
22.03753,104015
22.04565,110518
22.05378,108080
22.06190,110576
22.07003,110247
22.07815,102094
22.08627,103956
22.09440,100853
22.10252,104597
22.11065,106893
22.11877,103410
22.12688,102305
22.13502,107694
22.14313,107182
22.15125,108221
22.15938,107155
22.16750,111486
22.17563,108843
22.18375,108106
22.19187,111106
22.20000,111363
22.20812,111105
22.21625,115180
22.22437,108162
22.23248,115348
22.24062,118753
22.24873,113031
22.25687,109963
22.26498,114137
22.27310,109045
22.28123,110817
22.28935,103057
22.29747,107236
22.30560,111354
22.31372,111448
22.32185,115307
22.32997,114692
22.33808,116721
22.34622,112717
22.35433,105552
22.36247,112668
22.37058,105782
22.37870,104028
22.38683,111435
22.39495,110949
22.40308,124356
22.41120,140959
22.41932,156877
22.42745,191820
22.43557,199190
22.44368,205988
22.45182,197211
22.45993,178425
22.46807,164810
22.47618,146849
22.48430,152212
22.49243,144882
22.50055,156435
22.50868,152067
22.51680,155649
22.52492,153701
22.53305,165833
22.54117,164593
22.54928,158325
22.55742,164179
22.56553,150899
22.57367,145336
22.58178,144685
22.58990,139525
22.59803,139744
22.60615,128834
22.61428,132275
22.62240,130776
22.63052,124260
22.63865,118367
22.64677,120939
22.65490,119615
22.66302,121856
22.67113,127600
22.67927,122914
22.68738,119655
22.69550,122789
22.70363,128216
22.71175,136380
22.71988,139561
22.72800,141945
22.73612,147762
22.74425,136156
22.75237,132272
22.76050,133660
22.76862,134264
22.77673,131419
22.78487,135342
22.79298,135122
22.80110,138811
22.80923,150780
22.81735,152171
22.82548,157876
22.83360,157384
22.84172,158006
22.84985,150954
22.85797,149403
22.86610,154632
22.87422,171030
22.88233,186780
22.89047,205795
22.89858,221191
22.90672,247924
22.91483,253100
22.92295,265412
22.93108,279623
22.93920,288019
22.94732,263460
22.95545,243509
22.96357,230941
22.97170,205039
22.97982,187860
22.98793,179273
22.99607,174116
23.00418,160498
23.01232,154131
23.02043,150160
23.02855,137109
23.03668,134739
23.04480,140138
23.05293,127814
23.06105,124281
23.06917,125429
23.07730,113958
23.08542,119671
23.09353,122630
23.10167,120992
23.10978,114871
23.11792,119598
23.12603,122161
23.13415,120121
23.14228,122867
23.15040,123868
23.15853,125087
23.16665,122779
23.17477,123868
23.18290,136659
23.19102,128017
23.19913,129180
23.20727,129839
23.21538,139870
23.22352,132654
23.23163,133214
23.23975,132929
23.24788,135860
23.25600,134465
23.26413,136292
23.27225,141502
23.28037,142857
23.28850,144200
23.29662,143792
23.30475,140309
23.31287,137028
23.32098,134339
23.32912,133640
23.33723,138568
23.34535,160068
23.35348,173609
23.36160,196052
23.36973,228974
23.37785,256170
23.38597,266536
23.39410,281209
23.40222,279476
23.41035,270775
23.41847,276800
23.42658,296832
23.43472,287330
23.44283,278887
23.45097,287773
23.45908,284477
23.46720,266199
23.47533,264804
23.48345,255957
23.49157,248750
23.49970,236095
23.50782,227323
23.51595,222796
23.52407,221837
23.53218,208059
23.54032,201768
23.54843,199497
23.55657,205379
23.56468,200900
23.57280,220082
23.58093,243213
23.58905,274770
23.59717,334739
23.60530,383841
23.61342,413650
23.62155,412604
23.62967,370879
23.63778,323427
23.64592,280807
23.65403,251849
23.66217,228884
23.67028,202364
23.67840,200797
23.68653,190264
23.69465,183898
23.70278,176594
23.71090,161226
23.71902,160866
23.72715,152200
23.73527,149671
23.74338,163904
23.75152,225684
23.75963,416119
23.76777,889076
23.77588,1837539
23.78400,3276110
23.79213,4926845
23.80025,5820159
23.80838,5726291
23.81650,5012803
23.82462,3649499
23.83275,2644921
23.84087,1905319
23.84898,1373061
23.85712,1059507
23.86523,868741
23.87337,740240
23.88148,629753
23.88960,567638
23.89773,510168
23.90585,479630
23.91398,448042
23.92210,425987
23.93022,401647
23.93835,378390
23.94647,358103
23.95460,331301
23.96272,311428
23.97083,308172
23.97897,289591
23.98708,288780
23.99520,288966
24.00333,332697
24.01145,475237
24.01958,783787
24.02770,1339361
24.03582,1899268
24.04395,2281554
24.05207,2269086
24.06020,1869740
24.06832,1323924
24.07643,881742
24.08457,571231
24.09268,408260
24.10082,315300
24.10893,270381
24.11705,248227
24.12518,232358
24.13330,228408
24.14142,230173
24.14955,236914
24.15767,237678
24.16580,237430
24.17392,220110
24.18203,207563
24.19017,207933
24.19828,208298
24.20642,203905
24.21453,210161
24.22265,201380
24.23078,210038
24.23890,208723
24.24702,196361
24.25515,183173
24.26327,178470
24.27140,172307
24.27952,159028
24.28763,151593
24.29577,156293
24.30388,153899
24.31202,157144
24.32013,160586
24.32825,156675
24.33638,155925
24.34450,154003
24.35263,152187
24.36075,154464
24.36887,142444
24.37700,143154
24.38512,160606
24.39323,181409
24.40137,218289
24.40948,265136
24.41762,288350
24.42573,292008
24.43385,272505
24.44198,236522
24.45010,195786
24.45823,172452
24.46635,152047
24.47447,152489
24.48260,156115
24.49072,159416
24.49885,168205
24.50697,175740
24.51508,181065
24.52322,188412
24.53133,193066
24.53945,193689
24.54758,193054
24.55570,187662
24.56383,185750
24.57195,185361
24.58007,179226
24.58820,171647
24.59632,156548
24.60445,155918
24.61257,147880
24.62068,140984
24.62882,139562
24.63693,135726
24.64505,136407
24.65318,133754
24.66130,132419
24.66943,131715
24.67755,134067
24.68567,136092
24.69380,129833
24.70192,122135
24.71005,122447
24.71817,120732
24.72628,119679
24.73442,117659
24.74253,117465
24.75067,122139
24.75878,115984
24.76690,120360
24.77503,123675
24.78315,136299
24.79127,151066
24.79940,154173
24.80752,163431
24.81565,156832
24.82377,164836
24.83188,164044
24.84002,176936
24.84813,185722
24.85627,215597
24.86438,262163
24.87250,329641
24.88063,420978
24.88875,537390
24.89687,616345
24.90500,670082
24.91312,657171
24.92125,545711
24.92937,428697
24.93748,328356
24.94562,255109
24.95373,225981
24.96187,204564
24.96998,183719
24.97810,179936
24.98623,179689
24.99435,180523
25.00248,178647
25.01060,181837
25.01872,183324
25.02685,172660
25.03497,180437
25.04308,170161
25.05122,175456
25.05933,166596
25.06747,175753
25.07558,174745
25.08370,175783
25.09183,189035
25.09995,190331
25.10808,241130
25.11620,352165
25.12432,602777
25.13245,1042332
25.14057,1639570
25.14870,2224365
25.15682,2557220
25.16493,2613755
25.17307,2225244
25.18118,1670231
25.18930,1154686
25.19743,746272
25.20555,515592
25.21368,369689
25.22180,286420
25.22992,250384
25.23805,230171
25.24617,234697
25.25430,247695
25.26242,271692
25.27053,297873
25.27867,310727
25.28678,308897
25.29492,292340
25.30303,265169
25.31115,234421
25.31928,215109
25.32740,193941
25.33552,194556
25.34365,186813
25.35177,182717
25.35990,166305
25.36802,171938
25.37613,161516
25.38427,159738
25.39238,161183
25.40052,164156
25.40863,149902
25.41675,160672
25.42488,159003
25.43300,155248
25.44112,155454
25.44925,154837
25.45737,153232
25.46550,154888
25.47362,156572
25.48173,159247
25.48987,162703
25.49798,169213
25.50612,159651
25.51423,156217
25.52235,147692
25.53048,139179
25.53860,140512
25.54673,142659
25.55485,137274
25.56297,141324
25.57110,138300
25.57922,141017
25.58733,137909
25.59547,136331
25.60358,134324
25.61172,138920
25.61983,134660
25.62795,134665
25.63608,129398
25.64420,124240
25.65233,120916
25.66045,120747
25.66857,126803
25.67670,124028
25.68482,119376
25.69293,120457
25.70107,122933
25.70918,122331
25.71732,119258
25.72543,122033
25.73355,115333
25.74168,114562
25.74980,111428
25.75793,118761
25.76605,121646
25.77417,145712
25.78230,166331
25.79042,204572
25.79855,210063
25.80667,210437
25.81478,189990
25.82292,168003
25.83103,137264
25.83915,142334
25.84728,140798
25.85540,144188
25.86353,156710
25.87165,139395
25.87977,139601
25.88790,132157
25.89602,123847
25.90415,114550
25.91227,108951
25.92038,106736
25.92852,102444
25.93663,100686
25.94477,99319
25.95288,97714
25.96100,100898
25.96913,103852
25.97725,106138
25.98537,105939
25.99350,93154
26.00162,93501
26.00975,96396
26.01787,92254
26.02598,94375
26.03412,97747
26.04223,96824
26.05037,94432
26.05848,94311
26.06660,102148
26.07473,104083
26.08285,108444
26.09097,117085
26.09910,124335
26.10722,129870
26.11535,138869
26.12347,146148
26.13158,155742
26.13972,149127
26.14783,155276
26.15597,158921
26.16408,165219
26.17220,163219
26.18033,157067
26.18845,162396
26.19658,149533
26.20470,152583
26.21282,149814
26.22095,141787
26.22907,141123
26.23718,141101
26.24532,141099
26.25343,141605
26.26157,138694
26.26968,141544
26.27780,141790
26.28593,146872
26.29405,143912
26.30218,132416
26.31030,134876
26.31842,137663
26.32655,131130
26.33467,137684
26.34280,139601
26.35092,133012
26.35903,146754
26.36717,153124
26.37528,178772
26.38340,213607
26.39153,268006
26.39965,318836
26.40778,374234
26.41590,393265
26.42402,371228
26.43215,339096
26.44027,293642
26.44840,239233
26.45652,211446
26.46463,182006
26.47277,163843
26.48088,159068
26.48900,159261
26.49713,145648
26.50525,142885
26.51338,134712
26.52150,132875
26.52962,134189
26.53775,123700
26.54587,123941
26.55400,122601
26.56212,123430
26.57023,125326
26.57837,122456
26.58648,128258
26.59462,124433
26.60273,121223
26.61085,123840
26.61898,122165
26.62710,116043
26.63522,118496
26.64335,120861
26.65147,117850
26.65960,115643
26.66772,119414
26.67583,121579
26.68397,128512
26.69208,123235
26.70022,119293
26.70833,114574
26.71645,120137
26.72458,120334
26.73270,115194
26.74082,113116
26.74895,117083
26.75707,112922
26.76520,117989
26.77332,113996
26.78143,114777
26.78957,111030
26.79768,114725
26.80582,121619
26.81393,116045
26.82205,118607
26.83018,118891
26.83830,114994
26.84643,119084
26.85455,117487
26.86267,110844
26.87080,114152
26.87892,113489
26.88703,123245
26.89517,115613
26.90328,110492
26.91142,108623
26.91953,113179
26.92765,111746
26.93578,105041
26.94390,106918
26.95203,109209
26.96015,116092
26.96827,122605
26.97640,136476
26.98452,188660
26.99265,283698
27.00077,431459
27.00888,613219
27.01702,877824
27.02513,1060972
27.03325,1183987
27.04138,1114552
27.04950,985848
27.05763,796938
27.06575,646252
27.07387,494094
27.08200,403003
27.09012,344028
27.09825,305517
27.10637,270954
27.11448,239916
27.12262,234284
27.13073,218341
27.13885,212467
27.14698,195208
27.15510,184085
27.16323,187959
27.17135,183482
27.17947,176333
27.18760,170377
27.19572,163313
27.20385,159395
27.21197,164261
27.22008,160508
27.22822,151530
27.23633,147853
27.24447,145287
27.25258,145353
27.26070,139843
27.26883,139784
27.27695,129535
27.28507,135716
27.29320,130113
27.30132,124878
27.30945,130549
27.31757,123320
27.32568,121751
27.33382,120415
27.34193,124034
27.35007,125429
27.35818,124088
27.36630,121659
27.37443,122049
27.38255,116927
27.39068,119300
27.39880,116636
27.40692,115582
27.41505,114459
27.42317,114324
27.43128,111842
27.43942,113250
27.44753,106994
27.45567,108933
27.46378,112995
27.47190,107544
27.48003,100618
27.48815,109003
27.49628,95959
27.50440,102699
27.51252,101857
27.52065,99911
27.52877,104330
27.53688,106979
27.54502,109447
27.55313,105539
27.56127,106184
27.56938,105064
27.57750,110129
27.58563,116681
27.59375,123831
27.60188,131669
27.61000,136173
27.61812,134828
27.62625,127062
27.63437,120761
27.64250,118901
27.65062,108809
27.65873,105730
27.66687,110506
27.67498,101359
27.68310,99389
27.69123,98261
27.69935,98414
27.70748,100687
27.71560,99294
27.72372,100393
27.73185,93229
27.73997,93939
27.74810,93417
27.75622,90460
27.76433,90799
27.77247,97168
27.78058,97639
27.78872,97070
27.79683,92345
27.80495,99954
27.81308,98266
27.82120,95627
27.82932,96171
27.83745,90608
27.84557,93822
27.85370,93917
27.86182,89519
27.86993,93067
27.87807,89640
27.88618,89889
27.89432,90965
27.90243,89872
27.91055,86093
27.91868,87914
27.92680,84508
27.93492,90178
27.94305,88776
27.95117,83890
27.95930,89360
27.96742,88033
27.97553,88874
27.98367,84741
27.99178,86900
27.99992,92930
28.00803,91698
28.01615,98415
28.02428,91178
28.03240,92793
28.04053,102015
28.04865,105308
28.05677,110693
28.06490,109604
28.07302,111499
28.08113,110206
28.08927,104988
28.09738,106890
28.10552,99722
28.11363,103696
28.12175,101929
28.12988,97470
28.13800,96409
28.14613,90836
28.15425,89592
28.16237,85788
28.17050,83833
28.17862,91146
28.18673,89627
28.19487,95934
28.20298,108343
28.21112,125916
28.21923,135231
28.22735,142456
28.23548,148676
28.24360,140604
28.25173,130867
28.25985,123364
28.26797,111718
28.27610,102829
28.28422,95752
28.29235,99049
28.30047,102082
28.30858,96452
28.31672,105340
28.32483,102585
28.33295,111692
28.34108,123653
28.34920,143574
28.35733,160569
28.36545,181116
28.37357,190329
28.38170,198334
28.38982,212897
28.39795,212139
28.40607,210586
28.41418,198416
28.42232,188985
28.43043,180831
28.43857,168556
28.44668,161010
28.45480,152367
28.46293,140515
28.47105,135155
28.47917,127944
28.48730,136032
28.49542,131819
28.50355,132813
28.51167,139464
28.51978,134029
28.52792,134742
28.53603,126694
28.54417,126206
28.55228,115662
28.56040,115736
28.56853,118982
28.57665,105879
28.58477,109302
28.59290,113854
28.60102,109419
28.60915,118268
28.61727,125840
28.62538,124214
28.63352,132740
28.64163,136963
28.64977,136812
28.65788,139019
28.66600,140634
28.67413,140076
28.68225,132420
28.69038,123020
28.69850,112640
28.70662,111678
28.71475,114979
28.72287,111918
28.73098,103989
28.73912,103754
28.74723,105989
28.75537,105832
28.76348,115904
28.77160,131713
28.77973,141788
28.78785,151541
28.79598,163459
28.80410,156560
28.81222,144428
28.82035,136936
28.82847,126613
28.83660,119103
28.84472,117080
28.85283,108176
28.86097,106686
28.86908,101232
28.87720,101646
28.88533,99873
28.89345,104612
28.90158,109232
28.90970,106994
28.91782,112490
28.92595,105767
28.93407,109829
28.94220,105727
28.95032,105455
28.95843,112809
28.96657,112928
28.97468,108763
28.98280,109486
28.99093,105578
28.99905,107427
29.00718,100332
29.01530,94387
29.02342,89537
29.03155,93763
29.03967,94779
29.04780,90872
29.05592,83822
29.06403,91831
29.07217,90485
29.08028,91514
29.08842,92360
29.09653,96771
29.10465,88591
29.11278,90513
29.12090,87663
29.12902,92579
29.13715,91858
29.14527,88548
29.15340,88396
29.16152,91923
29.16963,95678
29.17777,87769
29.18588,91970
29.19402,92159
29.20213,94860
29.21025,102387
29.21838,114747
29.22650,111958
29.23462,129874
29.24275,154375
29.25087,196839
29.25900,251910
29.26712,307265
29.27523,341810
29.28337,349230
29.29148,310083
29.29962,251111
29.30773,199046
29.31585,163097
29.32398,137062
29.33210,120530
29.34023,117827
29.34835,103058
29.35647,96956
29.36460,98459
29.37272,92548
29.38083,94831
29.38897,92951
29.39708,93929
29.40522,94295
29.41333,97133
29.42145,95975
29.42958,89351
29.43770,88994
29.44583,93718
29.45395,97051
29.46207,91630
29.47020,96818
29.47832,97443
29.48645,102119
29.49457,110900
29.50268,112272
29.51082,109823
29.51893,112855
29.52705,111397
29.53518,105130
29.54330,99671
29.55143,103895
29.55955,97024
29.56767,94264
29.57580,88809
29.58392,92376
29.59205,86734
29.60017,88060
29.60828,92174
29.61642,88814
29.62453,87065
29.63267,89201
29.64078,88280
29.64890,88252
29.65703,85816
29.66515,87146
29.67327,82248
29.68140,84137
29.68952,80069
29.69765,87389
29.70577,87811
29.71388,88878
29.72202,82147
29.73013,93671
29.73827,85527
29.74638,90097
29.75450,85349
29.76263,80633
29.77075,82369
29.77887,79129
29.78700,79514
29.79512,82020
29.80325,76450
29.81137,76907
29.81948,83174
29.82762,76620
29.83573,80510
29.84387,75057
29.85198,76969
29.86010,84192
29.86823,86194
29.87635,87815
29.88448,87844
29.89260,107506
29.90072,109613
29.90885,114927
29.91697,116464
29.92508,107510
29.93322,104607
29.94133,94758
29.94947,94848
29.95758,88283
29.96570,92383
29.97383,92115
29.98195,97443
29.99008,100026
29.99820,122415
30.00632,116495
30.01445,129622
30.02257,135810
30.03068,133264
30.03882,137283
30.04693,139917
30.05507,143395
30.06318,143051
30.07130,138094
30.07943,136730
30.08755,130916
30.09568,133570
30.10380,132662
30.11192,128708
30.12005,132552
30.12817,131211
30.13630,115513
30.14442,113662
30.15253,109404
30.16067,116419
30.16878,119369
30.17690,117253
30.18503,114181
30.19315,112200
30.20128,110992
30.20940,111147
30.21752,120353
30.22565,114326
30.23377,109905
30.24190,110485
30.25002,105177
30.25813,91878
30.26627,94187
30.27438,91031
30.28250,93683
30.29063,94235
30.29875,91255
30.30688,91089
30.31500,90548
30.32312,88103
30.33125,89403
30.33937,89894
30.34750,85307
30.35562,87387
30.36373,83081
30.37187,89057
30.37998,90771
30.38812,85331
30.39623,79536
30.40435,79613
30.41248,79199
30.42060,81161
30.42872,79300
30.43685,78146
30.44497,83488
30.45310,83103
30.46122,83160
30.46933,80517
30.47747,85292
30.48558,86120
30.49372,83609
30.50183,89802
30.50995,89191
30.51808,80151
30.52620,90822
30.53433,88759
30.54245,85953
30.55057,81084
30.55870,84613
30.56682,83466
30.57493,79317
30.58307,77624
30.59118,78956
30.59932,80501
30.60743,83853
30.61555,80688
30.62368,82779
30.63180,80642
30.63993,81853
30.64805,79377
30.65617,74964
30.66430,79767
30.67242,79350
30.68055,76927
30.68867,73898
30.69678,76938
30.70492,86109
30.71303,79985
30.72115,77225
30.72928,80450
30.73740,79070
30.74553,77959
30.75365,83554
30.76177,75791
30.76990,82945
30.77802,86596
30.78615,85446
30.79427,87910
30.80238,97009
30.81052,103631
30.81863,113516
30.82675,115314
30.83488,106060
30.84300,99158
30.85113,92485
30.85925,87611
30.86737,84383
30.87550,87895
30.88362,84925
30.89175,86776
30.89987,83832
30.90798,87250
30.91612,79893
30.92423,82145
30.93237,82098
30.94048,79019
30.94860,82984
30.95673,82577
30.96485,80239
30.97297,81324
30.98110,79097
30.98922,80806
30.99735,80417
31.00547,83014
31.01358,82592
31.02172,89250
31.02983,81057
31.03797,98292
31.04608,84538
31.05420,86895
31.06233,84890
31.07045,84708
31.07857,85588
31.08670,97593
31.09482,105411
31.10295,119279
31.11107,127022
31.11918,127162
31.12732,117051
31.13543,102029
31.14357,99943
31.15168,95087
31.15980,93440
31.16793,88010
31.17605,93455
31.18418,98538
31.19230,98537
31.20042,104040
31.20855,115766
31.21667,122592
31.22478,138404
31.23292,147705
31.24103,142357
31.24917,140595
31.25728,125376
31.26540,115742
31.27353,110637
31.28165,102988
31.28978,89743
31.29790,88404
31.30602,83905
31.31415,87483
31.32227,84972
31.33040,77505
31.33852,84120
31.34663,84870
31.35477,82392
31.36288,81298
31.37100,82172
31.37913,81606
31.38725,72915
31.39538,83686
31.40350,82745
31.41162,80978
31.41975,86045
31.42787,81741
31.43600,86415
31.44412,79943
31.45223,83569
31.46037,81338
31.46848,85301
31.47660,82255
31.48473,84239
31.49285,80697
31.50098,86580
31.50910,87862
31.51722,84924
31.52535,90084
31.53347,89538
31.54160,91477
31.54972,88979
31.55783,84969
31.56597,80124
31.57408,79207
31.58222,86305
31.59033,84227
31.59845,83496
31.60658,86570
31.61470,82329
31.62282,85281
31.63095,82997
31.63907,88010
31.64720,88045
31.65532,87983
31.66343,89486
31.67157,94774
31.67968,87370
31.68782,85967
31.69593,84868
31.70405,84402
31.71218,84361
31.72030,81862
31.72843,76019
31.73655,82760
31.74467,82669
31.75280,81848
31.76092,80219
31.76903,87188
31.77717,84821
31.78528,90949
31.79342,92031
31.80153,99710
31.80965,102719
31.81778,99089
31.82590,98561
31.83403,95199
31.84215,104444
31.85027,100178
31.85840,103034
31.86652,98625
31.87463,105707
31.88277,96983
31.89088,100839
31.89902,92794
31.90713,90808
31.91525,92196
31.92338,92051
31.93150,97251
31.93963,96751
31.94775,106883
31.95587,114759
31.96400,116762
31.97212,130466
31.98025,135727
31.98837,133852
31.99648,139002
32.00462,137911
32.01273,136481
32.02085,131583
32.02898,129940
32.03710,134139
32.04523,123345
32.05335,120275
32.06147,112851
32.06960,117688
32.07772,116214
32.08585,119699
32.09397,118688
32.10208,122281
32.11022,108332
32.11833,105557
32.12645,101043
32.13458,101242
32.14270,101717
32.15083,101558
32.15895,97947
32.16707,94052
32.17520,93613
32.18332,92034
32.19145,92397
32.19957,94538
32.20768,88259
32.21582,91850
32.22393,93017
32.23207,93953
32.24018,89266
32.24830,97040
32.25643,98216
32.26455,101782
32.27267,102673
32.28080,104370
32.28892,99986
32.29705,100896
32.30517,96727
32.31328,87527
32.32142,88929
32.32953,92761
32.33767,89285
32.34578,87862
32.35390,91645
32.36203,90052
32.37015,90106
32.37828,90040
32.38640,91441
32.39452,90327
32.40265,89742
32.41077,87618
32.41888,88067
32.42702,89410
32.43513,81818
32.44327,86040
32.45138,85652
32.45950,81903
32.46763,81025
32.47575,80730
32.48388,77427
32.49200,84925
32.50012,79092
32.50825,79373
32.51637,78486
32.52448,80691
32.53262,83140
32.54073,82018
32.54887,82954
32.55698,86487
32.56510,84623
32.57323,84085
32.58135,88779
32.58948,81959
32.59760,83291
32.60572,80484
32.61385,76614
32.62197,80479
32.63010,80069
32.63822,78033
32.64633,78917
32.65447,85612
32.66258,98291
32.67070,104032
32.67883,110487
32.68695,117941
32.69508,125694
32.70320,118035
32.71132,116731
32.71945,114145
32.72757,112529
32.73570,110162
32.74382,102998
32.75193,97362
32.76007,93323
32.76818,87690
32.77632,82598
32.78443,85479
32.79255,89297
32.80068,92173
32.80880,84249
32.81692,83827
32.82505,76900
32.83317,76286
32.84130,81514
32.84942,80968
32.85753,77302
32.86567,83542
32.87378,77633
32.88192,82340
32.89003,79871
32.89815,79989
32.90628,89315
32.91440,84891
32.92252,89363
32.93065,89236
32.93877,85364
32.94690,80269
32.95502,81832
32.96313,79779
32.97127,80232
32.97938,86182
32.98752,89608
32.99563,91390
33.00375,86062
33.01188,85030
33.02000,102348
33.02813,92935
33.03625,88832
33.04437,91507
33.05250,87686
33.06062,89731
33.06873,93109
33.07687,92917
33.08498,99922
33.09312,101014
33.10123,108814
33.10935,124927
33.11748,138967
33.12560,146053
33.13373,147132
33.14185,132308
33.14997,118836
33.15810,104632
33.16622,98835
33.17435,89722
33.18247,89912
33.19058,89648
33.19872,90373
33.20683,87069
33.21495,92485
33.22308,89810
33.23120,87812
33.23933,91476
33.24745,84101
33.25557,87754
33.26370,85778
33.27182,89461
33.27995,87303
33.28807,89927
33.29618,87517
33.30432,83045
33.31243,84489
33.32055,88043
33.32868,81493
33.33680,88490
33.34493,80320
33.35305,82946
33.36117,87916
33.36930,86243
33.37742,90516
33.38555,88042
33.39367,92632
33.40178,88937
33.40992,91336
33.41803,106621
33.42617,106615
33.43428,113815
33.44240,121835
33.45053,116624
33.45865,110443
33.46677,102909
33.47490,101452
33.48302,93787
33.49115,89608
33.49927,89178
33.50738,92949
33.51552,89828
33.52363,90246
33.53177,86056
33.53988,89003
33.54800,91880
33.55613,89029
33.56425,89146
33.57237,92099
33.58050,90582
33.58862,86831
33.59675,81296
33.60487,83314
33.61298,80813
33.62112,83827
33.62923,88421
33.63737,89300
33.64548,89038
33.65360,99357
33.66173,98498
33.66985,95579
33.67798,95458
33.68610,95631
33.69422,98238
33.70235,89185
33.71047,92111
33.71858,98925
33.72672,103855
33.73483,111325
33.74297,115600
33.75108,123589
33.75920,125618
33.76733,134139
33.77545,126141
33.78358,118285
33.79170,107662
33.79982,102062
33.80795,88288
33.81607,91309
33.82420,91662
33.83232,91242
33.84043,99978
33.84857,101935
33.85668,114619
33.86480,115865
33.87293,122589
33.88105,120967
33.88918,126445
33.89730,128763
33.90542,136546
33.91355,136783
33.92167,140656
33.92980,141890
33.93792,133887
33.94603,129350
33.95417,112048
33.96228,102606
33.97040,99702
33.97853,96913
33.98665,95117
33.99478,94142
34.00290,95002
34.01102,98574
34.01915,99581
34.02727,93474
34.03540,96966
34.04352,98038
34.05163,98238
34.05977,95332
34.06788,97379
34.07602,95228
34.08413,94404
34.09225,94808
34.10038,93688
34.10850,93589
34.11662,95874
34.12475,93057
34.13287,84301
34.14100,93682
34.14912,85175
34.15723,89930
34.16537,91204
34.17348,96841
34.18162,109656
34.18973,109326
34.19785,114413
34.20598,120682
34.21410,121166
34.22223,114168
34.23035,109686
34.23847,107349
34.24660,101813
34.25472,96705
34.26283,95546
34.27097,95969
34.27908,88706
34.28722,89384
34.29533,89051
34.30345,92873
34.31158,88197
34.31970,84899
34.32783,84781
34.33595,88518
34.34407,88274
34.35220,85833
34.36032,86216
34.36843,90286
34.37657,88441
34.38468,89038
34.39282,89385
34.40093,84623
34.40905,90533
34.41718,86073
34.42530,87138
34.43343,86219
34.44155,82605
34.44967,87980
34.45780,86726
34.46592,83804
34.47405,84769
34.48217,89449
34.49028,87734
34.49842,84229
34.50653,87094
34.51465,84591
34.52278,94401
34.53090,94447
34.53903,101380
34.54715,114372
34.55527,121965
34.56340,132791
34.57152,135666
34.57965,138078
34.58777,137295
34.59588,132402
34.60402,135810
34.61213,136394
34.62025,133996
34.62838,131258
34.63650,134453
34.64463,128451
34.65275,124971
34.66087,131755
34.66900,125958
34.67712,121824
34.68525,121449
34.69337,122061
34.70148,109762
34.70962,110113
34.71773,108389
34.72587,101202
34.73398,102834
34.74210,108009
34.75023,101265
34.75835,103054
34.76647,97786
34.77460,100695
34.78272,94178
34.79085,99421
34.79897,96328
34.80708,94340
34.81522,96564
34.82333,95573
34.83147,96202
34.83958,100213
34.84770,103408
34.85583,95924
34.86395,99694
34.87208,99981
34.88020,98605
34.88832,98595
34.89645,93147
34.90457,96127
34.91268,99756
34.92082,98425
34.92893,107056
34.93707,106302
34.94518,107366
34.95330,104358
34.96143,106066
34.96955,112342
34.97768,109939
34.98580,118288
34.99392,116839
35.00205,116181
35.01017,114131
35.01828,121040
35.02642,125672
35.03453,120845
35.04267,133472
35.05078,136267
35.05890,133152
35.06703,124343
35.07515,121057
35.08328,117789
35.09140,112751
35.09952,111622
35.10765,106896
35.11577,102938
35.12390,94389
35.13202,93295
35.14013,103174
35.14827,92550
35.15638,91812
35.16450,101989
35.17263,95958
35.18075,96274
35.18888,90388
35.19700,89810
35.20512,93577
35.21325,93234
35.22137,94207
35.22950,95775
35.23762,100600
35.24573,103567
35.25387,108336
35.26198,110653
35.27012,114545
35.27823,109824
35.28635,113187
35.29448,109409
35.30260,103846
35.31072,107996
35.31885,104561
35.32697,102740
35.33510,103103
35.34322,98874
35.35133,100453
35.35947,106368
35.36758,107480
35.37572,109740
35.38383,114356
35.39195,119963
35.40008,139376
35.40820,151390
35.41632,160839
35.42445,175763
35.43257,174133
35.44070,171056
35.44882,158300
35.45693,159572
35.46507,139725
35.47318,126318
35.48132,114855
35.48943,113365
35.49755,114488
35.50568,106839
35.51380,105559
35.52193,107013
35.53005,103221
35.53817,98447
35.54630,101745
35.55442,103684
35.56253,111856
35.57067,111250
35.57878,108328
35.58692,108737
35.59503,99930
35.60315,98672
35.61128,96894
35.61940,94692
35.62753,89929
35.63565,96091
35.64377,89639
35.65190,94358
35.66002,96403
35.66813,102742
35.67627,101570
35.68438,105911
35.69252,111602
35.70063,118942
35.70875,118357
35.71688,120169
35.72500,115138
35.73313,126820
35.74125,114069
35.74937,110660
35.75750,112982
35.76562,109519
35.77375,115093
35.78187,114825
35.78998,109700
35.79812,117942
35.80623,114305
35.81435,108654
35.82248,106564
35.83060,103032
35.83873,99022
35.84685,94966
35.85497,98820
35.86310,102968
35.87122,103882
35.87935,103483
35.88747,109963
35.89558,109016
35.90372,108716
35.91183,105096
35.91997,104828
35.92808,101080
35.93620,98408
35.94433,97687
35.95245,96322
35.96057,97175
35.96870,100246
35.97682,100026
35.98495,95806
35.99307,98651
36.00118,97373
36.00932,104059
36.01743,104303
36.02557,105057
36.03368,98433
36.04180,103056
36.04993,105367
36.05805,105845
36.06617,104709
36.07430,99522
36.08242,102351
36.09055,102565
36.09867,98672
36.10678,97678
36.11492,98001
36.12303,93277
36.13117,95513
36.13928,99477
36.14740,102941
36.15553,95365
36.16365,101535
36.17178,101246
36.17990,101154
36.18802,99467
36.19615,95446
36.20427,97533
36.21238,95401
36.22052,98507
36.22863,104562
36.23677,105405
36.24488,103783
36.25300,109007
36.26113,105852
36.26925,107620
36.27738,110163
36.28550,115379
36.29362,108243
36.30175,105223
36.30987,107341
36.31800,113929
36.32612,116566
36.33423,114188
36.34237,114040
36.35048,113960
36.35860,107349
36.36673,101556
36.37485,97544
36.38298,93639
36.39110,96546
36.39922,103679
36.40735,109047
36.41547,107577
36.42360,115820
36.43172,108710
36.43983,115166
36.44797,120154
36.45608,126696
36.46420,126365
36.47233,126371
36.48045,132426
36.48858,125897
36.49670,128436
36.50482,132202
36.51295,132789
36.52107,134776
36.52920,125057
36.53732,123140
36.54543,125092
36.55357,117449
36.56168,116734
36.56982,104924
36.57793,101644
36.58605,99478
36.59418,103441
36.60230,98081
36.61042,102026
36.61855,104356
36.62667,103059
36.63480,118861
36.64292,128340
36.65103,133095
36.65917,131576
36.66728,139130
36.67542,137753
36.68353,133748
36.69165,124021
36.69978,114622
36.70790,116432
36.71602,112813
36.72415,107277
36.73227,105918
36.74040,108442
36.74852,110235
36.75663,99557
36.76477,102450
36.77288,100576
36.78102,104140
36.78913,95988
36.79725,97018
36.80538,101800
36.81350,101543
36.82163,96946
36.82975,97368
36.83787,100807
36.84600,96081
36.85412,94568
36.86223,103290
36.87037,104380
36.87848,100092
36.88662,111202
36.89473,110908
36.90285,99641
36.91098,102253
36.91910,97710
36.92723,97933
36.93535,102020
36.94347,96392
36.95160,101029
36.95972,97668
36.96785,100682
36.97597,100434
36.98408,98533
36.99222,100913
37.00033,102104
37.00845,98643
37.01658,103422
37.02470,100213
37.03283,98718
37.04095,95963
37.04907,104347
37.05720,107102
37.06532,106248
37.07345,112030
37.08157,107401
37.08968,119189
37.09782,114216
37.10593,125061
37.11407,124577
37.12218,125796
37.13030,130834
37.13843,131793
37.14655,131845
37.15467,136038
37.16280,126264
37.17092,119974
37.17905,114033
37.18717,110663
37.19528,109727
37.20342,107192
37.21153,109149
37.21967,103949
37.22778,102281
37.23590,100969
37.24403,102467
37.25215,99818
37.26027,102509
37.26840,102699
37.27652,103099
37.28465,109608
37.29277,103488
37.30088,109188
37.30902,110302
37.31713,110318
37.32527,111798
37.33338,118457
37.34150,108352
37.34963,119096
37.35775,123954
37.36588,129312
37.37400,133861
37.38212,131837
37.39025,131954
37.39837,125428
37.40648,128042
37.41462,125159
37.42273,128756
37.43087,119293
37.43898,119695
37.44710,115937
37.45523,121960
37.46335,111024
37.47148,116634
37.47960,118662
37.48772,114696
