D:\MassHunter\GCMS\1\data\JTB-E02\BACandSTRAW\JTB-E12-002-10.D Fri Mar 15 13:19:57 2019
Start of data points
2.09522,114712
2.10333,111274
2.11147,109985
2.11958,129948
2.12770,110069
2.13583,105958
2.14395,108925
2.15208,108433
2.16020,109190
2.16832,123293
2.17645,101595
2.18457,103496
2.19270,99621
2.20082,95132
2.20893,90115
2.21707,87345
2.22518,91956
2.23332,87581
2.24143,85574
2.24955,85979
2.25768,86964
2.26580,84751
2.27392,97751
2.28205,82490
2.29017,85489
2.29830,82428
2.30642,81079
2.31453,81483
2.32267,80350
2.33078,78900
2.33892,76982
2.34703,78946
2.35515,76454
2.36328,76393
2.37140,89679
2.37953,75194
2.38765,82371
2.39577,387739
2.40390,9752819
2.41202,1.630777E+07
2.42013,1.538434E+07
2.42827,1.04796E+07
2.43638,6953927
2.44452,5725459
2.45263,4897842
2.46075,4259132
2.46888,3727154
2.47700,3323210
2.48513,2959063
2.49325,2735010
2.50137,2503988
2.50950,2357715
2.51762,2228201
2.52573,2129823
2.53387,2041567
2.54198,1962726
2.55012,1915483
2.55823,1841444
2.56635,1822874
2.57448,1790645
2.58260,1790824
2.59073,1740591
2.59885,1707573
2.60697,1706584
2.61510,1676304
2.62322,1645492
2.63135,1651977
2.63947,1650976
2.64758,1670126
2.65572,1651324
2.66383,1602859
2.67195,1607257
2.68008,1626413
2.68820,1618557
2.69633,1603566
2.70445,1650397
2.71257,1687384
2.72070,1641182
2.72882,1585016
2.73695,1558318
2.74507,1577930
2.75318,2074819
2.76132,6883020
2.76943,1.148296E+07
2.77757,7393520
2.78568,4125394
2.79380,3063749
2.80193,2576724
2.81005,2253405
2.81817,2055932
2.82630,1913602
2.83442,1801345
2.84255,1736201
2.85067,1671100
2.85878,1607266
2.86692,1571964
2.87503,1546011
2.88317,1542834
2.89128,1508247
2.89940,1473985
2.90753,1453647
2.91565,1454587
2.92378,1437370
2.93190,1433507
2.94002,1601397
2.94815,2354974
2.95627,2455850
2.96438,1851833
2.97252,1576436
2.98063,1471454
2.98877,1457568
2.99688,1417722
3.00500,1373720
3.01313,1347331
3.02125,1345606
3.02938,1318425
3.03750,1306236
3.04562,1297222
3.05375,1285533
3.06187,1276864
3.06998,1234088
3.07812,1238479
3.08623,1238536
3.09437,1223551
3.10248,1218920
3.11060,1188261
3.11873,1187205
3.12685,1182490
3.13498,1192561
3.14310,1158902
3.15122,1142264
3.15935,1107658
3.16747,1156661
3.17560,1173470
3.18372,1211363
3.19183,1158263
3.19997,1113717
3.20808,1085329
3.21620,1068351
3.22433,1089596
3.23245,1090405
3.24058,1088816
3.24870,1046776
3.25682,1031200
3.26495,1108808
3.27307,1310483
3.28120,2443430
3.28932,6103370
3.29743,7341888
3.30557,4625826
3.31368,2808807
3.32182,2225160
3.32993,1893904
3.33805,1651801
3.34618,1508740
3.35430,1725596
3.36242,1.012926E+07
3.37055,3.507836E+07
3.37867,4.872216E+07
3.38680,4.535069E+07
3.39492,3.453354E+07
3.40303,2.716856E+07
3.41117,2.318212E+07
3.41928,1.989101E+07
3.42742,1.704976E+07
3.43553,1.465319E+07
3.44365,1.268261E+07
3.45178,1.102718E+07
3.45990,9749232
3.46802,8729759
3.47615,8182348
3.48427,7943683
3.49240,7568121
3.50052,6854922
3.50863,6233245
3.51677,5691477
3.52488,5298510
3.53302,4909016
3.54113,4561506
3.54925,4276571
3.55738,3956083
3.56550,3733446
3.57363,3546550
3.58175,3341253
3.58987,3169857
3.59800,3030958
3.60612,2901240
3.61423,2758213
3.62237,2642854
3.63048,2538237
3.63862,2439363
3.64673,2378015
3.65485,2287331
3.66298,2221361
3.67110,2155212
3.67923,2073944
3.68735,2015537
3.69547,1987268
3.70360,1924531
3.71172,1866008
3.71985,1807335
3.72797,1781852
3.73608,1746963
3.74422,1696477
3.75233,1656883
3.76045,1606962
3.76858,1582299
3.77670,1563884
3.78483,1523947
3.79295,1489736
3.80107,1466713
3.80920,1440181
3.81732,1407387
3.82545,1396392
3.83357,1352966
3.84168,1342702
3.84982,1370214
3.85793,3133791
3.86605,2.321803E+07
3.87418,6.377868E+07
3.88230,9.224427E+07
3.89043,1.066521E+08
3.89855,1.137114E+08
3.90667,1.185767E+08
3.91480,1.218867E+08
3.92292,1.241188E+08
3.93105,1.245137E+08
3.93917,9.855769E+07
3.94728,7.53015E+07
3.95542,6.989554E+07
3.96353,6.504442E+07
3.97167,6.092704E+07
3.97978,5.759307E+07
3.98790,5.399745E+07
3.99603,5.216956E+07
4.00415,5.79398E+07
4.01227,6.752285E+07
4.02040,6.416112E+07
4.02852,5.037997E+07
4.03665,4.252178E+07
4.04477,3.946496E+07
4.05288,3.764537E+07
4.06102,3.574878E+07
4.06913,3.432644E+07
4.07727,3.288259E+07
4.08538,3.16139E+07
4.09350,3.089594E+07
4.10163,3.045112E+07
4.10975,2.935524E+07
4.11788,2.804851E+07
4.12600,2.696348E+07
4.13412,2.604316E+07
4.14225,2.532722E+07
4.15037,2.470019E+07
4.15848,2.398021E+07
4.16662,2.328613E+07
4.17473,2.264245E+07
4.18287,2.221418E+07
4.19098,2.154801E+07
4.19910,2.09987E+07
4.20723,2.030408E+07
4.21535,1.979685E+07
4.22348,1.918728E+07
4.23160,1.885219E+07
4.23972,1.849975E+07
4.24785,1.800206E+07
4.25597,1.75934E+07
4.26410,1.709198E+07
4.27222,1.666531E+07
4.28033,1.631033E+07
4.28847,1.595037E+07
4.29658,1.563543E+07
4.30470,1.534542E+07
4.31283,1.518574E+07
4.32095,1.479534E+07
4.32908,1.432683E+07
4.33720,1.38313E+07
4.34532,1.355803E+07
4.35345,1.322301E+07
4.36157,1.298861E+07
4.36970,1.273626E+07
4.37782,1.252864E+07
4.38593,1.252347E+07
4.39407,1.26415E+07
4.40218,1.255994E+07
4.41030,1.212977E+07
4.41843,1.165125E+07
4.42655,1.13227E+07
4.43468,1.101857E+07
4.44280,1.074325E+07
4.45092,1.081875E+07
4.45905,1.282243E+07
4.46717,2.117536E+07
4.47530,3.18151E+07
4.48342,3.925886E+07
4.49153,4.423024E+07
4.49967,4.664995E+07
4.50778,4.893462E+07
4.51592,4.388711E+07
4.52403,2.820916E+07
4.53215,2.165948E+07
4.54028,1.875769E+07
4.54840,1.673917E+07
4.55652,1.518531E+07
4.56465,1.396616E+07
4.57277,1.290049E+07
4.58090,1.211207E+07
4.58902,1.151556E+07
4.59713,1.108257E+07
4.60527,1.067749E+07
4.61338,1.002676E+07
4.62152,9686759
4.62963,9368513
4.63775,9061599
4.64588,8780703
4.65400,8562150
4.66213,8330261
4.67025,8089208
4.67837,7901815
4.68650,7712282
4.69462,7571248
4.70273,7407032
4.71087,7235938
4.71898,7196731
4.72712,7084721
4.73523,6971652
4.74335,6840586
4.75148,6665019
4.75960,6608094
4.76773,7265442
4.77585,1.127148E+07
4.78397,2.109251E+07
4.79210,2.802652E+07
4.80022,2.504237E+07
4.80833,1.633721E+07
4.81647,1.07093E+07
4.82458,8766898
4.83272,7800642
4.84083,7337851
4.84895,7140024
4.85708,6974075
4.86520,6733391
4.87333,6359047
4.88145,6132976
4.88957,6029509
4.89770,6388311
4.90582,9111529
4.91395,1.754814E+07
4.92207,2.825309E+07
4.93018,3.105326E+07
4.93832,2.315728E+07
4.94643,1.369007E+07
4.95455,9063609
4.96268,7249701
4.97080,6516361
4.97893,6069292
4.98705,5729920
4.99517,5466208
5.00330,5248641
5.01142,5119722
5.01955,5049857
5.02767,5331347
5.03578,7577433
5.04392,1.373937E+07
5.05203,1.964731E+07
5.06017,1.921423E+07
5.06828,1.35042E+07
5.07640,8915175
5.08453,7119629
5.09265,6938167
5.10077,7188747
5.10890,7055195
5.11702,6322161
5.12515,5570078
5.13327,5091580
5.14138,4859252
5.14952,4769886
5.15763,4896965
5.16577,5219005
5.17388,5432844
5.18200,5289576
5.19013,5004200
5.19825,4765487
5.20637,4668085
5.21450,5436913
5.22262,8459466
5.23075,1.337125E+07
5.23887,1.513389E+07
5.24698,1.247353E+07
5.25512,9237142
5.26323,7723509
5.27137,6764722
5.27948,5784923
5.28760,5013898
5.29573,4593382
5.30385,4441054
5.31198,4214450
5.32010,4089442
5.32822,3952118
5.33635,3853942
5.34447,3787237
5.35258,3713023
5.36072,3647726
5.36883,3598040
5.37697,3561612
5.38508,3514227
5.39320,3420045
5.40133,3311105
5.40945,3217209
5.41758,3152909
5.42570,3121568
5.43382,3052046
5.44195,3035795
5.45007,3019842
5.45820,2941583
5.46632,2957961
5.47443,2893931
5.48257,2858098
5.49068,2852035
5.49880,2805768
5.50693,2791001
5.51505,2790299
5.52318,2690173
5.53130,2697783
5.53942,2676617
5.54755,2642702
5.55567,2605989
5.56380,2611428
5.57192,2575815
5.58003,2556285
5.58817,2520240
5.59628,2536441
5.60442,2555531
5.61253,2596387
5.62065,2572317
5.62878,2538780
5.63690,2515231
5.64502,2769299
5.65315,3735657
5.66127,5552125
5.66940,6955196
5.67752,6658441
5.68563,5118495
5.69377,4149019
5.70188,5662029
5.71002,1.330412E+07
5.71813,2.649195E+07
5.72625,3.695741E+07
5.73438,3.859363E+07
5.74250,3.116962E+07
5.75062,1.903624E+07
5.75875,1.05531E+07
5.76687,6976959
5.77500,5421643
5.78312,4533573
5.79123,4002631
5.79937,3683885
5.80748,3458404
5.81562,3307126
5.82373,3302840
5.83185,3812803
5.83998,4659942
5.84810,5052680
5.85623,4635799
5.86435,3858808
5.87247,3298895
5.88060,2871181
5.88872,2644271
5.89683,2525862
5.90497,2437841
5.91308,2383876
5.92122,2350245
5.92933,2265580
5.93745,2230912
5.94558,2188495
5.95370,2163348
5.96183,2105809
5.96995,2090378
5.97807,2092647
5.98620,2121621
5.99432,2125764
6.00245,2096770
6.01057,2042577
6.01868,1985454
6.02682,1949562
6.03493,1928053
6.04305,1889829
6.05118,1866560
6.05930,1824768
6.06743,1815555
6.07555,1791070
6.08367,1752151
6.09180,1761884
6.09992,1724257
6.10805,1701072
6.11617,1705862
6.12428,1701870
6.13242,1655325
6.14053,1644750
6.14865,1634777
6.15678,1678740
6.16490,2032951
6.17303,4588497
6.18115,1.535931E+07
6.18927,4.018879E+07
6.19740,6.895105E+07
6.20552,9.324394E+07
6.21365,1.120061E+08
6.22177,1.255294E+08
6.22988,1.262717E+08
6.23802,9.693271E+07
6.24613,4.927082E+07
6.25427,2.830983E+07
6.26238,2.278014E+07
6.27050,1.991077E+07
6.27863,1.846472E+07
6.28675,1.841015E+07
6.29487,1.858001E+07
6.30300,1.75285E+07
6.31112,1.522791E+07
6.31925,1.301995E+07
6.32737,1.16919E+07
6.33548,1.079652E+07
6.34362,1.025791E+07
6.35173,9727640
6.35987,9360093
6.36798,8958919
6.37610,8558598
6.38423,8111182
6.39235,7402205
6.40048,6917590
6.40860,6622562
6.41672,6418403
6.42485,6189212
6.43297,6023571
6.44108,5814168
6.44922,5618929
6.45733,5516704
6.46547,5227158
6.47358,5031975
6.48170,4890786
6.48983,4705566
6.49795,4574681
6.50608,4433357
6.51420,4318085
6.52232,4517349
6.53045,6599647
6.53857,1.558581E+07
6.54668,3.72262E+07
6.55482,6.46623E+07
6.56293,8.429809E+07
6.57107,9.28378E+07
6.57918,8.2085E+07
6.58730,5.035062E+07
6.59543,2.181929E+07
6.60355,1.222497E+07
6.61168,9336836
6.61980,7898558
6.62792,6982109
6.63605,6308091
6.64417,5738231
6.65230,5290640
6.66042,4954444
6.66853,4692549
6.67667,4447044
6.68478,4231868
6.69290,4020467
6.70103,3850268
6.70915,3667580
6.71728,3568152
6.72540,3449376
6.73352,3310924
6.74165,3149542
6.74977,3088775
6.75790,3025749
6.76602,2892392
6.77413,2834538
6.78227,2755223
6.79038,2669078
6.79852,2631125
6.80663,2565472
6.81475,2450395
6.82288,2412336
6.83100,2360519
6.83912,2338422
6.84725,2390368
6.85537,3015341
6.86350,6438167
6.87162,1.683395E+07
6.87973,3.39734E+07
6.88787,4.807253E+07
6.89598,4.807608E+07
6.90412,3.386024E+07
6.91223,1.796497E+07
6.92035,9883523
6.92848,6569081
6.93660,4807582
6.94473,4266518
6.95285,5584037
6.96097,9779557
6.96910,1.499437E+07
6.97722,1.670375E+07
6.98533,1.350032E+07
6.99347,9317548
7.00158,6455369
7.00972,4713301
7.01783,3588596
7.02595,2995917
7.03408,2641240
7.04220,2401096
7.05033,3198013
7.05845,3053742
7.06657,2867803
7.07470,2813179
7.08282,2956475
7.09093,2910359
7.09907,2836854
7.10718,2764205
7.11532,2677017
7.12343,2660711
7.13155,2584821
7.13968,2618782
7.14780,2673756
7.15593,2753085
7.16405,2719975
7.17217,2682688
7.18030,2594679
7.18842,2427589
7.19655,2307498
7.20467,2136264
7.21278,2038431
7.22092,2048615
7.22903,2090269
7.23715,2144619
7.24528,2148882
7.25340,2081915
7.26153,2006330
7.26965,2037296
7.27777,2054863
7.28590,2122966
7.29402,2158212
7.30215,2083449
7.31027,2063365
7.31838,2010654
7.32652,1975706
7.33463,1929567
7.34277,1923462
7.35088,1907679
7.35900,1873148
7.36713,1860917
7.37525,1862695
7.38337,1931687
7.39150,2055349
7.39962,2180300
7.40775,2291573
7.41587,2262629
7.42398,2059123
7.43212,1894869
7.44023,1815257
7.44837,1750634
7.45648,1693603
7.46460,1704976
7.47273,1657674
7.48085,1638343
7.48897,1667502
7.49710,1659994
7.50522,1605773
7.51335,1592344
7.52147,1539860
7.52958,1558364
7.53772,1631978
7.54583,2001878
7.55397,2987040
7.56208,4340750
7.57020,5056382
7.57833,4371091
7.58645,3074536
7.59458,2154682
7.60270,1765706
7.61082,1602582
7.61895,1506947
7.62707,1426419
7.63518,1391240
7.64332,1375124
7.65143,1325738
7.65957,1328263
7.66768,1301496
7.67580,1302348
7.68393,1291013
7.69205,1285365
7.70018,1265907
7.70830,1248094
7.71642,1267205
7.72455,1250402
7.73267,1233140
7.74080,1234453
7.74892,1215978
7.75703,1291684
7.76517,1369364
7.77328,1483785
7.78140,1655310
7.78953,1780000
7.79765,1859543
7.80578,1772782
7.81390,1636352
7.82202,1557781
7.83015,1516965
7.83827,1483532
7.84640,1415929
7.85452,1331643
7.86263,1239909
7.87077,1204233
7.87888,1185429
7.88700,1161758
7.89513,1133975
7.90325,1113066
7.91138,1107960
7.91950,1112672
7.92762,1174001
7.93575,1230473
7.94387,1316686
7.95200,1366003
7.96012,1279971
7.96823,1175946
7.97637,1059128
7.98448,899400
7.99262,719424
8.00073,574549
8.00885,519391
8.01698,516626
8.02510,496466
8.03322,494395
8.04135,499152
8.04947,474476
8.05760,483044
8.06572,482510
8.07383,468820
8.08197,461831
8.09008,457472
8.09822,463414
8.10633,459434
8.11445,458006
8.12258,448583
8.13070,456134
8.13883,560807
8.14695,1080931
8.15507,2869054
8.16320,7246748
8.17132,1.457641E+07
8.17943,2.327765E+07
8.18757,3.08027E+07
8.19568,3.725654E+07
8.20382,4.428035E+07
8.21193,5.30513E+07
8.22005,6.010404E+07
8.22818,6.088329E+07
8.23630,5.137026E+07
8.24443,3.221429E+07
8.25255,1.520034E+07
8.26067,7672851
8.26880,5186841
8.27692,4118537
8.28505,3355483
8.29317,2665714
8.30128,2100322
8.30942,1766208
8.31753,1603505
8.32565,1627204
8.33378,1862525
8.34190,2226720
8.35003,2635404
8.35815,2810728
8.36627,2810064
8.37440,2682723
8.38252,2527349
8.39065,2399702
8.39877,2283899
8.40688,2157742
8.41502,2025798
8.42313,1972410
8.43125,1927086
8.43938,1843203
8.44750,1798970
8.45563,1676995
8.46375,1579762
8.47187,1485347
8.48000,1419903
8.48812,1395373
8.49625,1363844
8.50437,1309123
8.51248,1237614
8.52062,1218024
8.52873,1277768
8.53687,1464210
8.54498,1812974
8.55310,2101163
8.56123,2079040
8.56935,1850055
8.57747,1451965
8.58560,1167628
8.59372,1043952
8.60185,987228
8.60997,928419
8.61808,891550
8.62622,867597
8.63433,833785
8.64247,862517
8.65058,902905
8.65870,1098024
8.66683,1340165
8.67495,1527257
8.68308,1528927
8.69120,1345741
8.69932,1102476
8.70745,949995
8.71557,884739
8.72368,906519
8.73182,1021065
8.73993,1137629
8.74807,1144736
8.75618,1022246
8.76430,848598
8.77243,767772
8.78055,723031
8.78868,723965
8.79680,731148
8.80492,692136
8.81305,653404
8.82117,631394
8.82928,616186
8.83742,612549
8.84553,611165
8.85367,587344
8.86178,599657
8.86990,597094
8.87803,646647
8.88615,693496
8.89428,789535
8.90240,1009036
8.91052,1342282
8.91865,1576455
8.92677,1515034
8.93490,1182596
8.94302,828528
8.95113,622518
8.95927,552385
8.96738,520616
8.97550,519217
8.98363,499482
8.99175,490439
8.99988,484705
9.00800,553522
9.01612,715592
9.02425,1055782
9.03237,1415976
9.04050,1654450
9.04862,1551929
9.05673,1242027
9.06487,945931
9.07298,728582
9.08112,627554
9.08923,632917
9.09735,677924
9.10548,767500
9.11360,809099
9.12172,772742
9.12985,695420
9.13797,604717
9.14610,541987
9.15422,498897
9.16233,482569
9.17047,470975
9.17858,466209
9.18672,480908
9.19483,568946
9.20295,840052
9.21108,1449457
9.21920,2310702
9.22732,3039093
9.23545,3178169
9.24357,2608842
9.25170,1776755
9.25982,1117194
9.26793,746397
9.27607,585823
9.28418,516782
9.29232,536160
9.30043,773980
9.30855,1456022
9.31668,3339499
9.32480,6899543
9.33293,1.158553E+07
9.34105,1.454983E+07
9.34917,1.433059E+07
9.35730,1.100507E+07
9.36542,6826963
9.37353,3777088
9.38167,2308938
9.38978,1712789
9.39792,1408901
9.40603,1374458
9.41415,1437054
9.42228,1556195
9.43040,1576877
9.43853,1541397
9.44665,1499215
9.45477,1433537
9.46290,1338039
9.47102,1287125
9.47915,1236367
9.48727,1190410
9.49538,1135813
9.50352,1090781
9.51163,1077623
9.51975,1050121
9.52788,1042642
9.53600,1080530
9.54413,1083727
9.55225,1098369
9.56037,1010146
9.56850,939654
9.57662,867135
9.58475,803663
9.59287,801597
9.60098,852967
9.60912,984565
9.61723,1269021
9.62537,1595181
9.63348,1765083
9.64160,1625954
9.64973,1318991
9.65785,1020896
9.66597,829697
9.67410,746535
9.68222,724378
9.69035,781644
9.69847,1033887
9.70658,1552119
9.71472,2239903
9.72283,2713748
9.73097,2725917
9.73908,2286992
9.74720,1710212
9.75533,1238706
9.76345,945564
9.77157,865910
9.77970,805029
9.78782,757756
9.79595,720772
9.80407,691359
9.81218,653416
9.82032,667671
9.82843,629637
9.83657,640510
9.84468,595946
9.85280,593179
9.86093,610224
9.86905,631841
9.87718,682633
9.88530,758330
9.89342,770480
9.90155,701106
9.90967,661928
9.91778,581477
9.92592,533914
9.93403,531829
9.94217,500669
9.95028,505470
9.95840,493226
9.96653,494357
9.97465,508282
9.98278,591216
9.99090,994633
9.99902,2159560
10.00715,4670991
10.01527,8285504
10.02340,1.122109E+07
10.03152,1.156958E+07
10.03963,9356051
10.04777,5905406
10.05588,3169717
10.06400,1767991
10.07213,1200737
10.08025,1072625
10.08838,1160398
10.09650,1453992
10.10462,1780727
10.11275,2102315
10.12087,2500361
10.12900,2908974
10.13712,3326500
10.14523,3447707
10.15337,3206174
10.16148,2625503
10.16960,2016794
10.17773,1507979
10.18585,1191150
10.19398,1039817
10.20210,982498
10.21022,953859
10.21835,978031
10.22647,1006442
10.23460,1101952
10.24272,1161509
10.25083,1201372
10.25897,1225072
10.26708,1203577
10.27522,1099049
10.28333,984879
10.29145,920861
10.29958,868974
10.30770,858952
10.31582,838796
10.32395,824244
10.33207,768363
10.34020,730976
10.34832,700106
10.35643,677569
10.36457,639732
10.37268,628962
10.38082,612101
10.38893,617742
10.39705,599743
10.40518,605479
10.41330,588523
10.42143,584773
10.42955,564583
10.43767,500108
10.44580,483785
10.45392,467595
10.46203,440386
10.47017,429116
10.47828,408455
10.48642,406044
10.49453,408618
10.50265,387029
10.51078,400830
10.51890,373651
10.52703,352776
10.53515,357599
10.54327,353114
10.55140,351342
10.55952,344113
10.56763,346354
10.57577,335624
10.58388,345179
10.59202,342774
10.60013,331902
10.60825,336860
10.61638,325960
10.62450,323419
10.63263,326152
10.64075,309617
10.64887,350894
10.65700,460237
10.66512,918593
10.67325,1930753
10.68137,3592713
10.68948,5069330
10.69762,5776180
10.70573,6280531
10.71385,8118868
10.72198,1.19009E+07
10.73010,1.532852E+07
10.73823,1.501575E+07
10.74635,1.090598E+07
10.75447,5781618
10.76260,2521658
10.77072,1154201
10.77885,743685
10.78697,614035
10.79508,545295
10.80322,489932
10.81133,470415
10.81947,465756
10.82758,474986
10.83570,481639
10.84383,483518
10.85195,498405
10.86007,518349
10.86820,542405
10.87632,528989
10.88445,471433
10.89257,428855
10.90068,395378
10.90882,419251
10.91693,552383
10.92507,737256
10.93318,869591
10.94130,905119
10.94943,841917
10.95755,800460
10.96568,789590
10.97380,780925
10.98192,716035
10.99005,570781
10.99817,431460
11.00628,326637
11.01442,274245
11.02253,243116
11.03067,243242
11.03878,238617
11.04690,247340
11.05503,233344
11.06315,234427
11.07128,216712
11.07940,213628
11.08752,197045
11.09565,189120
11.10377,184398
11.11188,195383
11.12002,220085
11.12813,238779
11.13627,243734
11.14438,244439
11.15250,236899
11.16063,255738
11.16875,311973
11.17688,405460
11.18500,508671
11.19312,547408
11.20125,482631
11.20937,372327
11.21750,281033
11.22562,227832
11.23373,195416
11.24187,186997
11.24998,178015
11.25810,177098
11.26623,172402
11.27435,171074
11.28248,203969
11.29060,275334
11.29872,407226
11.30685,629265
11.31497,804303
11.32310,899044
11.33122,840011
11.33933,677595
11.34747,501731
11.35558,335703
11.36372,286037
11.37183,304021
11.37995,427141
11.38808,642343
11.39620,1147848
11.40432,2593933
11.41245,6598308
11.42057,1.566985E+07
11.42870,3.104296E+07
11.43682,5.060646E+07
11.44493,7.12076E+07
11.45307,9.014149E+07
11.46118,1.060712E+08
11.46932,1.178467E+08
11.47743,1.208773E+08
11.48555,1.068668E+08
11.49368,6.886458E+07
11.50180,3.295084E+07
11.50992,2.017941E+07
11.51805,1.810862E+07
11.52617,1.901238E+07
11.53430,2.256981E+07
11.54242,2.767256E+07
11.55053,3.06655E+07
11.55867,2.767578E+07
11.56678,2.044452E+07
11.57492,1.385381E+07
11.58303,1.048795E+07
11.59115,9096092
11.59928,8467327
11.60740,7980770
11.61553,7503322
11.62365,7089045
11.63177,6690885
11.63990,6413029
11.64802,6102380
11.65613,5882869
11.66427,5687367
11.67238,5423307
11.68052,5227450
11.68863,5096021
11.69675,4924890
11.70488,4787024
11.71300,4606965
11.72113,4437741
11.72925,4350379
11.73737,4181171
11.74550,4087198
11.75362,3981882
11.76175,3870435
11.76987,3769507
11.77798,3697187
11.78612,3648642
11.79423,3567506
11.80235,3511575
11.81048,3428121
11.81860,3445544
11.82673,3552249
11.83485,3754464
11.84297,3833281
11.85110,3731105
11.85922,3452386
11.86735,3218464
11.87547,3043859
11.88358,2975171
11.89172,2895392
11.89983,2923730
11.90795,2917438
11.91608,2877006
11.92420,2887996
11.93233,2861111
11.94045,2770107
11.94857,2749360
11.95670,2664982
11.96482,2619485
11.97295,2463536
11.98107,2415722
11.98918,2395606
11.99732,2351904
12.00543,2347201
12.01357,2336765
12.02168,2403185
12.02980,2441104
12.03793,2480369
12.04605,2470179
12.05417,2533292
12.06230,3186621
12.07042,5133013
12.07855,8918383
12.08667,1.387555E+07
12.09478,1.75511E+07
12.10292,1.780442E+07
12.11103,1.45863E+07
12.11917,1.021282E+07
12.12728,6762335
12.13540,5298374
12.14353,5012167
12.15165,5057340
12.15978,4996803
12.16790,4602952
12.17602,4122618
12.18415,3669079
12.19227,3277890
12.20038,3056166
12.20852,2927426
12.21663,2844247
12.22477,2715602
12.23288,2610497
12.24100,2444031
12.24913,2334907
12.25725,2209377
12.26538,2158042
12.27350,2050390
12.28162,1975257
12.28975,1895461
12.29787,1849117
12.30600,1794101
12.31412,1760763
12.32223,1705927
12.33037,1685647
12.33848,1663364
12.34660,1665141
12.35473,1692079
12.36285,1682716
12.37098,1624058
12.37910,1592073
12.38722,1547160
12.39535,1570323
12.40347,1710569
12.41160,2150666
12.41972,2816541
12.42783,3571469
12.43597,4058923
12.44408,3909780
12.45220,3235576
12.46033,2497357
12.46845,1946897
12.47658,1688462
12.48470,1594277
12.49282,1541916
12.50095,1507604
12.50907,1440679
12.51720,1383869
12.52532,1360260
12.53343,1308996
12.54157,1279269
12.54968,1243569
12.55782,1242846
12.56593,1196019
12.57405,1165219
12.58218,1157142
12.59030,1157494
12.59842,1301907
12.60655,1878444
12.61467,3488811
12.62280,6951122
12.63092,1.216902E+07
12.63903,1.777372E+07
12.64717,2.097129E+07
12.65528,2.021478E+07
12.66342,1.524402E+07
12.67153,9617632
12.67965,5914571
12.68778,4236497
12.69590,3649754
12.70403,3344312
12.71215,3079263
12.72027,2826218
12.72840,2583427
12.73652,2450412
12.74463,2285455
12.75277,2173621
12.76088,2125557
12.76902,2034016
12.77713,1994582
12.78525,1980573
12.79338,2109821
12.80150,2322366
12.80963,2562347
12.81775,2653936
12.82587,2534503
12.83400,2086861
12.84212,1698842
12.85023,1439805
12.85837,1303403
12.86648,1250211
12.87462,1238786
12.88273,1259632
12.89085,1254779
12.89898,1240681
12.90710,1154607
12.91523,1092209
12.92335,1027174
12.93147,984872
12.93960,975636
12.94772,935329
12.95585,899707
12.96397,886630
12.97208,909697
12.98022,1050317
12.98833,1405657
12.99645,1846992
13.00458,2239083
13.01270,2308706
13.02083,1980471
13.02895,1514116
13.03707,1107971
13.04520,892057
13.05332,785934
13.06145,750722
13.06957,732153
13.07768,707741
13.08582,705799
13.09393,688273
13.10207,693185
13.11018,691291
13.11830,681189
13.12643,682566
13.13455,667197
13.14267,693770
13.15080,660064
13.15892,688839
13.16705,719292
13.17517,746564
13.18328,756355
13.19142,777249
13.19953,709354
13.20767,626964
13.21578,574353
13.22390,493921
13.23203,426107
13.24015,375314
13.24827,341580
13.25640,323197
13.26452,318958
13.27265,318888
13.28077,315568
13.28888,297572
13.29702,295271
13.30513,298709
13.31327,297169
13.32138,312015
13.32950,337255
13.33763,396254
13.34575,503653
13.35388,591064
13.36200,634944
13.37012,645812
13.37825,629709
13.38637,555354
13.39448,479745
13.40262,386610
13.41073,321101
13.41887,292117
13.42698,275194
13.43510,255154
13.44323,258953
13.45135,231506
13.45948,223685
13.46760,207910
13.47572,211532
13.48385,197311
13.49197,199275
13.50010,202527
13.50822,212240
13.51633,249064
13.52447,320535
13.53258,436701
13.54070,528011
13.54883,605071
13.55695,619690
13.56508,571234
13.57320,475426
13.58132,394134
13.58945,297814
13.59757,255167
13.60570,236622
13.61382,214865
13.62193,208684
13.63007,203640
13.63818,207415
13.64632,224102
13.65443,225899
13.66255,222268
13.67068,220779
13.67880,210207
13.68692,212525
13.69505,199313
13.70317,201762
13.71130,188147
13.71942,178507
13.72753,198661
13.73567,222130
13.74378,271105
13.75192,325203
13.76003,347516
13.76815,340274
13.77628,295161
13.78440,251878
13.79252,203813
13.80065,177941
13.80877,168250
13.81690,167176
13.82502,158130
13.83313,147980
13.84127,148417
13.84938,148832
13.85752,148330
13.86563,147434
13.87375,153236
13.88188,144386
13.89000,135252
13.89813,144556
13.90625,131819
13.91437,129928
13.92250,122419
13.93062,111839
13.93873,110411
13.94687,113981
13.95498,116709
13.96312,115211
13.97123,113043
13.97935,124676
13.98748,174655
13.99560,313570
14.00373,668322
14.01185,1348524
14.01997,2297020
14.02810,3176698
14.03622,3492417
14.04435,3115102
14.05247,2259110
14.06058,1388567
14.06872,877295
14.07683,583978
14.08495,489114
14.09308,467779
14.10120,478209
14.10933,491314
14.11745,471187
14.12557,439711
14.13370,341244
14.14182,278183
14.14995,241211
14.15807,227326
14.16618,209816
14.17432,236454
14.18243,265119
14.19055,358184
14.19868,475165
14.20680,590567
14.21493,630366
14.22305,618964
14.23117,549279
14.23930,483978
14.24742,417889
14.25555,367322
14.26367,299575
14.27178,253082
14.27992,202453
14.28803,178999
14.29617,160622
14.30428,157077
14.31240,160244
14.32053,168020
14.32865,166731
14.33677,160503
14.34490,151887
14.35302,141735
14.36115,130961
14.36927,121171
14.37738,117763
14.38552,117894
14.39363,117700
14.40177,116505
14.40988,111118
14.41800,122246
14.42613,116947
14.43425,122634
14.44238,126238
14.45050,130416
14.45862,130326
14.46675,141437
14.47487,161896
14.48298,198338
14.49112,216343
14.49923,220858
14.50737,218591
14.51548,194976
14.52360,196782
14.53173,251418
14.53985,407542
14.54798,778333
14.55610,1288883
14.56422,1839869
14.57235,2006547
14.58047,1798974
14.58858,1268178
14.59672,825785
14.60483,526000
14.61297,362739
14.62108,278507
14.62920,252543
14.63733,218305
14.64545,197622
14.65358,190771
14.66170,194593
14.66982,186075
14.67795,177481
14.68607,163198
14.69420,147483
14.70232,120901
14.71043,126427
14.71857,118255
14.72668,114654
14.73480,125750
14.74293,139921
14.75105,148793
14.75918,159752
14.76730,145873
14.77542,150759
14.78355,153179
14.79167,160730
14.79980,156911
14.80792,162067
14.81603,145534
14.82417,144135
14.83228,141424
14.84042,135235
14.84853,129004
14.85665,126112
14.86478,120443
14.87290,119908
14.88102,123224
14.88915,157611
14.89727,280669
14.90540,570128
14.91352,1196631
14.92163,2101627
14.92977,2893071
14.93788,3221994
14.94602,2842595
14.95413,2105640
14.96225,1359037
14.97038,859648
14.97850,595004
14.98663,451516
14.99475,393920
15.00287,356940
15.01100,327009
15.01912,317218
15.02723,308336
15.03537,268503
15.04348,250625
15.05162,228847
15.05973,212158
15.06785,204881
15.07598,194652
15.08410,184150
15.09223,181799
15.10035,178028
15.10847,173755
15.11660,171289
15.12472,166224
15.13283,167397
15.14097,174967
15.14908,185498
15.15722,226968
15.16533,309031
15.17345,422000
15.18158,533852
15.18970,585729
15.19783,557720
15.20595,488743
15.21407,378958
15.22220,300806
15.23032,323143
15.23845,463732
15.24657,939097
15.25468,1895985
15.26282,3139495
15.27093,3983140
15.27905,3990109
15.28718,3127576
15.29530,2085871
15.30343,1285085
15.31155,795904
15.31967,562518
15.32780,437792
15.33592,377090
15.34405,341858
15.35217,309914
15.36028,287672
15.36842,281485
15.37653,283330
15.38467,253312
15.39278,242185
15.40090,215794
15.40903,198884
15.41715,182616
15.42527,170496
15.43340,164138
15.44152,158560
15.44965,151584
15.45777,155937
15.46588,157687
15.47402,149001
15.48213,147460
15.49027,141190
15.49838,136198
15.50650,138191
15.51463,132741
15.52275,122757
15.53087,118143
15.53900,115095
15.54712,117405
15.55525,110727
15.56337,116273
15.57148,126676
15.57962,140879
15.58773,136503
15.59587,130056
15.60398,118867
15.61210,102792
15.62023,91122
15.62835,86035
15.63648,79713
15.64460,77937
15.65272,74746
15.66085,70356
15.66897,77868
15.67708,70604
15.68522,68768
15.69333,70737
15.70147,68119
15.70958,64523
15.71770,67433
15.72583,63074
15.73395,74516
15.74208,63434
15.75020,64235
15.75832,68908
15.76645,66269
15.77457,72994
15.78270,71875
15.79082,74079
15.79893,67437
15.80707,68694
15.81518,76591
15.82330,86777
15.83143,111514
15.83955,132599
15.84768,141590
15.85580,134382
15.86392,117422
15.87205,97781
15.88017,90586
15.88830,75034
15.89642,67743
15.90453,73670
15.91267,67654
15.92078,76844
15.92890,66898
15.93703,71091
15.94515,69568
15.95328,63617
15.96140,66233
15.96952,62749
15.97765,65898
15.98577,67975
15.99390,70268
16.00202,78500
16.01013,75867
16.01827,73256
16.02638,68272
16.03452,68807
16.04263,75083
16.05075,73804
16.05888,75630
16.06700,73911
16.07512,69187
16.08325,67314
16.09137,63132
16.09950,64548
16.10762,57292
16.11573,66469
16.12387,54720
16.13198,52599
16.14012,67216
16.14823,61529
16.15635,70165
16.16448,80025
16.17260,84795
16.18073,79959
16.18885,83666
16.19697,99911
16.20510,173817
16.21322,377863
16.22133,787982
16.22947,1274935
16.23758,1646681
16.24572,1573214
16.25383,1279507
16.26195,887145
16.27008,560383
16.27820,375054
16.28633,288715
16.29445,272284
16.30257,276794
16.31070,316603
16.31882,341910
16.32695,376677
16.33507,398506
16.34318,411645
16.35132,404135
16.35943,371919
16.36755,329703
16.37568,287059
16.38380,250126
16.39193,228768
16.40005,196086
16.40817,169514
16.41630,147707
16.42442,141011
16.43255,148239
16.44067,141995
16.44878,153683
16.45692,136581
16.46503,131612
16.47315,126128
16.48128,110059
16.48940,113413
16.49753,94429
16.50565,90132
16.51377,99797
16.52190,91948
16.53002,99937
16.53815,91895
16.54627,94782
16.55438,100294
16.56252,101339
16.57063,107517
16.57877,95440
16.58688,93390
16.59500,95619
16.60313,93691
16.61125,92711
16.61937,89698
16.62750,83283
16.63562,81362
16.64375,82535
16.65187,78595
16.65998,76859
16.66812,92570
16.67623,88908
16.68437,102188
16.69248,107465
16.70060,111580
16.70873,119310
16.71685,125086
16.72498,116560
16.73310,115074
16.74122,115365
16.74935,96682
16.75747,107987
16.76558,99620
16.77372,106475
16.78183,101934
16.78997,111435
16.79808,119347
16.80620,131136
16.81433,134509
16.82245,127741
16.83058,116737
16.83870,104397
16.84682,97276
16.85495,90273
16.86307,83329
16.87118,81631
16.87932,77807
16.88743,78047
16.89557,81728
16.90368,121794
16.91180,175457
16.91993,264929
16.92805,342303
16.93618,373094
16.94430,332336
16.95242,243764
16.96055,188110
16.96867,142352
16.97680,116420
16.98492,104064
16.99303,90733
17.00117,85238
17.00928,81107
17.01740,82826
17.02553,71348
17.03365,68763
17.04178,74504
17.04990,67459
17.05802,69539
17.06615,75891
17.07427,80913
17.08240,112513
17.09052,122743
17.09863,137087
17.10677,147967
17.11488,154125
17.12302,138798
17.13113,119054
17.13925,99603
17.14738,111987
17.15550,141168
17.16362,181954
17.17175,257257
17.17987,307937
17.18800,323201
17.19612,330262
17.20423,279166
17.21237,236303
17.22048,191342
17.22862,166424
17.23673,144355
17.24485,123513
17.25298,111906
17.26110,117603
17.26922,103080
17.27735,101872
17.28547,94380
17.29360,91529
17.30172,85262
17.30983,84656
17.31797,93112
17.32608,84839
17.33422,83280
17.34233,84562
17.35045,87431
17.35858,91313
17.36670,87028
17.37483,82849
17.38295,88892
17.39107,79462
17.39920,80145
17.40732,73492
17.41543,63713
17.42357,61478
17.43168,60033
17.43982,57389
17.44793,60349
17.45605,54771
17.46418,53362
17.47230,56774
17.48043,53684
17.48855,56927
17.49667,65409
17.50480,69227
17.51292,92948
17.52105,111727
17.52917,145225
17.53728,183497
17.54542,198470
17.55353,195460
17.56165,170990
17.56978,149095
17.57790,122968
17.58603,103106
17.59415,90802
17.60227,79088
17.61040,84305
17.61852,74676
17.62665,67263
17.63477,73438
17.64288,70679
17.65102,74390
17.65913,81630
17.66727,90302
17.67538,103835
17.68350,110732
17.69163,110273
17.69975,107252
17.70787,100298
17.71600,94555
17.72412,103279
17.73225,156136
17.74037,323866
17.74848,738118
17.75662,1479529
17.76473,2513810
17.77287,3401939
17.78098,3867433
17.78910,3507799
17.79723,2633434
17.80535,1757358
17.81347,1082556
17.82160,654529
17.82972,433352
17.83785,316890
17.84597,256653
17.85408,225390
17.86222,203093
17.87033,192504
17.87847,180138
17.88658,158584
17.89470,152180
17.90283,137968
17.91095,137150
17.91908,121461
17.92720,120814
17.93532,119249
17.94345,125940
17.95157,114424
17.95968,106161
17.96782,99792
17.97593,95649
17.98407,87980
17.99218,79815
18.00030,77086
18.00843,77597
18.01655,68346
18.02468,65598
18.03280,66378
18.04092,65559
18.04905,80748
18.05717,96427
18.06530,121795
18.07342,140855
18.08153,184793
18.08967,238506
18.09778,282268
18.10590,309423
18.11403,298153
18.12215,257004
18.13028,217966
18.13840,170123
18.14652,133330
18.15465,129903
18.16277,109340
18.17090,103125
18.17902,94787
18.18713,93524
18.19527,96643
18.20338,90638
18.21150,80920
18.21963,77677
18.22775,79895
18.23588,72386
18.24400,74818
18.25212,72357
18.26025,74312
18.26837,74936
18.27650,77245
18.28462,80047
18.29273,92722
18.30087,102368
18.30898,91721
18.31712,97552
18.32523,84138
18.33335,72829
18.34148,67546
18.34960,59751
18.35772,62719
18.36585,55716
18.37397,59013
18.38210,57017
18.39022,63835
18.39833,64029
18.40647,61999
18.41458,1106389
18.42272,1589993
18.43083,1716065
18.43895,1683466
18.44708,1659491
18.45520,1614107
18.46333,1549936
18.47145,1509638
18.47957,1472833
18.48770,1455481
18.49582,1430392
18.50393,1454831
18.51207,1523078
18.52018,1598731
18.52832,1663029
18.53643,1653401
18.54455,1527438
18.55268,1372914
18.56080,1209560
18.56893,1099065
18.57705,988357
18.58517,928683
18.59330,879944
18.60142,827329
18.60953,775985
18.61767,742348
18.62578,687625
18.63392,664798
18.64203,624761
18.65015,599558
18.65828,564752
18.66640,542540
18.67453,527984
18.68265,518706
18.69077,480611
18.69890,467327
18.70702,465052
18.71515,453280
18.72327,425344
18.73138,413510
18.73952,390497
18.74763,377521
18.75575,344627
18.76388,328674
18.77200,318461
18.78013,306052
18.78825,295862
18.79637,283365
18.80450,288889
18.81262,271870
18.82075,271945
18.82887,269254
18.83698,267010
18.84512,254373
18.85323,247732
18.86137,244936
18.86948,231649
18.87760,219012
18.88573,212191
18.89385,212990
18.90197,201469
18.91010,186502
18.91822,192097
18.92635,192875
18.93447,227328
18.94258,252725
18.95072,290893
18.95883,302283
18.96697,280693
18.97508,268118
18.98320,238030
18.99133,211446
18.99945,217626
19.00758,260644
19.01570,334220
19.02382,480468
19.03195,601963
19.04007,688145
19.04818,702052
19.05632,614602
19.06443,511925
19.07257,403631
19.08068,313080
19.08880,253284
19.09693,209822
19.10505,186289
19.11318,185782
19.12130,163503
19.12942,157601
19.13755,157569
19.14567,154057
19.15378,154306
19.16192,146060
19.17003,138415
19.17817,139235
19.18628,138537
19.19440,143114
19.20253,152540
19.21065,155314
19.21878,163274
19.22690,154148
19.23502,144883
19.24315,137854
19.25127,121877
19.25940,129244
19.26752,110306
19.27563,108350
19.28377,97778
19.29188,94195
19.30000,93974
19.30813,92228
19.31625,92087
19.32438,87219
19.33250,93286
19.34062,86709
19.34875,95160
19.35687,106280
19.36500,122638
19.37312,121758
19.38123,125255
19.38937,123461
19.39748,117591
19.40562,112159
19.41373,120250
19.42185,103981
19.42998,103920
19.43810,99566
19.44622,93831
19.45435,89674
19.46247,86066
19.47060,89533
19.47872,76745
19.48683,78005
19.49497,72587
19.50308,71365
19.51122,72116
19.51933,76151
19.52745,86499
19.53558,106959
19.54370,127510
19.55183,141549
19.55995,145953
19.56807,152050
19.57620,150813
19.58432,138229
19.59243,122333
19.60057,113028
19.60868,110670
19.61682,106914
19.62493,107882
19.63305,101161
19.64118,95369
19.64930,87944
19.65743,84729
19.66555,84213
19.67367,73847
19.68180,69127
19.68992,69042
19.69803,75498
19.70617,76264
19.71428,88734
19.72242,85029
19.73053,86939
19.73865,85937
19.74678,79529
19.75490,75957
19.76303,76104
19.77115,77758
19.77927,81800
19.78740,97920
19.79552,114335
19.80365,137598
19.81177,152652
19.81988,164300
19.82802,142310
19.83613,117284
19.84425,101117
19.85238,76265
19.86050,73757
19.86863,78747
19.87675,68651
19.88487,67238
19.89300,68264
19.90112,60393
19.90925,58657
19.91737,63750
19.92548,58568
19.93362,68785
19.94173,62891
19.94987,69286
19.95798,70469
19.96610,74127
19.97423,79015
19.98235,97900
19.99047,87744
19.99860,83021
20.00672,89312
20.01485,90877
20.02297,109447
20.03108,151745
20.03922,202458
20.04733,291116
20.05547,353256
20.06358,372984
20.07170,338229
20.07983,287682
20.08795,228815
20.09607,183644
20.10420,150528
20.11232,122376
20.12045,110217
20.12857,99461
20.13668,88942
20.14482,83626
20.15293,80137
20.16107,74367
20.16918,74378
20.17730,72183
20.18543,81515
20.19355,69243
20.20168,77276
20.20980,77647
20.21792,69721
20.22605,73049
20.23417,70348
20.24228,71473
20.25042,69020
20.25853,65510
20.26667,59415
20.27478,62862
20.28290,67742
20.29103,62513
20.29915,62671
20.30728,62355
20.31540,63760
20.32352,77178
20.33165,108908
20.33977,189988
20.34790,347021
20.35602,596203
20.36413,863708
20.37227,1027259
20.38038,1057342
20.38850,942415
20.39663,748272
20.40475,547063
20.41288,398528
20.42100,305328
20.42912,236082
20.43725,217106
20.44537,204984
20.45350,197526
20.46162,176801
20.46973,164527
20.47787,159219
20.48598,157012
20.49412,137270
20.50223,131056
20.51035,122283
20.51848,111494
20.52660,98506
20.53472,91165
20.54285,84210
20.55097,78341
20.55910,75132
20.56722,74350
20.57533,80799
20.58347,93941
20.59158,110169
20.59972,156070
20.60783,199646
20.61595,243415
20.62408,278704
20.63220,296118
20.64032,252529
20.64845,222891
20.65657,179693
20.66470,150566
20.67282,125418
20.68093,106291
20.68907,102389
20.69718,96860
20.70532,83965
20.71343,83721
20.72155,73178
20.72968,72911
20.73780,70480
20.74593,70949
20.75405,72549
20.76217,74041
20.77030,83169
20.77842,99707
20.78653,108479
20.79467,110905
20.80278,117005
20.81092,105171
20.81903,105155
20.82715,89353
20.83528,86568
20.84340,77824
20.85153,78027
20.85965,73534
20.86777,80321
20.87590,75643
20.88402,77907
20.89215,77494
20.90027,81197
20.90838,86093
20.91652,85584
20.92463,75103
20.93275,71771
20.94088,68166
20.94900,71641
20.95713,63015
20.96525,59704
20.97337,59277
20.98150,63377
20.98962,60305
20.99775,60909
21.00587,71448
21.01398,79888
21.02212,115194
21.03023,158345
21.03835,222365
21.04648,263098
21.05460,272055
21.06273,217723
21.07085,166579
21.07897,123307
21.08710,97620
21.09522,88381
21.10335,86795
21.11147,78596
21.11958,81495
21.12772,73754
21.13583,78260
21.14397,75722
21.15208,78394
21.16020,79662
21.16833,89024
21.17645,80353
21.18457,83059
21.19270,69532
21.20082,79571
21.20895,71442
21.21707,75609
21.22518,94622
21.23332,141118
21.24143,265325
21.24957,471706
21.25768,734099
21.26580,940485
21.27393,965647
21.28205,819361
21.29018,576788
21.29830,368977
21.30642,228564
21.31455,168359
21.32267,127448
21.33078,116555
21.33892,95547
21.34703,91647
21.35517,84307
21.36328,73841
21.37140,78645
21.37953,78444
21.38765,80040
21.39578,76957
21.40390,84744
21.41202,84682
21.42015,87649
21.42827,89479
21.43638,84606
21.44452,83473
21.45263,80923
21.46077,75949
21.46888,83354
21.47700,70234
21.48513,71316
21.49325,79336
21.50138,68989
21.50950,67052
21.51762,67742
21.52575,68616
21.53387,77401
21.54200,69219
21.55012,63684
21.55823,66519
21.56637,66092
21.57448,73769
21.58260,72332
21.59073,70347
21.59885,94589
21.60698,128693
21.61510,172528
21.62322,203896
21.63135,231054
21.63947,207960
21.64760,170674
21.65572,134042
21.66383,116362
21.67197,98450
21.68008,98581
21.68822,98197
21.69633,108578
21.70445,104732
21.71258,102825
21.72070,106334
21.72882,87090
21.73695,81099
21.74507,71116
21.75320,70532
21.76132,67417
21.76943,70340
21.77757,82436
21.78568,79855
21.79382,74332
21.80193,75499
21.81005,74597
21.81818,79340
21.82630,66808
21.83443,70157
21.84255,64098
21.85067,64201
21.85880,63742
21.86692,65485
21.87503,57001
21.88317,62704
21.89128,55483
21.89942,56048
21.90753,65515
21.91565,55690
21.92378,62974
21.93190,66000
21.94003,74934
21.94815,93009
21.95627,104478
21.96440,114273
21.97252,107899
21.98063,99957
21.98877,87126
21.99688,85611
22.00502,73732
22.01313,78238
22.02125,66800
22.02938,66774
22.03750,63414
22.04563,66024
22.05375,66120
22.06187,78908
22.07000,84746
22.07812,96156
22.08625,100623
22.09437,100657
22.10248,100620
22.11062,99072
22.11873,114092
22.12685,156198
22.13498,207892
22.14310,278318
22.15123,326928
22.15935,323989
22.16747,303525
22.17560,227573
22.18372,177613
22.19185,140618
22.19997,123503
22.20808,122335
22.21622,106518
22.22433,110731
22.23247,101987
22.24058,111247
22.24870,127725
22.25683,130801
22.26495,143516
22.27307,134187
22.28120,138025
22.28932,126714
22.29745,134411
22.30557,130399
22.31368,117161
22.32182,120864
22.32993,107140
22.33807,102669
22.34618,93307
22.35430,90252
22.36243,94549
22.37055,93165
22.37867,89121
22.38680,89811
22.39492,87265
22.40305,77774
22.41117,76869
22.41928,75861
22.42742,81260
22.43553,80056
22.44367,76321
22.45178,74330
22.45990,72511
22.46803,75077
22.47615,74417
22.48428,69375
22.49240,77017
22.50052,77882
22.50865,68040
22.51677,78210
22.52488,75062
22.53302,95717
22.54113,127967
22.54927,234072
22.55738,488000
22.56550,945679
22.57363,1547840
22.58175,2014069
22.58988,2116535
22.59800,1815685
22.60612,1305229
22.61425,836380
22.62237,513382
22.63050,353796
22.63862,241856
22.64673,198084
22.65487,173598
22.66298,155733
22.67110,142234
22.67923,123958
22.68735,114695
22.69548,113807
22.70360,109104
22.71172,110083
22.71985,101086
22.72797,101837
22.73610,95591
22.74422,102691
22.75233,110642
22.76047,101117
22.76858,95872
22.77670,102161
22.78483,91888
22.79295,86958
22.80108,83690
22.80920,78880
22.81732,84682
22.82545,75020
22.83357,77862
22.84170,71295
22.84982,73114
22.85793,68121
22.86607,66201
22.87418,67589
22.88232,72230
22.89043,71509
22.89855,63323
22.90668,64913
22.91480,63603
22.92292,63810
22.93105,62409
22.93917,63953
22.94730,63114
22.95542,58828
22.96353,64743
22.97167,67175
22.97978,65051
22.98792,68811
22.99603,72051
23.00415,71913
23.01228,62971
23.02040,59759
23.02853,59520
23.03665,60427
23.04477,58877
23.05290,62053
23.06102,64623
23.06913,54445
23.07727,54799
23.08538,56930
23.09352,56402
23.10163,64300
23.10975,68773
23.11788,72417
23.12600,72206
23.13413,72581
23.14225,79657
23.15037,71506
23.15850,66092
23.16662,72847
23.17475,77869
23.18287,85847
23.19098,84549
23.19912,86164
23.20723,88138
23.21535,83960
23.22348,84330
23.23160,78849
23.23973,68009
23.24785,68891
23.25597,60347
23.26410,71347
23.27222,61376
23.28035,60281
23.28847,56909
23.29658,62254
23.30472,69704
23.31283,64431
23.32095,72519
23.32908,86368
23.33720,112413
23.34533,128189
23.35345,157664
23.36157,195950
23.36970,239336
23.37782,247720
23.38595,248653
23.39407,232268
23.40218,197181
23.41032,175179
23.41843,152692
23.42657,146271
23.43468,156978
23.44280,140842
23.45093,145867
23.45905,150673
23.46717,150964
23.47530,148798
23.48342,144361
23.49155,148122
23.49967,124055
23.50778,111259
23.51592,99842
23.52403,93618
23.53217,87987
23.54028,89117
23.54840,100161
23.55653,144619
23.56465,233550
23.57278,412837
23.58090,679560
23.58902,962101
23.59715,1209509
23.60527,1268564
23.61338,1154840
23.62152,874628
23.62963,604024
23.63777,405719
23.64588,267475
23.65400,182083
23.66213,139283
23.67025,109525
23.67838,99335
23.68650,83060
23.69462,85084
23.70275,68499
23.71087,64935
23.71898,64901
23.72712,72243
23.73523,63516
23.74337,74879
23.75148,68219
23.75960,61547
23.76773,69224
23.77585,63316
23.78398,66441
23.79210,70351
23.80022,62707
23.80835,57688
23.81647,57713
23.82460,55932
23.83272,68559
23.84083,50665
23.84897,57660
23.85708,67042
23.86520,59633
23.87333,71777
23.88145,63253
23.88958,69512
23.89770,76319
23.90582,84711
23.91395,98114
23.92207,115715
23.93020,129947
23.93832,143836
23.94643,140745
23.95457,268496
23.96268,349009
23.97082,397303
23.97893,429385
23.98705,440060
23.99518,428238
24.00330,423825
24.01142,412097
24.01955,398836
24.02767,395524
24.03580,373372
24.04392,362504
24.05203,349598
24.06017,335783
24.06828,314879
24.07642,292213
24.08453,267560
24.09265,258734
24.10078,249267
24.10890,234744
24.11702,223505
24.12515,224387
24.13327,224688
24.14140,243774
24.14952,278794
24.15763,337724
24.16577,396780
24.17388,424606
24.18202,422212
24.19013,370653
24.19825,311963
24.20638,259803
24.21450,220646
24.22263,206320
24.23075,248469
24.23887,458064
24.24700,1038726
24.25512,2121762
24.26323,3606304
24.27137,4777381
24.27948,5339751
24.28762,4969700
24.29573,4123495
24.30385,3160460
24.31198,2368438
24.32010,1768318
24.32823,1311905
24.33635,1031654
24.34447,842002
24.35260,665190
24.36072,552667
24.36885,461835
24.37697,388482
24.38508,379601
24.39322,332305
24.40133,306134
24.40945,279736
24.41758,259580
24.42570,246422
24.43383,216333
24.44195,196110
24.45007,183016
24.45820,171414
24.46632,156225
24.47445,155099
24.48257,142693
24.49068,143317
24.49882,128015
24.50693,124253
24.51507,132510
24.52318,124777
24.53130,132921
24.53943,129942
24.54755,124367
24.55567,122339
24.56380,111464
24.57192,115066
24.58005,104542
24.58817,109093
24.59628,99467
24.60442,107403
24.61253,129657
24.62067,129164
24.62878,152798
24.63690,228670
24.64503,445109
24.65315,900190
24.66127,1667385
24.66940,2634216
24.67752,3510158
24.68565,3871202
24.69377,3537920
24.70188,2659663
24.71002,1788077
24.71813,1110441
24.72627,695727
24.73438,459742
24.74250,338945
24.75063,287239
24.75875,254574
24.76688,222117
24.77500,216789
24.78312,173072
24.79125,153000
24.79937,139364
24.80748,124582
24.81562,126971
24.82373,124485
24.83187,116748
24.83998,104515
24.84810,96147
24.85623,91152
24.86435,93724
24.87248,87437
24.88060,78872
24.88872,73336
24.89685,70993
24.90497,75165
24.91310,78147
24.92122,80512
24.92933,82619
24.93747,86643
24.94558,95813
24.95370,91683
24.96183,84845
24.96995,81518
24.97808,77954
24.98620,77059
24.99432,70765
25.00245,71045
25.01057,68098
25.01870,65308
25.02682,65928
25.03493,61414
25.04307,70946
25.05118,65176
25.05930,60035
25.06743,65298
25.07555,68487
25.08368,68415
25.09180,68276
25.09992,71866
25.10805,77091
25.11617,79614
25.12430,84647
25.13242,86785
25.14053,85075
25.14867,88307
25.15678,83435
25.16492,81246
25.17303,74107
25.18115,72323
25.18928,69559
25.19740,62570
25.20552,63233
25.21365,75649
25.22177,127793
25.22990,191213
25.23802,239702
25.24613,256546
25.25427,268116
25.26238,278915
25.27052,276914
25.27863,258451
25.28675,254168
25.29488,239245
25.30300,239973
25.31113,217298
25.31925,218791
25.32737,220499
25.33550,235770
25.34362,251217
25.35173,254872
25.35987,248796
25.36798,227027
25.37612,213316
25.38423,196286
25.39235,224159
25.40048,248477
25.40860,286021
25.41673,295497
25.42485,281562
25.43297,247907
25.44110,197890
25.44922,156111
25.45733,131008
25.46547,120610
25.47358,112648
25.48172,96772
25.48983,86197
25.49795,87124
25.50608,81078
25.51420,79707
25.52233,79692
25.53045,74707
25.53857,81370
25.54670,78526
25.55482,75019
25.56295,76534
25.57107,73517
25.57918,77113
25.58732,82079
25.59543,86914
25.60355,101086
25.61168,118803
25.61980,134322
25.62793,173499
25.63605,193863
25.64417,218914
25.65230,245607
25.66042,236804
25.66855,199862
25.67667,157165
25.68478,117956
25.69292,98200
25.70103,96478
25.70917,78040
25.71728,76312
25.72540,70722
25.73353,70270
25.74165,66855
25.74977,65878
25.75790,64802
25.76602,70523
25.77415,71272
25.78227,73024
25.79038,78380
25.79852,78687
25.80663,83307
25.81477,81375
25.82288,85915
25.83100,83449
25.83913,82236
25.84725,79011
25.85538,76957
25.86350,86091
25.87162,79353
25.87975,78169
25.88787,77907
25.89598,81319
25.90412,81309
25.91223,81249
25.92037,80774
25.92848,80358
25.93660,76341
25.94473,76478
25.95285,74649
25.96098,68507
25.96910,59124
25.97722,65365
25.98535,63028
25.99347,68706
26.00158,57072
26.00972,60111
26.01783,58260
26.02597,61560
26.03408,66917
26.04220,67944
26.05033,67701
26.05845,58623
26.06658,59137
26.07470,60348
26.08282,59471
26.09095,65252
26.09907,57564
26.10720,59510
26.11532,58052
26.12343,55931
26.13157,62605
26.13968,56216
26.14780,58596
26.15593,58350
26.16405,65607
26.17218,63523
26.18030,65915
26.18842,75683
26.19655,86529
26.20467,94966
26.21280,105965
26.22092,96189
26.22903,95975
26.23717,80619
26.24528,70199
26.25342,62702
26.26153,59779
26.26965,58233
26.27778,64708
26.28590,64656
26.29402,66096
26.30215,68960
26.31027,76000
26.31840,82321
26.32652,93803
26.33463,113505
26.34277,138649
26.35088,172215
26.35902,205998
26.36713,221616
26.37525,225164
26.38338,200841
26.39150,182584
26.39962,169415
26.40775,204440
26.41587,277661
26.42400,378676
26.43212,471740
26.44023,493051
26.44837,446412
26.45648,327202
26.46462,221074
26.47273,150249
26.48085,102681
26.48898,78678
26.49710,67651
26.50523,63712
26.51335,63854
26.52147,61046
26.52960,59478
26.53772,62670
26.54583,61123
26.55397,60193
26.56208,61930
26.57022,60379
26.57833,66590
26.58645,58821
26.59458,54894
26.60270,56272
26.61083,60304
26.61895,64420
26.62707,57253
26.63520,69034
26.64332,71369
26.65145,80594
26.65957,77925
26.66768,82399
26.67582,84224
26.68393,89842
26.69205,92719
26.70018,84631
26.70830,80827
26.71643,80359
26.72455,68073
26.73267,66395
26.74080,60567
26.74892,57638
26.75705,61192
26.76517,55292
26.77328,54547
26.78142,57065
26.78953,61701
26.79765,56485
26.80578,57191
26.81390,67326
26.82203,56399
26.83015,58009
26.83827,52506
26.84640,50763
26.85452,57109
26.86265,59839
26.87077,57689
26.87888,67679
26.88702,55498
26.89513,55441
26.90327,49191
26.91138,60867
26.91950,51721
26.92763,57633
26.93575,48927
26.94387,54933
26.95200,54867
26.96012,58085
26.96825,64784
26.97637,69127
26.98448,95072
26.99262,100625
27.00073,102594
27.00887,97548
27.01698,88278
27.02510,80449
27.03323,71540
27.04135,67235
27.04948,71541
27.05760,66426
27.06572,59525
27.07385,67613
27.08197,59827
27.09008,65510
27.09822,60001
27.10633,57229
27.11447,65274
27.12258,67037
27.13070,58489
27.13883,62839
27.14695,59416
27.15508,61315
27.16320,56176
27.17132,54618
27.17945,67691
27.18757,61636
27.19570,62669
27.20382,64738
27.21193,67898
27.22007,67857
27.22818,69566
27.23630,77414
27.24443,66452
27.25255,76953
27.26068,74917
27.26880,70025
27.27692,71087
27.28505,80883
27.29317,66867
27.30130,71128
27.30942,67380
27.31753,62839
27.32567,61811
27.33378,62609
27.34190,63242
27.35003,60995
27.35815,64332
27.36628,63778
27.37440,56170
27.38252,60519
27.39065,69391
27.39877,64784
27.40690,77177
27.41502,101747
27.42313,165385
27.43127,319940
27.43938,461936
27.44752,670642
27.45563,857911
27.46375,988532
27.47188,1044443
27.48000,973470
27.48812,865864
27.49625,728564
27.50437,585695
27.51250,488041
27.52062,399499
27.52873,326722
27.53687,269066
27.54498,226366
27.55312,204738
27.56123,170755
27.56935,157007
27.57748,138645
27.58560,132693
27.59373,120852
27.60185,106899
27.60997,98269
27.61810,95864
27.62622,99855
27.63433,111166
27.64247,174434
27.65058,325628
27.65872,641519
27.66683,1185772
27.67495,1843713
27.68308,2296837
27.69120,2345537
27.69933,1921536
27.70745,1399205
27.71557,877653
27.72370,531096
27.73182,322596
27.73993,225053
27.74807,165893
27.75618,142098
27.76432,122570
27.77243,113281
27.78055,104686
27.78868,98597
27.79680,93084
27.80493,84695
27.81305,86904
27.82117,85999
27.82930,85739
27.83742,79737
27.84555,81794
27.85367,80149
27.86178,75329
27.86992,76093
27.87803,74938
27.88615,74448
27.89428,71828
27.90240,69338
27.91053,71856
27.91865,70963
27.92677,69356
27.93490,68012
27.94302,69165
27.95115,71073
27.95927,65255
27.96738,67694
27.97552,64444
27.98363,62095
27.99177,66025
27.99988,71875
28.00800,67467
28.01613,69786
28.02425,68551
28.03237,74389
28.04050,60848
28.04862,56035
28.05675,59748
28.06487,67245
28.07298,55707
28.08112,63346
28.08923,66662
28.09737,57825
28.10548,62566
28.11360,69234
28.12173,74837
28.12985,81420
28.13797,81358
28.14610,95795
28.15422,81122
28.16235,89271
28.17047,77045
28.17858,78942
28.18672,64840
28.19483,56278
28.20297,59718
28.21108,61947
28.21920,60665
28.22733,59851
28.23545,61608
28.24358,61551
28.25170,60891
28.25982,63404
28.26795,73494
28.27607,100213
28.28418,150924
28.29232,220187
28.30043,299972
28.30857,349791
28.31668,355956
28.32480,310065
28.33293,232048
28.34105,153915
28.34918,105680
28.35730,84671
28.36542,72430
28.37355,64378
28.38167,73768
28.38980,64479
28.39792,64966
28.40603,70952
28.41417,61315
28.42228,63646
28.43040,62294
28.43853,71350
28.44665,63910
28.45478,63543
28.46290,64643
28.47102,71335
28.47915,70048
28.48727,66404
28.49540,69601
28.50352,75908
28.51163,73263
28.51977,67617
28.52788,71510
28.53602,72804
28.54413,67105
28.55225,63388
28.56038,61610
28.56850,66698
28.57662,67140
28.58475,71157
28.59287,73665
28.60100,75709
28.60912,98847
28.61723,118500
28.62537,173856
28.63348,233226
28.64162,301365
28.64973,325887
28.65785,302558
28.66598,265375
28.67410,198254
28.68222,149343
28.69035,118577
28.69847,104547
28.70660,108596
28.71472,119995
28.72283,139805
28.73097,159364
28.73908,188733
28.74722,206211
28.75533,222773
28.76345,226732
28.77158,238934
28.77970,256535
28.78783,268597
28.79595,309774
28.80407,349530
28.81220,394171
28.82032,408866
28.82843,396315
28.83657,346511
28.84468,298235
28.85282,234231
28.86093,200506
28.86905,174542
28.87718,149155
28.88530,150809
28.89343,136176
28.90155,127555
28.90967,117232
28.91780,114751
28.92592,100359
28.93405,100592
28.94217,100535
28.95028,90426
28.95842,92623
28.96653,95949
28.97465,91080
28.98278,83819
28.99090,86947
28.99903,79342
29.00715,77310
29.01527,76475
29.02340,83145
29.03152,75023
29.03965,77839
29.04777,71153
29.05588,69658
29.06402,74334
29.07213,78276
29.08025,86985
29.08838,84309
29.09650,83320
29.10463,84223
29.11275,88151
29.12087,70382
29.12900,68938
29.13712,69548
29.14525,71376
29.15337,67826
29.16148,69500
29.16962,79822
29.17773,81893
29.18587,80021
29.19398,90019
29.20210,91174
29.21023,75245
29.21835,73998
29.22647,72296
29.23460,72562
29.24272,68898
29.25085,67582
29.25897,74149
29.26708,69151
29.27522,75015
29.28333,67219
29.29147,74816
29.29958,63296
29.30770,65750
29.31583,65795
29.32395,60119
29.33208,69554
29.34020,65273
29.34832,59455
29.35645,53844
29.36457,64862
29.37268,58979
29.38082,57774
29.38893,56411
29.39707,54566
29.40518,56322
29.41330,60054
29.42143,56697
29.42955,61081
29.43768,54577
29.44580,58218
29.45392,57129
29.46205,52764
29.47017,62158
29.47828,60164
29.48642,58327
29.49453,63518
29.50267,64132
29.51078,65243
29.51890,62522
29.52703,60895
29.53515,62590
29.54328,57653
29.55140,58057
29.55952,60967
29.56765,56426
29.57577,55126
29.58390,57770
29.59202,57103
29.60013,56234
29.60827,57572
29.61638,58045
29.62450,65899
29.63263,62365
29.64075,61739
29.64888,56955
29.65700,56976
29.66512,64078
29.67325,61070
29.68137,59745
29.68950,61187
29.69762,72801
29.70573,62406
29.71387,65531
29.72198,58066
29.73012,65953
29.73823,57845
29.74635,64542
29.75448,66750
29.76260,56849
29.77072,61311
29.77885,60174
29.78697,71651
29.79510,61250
29.80322,59493
29.81133,61464
29.81947,56736
29.82758,57674
29.83572,57701
29.84383,59031
29.85195,55775
29.86008,55378
29.86820,56152
29.87633,54019
29.88445,65773
29.89257,57888
29.90070,56160
29.90882,53798
29.91693,52834
29.92507,60243
29.93318,59536
29.94132,58670
29.94943,60406
29.95755,74558
29.96568,63857
29.97380,59783
29.98193,65030
29.99005,58419
29.99817,57697
30.00630,58423
30.01442,58866
30.02253,60297
30.03067,65602
30.03878,66022
30.04692,70087
30.05503,78939
30.06315,131237
30.07128,187236
30.07940,213501
30.08753,240081
30.09565,256342
30.10377,264287
30.11190,257141
30.12002,253599
30.12815,249180
30.13627,255011
30.14438,239074
30.15252,235380
30.16063,226186
30.16875,216280
30.17688,202425
30.18500,199009
30.19313,192592
30.20125,183130
30.20937,172948
30.21750,164370
30.22562,161107
30.23375,149184
30.24187,155226
30.24998,146731
30.25812,141732
30.26623,138038
30.27437,133449
30.28248,127825
30.29060,117979
30.29873,120882
30.30685,119722
30.31497,134566
30.32310,130251
30.33122,142067
30.33935,159034
30.34747,162372
30.35558,169560
30.36372,177436
30.37183,176122
30.37997,189023
30.38808,186689
30.39620,200081
30.40433,231635
30.41245,319740
30.42057,439996
30.42870,599155
30.43682,723559
30.44495,724665
30.45307,618881
30.46118,436198
30.46932,304782
30.47743,218342
30.48557,166715
30.49368,142987
30.50180,132413
30.50993,122161
30.51805,125186
30.52618,122056
30.53430,108519
30.54242,105415
30.55055,102482
30.55867,102560
30.56678,107881
30.57492,99500
30.58303,102479
30.59117,98590
30.59928,96321
30.60740,92697
30.61553,90463
30.62365,92922
30.63178,84554
30.63990,91268
30.64802,86508
30.65615,88585
30.66427,83854
30.67240,85825
30.68052,82154
30.68863,78779
30.69677,78980
30.70488,77888
30.71300,74540
30.72113,76102
30.72925,73448
30.73738,74344
30.74550,68045
30.75362,67976
30.76175,72999
30.76987,71768
30.77800,70454
30.78612,73162
30.79423,68039
30.80237,71206
30.81048,73902
30.81860,73138
30.82673,72642
30.83485,72340
30.84298,70626
30.85110,74247
30.85922,70480
30.86735,67797
30.87547,68074
30.88360,67313
30.89172,65863
30.89983,76185
30.90797,74765
30.91608,66262
30.92422,72919
30.93233,64277
30.94045,65040
30.94858,64147
30.95670,69262
30.96482,65079
30.97295,76668
30.98107,64492
30.98920,66032
30.99732,71095
31.00543,68921
31.01357,64780
31.02168,63141
31.02982,61275
31.03793,61529
31.04605,65028
31.05418,63056
31.06230,60949
31.07043,59491
31.07855,58092
31.08667,61853
31.09480,62582
31.10292,70736
31.11103,60125
31.11917,63090
31.12728,61222
31.13542,60820
31.14353,63104
31.15165,58698
31.15978,61207
31.16790,59503
31.17603,60111
31.18415,67421
31.19227,60008
31.20040,59875
31.20852,64840
31.21665,61783
31.22477,63350
31.23288,63888
31.24102,62788
31.24913,59134
31.25725,59301
31.26538,60619
31.27350,60111
31.28163,67212
31.28975,62490
31.29787,65088
31.30600,75601
31.31412,113623
31.32225,207604
31.33037,383199
31.33848,655515
31.34662,951939
31.35473,1172510
31.36285,1127393
31.37098,928267
31.37910,631242
31.38723,391140
31.39535,222839
31.40347,149234
31.41160,112447
31.41972,99729
31.42785,95731
31.43597,87786
31.44408,85917
31.45222,76833
31.46033,75653
31.46847,70916
31.47658,66749
31.48470,72681
31.49283,73614
31.50095,70302
31.50907,73491
31.51720,69697
31.52532,75077
31.53345,71772
31.54157,74096
31.54968,78873
31.55782,76502
31.56593,73680
31.57407,69353
31.58218,67626
31.59030,65947
31.59843,70923
31.60655,73935
31.61468,91464
31.62280,105151
31.63092,136696
31.63905,196274
31.64717,238973
31.65528,285001
31.66342,309221
31.67153,287961
31.67967,246234
31.68778,187016
31.69590,133802
31.70403,105522
31.71215,90335
31.72028,81084
31.72840,78888
31.73652,75354
31.74465,74998
31.75277,80222
31.76090,73827
31.76902,67233
31.77713,69419
31.78527,67989
31.79338,68441
31.80150,72104
31.80963,65454
31.81775,67263
31.82588,64489
31.83400,69320
31.84212,62274
31.85025,64912
31.85837,63674
31.86650,65710
31.87462,67515
31.88273,62121
31.89087,64795
31.89898,62003
31.90710,63360
31.91523,62553
31.92335,62800
31.93148,60655
31.93960,61425
31.94772,60407
31.95585,68226
31.96397,58658
31.97210,63745
31.98022,58371
31.98833,60197
31.99647,70473
32.00458,63841
32.01272,64690
32.02083,63889
32.02895,64087
32.03708,62492
32.04520,61662
32.05332,67287
32.06145,68979
32.06957,63128
32.07770,70746
32.08582,79931
32.09393,92539
32.10207,99518
32.11018,109901
32.11832,106732
32.12643,98509
32.13455,87084
32.14268,84572
32.15080,73173
32.15893,68748
32.16705,69427
32.17517,65922
32.18330,69326
32.19142,66733
32.19953,73534
32.20767,71451
32.21578,65390
32.22392,63689
32.23203,65991
32.24015,67617
32.24828,70789
32.25640,88949
32.26453,88389
32.27265,99100
32.28077,107580
32.28890,113179
32.29702,119409
32.30513,122171
32.31327,120955
32.32138,124350
32.32952,109495
32.33763,113925
32.34575,110728
32.35388,110651
32.36200,105746
32.37013,96536
32.37825,102488
32.38637,107744
32.39450,106834
32.40262,118328
32.41075,122186
32.41887,132249
32.42698,129181
32.43512,133747
32.44323,139097
32.45135,113913
32.45948,106362
32.46760,96673
32.47573,84109
32.48385,85940
32.49197,77952
32.50010,74604
32.50822,71651
32.51635,69645
32.52447,65302
32.53258,68138
32.54072,69503
32.54883,66337
32.55697,66956
32.56508,68347
32.57320,65728
32.58133,64898
32.58945,62022
32.59757,64285
32.60570,64373
32.61382,63120
32.62195,69215
32.63007,66696
32.63818,67361
32.64632,64256
32.65443,62222
32.66257,61462
32.67068,63436
32.67880,60042
32.68693,66568
32.69505,67837
32.70318,67588
32.71130,67554
32.71942,62780
32.72755,63368
32.73567,63841
32.74378,65561
32.75192,66811
32.76003,72021
32.76817,69491
32.77628,67955
32.78440,76122
32.79253,68732
32.80065,66877
32.80878,70832
32.81690,66444
32.82502,68848
32.83315,68717
32.84127,64542
32.84938,62589
32.85752,65368
32.86563,61594
32.87377,65119
32.88188,63886
32.89000,64025
32.89813,72012
32.90625,63540
32.91438,64837
32.92250,64455
32.93062,74287
32.93875,67629
32.94687,66358
32.95500,72879
32.96312,72501
32.97123,70611
32.97937,71205
32.98748,73434
32.99560,76216
33.00373,79911
33.01185,73792
33.01998,72952
33.02810,70135
33.03622,58896
33.04435,72020
33.05247,59993
33.06060,65107
33.06872,64136
33.07683,61650
33.08497,63286
33.09308,62817
33.10122,63723
33.10933,66893
33.11745,64520
33.12558,65598
33.13370,62948
33.14182,65945
33.14995,63143
33.15807,66661
33.16620,63200
33.17432,63909
33.18243,62563
33.19057,71326
33.19868,65866
33.20682,70767
33.21493,70631
33.22305,64962
33.23118,80680
33.23930,73805
33.24742,73934
33.25555,68893
33.26367,69806
33.27180,77030
33.27992,68081
33.28803,64078
33.29617,66206
33.30428,62878
33.31242,62831
33.32053,61548
33.32865,67050
33.33678,62744
33.34490,63721
33.35303,59633
33.36115,62113
33.36927,59863
33.37740,61145
33.38552,66329
33.39363,64213
33.40177,62315
33.40988,63094
33.41802,67245
33.42613,63201
33.43425,73712
33.44238,62445
33.45050,61968
33.45863,58533
33.46675,77400
33.47487,62587
33.48300,66971
33.49112,71713
33.49925,75729
33.50737,67723
33.51548,72149
33.52362,75899
33.53173,71787
33.53985,73366
33.54798,72127
33.55610,65237
33.56423,68664
33.57235,71734
33.58047,67792
33.58860,70824
33.59672,82592
33.60485,74780
33.61297,82416
33.62108,87105
33.62922,88381
33.63733,96693
33.64545,114273
33.65358,125748
33.66170,135786
33.66983,130868
33.67795,120011
33.68607,96424
33.69420,94464
33.70232,81672
33.71045,70379
33.71857,75085
33.72668,78355
33.73482,71338
33.74293,66515
33.75107,70415
33.75918,72316
33.76730,76260
33.77543,76181
33.78355,71539
33.79167,71417
33.79980,65790
33.80792,75492
33.81605,79368
33.82417,72708
33.83228,71485
33.84042,74655
33.84853,70514
33.85667,77762
33.86478,74866
33.87290,72987
33.88103,65415
33.88915,68020
33.89728,67085
33.90540,67355
33.91352,72593
33.92165,69123
33.92977,72566
33.93788,68186
33.94602,63875
33.95413,66168
33.96227,65525
33.97038,69738
33.97850,69846
33.98663,68628
33.99475,65579
34.00288,70697
34.01100,64827
34.01912,66298
34.02725,70915
34.03537,68324
34.04350,68168
34.05162,69792
34.05973,69200
34.06787,67412
34.07598,64654
34.08410,64448
34.09223,66862
34.10035,67031
34.10848,64631
34.11660,68040
34.12472,68372
34.13285,69423
34.14097,65301
34.14910,70039
34.15722,70594
34.16533,70586
34.17347,69949
34.18158,67717
34.18970,69805
34.19783,70570
34.20595,74665
34.21408,74612
34.22220,75872
34.23032,75525
34.23845,74744
34.24657,79693
34.25470,80625
34.26282,73044
34.27093,73302
34.27907,67783
34.28718,64255
34.29532,67396
34.30343,73221
34.31155,66605
34.31968,64449
34.32780,66411
34.33592,75584
34.34405,65081
34.35217,64770
34.36030,67456
34.36842,69070
34.37653,68259
34.38467,76851
34.39278,72186
34.40092,75615
34.40903,76442
34.41715,80199
34.42528,80649
34.43340,75787
34.44153,77811
34.44965,72878
34.45777,73770
34.46590,71250
34.47402,71088
34.48213,67023
34.49027,64747
34.49838,64068
34.50652,63979
34.51463,66911
34.52275,75749
34.53088,63693
34.53900,74762
34.54713,69367
34.55525,73096
34.56337,73457
34.57150,79377
34.57962,78416
34.58773,76991
34.59587,86183
34.60398,84302
34.61212,72874
34.62023,73422
34.62835,74551
34.63648,73774
34.64460,72293
34.65273,73442
34.66085,71968
34.66897,74488
34.67710,74588
34.68522,79920
34.69335,85032
34.70147,86888
34.70958,88774
34.71772,98225
34.72583,81236
34.73395,74660
34.74208,77361
34.75020,71689
34.75833,73235
34.76645,66376
34.77457,72237
34.78270,64560
34.79082,69858
34.79895,68530
34.80707,69075
34.81518,69658
34.82332,68457
34.83143,77628
34.83957,70395
34.84768,79938
34.85580,83733
34.86393,96872
34.87205,101537
34.88017,119575
34.88830,127493
34.89642,133389
34.90455,133019
34.91267,124176
34.92078,115849
34.92892,113300
34.93703,99599
34.94517,92055
34.95328,87527
34.96140,89507
34.96953,82847
34.97765,83513
34.98577,89775
34.99390,80084
35.00202,80364
35.01015,85145
35.01827,78781
35.02638,79871
35.03452,80188
35.04263,78548
35.05077,73369
35.05888,83745
35.06700,74526
35.07513,72141
35.08325,74367
35.09138,85005
35.09950,82798
35.10762,74015
35.11575,71734
35.12387,72726
35.13198,74129
35.14012,75173
35.14823,73360
35.15637,69409
35.16448,73034
35.17260,69310
35.18073,76044
35.18885,71259
35.19698,75028
35.20510,72921
35.21322,71261
35.22135,73472
35.22947,74472
35.23760,67697
35.24572,71124
35.25383,69339
35.26197,69107
35.27008,73692
35.27820,75645
35.28633,72359
35.29445,76475
35.30258,75414
35.31070,75389
35.31882,72650
35.32695,77463
35.33507,75575
35.34320,78916
35.35132,78854
35.35943,82966
35.36757,80721
35.37568,93397
35.38382,86432
35.39193,92755
35.40005,84293
35.40818,81841
35.41630,74357
35.42442,79915
35.43255,83667
35.44067,76269
35.44880,78257
35.45692,73318
35.46503,81187
35.47317,82028
35.48128,81806
35.48942,92369
35.49753,85567
35.50565,90209
35.51378,88163
35.52190,86191
35.53002,84866
35.53815,84737
35.54627,83252
35.55440,84399
35.56252,81337
35.57063,84268
35.57877,80963
35.58688,90310
35.59502,82121
35.60313,83576
35.61125,84151
35.61938,85118
35.62750,84069
35.63563,87694
35.64375,85479
35.65187,84915
35.66000,85729
35.66812,91187
35.67623,85791
35.68437,85914
35.69248,85579
35.70062,83705
35.70873,89058
35.71685,84929
35.72498,84248
35.73310,81167
35.74123,88333
35.74935,84583
35.75747,79484
35.76560,76165
35.77372,80135
35.78185,80651
35.78997,76974
35.79808,90900
35.80622,84138
35.81433,83929
35.82245,85157
35.83058,77434
35.83870,74657
35.84683,79760
35.85495,80982
35.86307,79163
35.87120,75918
35.87932,73986
35.88745,76535
35.89557,78507
35.90368,75597
35.91182,78944
35.91993,83240
35.92805,76175
35.93618,75209
35.94430,76130
35.95243,81126
35.96055,77549
35.96867,94306
35.97680,82234
35.98492,86890
35.99305,100713
36.00117,94268
36.00928,87131
36.01742,86382
36.02553,87308
36.03367,87397
36.04178,86677
36.04990,83055
36.05803,89120
36.06615,84615
36.07427,82200
36.08240,84406
36.09052,80174
36.09865,81025
36.10677,84548
36.11488,80723
36.12302,82313
36.13113,83233
36.13927,85182
36.14738,83579
36.15550,80144
36.16363,80874
36.17175,78098
36.17988,82019
36.18800,75391
36.19612,83091
36.20425,84686
36.21237,78120
36.22048,80284
36.22862,78944
36.23673,83252
36.24487,83830
36.25298,89357
36.26110,87617
36.26923,85379
36.27735,97813
36.28548,93036
36.29360,84392
36.30172,81440
36.30985,91907
36.31797,83572
36.32608,82405
36.33422,83777
36.34233,81244
36.35047,87233
36.35858,83150
36.36670,80615
36.37483,83068
36.38295,82330
36.39108,81621
36.39920,84559
36.40732,82910
36.41545,84685
36.42357,80130
36.43170,84621
36.43982,80213
36.44793,88192
36.45607,85726
36.46418,82824
36.47230,82583
36.48043,87997
36.48855,83127
36.49668,85469
36.50480,86371
36.51292,92738
36.52105,90541
36.52917,83890
36.53730,90943
36.54542,82345
36.55353,95624
36.56167,89832
36.56978,94852
36.57792,92714
36.58603,92813
36.59415,98475
36.60228,98535
36.61040,97310
36.61852,96621
36.62665,99675
36.63477,94991
36.64290,101875
36.65102,123219
36.65913,153638
36.66727,196476
36.67538,253421
36.68352,289566
36.69163,307285
36.69975,264065
36.70788,218116
36.71600,159292
36.72413,131047
36.73225,101749
36.74037,97995
36.74850,94481
36.75662,99800
36.76473,91641
36.77287,92838
36.78098,91359
36.78912,86228
36.79723,93936
36.80535,88760
36.81348,90088
36.82160,90871
36.82973,89059
36.83785,91349
36.84597,85260
36.85410,89659
36.86222,88231
36.87033,102534
36.87847,92550
36.88658,82431
36.89472,90159
36.90283,95276
36.91095,88889
36.91908,92977
36.92720,91289
36.93533,95386
36.94345,93241
36.95157,94222
36.95970,100253
36.96782,114247
36.97595,124251
36.98407,134900
36.99218,144682
37.00032,137228
37.00843,126329
37.01655,111365
37.02468,103417
37.03280,99332
37.04093,91863
37.04905,91666
37.05717,90330
37.06530,96770
37.07342,93956
37.08155,100592
37.08967,90704
37.09778,88961
37.10592,97173
37.11403,90630
37.12217,96201
37.13028,101083
37.13840,96685
37.14653,103102
37.15465,104578
37.16277,102557
37.17090,98380
37.17902,98058
37.18715,95839
37.19527,95093
37.20338,93030
37.21152,92042
37.21963,93810
37.22777,100216
37.23588,88720
37.24400,93170
37.25213,91682
37.26025,91207
37.26837,96110
37.27650,95953
37.28462,92915
37.29275,93024
37.30087,94027
37.30898,95070
37.31712,99879
37.32523,94034
37.33337,93482
37.34148,100749
37.34960,93235
37.35773,101283
37.36585,99201
37.37398,94664
37.38210,97103
37.39022,96385
37.39835,92241
37.40647,97840
37.41458,97858
37.42272,103201
37.43083,100310
37.43897,95062
37.44708,97091
37.45520,100961
37.46333,99212
37.47145,105223
37.47958,108116
37.48770,128329
