C:\MassHunter\GCMS\1\data\JTB-E18\JTB-E18-031-05.D Thu Oct 03 10:43:55 2019
Start of data points
2.09537	141099
2.10350	135778
2.11162	132630
2.11973	136326
2.12787	122660
2.13598	127378
2.14412	131715
2.15223	128053
2.16035	121110
2.16848	111114
2.17660	115631
2.18473	114543
2.19285	110952
2.20097	107261
2.20910	106208
2.21722	103361
2.22535	100672
2.23347	93653
2.24158	99132
2.24972	101888
2.25783	96955
2.26595	113183
2.27408	402075
2.28220	1320626
2.29033	1379025
2.29845	742752
2.30657	481716
2.31470	386982
2.32282	356931
2.33095	321542
2.33907	296529
2.34718	269866
2.35532	226457
2.36343	210123
2.37155	199888
2.37968	206001
2.38780	228283
2.39593	221246
2.40405	194382
2.41217	186816
2.42030	183638
2.42842	187672
2.43655	179253
2.44467	174827
2.45278	183712
2.46092	176654
2.46903	165843
2.47717	154179
2.48528	141016
2.49340	150265
2.50153	159464
2.50965	144582
2.51777	136756
2.52590	145243
2.53402	131265
2.54215	129840
2.55027	144258
2.55838	157891
2.56652	161308
2.57463	152639
2.58277	139091
2.59088	138577
2.59900	133652
2.60713	175768
2.61525	394139
2.62338	523357
2.63150	374849
2.63962	247783
2.64775	208466
2.65587	185345
2.66398	170039
2.67212	163133
2.68023	174187
2.68837	179376
2.69648	153411
2.70460	139958
2.71273	134322
2.72085	130204
2.72898	127182
2.73710	124559
2.74522	122230
2.75335	123786
2.76147	120216
2.76958	110906
2.77772	121640
2.78583	130809
2.79397	150171
2.80208	141238
2.81020	137449
2.81833	133254
2.82645	176385
2.83458	329160
2.84270	450713
2.85082	314467
2.85895	206676
2.86707	188212
2.87520	187711
2.88332	155925
2.89143	142382
2.89957	136130
2.90768	127097
2.91580	128717
2.92393	122006
2.93205	118669
2.94018	115490
2.94830	112652
2.95642	111871
2.96455	106587
2.97267	114187
2.98080	114004
2.98892	111357
2.99703	112480
3.00517	119955
3.01328	123411
3.02142	139498
3.02953	185990
3.03765	367736
3.04578	584253
3.05390	960248
3.06202	2867916
3.07015	5254216
3.07827	4496696
3.08640	2434497
3.09452	1744469
3.10263	1951522
3.11077	2408453
3.11888	2906966
3.12702	2334964
3.13513	1543970
3.14325	1096678
3.15138	889880
3.15950	725800
3.16762	631136
3.17575	564953
3.18387	538642
3.19200	584951
3.20012	812825
3.20823	877242
3.21637	676925
3.22448	533352
3.23262	463020
3.24073	412870
3.24885	366289
3.25698	330068
3.26510	294862
3.27323	276503
3.28135	307250
3.28947	785608
3.29760	3609237
3.30572	1.130882E+07
3.31383	1.920944E+07
3.32197	1.955201E+07
3.33008	1.433984E+07
3.33822	9111504
3.34633	6246226
3.35445	4773553
3.36258	3851336
3.37070	3211694
3.37883	2853100
3.38695	2754265
3.39507	2561816
3.40320	2301862
3.41132	2298881
3.41943	2991856
3.42757	3603567
3.43568	3153277
3.44382	2261001
3.45193	1717033
3.46005	1449178
3.46818	1259116
3.47630	1113734
3.48443	1020116
3.49255	922815
3.50067	837285
3.50880	766958
3.51692	723630
3.52505	671580
3.53317	659795
3.54128	653967
3.54942	652137
3.55753	632790
3.56565	630359
3.57378	668519
3.58190	756059
3.59003	806539
3.59815	728855
3.60627	660354
3.61440	629099
3.62252	663624
3.63065	878166
3.63877	1379986
3.64688	1779361
3.65502	1562186
3.66313	1086168
3.67127	953102
3.67938	1600809
3.68750	2754921
3.69563	2867023
3.70375	1959049
3.71187	1255649
3.72000	970844
3.72812	843336
3.73625	747281
3.74437	693253
3.75248	657628
3.76062	619364
3.76873	593904
3.77687	600283
3.78498	596979
3.79310	597235
3.80123	581962
3.80935	597717
3.81747	791567
3.82560	1037221
3.83372	996478
3.84185	772043
3.84997	603552
3.85808	533637
3.86622	483932
3.87433	444457
3.88247	440561
3.89058	424384
3.89870	400778
3.90683	392552
3.91495	382435
3.92308	408081
3.93120	470798
3.93932	502948
3.94745	521467
3.95557	602287
3.96368	1115416
3.97182	2030103
3.97993	2382738
3.98807	1817234
3.99618	1235465
4.00430	1632480
4.01243	4311557
4.02055	8512610
4.02868	9898845
4.03680	7114419
4.04492	3821477
4.05305	2161993
4.06117	1497238
4.06930	1166545
4.07742	953596
4.08553	832679
4.09367	726235
4.10178	651856
4.10990	586693
4.11803	545396
4.12615	511659
4.13428	489390
4.14240	467028
4.15052	469844
4.15865	485159
4.16677	476932
4.17490	435443
4.18302	405565
4.19113	374913
4.19927	348906
4.20738	338965
4.21550	424183
4.22363	1155547
4.23175	3759096
4.23988	7918745
4.24800	1.079496E+07
4.25612	9866449
4.26425	6654382
4.27237	4199430
4.28050	2931435
4.28862	2230897
4.29673	1761717
4.30487	1435753
4.31298	1200085
4.32112	1060173
4.32923	933780
4.33735	854888
4.34548	810393
4.35360	746250
4.36172	713612
4.36985	675468
4.37797	645127
4.38610	586680
4.39422	543697
4.40233	492975
4.41047	453744
4.41858	424486
4.42672	392315
4.43483	386463
4.44295	369642
4.45108	368327
4.45920	367850
4.46732	367580
4.47545	376974
4.48357	375281
4.49170	358080
4.49982	362650
4.50793	354714
4.51607	342135
4.52418	330431
4.53232	326146
4.54043	314311
4.54855	311743
4.55668	302799
4.56480	303637
4.57293	286877
4.58105	284115
4.58917	274103
4.59730	276927
4.60542	264718
4.61353	259003
4.62167	262700
4.62978	270020
4.63792	331013
4.64603	404220
4.65415	452292
4.66228	422415
4.67040	362136
4.67853	311651
4.68665	286148
4.69477	273825
4.70290	264815
4.71102	256068
4.71915	248704
4.72727	241164
4.73538	232550
4.74352	231136
4.75163	219840
4.75975	220072
4.76788	217940
4.77600	218973
4.78413	211441
4.79225	211593
4.80037	228899
4.80850	262361
4.81662	303592
4.82475	311553
4.83287	288409
4.84098	255303
4.84912	252839
4.85723	246684
4.86535	252525
4.87348	250913
4.88160	241706
4.88973	235149
4.89785	233715
4.90597	213717
4.91410	222985
4.92222	306419
4.93035	708216
4.93847	2170677
4.94658	5557053
4.95472	1.008003E+07
4.96283	1.260563E+07
4.97097	1.158302E+07
4.97908	8478410
4.98720	5598149
4.99533	3666753
5.00345	2700064
5.01157	2108237
5.01970	1722468
5.02782	1471838
5.03595	1327531
5.04407	1336940
5.05218	1373893
5.06032	1288936
5.06843	1087868
5.07657	911343
5.08468	797254
5.09280	732014
5.10093	692359
5.10905	682025
5.11718	705263
5.12530	709688
5.13342	704122
5.14155	688862
5.14967	615256
5.15778	565390
5.16592	521458
5.17403	524921
5.18217	530759
5.19028	554854
5.19840	551629
5.20653	555438
5.21465	537744
5.22278	492680
5.23090	459915
5.23902	439194
5.24715	440507
5.25527	439753
5.26338	426953
5.27152	416312
5.27963	356584
5.28777	350153
5.29588	350346
5.30400	341242
5.31213	330700
5.32025	318431
5.32838	309750
5.33650	302529
5.34462	306907
5.35275	310308
5.36087	306850
5.36900	296143
5.37712	292804
5.38523	281122
5.39337	279686
5.40148	276524
5.40960	270157
5.41773	260062
5.42585	261292
5.43398	256240
5.44210	263484
5.45022	244308
5.45835	249896
5.46647	253399
5.47460	251346
5.48272	241351
5.49083	245415
5.49897	244928
5.50708	232758
5.51522	233588
5.52333	238633
5.53145	238053
5.53958	225178
5.54770	229426
5.55582	224845
5.56395	223529
5.57207	224231
5.58020	229203
5.58832	235962
5.59643	239578
5.60457	231602
5.61268	236585
5.62082	224927
5.62893	231556
5.63705	246125
5.64518	262476
5.65330	261778
5.66142	259451
5.66955	240474
5.67767	241157
5.68580	240875
5.69392	255217
5.70203	281525
5.71017	301853
5.71828	296711
5.72642	282998
5.73453	288424
5.74265	282746
5.75078	268394
5.75890	266816
5.76703	256639
5.77515	261456
5.78327	266769
5.79140	265003
5.79952	250512
5.80763	251693
5.81577	287243
5.82388	398454
5.83202	626206
5.84013	880851
5.84825	1027572
5.85638	971141
5.86450	769957
5.87263	554063
5.88075	417009
5.88887	333555
5.89700	287932
5.90512	259368
5.91323	244027
5.92137	267035
5.92948	334445
5.93762	429441
5.94573	494632
5.95385	490643
5.96198	423324
5.97010	352421
5.97823	309787
5.98635	307465
5.99447	309866
6.00260	323626
6.01072	292212
6.01885	259253
6.02697	230696
6.03508	204837
6.04322	189857
6.05133	182981
6.05945	169492
6.06758	163212
6.07570	167077
6.08383	158734
6.09195	153400
6.10007	150294
6.10820	143693
6.11632	144834
6.12445	148523
6.13257	158480
6.14068	188195
6.14882	252211
6.15693	314329
6.16507	333337
6.17318	288529
6.18130	235826
6.18943	203136
6.19755	203129
6.20567	201146
6.21380	205935
6.22192	205331
6.23005	205835
6.23817	190934
6.24628	186705
6.25442	173990
6.26253	179781
6.27067	178073
6.27878	186435
6.28690	193590
6.29503	185143
6.30315	179823
6.31127	178251
6.31940	188876
6.32752	190990
6.33565	201377
6.34377	206872
6.35188	232349
6.36002	220104
6.36813	227851
6.37627	221300
6.38438	214101
6.39250	218363
6.40063	218190
6.40875	209727
6.41688	205104
6.42500	207337
6.43312	211979
6.44125	215161
6.44937	220686
6.45748	215073
6.46562	219788
6.47373	214348
6.48187	226103
6.48998	229426
6.49810	231157
6.50623	232441
6.51435	246598
6.52248	243289
6.53060	231161
6.53872	240553
6.54685	246261
6.55497	245622
6.56310	250119
6.57122	244874
6.57933	247387
6.58747	254797
6.59558	261022
6.60370	262145
6.61183	259732
6.61995	257417
6.62808	250610
6.63620	248518
6.64432	238291
6.65245	249529
6.66057	254863
6.66870	273495
6.67682	283140
6.68493	303623
6.69307	335129
6.70118	339245
6.70930	366926
6.71743	308845
6.72555	270860
6.73368	223662
6.74180	189966
6.74992	165703
6.75805	153769
6.76617	146308
6.77430	138755
6.78242	135724
6.79053	143477
6.79867	149741
6.80678	188671
6.81492	273771
6.82303	417277
6.83115	570667
6.83928	686757
6.84740	662216
6.85552	530669
6.86365	390622
6.87177	310437
6.87990	267968
6.88802	246472
6.89613	195656
6.90427	157889
6.91238	130102
6.92052	119803
6.92863	114575
6.93675	109120
6.94488	105830
6.95300	119155
6.96112	139646
6.96925	191552
6.97737	249821
6.98550	290695
6.99362	297662
7.00173	269820
7.00987	218853
7.01798	170618
7.02612	139014
7.03423	117454
7.04235	111486
7.05048	101730
7.05860	95413
7.06673	97691
7.07485	98313
7.08297	98388
7.09110	96299
7.09922	93437
7.10733	90349
7.11547	86591
7.12358	81892
7.13172	85240
7.13983	84189
7.14795	87883
7.15608	95325
7.16420	114889
7.17233	124517
7.18045	131242
7.18857	129070
7.19670	131108
7.20482	153905
7.21295	250924
7.22107	462891
7.22918	790854
7.23732	952118
7.24543	881693
7.25355	653503
7.26168	428198
7.26980	295216
7.27793	216382
7.28605	176439
7.29417	153866
7.30230	128771
7.31042	123197
7.31855	119436
7.32667	126807
7.33478	151430
7.34292	179487
7.35103	214334
7.35917	229172
7.36728	230324
7.37540	196348
7.38353	163225
7.39165	140490
7.39977	127593
7.40790	116832
7.41602	115512
7.42415	117580
7.43227	122465
7.44038	125531
7.44852	142752
7.45663	158640
7.46477	167379
7.47288	167297
7.48100	150300
7.48913	137757
7.49725	112839
7.50537	106617
7.51350	95386
7.52162	84969
7.52975	92625
7.53787	90959
7.54598	98738
7.55412	107869
7.56223	119915
7.57037	139489
7.57848	138516
7.58660	142506
7.59473	132767
7.60285	119311
7.61098	102502
7.61910	91550
7.62722	88795
7.63535	87452
7.64347	85566
7.65158	85806
7.65972	83246
7.66783	80289
7.67597	77004
7.68408	76879
7.69220	74104
7.70033	76004
7.70845	74547
7.71658	77353
7.72470	78767
7.73282	79039
7.74095	82187
7.74907	77737
7.75718	73264
7.76532	74844
7.77343	78843
7.78157	80233
7.78968	75762
7.79780	77090
7.80593	75738
7.81405	74608
7.82218	77213
7.83030	73586
7.83842	76280
7.84655	71973
7.85467	73754
7.86280	68920
7.87092	73946
7.87903	73039
7.88717	74708
7.89528	73778
7.90340	69529
7.91153	69068
7.91965	70481
7.92778	72434
7.93590	75923
7.94402	85654
7.95215	92945
7.96027	99257
7.96840	95490
7.97652	95956
7.98463	89940
7.99277	84144
8.00088	78369
8.00902	70188
8.01713	75878
8.02525	71543
8.03338	69896
8.04150	70611
8.04962	71201
8.05775	71670
8.06587	64606
8.07400	64266
8.08212	65793
8.09023	66084
8.09837	66953
8.10648	67141
8.11462	66768
8.12273	66746
8.13085	65430
8.13898	66885
8.14710	68600
8.15522	78782
8.16335	85295
8.17147	86044
8.17960	77040
8.18772	72986
8.19583	66075
8.20397	64954
8.21208	64267
8.22022	63209
8.22833	66744
8.23645	66370
8.24458	65996
8.25270	63297
8.26083	56813
8.26895	62850
8.27707	65189
8.28520	60121
8.29332	59562
8.30143	56440
8.30957	61938
8.31768	69800
8.32582	76279
8.33393	87118
8.34205	84058
8.35018	87923
8.35830	84507
8.36643	69253
8.37455	64799
8.38267	63134
8.39080	59347
8.39892	58998
8.40705	55393
8.41517	55270
8.42328	61176
8.43142	60856
8.43953	57124
8.44765	55946
8.45578	59579
8.46390	60809
8.47203	59359
8.48015	60916
8.48827	56440
8.49640	58616
8.50452	59253
8.51265	60198
8.52077	61212
8.52888	72279
8.53702	87303
8.54513	118587
8.55325	148051
8.56138	149700
8.56950	128612
8.57763	99230
8.58575	79803
8.59387	71881
8.60200	61812
8.61012	65391
8.61825	63200
8.62637	62863
8.63448	63994
8.64262	64939
8.65073	56438
8.65887	60246
8.66698	61685
8.67510	53890
8.68323	54009
8.69135	60090
8.69947	63123
8.70760	65600
8.71572	73214
8.72385	110803
8.73197	224009
8.74008	584254
8.74822	1353368
8.75633	2529746
8.76447	3625662
8.77258	3738238
8.78070	2983736
8.78883	1875255
8.79695	1074462
8.80507	626389
8.81320	434472
8.82132	348030
8.82945	340850
8.83757	328799
8.84568	303611
8.85382	271086
8.86193	239312
8.87007	213798
8.87818	193654
8.88630	176441
8.89443	178735
8.90255	164960
8.91068	149829
8.91880	141233
8.92692	136749
8.93505	133067
8.94317	136430
8.95128	137110
8.95942	136493
8.96753	126321
8.97567	125899
8.98378	112893
8.99190	110484
9.00003	112443
9.00815	110627
9.01628	109476
9.02440	103722
9.03252	102103
9.04065	96455
9.04877	96825
9.05690	95083
9.06502	91055
9.07313	88660
9.08127	96850
9.08938	91064
9.09750	92761
9.10563	85625
9.11375	90466
9.12188	91278
9.13000	101646
9.13812	100369
9.14625	92419
9.15437	94666
9.16250	84352
9.17062	90523
9.17873	80465
9.18687	81994
9.19498	77428
9.20310	79047
9.21123	77468
9.21935	80317
9.22748	81991
9.23560	77186
9.24372	74117
9.25185	75441
9.25997	77461
9.26810	81895
9.27622	81237
9.28433	86351
9.29247	94602
9.30058	94727
9.30872	90693
9.31683	85635
9.32495	78957
9.33308	77502
9.34120	77011
9.34932	81310
9.35745	81102
9.36557	83669
9.37370	77365
9.38182	72832
9.38993	69832
9.39807	66988
9.40618	68734
9.41432	69245
9.42243	74351
9.43055	75297
9.43868	81049
9.44680	83677
9.45493	85461
9.46305	78465
9.47117	71278
9.47930	72703
9.48742	66395
9.49553	64555
9.50367	66924
9.51178	68064
9.51992	67918
9.52803	72676
9.53615	74856
9.54428	78864
9.55240	73200
9.56053	63110
9.56865	58825
9.57677	61173
9.58490	53990
9.59302	63890
9.60113	72495
9.60927	69414
9.61738	62437
9.62552	63208
9.63363	61272
9.64175	61581
9.64988	63349
9.65800	62376
9.66613	64799
9.67425	63488
9.68237	52456
9.69050	45090
9.69862	48636
9.70675	53549
9.71487	52475
9.72298	48273
9.73112	49306
9.73923	47718
9.74735	44343
9.75548	46654
9.76360	44553
9.77173	43226
9.77985	48194
9.78797	49071
9.79610	43815
9.80422	42528
9.81235	44850
9.82047	45928
9.82858	45154
9.83672	41113
9.84483	45246
9.85295	46450
9.86108	49597
9.86920	49089
9.87733	55011
9.88545	51324
9.89357	50855
9.90170	49124
9.90982	47186
9.91795	48600
9.92607	48635
9.93418	53626
9.94232	62482
9.95043	84027
9.95857	117831
9.96668	142297
9.97480	147770
9.98293	134783
9.99105	112432
9.99917	95657
10.00730	83149
10.01542	68707
10.02355	56905
10.03167	59785
10.03978	53519
10.04792	53036
10.05603	54292
10.06417	56152
10.07228	52426
10.08040	56199
10.08853	52054
10.09665	55990
10.10478	50479
10.11290	53433
10.12102	49941
10.12915	50293
10.13727	49893
10.14538	49593
10.15352	47584
10.16163	48372
10.16977	48546
10.17788	49928
10.18600	50974
10.19413	46514
10.20225	43983
10.21038	46303
10.21850	48114
10.22662	50175
10.23475	54669
10.24287	56003
10.25098	54699
10.25912	63659
10.26723	82252
10.27537	119294
10.28348	235962
10.29160	418537
10.29973	687166
10.30785	1025484
10.31598	1468801
10.32410	2177293
10.33222	3082128
10.34035	3627403
10.34847	3490738
10.35660	2609031
10.36472	1648938
10.37283	909669
10.38097	558702
10.38908	393975
10.39720	296916
10.40533	239015
10.41345	194383
10.42158	166967
10.42970	142131
10.43782	132214
10.44595	117148
10.45407	115835
10.46220	107190
10.47032	100709
10.47843	98215
10.48657	95324
10.49468	88184
10.50282	89677
10.51093	86293
10.51905	90102
10.52718	84831
10.53530	81379
10.54342	84377
10.55155	75747
10.55967	80207
10.56780	74769
10.57592	75485
10.58403	72216
10.59217	73833
10.60028	69889
10.60842	64904
10.61653	65399
10.62465	68652
10.63278	62808
10.64090	68018
10.64902	66466
10.65715	62040
10.66527	61140
10.67340	62960
10.68152	60258
10.68963	60704
10.69777	68422
10.70588	66052
10.71402	66649
10.72213	62001
10.73025	63107
10.73838	66999
10.74650	64375
10.75463	63177
10.76275	62819
10.77087	66525
10.77900	61652
10.78712	60380
10.79523	58732
10.80337	52828
10.81148	56143
10.81962	53752
10.82773	57989
10.83585	60731
10.84398	53073
10.85210	52419
10.86023	49832
10.86835	54943
10.87647	52927
10.88460	51045
10.89272	51122
10.90085	53096
10.90897	49593
10.91708	51621
10.92522	47303
10.93333	47234
10.94145	42905
10.94958	50536
10.95770	50376
10.96583	53428
10.97395	49827
10.98207	56109
10.99020	53784
10.99832	53181
11.00645	53883
11.01457	48391
11.02268	47677
11.03082	49712
11.03893	45213
11.04705	45145
11.05518	44439
11.06330	49609
11.07143	47973
11.07955	48913
11.08767	46757
11.09580	47888
11.10392	50163
11.11205	49917
11.12017	49061
11.12828	51117
11.13642	52080
11.14453	54029
11.15267	52876
11.16078	57372
11.16890	54683
11.17703	55477
11.18515	50656
11.19327	53900
11.20140	49118
11.20952	50561
11.21765	52471
11.22577	48296
11.23388	49594
11.24202	45059
11.25013	47629
11.25827	49552
11.26638	55442
11.27450	66022
11.28263	69307
11.29075	84862
11.29887	101769
11.30700	103950
11.31512	110344
11.32325	113447
11.33137	116947
11.33948	130194
11.34762	141847
11.35573	154037
11.36387	147145
11.37198	131297
11.38010	110698
11.38823	96011
11.39635	83783
11.40448	77019
11.41260	72882
11.42072	67164
11.42885	59329
11.43697	61438
11.44508	60359
11.45322	56789
11.46133	51699
11.46947	50134
11.47758	56387
11.48570	58072
11.49383	67162
11.50195	76577
11.51008	75857
11.51820	74590
11.52632	77381
11.53445	76476
11.54257	72354
11.55070	73444
11.55882	68359
11.56693	63911
11.57507	56364
11.58318	56983
11.59130	56456
11.59943	62105
11.60755	63064
11.61568	70515
11.62380	78853
11.63192	82387
11.64005	74870
11.64817	66726
11.65630	58169
11.66442	54002
11.67253	53715
11.68067	52958
11.68878	58534
11.69690	62839
11.70503	70166
11.71315	76928
11.72128	76332
11.72940	80495
11.73752	84828
11.74565	75448
11.75377	71576
11.76190	67638
11.77002	61418
11.77813	62813
11.78627	55988
11.79438	58671
11.80252	51270
11.81063	48843
11.81875	52843
11.82688	48878
11.83500	48813
11.84312	49320
11.85125	50242
11.85937	47419
11.86750	48904
11.87562	50631
11.88373	44693
11.89187	47884
11.89998	42573
11.90812	47004
11.91623	48493
11.92435	55842
11.93248	57508
11.94060	62415
11.94873	61387
11.95685	61598
11.96497	59060
11.97310	50697
11.98122	48495
11.98933	46232
11.99747	49044
12.00558	49728
12.01372	59627
12.02183	60781
12.02995	58465
12.03808	54464
12.04620	52552
12.05433	48446
12.06245	44958
12.07057	45632
12.07870	44314
12.08682	45811
12.09493	45722
12.10307	42291
12.11118	42861
12.11932	42542
12.12743	42067
12.13555	47126
12.14368	50538
12.15180	44054
12.15993	45093
12.16805	43603
12.17617	43893
12.18430	38233
12.19242	39154
12.20055	41311
12.20867	39574
12.21678	41984
12.22492	47494
12.23303	43849
12.24115	43171
12.24928	43173
12.25740	38601
12.26553	40860
12.27365	38899
12.28177	41199
12.28990	40345
12.29802	39452
12.30615	42150
12.31427	40841
12.32238	44581
12.33052	41141
12.33863	42164
12.34675	41732
12.35488	41177
12.36300	37900
12.37113	39818
12.37925	39997
12.38737	39558
12.39550	45315
12.40362	54829
12.41175	77199
12.41987	99146
12.42798	118418
12.43612	122995
12.44423	118229
12.45237	98447
12.46048	80960
12.46860	71449
12.47673	66216
12.48485	50723
12.49297	52358
12.50110	45990
12.50922	52334
12.51735	47076
12.52547	47975
12.53358	46557
12.54172	47456
12.54983	54941
12.55797	63495
12.56608	79003
12.57420	80369
12.58233	78890
12.59045	70656
12.59858	63628
12.60670	55171
12.61482	48422
12.62295	46484
12.63107	50065
12.63918	45104
12.64732	43765
12.65543	42099
12.66357	44994
12.67168	40322
12.67980	38753
12.68793	38124
12.69605	38198
12.70418	40568
12.71230	43958
12.72042	43613
12.72855	45732
12.73667	52305
12.74478	55401
12.75292	51553
12.76103	51575
12.76917	45733
12.77728	46111
12.78540	46587
12.79353	46393
12.80165	43544
12.80978	49939
12.81790	45678
12.82602	47779
12.83415	39506
12.84227	40987
12.85040	39426
12.85852	42162
12.86663	40835
12.87477	41203
12.88288	37585
12.89100	38795
12.89913	36814
12.90725	39577
12.91538	40795
12.92350	39368
12.93162	42585
12.93975	44360
12.94787	47779
12.95600	61156
12.96412	75629
12.97223	84220
12.98037	100254
12.98848	100723
12.99662	93697
13.00473	82029
13.01285	74841
13.02098	66727
13.02910	64468
13.03722	64245
13.04535	61799
13.05347	58072
13.06160	55096
13.06972	49559
13.07783	53106
13.08597	52337
13.09408	50421
13.10222	48028
13.11033	47210
13.11845	45535
13.12658	48151
13.13470	44801
13.14282	46649
13.15095	48168
13.15907	48005
13.16720	50547
13.17532	47457
13.18343	49661
13.19157	46838
13.19968	45114
13.20782	47943
13.21593	45751
13.22405	46715
13.23218	44429
13.24030	42281
13.24843	46752
13.25655	48758
13.26467	48995
13.27280	51098
13.28092	56202
13.28903	52570
13.29717	50623
13.30528	47761
13.31342	50090
13.32153	52217
13.32965	54767
13.33778	52470
13.34590	54886
13.35403	47828
13.36215	47909
13.37027	44452
13.37840	46944
13.38652	43984
13.39465	43867
13.40277	41046
13.41088	41553
13.41902	40715
13.42713	41552
13.43525	39125
13.44338	41900
13.45150	41505
13.45963	39856
13.46775	42769
13.47587	38734
13.48400	37778
13.49212	37710
13.50025	39039
13.50837	37605
13.51648	41559
13.52462	43441
13.53273	41104
13.54085	44608
13.54898	45126
13.55710	44807
13.56523	44535
13.57335	49777
13.58147	45223
13.58960	50019
13.59772	54041
13.60585	62646
13.61397	69512
13.62208	89257
13.63022	96538
13.63833	99545
13.64647	98137
13.65458	78817
13.66270	67169
13.67083	58504
13.67895	57279
13.68707	56114
13.69520	50187
13.70332	52055
13.71145	48291
13.71957	50004
13.72768	45623
13.73582	45291
13.74393	45505
13.75207	44644
13.76018	55173
13.76830	66376
13.77643	76121
13.78455	92960
13.79268	94218
13.80080	99640
13.80892	98634
13.81705	97375
13.82517	102169
13.83328	111539
13.84142	109771
13.84953	106672
13.85767	93002
13.86578	86962
13.87390	77477
13.88203	70256
13.89015	64011
13.89828	64360
13.90640	63450
13.91452	64276
13.92265	58407
13.93077	56785
13.93888	55788
13.94702	59938
13.95513	52570
13.96327	54094
13.97138	55543
13.97950	51559
13.98763	56633
13.99575	53626
14.00388	55819
14.01200	50349
14.02012	52096
14.02825	50699
14.03637	54458
14.04450	52990
14.05262	50363
14.06073	48759
14.06887	45333
14.07698	47359
14.08510	46274
14.09323	44318
14.10135	42790
14.10948	44545
14.11760	47081
14.12572	69681
14.13385	129601
14.14197	257545
14.15010	476694
14.15822	737966
14.16633	913636
14.17447	930701
14.18258	740493
14.19070	497083
14.19883	311715
14.20695	207033
14.21508	154309
14.22320	128157
14.23132	113484
14.23945	107632
14.24757	93452
14.25570	94462
14.26382	91460
14.27193	82878
14.28007	83330
14.28818	71612
14.29632	70217
14.30443	66706
14.31255	60396
14.32068	58115
14.32880	50218
14.33692	51344
14.34505	42904
14.35317	43963
14.36130	45932
14.36942	47521
14.37753	44619
14.38567	45949
14.39378	50854
14.40192	58896
14.41003	84862
14.41815	112431
14.42628	136722
14.43440	138892
14.44253	134159
14.45065	112003
14.45877	91700
14.46690	71346
14.47502	62808
14.48313	57881
14.49127	56288
14.49938	57483
14.50752	53013
14.51563	52984
14.52375	52455
14.53188	49678
14.54000	49885
14.54813	49637
14.55625	48808
14.56437	46111
14.57250	49664
14.58062	43065
14.58873	44397
14.59687	38958
14.60498	40342
14.61312	38752
14.62123	40231
14.62935	41104
14.63748	47260
14.64560	41645
14.65373	40200
14.66185	41125
14.66997	37230
14.67810	41904
14.68622	40711
14.69435	42308
14.70247	44052
14.71058	40723
14.71872	42368
14.72683	39591
14.73495	40530
14.74308	42118
14.75120	40954
14.75933	41952
14.76745	36495
14.77557	41583
14.78370	40361
14.79182	55370
14.79995	84187
14.80807	148675
14.81618	283488
14.82432	494292
14.83243	710867
14.84057	781563
14.84868	716843
14.85680	523288
14.86493	360140
14.87305	239028
14.88117	166963
14.88930	129376
14.89742	114472
14.90555	97215
14.91367	89275
14.92178	87698
14.92992	82776
14.93803	77497
14.94617	71786
14.95428	70630
14.96240	68795
14.97053	62513
14.97865	63285
14.98677	58455
14.99490	59726
15.00302	59596
15.01115	59050
15.01927	56429
15.02738	53547
15.03552	54637
15.04363	55658
15.05177	56406
15.05988	55126
15.06800	51534
15.07613	51474
15.08425	50746
15.09238	47916
15.10050	48362
15.10862	46811
15.11675	49100
15.12487	50508
15.13298	51071
15.14112	49976
15.14923	54825
15.15737	50165
15.16548	48163
15.17360	49329
15.18173	45253
15.18985	48021
15.19798	43332
15.20610	43687
15.21422	46239
15.22235	41257
15.23047	44502
15.23858	41798
15.24672	40263
15.25483	36175
15.26297	42657
15.27108	43860
15.27920	39303
15.28733	42518
15.29545	37802
15.30358	41002
15.31170	39657
15.31982	38855
15.32795	39358
15.33607	40066
15.34420	36131
15.35232	38148
15.36043	39191
15.36857	37136
15.37668	39455
15.38480	40670
15.39293	41211
15.40105	40112
15.40918	39094
15.41730	37149
15.42542	42925
15.43355	34443
15.44167	37474
15.44980	38949
15.45792	40385
15.46603	44615
15.47417	42517
15.48228	49001
15.49042	54260
15.49853	54261
15.50665	55513
15.51478	56677
15.52290	56734
15.53102	57515
15.53915	52131
15.54727	49751
15.55540	47057
15.56352	46053
15.57163	45897
15.57977	42981
15.58788	44757
15.59602	39735
15.60413	42288
15.61225	42511
15.62038	44707
15.62850	44338
15.63662	41534
15.64475	37511
15.65287	41945
15.66100	39389
15.66912	37571
15.67723	38338
15.68537	38173
15.69348	40783
15.70162	40298
15.70973	40042
15.71785	41523
15.72598	42025
15.73410	39906
15.74223	42362
15.75035	47417
15.75847	51406
15.76660	63164
15.77472	78949
15.78283	92422
15.79097	105982
15.79908	102339
15.80722	94670
15.81533	81089
15.82345	68038
15.83158	62244
15.83970	53340
15.84783	52076
15.85595	46952
15.86407	47049
15.87220	47769
15.88032	46802
15.88845	45268
15.89657	47173
15.90468	44879
15.91282	45342
15.92093	45048
15.92905	47636
15.93718	45522
15.94530	46969
15.95343	44828
15.96155	47662
15.96967	43966
15.97780	43812
15.98592	47126
15.99405	52446
16.00217	59363
16.01028	63738
16.01842	73054
16.02653	72993
16.03465	74114
16.04278	73186
16.05090	68402
16.05903	63359
16.06715	55119
16.07527	51308
16.08340	52161
16.09152	49367
16.09965	46911
16.10777	52019
16.11588	51258
16.12402	45514
16.13213	47850
16.14027	51373
16.14838	50548
16.15650	44624
16.16463	44869
16.17275	44904
16.18087	41109
16.18900	48621
16.19712	41486
16.20525	45907
16.21337	46678
16.22148	45013
16.22962	43094
16.23773	39612
16.24587	43178
16.25398	48237
16.26210	42044
16.27023	39950
16.27835	43896
16.28648	45345
16.29460	44513
16.30272	43689
16.31085	48160
16.31897	44332
16.32708	40631
16.33522	41084
16.34333	45250
16.35147	43725
16.35958	41026
16.36770	44777
16.37583	44400
16.38395	46808
16.39208	46333
16.40020	43878
16.40832	41218
16.41645	44309
16.42457	42986
16.43268	42490
16.44082	48750
16.44893	47342
16.45707	58101
16.46518	78068
16.47330	96223
16.48143	122287
16.48955	128905
16.49768	126826
16.50580	102060
16.51392	84506
16.52205	65693
16.53017	59657
16.53830	55384
16.54642	55725
16.55453	55753
16.56267	50841
16.57078	48841
16.57890	48120
16.58703	47498
16.59515	49108
16.60328	48103
16.61140	45939
16.61952	46420
16.62765	44345
16.63577	45362
16.64390	47973
16.65202	44492
16.66013	41943
16.66827	44408
16.67638	44854
16.68450	44755
16.69263	42037
16.70075	45297
16.70888	43828
16.71700	43489
16.72512	42100
16.73325	42554
16.74137	42733
16.74950	45640
16.75762	45256
16.76573	43079
16.77387	46066
16.78198	42384
16.79012	45055
16.79823	41585
16.80635	43598
16.81448	42368
16.82260	46120
16.83072	43150
16.83885	43327
16.84697	43615
16.85510	41177
16.86322	42747
16.87133	42556
16.87947	42385
16.88758	40094
16.89572	38935
16.90383	43102
16.91195	38343
16.92008	39989
16.92820	41770
16.93633	42991
16.94445	43632
16.95257	43830
16.96070	43638
16.96882	47105
16.97693	44577
16.98507	43199
16.99318	41309
17.00132	43218
17.00943	46030
17.01755	44501
17.02568	43278
17.03380	42711
17.04193	42581
17.05005	45597
17.05817	48474
17.06630	50863
17.07442	47233
17.08253	46853
17.09067	44816
17.09878	43602
17.10692	49493
17.11503	47051
17.12315	46614
17.13128	46943
17.13940	44815
17.14753	46206
17.15565	43442
17.16377	40961
17.17190	42930
17.18002	43959
17.18815	45089
17.19627	40246
17.20438	44355
17.21252	39450
17.22063	38615
17.22875	43479
17.23688	44239
17.24500	42883
17.25313	43802
17.26125	43559
17.26937	46992
17.27750	47071
17.28562	40658
17.29375	44402
17.30187	45063
17.30998	45687
17.31812	47902
17.32623	47779
17.33437	46937
17.34248	48258
17.35060	48059
17.35873	49357
17.36685	48891
17.37497	47464
17.38310	49961
17.39122	53482
17.39935	50161
17.40747	52835
17.41558	51872
17.42372	49696
17.43183	49286
17.43997	49539
17.44808	48611
17.45620	49587
17.46433	49795
17.47245	47906
17.48057	43835
17.48870	49439
17.49682	49567
17.50495	46736
17.51307	48419
17.52118	51223
17.52932	54594
17.53743	56193
17.54557	57124
17.55368	63288
17.56180	66142
17.56993	77387
17.57805	84561
17.58618	110145
17.59430	130926
17.60242	144124
17.61055	149075
17.61867	145508
17.62678	129331
17.63492	108831
17.64303	92818
17.65117	82763
17.65928	77624
17.66740	69343
17.67553	70121
17.68365	71267
17.69178	62373
17.69990	65863
17.70802	59345
17.71615	65755
17.72427	56543
17.73238	56086
17.74052	54156
17.74863	56960
17.75677	54024
17.76488	57256
17.77300	52061
17.78113	56928
17.78925	56473
17.79738	60472
17.80550	66168
17.81362	74649
17.82175	81903
17.82987	96065
17.83800	102938
17.84612	96459
17.85423	93042
17.86237	86622
17.87048	75824
17.87860	73221
17.88673	68750
17.89485	62071
17.90298	60171
17.91110	54666
17.91922	54286
17.92735	54767
17.93547	54205
17.94360	53608
17.95172	51083
17.95983	53464
17.96797	55406
17.97608	47652
17.98422	53241
17.99233	46323
18.00045	45584
18.00858	52738
18.01670	57062
18.02482	63124
18.03295	62383
18.04107	63755
18.04920	71249
18.05732	81566
18.06543	114223
18.07357	195430
18.08168	352377
18.08982	559765
18.09793	740108
18.10605	795795
18.11418	744666
18.12230	617107
18.13043	517346
18.13855	457739
18.14667	417731
18.15480	406780
18.16292	390006
18.17103	372596
18.17917	356886
18.18728	373524
18.19542	356869
18.20353	342807
18.21165	338593
18.21978	334464
18.22790	329664
18.23603	319041
18.24415	308921
18.25227	311583
18.26040	299115
18.26852	304546
18.27663	287563
18.28477	273625
18.29288	275140
18.30102	254722
18.30913	251654
18.31725	250169
18.32538	243946
18.33350	235946
18.34163	231637
18.34975	226797
18.35787	222015
18.36600	220835
18.37412	218283
18.38225	221623
18.39037	206213
18.39848	203822
18.40662	200949
18.41473	200102
18.42285	198030
18.43098	195139
18.43910	193952
18.44723	193589
18.45535	205095
18.46347	208083
18.47160	209363
18.47972	212490
18.48785	210501
18.49597	207105
18.50408	197445
18.51222	190529
18.52033	179278
18.52845	171967
18.53658	164097
18.54470	163982
18.55283	154519
18.56095	151168
18.56907	158796
18.57720	153546
18.58532	151627
18.59345	147750
18.60157	146247
18.60968	147737
18.61782	153506
18.62593	142118
18.63407	146042
18.64218	137718
18.65030	129893
18.65843	129496
18.66655	128687
18.67467	126582
18.68280	128147
18.69092	117876
18.69905	119745
18.70717	118437
18.71528	117371
18.72342	110627
18.73153	108317
18.73967	107434
18.74778	103806
18.75590	108118
18.76403	103154
18.77215	102127
18.78028	94817
18.78840	97510
18.79652	95947
18.80465	96288
18.81277	95633
18.82088	96976
18.82902	93601
18.83713	89748
18.84527	87978
18.85338	98866
18.86150	91175
18.86963	89565
18.87775	87264
18.88588	90762
18.89400	87537
18.90212	84868
18.91025	92408
18.91837	90912
18.92648	82347
18.93462	85451
18.94273	89604
18.95087	86098
18.95898	89110
18.96710	89065
18.97523	79442
18.98335	82716
18.99148	77409
18.99960	77932
19.00772	77448
19.01585	75937
19.02397	80659
19.03210	76773
19.04022	74023
19.04833	78414
19.05647	73654
19.06458	76648
19.07270	77418
19.08083	86878
19.08895	94298
19.09708	100006
19.10520	103198
19.11332	106706
19.12145	100517
19.12957	98503
19.13770	95309
19.14582	92661
19.15393	86790
19.16207	88412
19.17018	86650
19.17832	89638
19.18643	82633
19.19455	77008
19.20268	80000
19.21080	72023
19.21892	75902
19.22705	65790
19.23517	70837
19.24330	68056
19.25142	70435
19.25953	69624
19.26767	71339
19.27578	76807
19.28392	73799
19.29203	78391
19.30015	80577
19.30828	81142
19.31640	76951
19.32452	73334
19.33265	72876
19.34077	67059
19.34890	70030
19.35702	68544
19.36513	73463
19.37327	81816
19.38138	77125
19.38952	76558
19.39763	73336
19.40575	71926
19.41388	78112
19.42200	86854
19.43013	126029
19.43825	186715
19.44637	289495
19.45450	363570
19.46262	410544
19.47073	360697
19.47887	280913
19.48698	173212
19.49512	120990
19.50323	91625
19.51135	79382
19.51948	70513
19.52760	70261
19.53573	68986
19.54385	72275
19.55197	64680
19.56010	65700
19.56822	64089
19.57633	60812
19.58447	57032
19.59258	58943
19.60072	59496
19.60883	57473
19.61695	63828
19.62508	71754
19.63320	85767
19.64133	118193
19.64945	150049
19.65757	183402
19.66570	206840
19.67382	201392
19.68195	186055
19.69007	163472
19.69818	133053
19.70632	119657
19.71443	105492
19.72255	92519
19.73068	83035
19.73880	80312
19.74693	73678
19.75505	67956
19.76317	67927
19.77130	65395
19.77942	68785
19.78755	71357
19.79567	72602
19.80378	69966
19.81192	64330
19.82003	66404
19.82817	69801
19.83628	63968
19.84440	69282
19.85253	77554
19.86065	110411
19.86877	176394
19.87690	331155
19.88502	550559
19.89315	843772
19.90127	1126938
19.90938	1210306
19.91752	1079750
19.92563	835145
19.93377	581840
19.94188	402368
19.95000	295239
19.95813	238639
19.96625	210673
19.97437	187730
19.98250	174793
19.99062	168572
19.99875	158778
20.00687	147764
20.01498	146079
20.02312	126285
20.03123	128281
20.03937	122510
20.04748	118724
20.05560	105700
20.06373	101491
20.07185	86928
20.07998	87421
20.08810	79785
20.09622	84107
20.10435	74687
20.11247	74349
20.12058	71594
20.12872	70988
20.13683	67849
20.14497	65405
20.15308	69170
20.16120	70684
20.16933	77714
20.17745	76331
20.18558	75056
20.19370	78465
20.20182	79552
20.20995	77296
20.21807	80282
20.22620	83859
20.23432	99872
20.24243	115823
20.25057	147769
20.25868	172419
20.26680	174433
20.27493	165147
20.28305	149387
20.29118	119528
20.29930	109986
20.30742	90309
20.31555	82783
20.32367	69176
20.33180	68589
20.33992	65319
20.34803	61681
20.35617	61003
20.36428	57364
20.37240	60010
20.38053	61579
20.38865	64844
20.39678	71601
20.40490	71351
20.41302	74220
20.42115	74617
20.42927	80214
20.43740	76430
20.44552	73083
20.45363	66369
20.46177	68899
20.46988	58104
20.47802	67612
20.48613	59012
20.49425	59445
20.50238	53563
20.51050	57200
20.51862	55861
20.52675	55323
20.53487	53304
20.54300	55905
20.55112	54649
20.55923	57696
20.56737	53790
20.57548	55049
20.58362	54974
20.59173	50862
20.59985	53986
20.60798	48598
20.61610	54170
20.62422	51586
20.63235	51058
20.64047	47767
20.64860	53772
20.65672	52210
20.66483	53455
20.67297	51613
20.68108	48971
20.68922	51695
20.69733	49594
20.70545	52268
20.71358	51062
20.72170	50568
20.72983	55408
20.73795	52455
20.74607	49333
20.75420	53522
20.76232	52725
20.77043	56821
20.77857	58875
20.78668	64121
20.79482	72467
20.80293	91313
20.81105	99902
20.81918	99766
20.82730	100572
20.83543	87516
20.84355	77738
20.85167	72062
20.85980	64088
20.86792	58710
20.87605	54869
20.88417	60649
20.89228	55036
20.90042	53048
20.90853	53765
20.91665	57319
20.92478	53757
20.93290	59616
20.94103	52316
20.94915	53610
20.95727	52467
20.96540	55040
20.97352	48008
20.98165	48508
20.98977	46900
20.99788	52346
21.00602	50508
21.01413	53197
21.02225	50590
21.03038	53659
21.03850	49311
21.04663	53139
21.05475	50175
21.06287	53830
21.07100	53463
21.07912	52382
21.08725	52799
21.09537	53271
21.10348	56267
21.11162	53064
21.11973	53312
21.12787	52224
21.13598	53849
21.14410	57614
21.15223	59769
21.16035	64784
21.16847	63021
21.17660	61069
21.18472	60319
21.19285	60374
21.20097	60170
21.20908	62171
21.21722	62682
21.22533	63627
21.23347	65699
21.24158	65207
21.24970	61738
21.25783	66996
21.26595	61033
21.27408	63795
21.28220	61529
21.29032	69485
21.29845	67004
21.30657	66925
21.31468	59615
21.32282	67841
21.33093	61062
21.33907	62858
21.34718	62268
21.35530	66277
21.36343	59151
21.37155	67493
21.37968	65362
21.38780	67316
21.39592	68822
21.40405	68637
21.41217	70787
21.42028	69082
21.42842	68942
21.43653	68571
21.44467	63985
21.45278	66315
21.46090	63854
21.46903	65304
21.47715	63550
21.48528	60488
21.49340	66031
21.50152	64361
21.50965	63202
21.51777	60336
21.52590	62778
21.53402	65649
21.54213	60624
21.55027	62120
21.55838	62128
21.56650	64935
21.57463	69544
21.58275	78207
21.59088	90734
21.59900	91275
21.60712	99221
21.61525	92555
21.62337	92412
21.63150	86615
21.63962	74857
21.64773	73955
21.65587	69900
21.66398	67744
21.67212	65853
21.68023	66729
21.68835	61485
21.69648	63872
21.70460	63105
21.71272	61243
21.72085	60013
21.72897	59962
21.73710	57267
21.74522	57872
21.75333	54807
21.76147	57728
21.76958	55984
21.77772	61847
21.78583	69488
21.79395	78817
21.80208	73465
21.81020	77406
21.81832	67983
21.82645	63173
21.83457	65825
21.84270	58110
21.85082	55491
21.85893	55089
21.86707	54480
21.87518	52040
21.88332	57234
21.89143	57531
21.89955	55037
21.90768	63563
21.91580	69758
21.92393	88918
21.93205	100328
21.94017	109106
21.94830	113208
21.95642	112631
21.96453	116517
21.97267	117553
21.98078	124002
21.98892	122018
21.99703	123203
22.00515	125343
22.01328	124822
22.02140	122336
22.02953	125945
22.03765	115824
22.04577	115224
22.05390	115763
22.06202	120996
22.07013	118240
22.07827	114721
22.08638	114751
22.09452	109152
22.10263	110852
22.11075	106101
22.11888	103861
22.12700	102096
22.13513	94856
22.14325	97562
22.15137	94102
22.15950	96013
22.16762	95432
22.17575	96844
22.18387	98907
22.19198	100328
22.20012	87260
22.20823	88232
22.21635	87462
22.22448	82664
22.23260	77151
22.24073	78016
22.24885	73878
22.25697	73799
22.26510	71245
22.27322	77328
22.28135	73842
22.28947	71802
22.29758	74779
22.30572	72799
22.31383	70186
22.32197	71096
22.33008	68961
22.33820	66413
22.34633	66636
22.35445	69350
22.36257	63065
22.37070	65569
22.37882	64552
22.38695	64836
22.39507	67982
22.40318	72484
22.41132	77952
22.41943	80651
22.42757	78075
22.43568	77728
22.44380	68306
22.45193	66994
22.46005	70317
22.46817	61473
22.47630	56666
22.48442	60809
22.49255	63832
22.50067	69295
22.50878	70643
22.51692	60372
22.52503	61982
22.53317	61506
22.54128	57745
22.54940	56370
22.55753	55241
22.56565	53387
22.57378	53402
22.58190	50504
22.59002	47859
22.59815	51275
22.60627	53615
22.61438	54064
22.62252	48935
22.63063	51329
22.63877	49445
22.64688	45707
22.65500	47041
22.66313	47274
22.67125	44663
22.67938	45838
22.68750	46795
22.69562	49458
22.70375	46144
22.71187	51767
22.72000	44741
22.72812	48683
22.73623	46620
22.74437	47981
22.75248	51401
22.76060	46961
22.76873	49416
22.77685	49110
22.78498	53963
22.79310	50003
22.80122	53685
22.80935	59015
22.81747	53585
22.82560	52360
22.83372	50664
22.84183	52050
22.84997	50921
22.85808	48975
22.86620	50272
22.87433	53981
22.88245	53977
22.89058	58441
22.89870	68394
22.90682	76731
22.91495	88312
22.92307	95154
22.93120	105743
22.93932	104629
22.94743	100220
22.95557	92235
22.96368	78919
22.97182	71309
22.97993	65975
22.98805	58548
22.99618	58780
23.00430	58208
23.01242	56231
23.02055	51804
23.02867	52294
23.03680	51312
23.04492	51483
23.05303	43463
23.06117	51479
23.06928	45481
23.07742	49533
23.08553	46429
23.09365	45403
23.10178	46516
23.10990	45210
23.11802	42827
23.12615	47201
23.13427	49869
23.14240	44701
23.15052	45399
23.15863	42153
23.16677	43392
23.17488	48246
23.18302	43526
23.19113	40018
23.19925	43610
23.20738	48886
23.21550	43617
23.22363	41838
23.23175	42710
23.23987	41811
23.24800	45355
23.25612	44819
23.26423	46909
23.27237	48899
23.28048	43974
23.28862	45797
23.29673	46926
23.30485	46514
23.31298	43246
23.32110	44060
23.32923	47324
23.33735	56146
23.34547	65609
23.35360	75659
23.36172	90014
23.36985	111087
23.37797	120992
23.38608	145875
23.39422	153513
23.40233	167856
23.41045	160702
23.41858	158400
23.42670	158301
23.43483	156364
23.44295	151176
23.45107	141060
23.45920	129733
23.46732	125423
23.47545	119291
23.48357	111017
23.49168	106497
23.49982	98073
23.50793	98742
23.51607	99922
23.52418	91451
23.53230	89305
23.54043	90742
23.54855	91054
23.55667	89893
23.56480	82473
23.57292	91372
23.58105	93719
23.58917	98414
23.59728	100284
23.60542	104895
23.61353	101191
23.62167	95903
23.62978	89469
23.63790	82567
23.64603	82592
23.65415	81550
23.66227	85133
23.67040	94849
23.67852	103732
23.68665	118882
23.69477	137679
23.70288	135536
23.71102	143328
23.71913	151359
23.72727	170514
23.73538	231595
23.74350	433412
23.75163	1049521
23.75975	2362256
23.76788	4424643
23.77600	6467564
23.78412	7745693
23.79225	7636587
23.80037	6600548
23.80848	5093715
23.81662	3683208
23.82473	2580245
23.83287	1859046
23.84098	1456287
23.84910	1144539
23.85723	904766
23.86535	774957
23.87348	686596
23.88160	598987
23.88972	552033
23.89785	495890
23.90597	450680
23.91408	416609
23.92222	396006
23.93033	367198
23.93847	345915
23.94658	320049
23.95470	305510
23.96283	290530
23.97095	276770
23.97908	267954
23.98720	258536
23.99532	241593
24.00345	237517
24.01157	236015
24.01970	227663
24.02782	216785
24.03593	214530
24.04407	204349
24.05218	194454
24.06030	192772
24.06843	189851
24.07655	192766
24.08468	184563
24.09280	183694
24.10092	178448
24.10905	173984
24.11717	168040
24.12530	163162
24.13342	156039
24.14153	155541
24.14967	157552
24.15778	154077
24.16592	155521
24.17403	157353
24.18215	153720
24.19028	147290
24.19840	147286
24.20652	143051
24.21465	140980
24.22277	135473
24.23090	124043
24.23902	124691
24.24713	119548
24.25527	113145
24.26338	114512
24.27152	112483
24.27963	111799
24.28775	109368
24.29588	114732
24.30400	116526
24.31212	142602
24.32025	167263
24.32837	231082
24.33650	282292
24.34462	308426
24.35273	287892
24.36087	236255
24.36898	183248
24.37712	132616
24.38523	112605
24.39335	102451
24.40148	101127
24.40960	98188
24.41773	98539
24.42585	98794
24.43397	102455
24.44210	111952
24.45022	116900
24.45833	110836
24.46647	115745
24.47458	120717
24.48272	114489
24.49083	107216
24.49895	104706
24.50708	101472
24.51520	97442
24.52333	95506
24.53145	92074
24.53957	95068
24.54770	97751
24.55582	96532
24.56395	99697
24.57207	93008
24.58018	88536
24.58832	84434
24.59643	79567
24.60455	84661
24.61268	81059
24.62080	77859
24.62893	80580
24.63705	79937
24.64517	75415
24.65330	76784
24.66142	79516
24.66955	74248
24.67767	73048
24.68578	74814
24.69392	72130
24.70203	71697
24.71015	71019
24.71828	73140
24.72640	71448
24.73453	66091
24.74265	71681
24.75077	72127
24.75890	69384
24.76702	71026
24.77515	70575
24.78327	76253
24.79138	69819
24.79952	73657
24.80763	75942
24.81577	70933
24.82388	68400
24.83200	79162
24.84013	83737
24.84825	87676
24.85637	99099
24.86450	112707
24.87262	131824
24.88075	151774
24.88887	159233
24.89698	164570
24.90512	151078
24.91323	154887
24.92137	143783
24.92948	145126
24.93760	140809
24.94573	137337
24.95385	145129
24.96197	145319
24.97010	150459
24.97822	150584
24.98635	150717
24.99447	152268
25.00258	155844
25.01072	153985
25.01883	150422
25.02697	154061
25.03508	148101
25.04320	143939
25.05133	150321
25.05945	150542
25.06758	144177
25.07570	137918
25.08382	135256
25.09195	144878
25.10007	156647
25.10818	196493
25.11632	272578
25.12443	368780
25.13257	530387
25.14068	625729
25.14880	678885
25.15693	614433
25.16505	498706
25.17318	362257
25.18130	263879
25.18942	204026
25.19755	164726
25.20567	144677
25.21380	140478
25.22192	134617
25.23003	124674
25.23817	128546
25.24628	133306
25.25440	138975
25.26253	140070
25.27065	142091
25.27878	144743
25.28690	144187
25.29502	128254
25.30315	126761
25.31127	116319
25.31940	109665
25.32752	99859
25.33563	98448
25.34377	93620
25.35188	93206
25.36000	93915
25.36813	81769
25.37625	88528
25.38438	81834
25.39250	83595
25.40062	80519
25.40875	81423
25.41687	81216
25.42500	78615
25.43312	75013
25.44123	77198
25.44937	74802
25.45748	74306
25.46562	70029
25.47373	78079
25.48185	74546
25.48998	72955
25.49810	69730
25.50622	70733
25.51435	69464
25.52247	66986
25.53060	66704
25.53872	67794
25.54683	63632
25.55497	66928
25.56308	63747
25.57122	65683
25.57933	67291
25.58745	66086
25.59558	65676
25.60370	66021
25.61183	64186
25.61995	65133
25.62807	61869
25.63620	58038
25.64432	60963
25.65243	61063
25.66057	59504
25.66868	60924
25.67682	57259
25.68493	55741
25.69305	60964
25.70118	58810
25.70930	57819
25.71743	55881
25.72555	61084
25.73367	55736
25.74180	56412
25.74992	58122
25.75803	55919
25.76617	59014
25.77428	58169
25.78242	57074
25.79053	58343
25.79865	55633
25.80678	53949
25.81490	53789
25.82303	53561
25.83115	57211
25.83927	58447
25.84740	56328
25.85552	53830
25.86365	52339
25.87177	55771
25.87988	56265
25.88802	58706
25.89613	50821
25.90425	49669
25.91238	53995
25.92050	51428
25.92863	52859
25.93675	51881
25.94487	50917
25.95300	54487
25.96112	48870
25.96925	52244
25.97737	47381
25.98548	53178
25.99362	50692
26.00173	53648
26.00985	47503
26.01798	50262
26.02610	49833
26.03423	51378
26.04235	51787
26.05047	52936
26.05860	50977
26.06672	54227
26.07485	53895
26.08297	52115
26.09108	52050
26.09922	57310
26.10733	53215
26.11547	57370
26.12358	59347
26.13170	62242
26.13983	61928
26.14795	63284
26.15607	62156
26.16420	60159
26.17232	58371
26.18045	64121
26.18857	61173
26.19668	58292
26.20482	58352
26.21293	55718
26.22107	59377
26.22918	51110
26.23730	51264
26.24543	51003
26.25355	53520
26.26168	46761
26.26980	48836
26.27792	51267
26.28605	51828
26.29417	49266
26.30228	54758
26.31042	48256
26.31853	48808
26.32667	49999
26.33478	46004
26.34290	49356
26.35103	49228
26.35915	48913
26.36728	49863
26.37540	49165
26.38352	51432
26.39165	48516
26.39977	51233
26.40788	51325
26.41602	52444
26.42413	50955
26.43227	48113
26.44038	52233
26.44850	51199
26.45663	51057
26.46475	52320
26.47288	51808
26.48100	52233
26.48912	48835
26.49725	49078
26.50537	52143
26.51350	48626
26.52162	47457
26.52973	49655
26.53787	49710
26.54598	46403
26.55410	52883
26.56223	49954
26.57035	49924
26.57848	46187
26.58660	48214
26.59472	48307
26.60285	44542
26.61097	50083
26.61910	49595
26.62722	47909
26.63533	49818
26.64347	51995
26.65158	52019
26.65972	50804
26.66783	52939
26.67595	50658
26.68408	52954
26.69220	54794
26.70032	56389
26.70845	52519
26.71657	50628
26.72470	50099
26.73282	47829
26.74093	48436
26.74907	54308
26.75718	50430
26.76532	48707
26.77343	51157
26.78155	55161
26.78968	52285
26.79780	53826
26.80592	54468
26.81405	52210
26.82217	51195
26.83030	51482
26.83842	51245
26.84653	54746
26.85467	50883
26.86278	53337
26.87092	51295
26.87903	57917
26.88715	52876
26.89528	53618
26.90340	57687
26.91153	58378
26.91965	62931
26.92777	68774
26.93590	87958
26.94402	148006
26.95213	306533
26.96027	670795
26.96838	1455493
26.97652	3086844
26.98463	5574854
26.99275	8145402
27.00088	9065006
27.00900	8799193
27.01713	7189340
27.02525	5387546
27.03337	3940128
27.04150	2723226
27.04962	1945728
27.05775	1419098
27.06587	1070151
27.07398	810449
27.08212	673705
27.09023	555957
27.09835	472907
27.10648	408876
27.11460	360589
27.12273	327351
27.13085	292352
27.13897	260548
27.14710	243261
27.15522	233787
27.16335	216865
27.17147	207908
27.17958	193069
27.18772	188191
27.19583	175119
27.20395	165621
27.21208	161598
27.22020	150913
27.22833	145429
27.23645	139627
27.24457	132450
27.25270	126945
27.26082	137104
27.26895	123027
27.27707	114288
27.28518	106768
27.29332	109063
27.30143	99349
27.30957	106189
27.31768	103067
27.32580	99994
27.33393	96793
27.34205	93929
27.35017	94208
27.35830	93676
27.36642	93615
27.37455	87625
27.38267	90685
27.39078	87861
27.39892	83739
27.40703	81628
27.41517	79076
27.42328	78101
27.43140	83728
27.43953	76608
27.44765	82063
27.45577	82550
27.46390	82304
27.47202	81386
27.48015	80107
27.48827	78451
27.49638	71649
27.50452	67732
27.51263	77173
27.52077	71204
27.52888	73208
27.53700	75003
27.54513	74480
27.55325	72117
27.56138	76483
27.56950	70022
27.57762	69771
27.58575	72579
27.59387	71846
27.60198	76012
27.61012	68929
27.61823	74041
27.62637	65274
27.63448	64115
27.64260	66120
27.65073	65082
27.65885	59699
27.66698	57932
27.67510	67052
27.68322	64584
27.69135	66350
27.69947	61315
27.70760	62312
27.71572	60990
27.72383	61694
27.73197	63801
27.74008	65251
27.74820	71087
27.75633	67457
27.76445	69967
27.77258	64173
27.78070	63874
27.78882	66549
27.79695	59606
27.80507	59092
27.81320	58171
27.82132	59342
27.82943	55661
27.83757	63828
27.84568	59589
27.85380	58132
27.86193	57672
27.87005	59942
27.87818	54188
27.88630	56623
27.89442	54208
27.90255	53474
27.91067	53094
27.91880	55009
27.92692	53339
27.93503	54637
27.94317	52245
27.95128	54215
27.95942	56413
27.96753	57798
27.97565	57532
27.98378	56634
27.99190	57339
28.00002	55186
28.00815	55368
28.01627	62592
28.02440	56944
28.03252	63371
28.04063	61912
28.04877	64204
28.05688	59734
28.06502	61562
28.07313	64353
28.08125	65583
28.08938	64495
28.09750	73761
28.10563	78820
28.11375	86789
28.12187	83160
28.13000	77789
28.13812	75310
28.14623	67750
28.15437	64536
28.16248	58110
28.17062	56570
28.17873	56564
28.18685	58060
28.19498	57961
28.20310	55970
28.21123	57601
28.21935	61806
28.22747	66257
28.23560	79410
28.24372	102080
28.25183	165078
28.25997	284568
28.26808	471437
28.27622	708269
28.28433	1042424
28.29245	1468121
28.30058	1836103
28.30870	2292532
28.31683	2525111
28.32495	2585826
28.33307	2621326
28.34120	2435123
28.34932	2192501
28.35745	1891232
28.36557	1603404
28.37368	1351180
28.38182	1126015
28.38993	919907
28.39805	775654
28.40618	659037
28.41430	550534
28.42243	474147
28.43055	402723
28.43867	355205
28.44680	326425
28.45492	297020
28.46305	259250
28.47117	238578
28.47928	230277
28.48742	201889
28.49553	192657
28.50365	182513
28.51178	181258
28.51990	171980
28.52803	162710
28.53615	155056
28.54427	141689
28.55240	143257
28.56052	144718
28.56865	135657
28.57677	128500
28.58488	128035
28.59302	123006
28.60113	120032
28.60927	111924
28.61738	112656
28.62550	115457
28.63363	112690
28.64175	111703
28.64987	116539
28.65800	114073
28.66612	119529
28.67425	117283
28.68237	132735
28.69048	157000
28.69862	188218
28.70673	202941
28.71487	191693
28.72298	182312
28.73110	148981
28.73923	125253
28.74735	102082
28.75548	101046
28.76360	90248
28.77172	92877
28.77985	87861
28.78797	86156
28.79608	85404
28.80422	87468
28.81233	82590
28.82047	83407
28.82858	80534
28.83670	77386
28.84483	80417
28.85295	79764
28.86108	79060
28.86920	81423
28.87732	81979
28.88545	85969
28.89357	78237
28.90170	79323
28.90982	79081
28.91793	73925
28.92607	79089
28.93418	74152
28.94230	73118
28.95043	73042
28.95855	72433
28.96668	74953
28.97480	73336
28.98292	72009
28.99105	69373
28.99917	68814
29.00730	71497
29.01542	71719
29.02353	70604
29.03167	71100
29.03978	69833
29.04790	70499
29.05603	69550
29.06415	70327
29.07228	70361
29.08040	64644
29.08852	60839
29.09665	65460
29.10477	64845
29.11290	63969
29.12102	67598
29.12913	64883
29.13727	65372
29.14538	65416
29.15352	64386
29.16163	68875
29.16975	67241
29.17788	62328
29.18600	65431
29.19412	68181
29.20225	69768
29.21037	75505
29.21850	77589
29.22662	68260
29.23473	73275
29.24287	66225
29.25098	69533
29.25912	73383
29.26723	75119
29.27535	69616
29.28348	67410
29.29160	65613
29.29972	64682
29.30785	62928
29.31597	63801
29.32410	58296
29.33222	59682
29.34033	56854
29.34847	56154
29.35658	58066
29.36472	57213
29.37283	56174
29.38095	52917
29.38908	56777
29.39720	55010
29.40533	54319
29.41345	56380
29.42157	57508
29.42970	60430
29.43782	59512
29.44593	56536
29.45407	57940
29.46218	53443
29.47032	58605
29.47843	57959
29.48655	53988
29.49468	55428
29.50280	58125
29.51093	56885
29.51905	53403
29.52717	56166
29.53530	53910
29.54342	50642
29.55153	50146
29.55967	53120
29.56778	52203
29.57592	55721
29.58403	55920
29.59215	60073
29.60028	58894
29.60840	56257
29.61653	62572
29.62465	57959
29.63277	52567
29.64090	51858
29.64902	51900
29.65715	48143
29.66527	46946
29.67338	52280
29.68152	53802
29.68963	56232
29.69775	53421
29.70588	53133
29.71400	51831
29.72213	53409
29.73025	50522
29.73837	52072
29.74650	46719
29.75462	48898
29.76275	48274
29.77087	49117
29.77898	45147
29.78712	48302
29.79523	46705
29.80337	50648
29.81148	46186
29.81960	46197
29.82773	44943
29.83585	47116
29.84397	46991
29.85210	49651
29.86022	60491
29.86835	74618
29.87647	103559
29.88458	144131
29.89272	200893
29.90083	277466
29.90897	341693
29.91708	427798
29.92520	525790
29.93333	577116
29.94145	661141
29.94958	686757
29.95770	717178
29.96582	728132
29.97395	748699
29.98207	689651
29.99018	660823
29.99832	611286
30.00643	577948
30.01457	530026
30.02268	488924
30.03080	429174
30.03893	392612
30.04705	360778
30.05518	322653
30.06330	280433
30.07142	262398
30.07955	235706
30.08767	220057
30.09578	210095
30.10392	194105
30.11203	171986
30.12017	164464
30.12828	146413
30.13640	150622
30.14453	138886
30.15265	133021
30.16078	129105
30.16890	124370
30.17702	118665
30.18515	106583
30.19327	111906
30.20140	107289
30.20952	101729
30.21763	102637
30.22577	93743
30.23388	93688
30.24200	92932
30.25013	89710
30.25825	87597
30.26638	83550
30.27450	81962
30.28262	80311
30.29075	83849
30.29887	81296
30.30700	78638
30.31512	81204
30.32323	78599
30.33137	75337
30.33948	72672
30.34760	82687
30.35573	71897
30.36385	71951
30.37198	71030
30.38010	72696
30.38822	66856
30.39635	72150
30.40447	64678
30.41260	67141
30.42072	64363
30.42883	68769
30.43697	69182
30.44508	64235
30.45322	68326
30.46133	62376
30.46945	62550
30.47758	65367
30.48570	66606
30.49382	63218
30.50195	58683
30.51007	62395
30.51820	63454
30.52632	57873
30.53443	62984
30.54257	66148
30.55068	64702
30.55882	56034
30.56693	59830
30.57505	60242
30.58318	55157
30.59130	57131
30.59943	54143
30.60755	55811
30.61567	61549
30.62380	57015
30.63192	53452
30.64003	53620
30.64817	56131
30.65628	60553
30.66442	54688
30.67253	54818
30.68065	57337
30.68878	54718
30.69690	54640
30.70503	57119
30.71315	54142
30.72127	57732
30.72940	54888
30.73752	53304
30.74563	50412
30.75377	55474
30.76188	57928
30.77002	65475
30.77813	61045
30.78625	63441
30.79438	69719
30.80250	74077
30.81063	70785
30.81875	66258
30.82687	64055
30.83500	58584
30.84312	56821
30.85125	58793
30.85937	52822
30.86748	54593
30.87562	50980
30.88373	53194
30.89185	55153
30.89998	48979
30.90810	52155
30.91623	50571
30.92435	52304
30.93247	49074
30.94060	49610
30.94872	49659
30.95685	49053
30.96497	47805
30.97308	56363
30.98122	51972
30.98933	50615
30.99747	51280
31.00558	51662
31.01370	51722
31.02183	49586
31.02995	52276
31.03807	48246
31.04620	50285
31.05432	51240
31.06245	50213
31.07057	45870
31.07868	57513
31.08682	60835
31.09493	62536
31.10307	62607
31.11118	64451
31.11930	62451
31.12743	58827
31.13555	55354
31.14367	55271
31.15180	58857
31.15992	56497
31.16805	64806
31.17617	75067
31.18428	89590
31.19242	106641
31.20053	122026
31.20867	128839
31.21678	137672
31.22490	126362
31.23303	109178
31.24115	91671
31.24928	73236
31.25740	61505
31.26552	54267
31.27365	52979
31.28177	54104
31.28988	51571
31.29802	52516
31.30613	53193
31.31427	52921
31.32238	52037
31.33050	49926
31.33863	57448
31.34675	53147
31.35488	56095
31.36300	50873
31.37112	55362
31.37925	52363
31.38737	49749
31.39548	52541
31.40362	46651
31.41173	49415
31.41987	50918
31.42798	50935
31.43610	47974
31.44423	44932
31.45235	46253
31.46048	48825
31.46860	50993
31.47672	50391
31.48485	48215
31.49297	50682
31.50110	50197
31.50922	47433
31.51733	45920
31.52547	49424
31.53358	52032
31.54170	47794
31.54983	48690
31.55795	48520
31.56608	47505
31.57420	47673
31.58232	45851
31.59045	50379
31.59857	44381
31.60670	45610
31.61482	53366
31.62293	47927
31.63107	43691
31.63918	47359
31.64732	48616
31.65543	45865
31.66355	46523
31.67168	48945
31.67980	49664
31.68792	49943
31.69605	51994
31.70417	54135
31.71230	53232
31.72042	48715
31.72853	50877
31.73667	47007
31.74478	44138
31.75292	46068
31.76103	43257
31.76915	47733
31.77728	46183
31.78540	48722
31.79352	50561
31.80165	48179
31.80977	59658
31.81790	63494
31.82602	80517
31.83413	106399
31.84227	140020
31.85038	179046
31.85852	226697
31.86663	264101
31.87475	304616
31.88288	316650
31.89100	333048
31.89913	356834
31.90725	349403
31.91537	343457
31.92350	316021
31.93162	299592
31.93973	274735
31.94787	245138
31.95598	225606
31.96412	203435
31.97223	183977
31.98035	173458
31.98848	162727
31.99660	142886
32.00473	143259
32.01285	136018
32.02097	117286
32.02910	118912
32.03722	107889
32.04535	99457
32.05347	89812
32.06158	95426
32.06972	86993
32.07783	83666
32.08595	79997
32.09408	77512
32.10220	75449
32.11033	70812
32.11845	74065
32.12657	74673
32.13470	72582
32.14282	72317
32.15095	70394
32.15907	65997
32.16718	67020
32.17532	64510
32.18343	60635
32.19155	65072
32.19968	65166
32.20780	63327
32.21593	60694
32.22405	62096
32.23217	64665
32.24030	62799
32.24842	57578
32.25655	65901
32.26467	64445
32.27278	60270
32.28092	61336
32.28903	64269
32.29717	59008
32.30528	58517
32.31340	57268
32.32153	56402
32.32965	58078
32.33777	58027
32.34590	59615
32.35402	60138
32.36215	58571
32.37027	57926
32.37838	56204
32.38652	54908
32.39463	53560
32.40277	53347
32.41088	53975
32.41900	52912
32.42713	55146
32.43525	54417
32.44338	54784
32.45150	47896
32.45962	56077
32.46775	57508
32.47587	48851
32.48398	49326
32.49212	49061
32.50023	49408
32.50837	47547
32.51648	53310
32.52460	55364
32.53273	52285
32.54085	49126
32.54898	56344
32.55710	58547
32.56522	59001
32.57335	78867
32.58147	92237
32.58958	108961
32.59772	119152
32.60583	109708
32.61397	100491
32.62208	81356
32.63020	71896
32.63833	59823
32.64645	51783
32.65458	50446
32.66270	54883
32.67082	55552
32.67895	51980
32.68707	55295
32.69520	53896
32.70332	58651
32.71143	55696
32.71957	53877
32.72768	56019
32.73580	49557
32.74393	51305
32.75205	50722
32.76018	52355
32.76830	49196
32.77642	49238
32.78455	53382
32.79267	52562
32.80080	49498
32.80892	49499
32.81703	45872
32.82517	49119
32.83328	47519
32.84140	45205
32.84953	49393
32.85765	47484
32.86578	50842
32.87390	48930
32.88202	43777
32.89015	45799
32.89827	52105
32.90640	55216
32.91452	51837
32.92263	50068
32.93077	52649
32.93888	48579
32.94702	47621
32.95513	53778
32.96325	49797
32.97138	50203
32.97950	52656
32.98762	58473
32.99575	58279
33.00387	59167
33.01200	54225
33.02012	52917
33.02823	53162
33.03637	46442
33.04448	48190
33.05262	51638
33.06073	50873
33.06885	49814
33.07698	51890
33.08510	50032
33.09323	51489
33.10135	61744
33.10947	59176
33.11760	59846
33.12572	59914
33.13383	56908
33.14197	54412
33.15008	51437
33.15822	48800
33.16633	52453
33.17445	52399
33.18258	47922
33.19070	47788
33.19883	50506
33.20695	49654
33.21507	48583
33.22320	48130
33.23132	47893
33.23943	50462
33.24757	49878
33.25568	47091
33.26382	48332
33.27193	48969
33.28005	48752
33.28818	50409
33.29630	49177
33.30443	50142
33.31255	50655
33.32067	45769
33.32880	43922
33.33692	47434
33.34505	48240
33.35317	48384
33.36128	47809
33.36942	45746
33.37753	48772
33.38565	49033
33.39378	47930
33.40190	46745
33.41003	44484
33.41815	45847
33.42627	44647
33.43440	45238
33.44252	46954
33.45065	46887
33.45877	44511
33.46688	45885
33.47502	43229
33.48313	43937
33.49127	45006
33.49938	47310
33.50750	50618
33.51563	48846
33.52375	54842
33.53187	49467
33.54000	52486
33.54812	53907
33.55625	51882
33.56437	53672
33.57248	59656
33.58062	59915
33.58873	61713
33.59687	61925
33.60498	67924
33.61310	60520
33.62123	62431
33.62935	68278
33.63747	69102
33.64560	71106
33.65372	79023
33.66185	72283
33.66997	80179
33.67808	79963
33.68622	78870
33.69433	81372
33.70247	92231
33.71058	87345
33.71870	92549
33.72683	90703
33.73495	100545
33.74308	99324
33.75120	103003
33.75932	95498
33.76745	98157
33.77557	100772
33.78368	94720
33.79182	90706
33.79993	88520
33.80807	85719
33.81618	88674
33.82430	90763
33.83243	86220
33.84055	82769
33.84868	83256
33.85680	86892
33.86492	82710
33.87305	85332
33.88117	80183
33.88928	82504
33.89742	79478
33.90553	78724
33.91367	76246
33.92178	82418
33.92990	80961
33.93803	75900
33.94615	68883
33.95428	74063
33.96240	70778
33.97052	71038
33.97865	68614
33.98677	67211
33.99490	62946
34.00302	66554
34.01113	67465
34.01927	64436
34.02738	67597
34.03550	63613
34.04363	58694
34.05175	61037
34.05988	61037
34.06800	60602
34.07612	65370
34.08425	56863
34.09237	57653
34.10050	59469
34.10862	58482
34.11673	59852
34.12487	60757
34.13298	57442
34.14112	59262
34.14923	57684
34.15735	55566
34.16548	56520
34.17360	59637
34.18172	57824
34.18985	62683
34.19797	59380
34.20610	54855
34.21422	55258
34.22233	55669
34.23047	54841
34.23858	56232
34.24672	58635
34.25483	55713
34.26295	55837
34.27108	54273
34.27920	53213
34.28732	54272
34.29545	52152
34.30357	53425
34.31170	56123
34.31982	54890
34.32793	55543
34.33607	56633
34.34418	53085
34.35232	53655
34.36043	57543
34.36855	55205
34.37668	55559
34.38480	54479
34.39293	52109
34.40105	55886
34.40917	54760
34.41730	60573
34.42542	67880
34.43353	88216
34.44167	110491
34.44978	148218
34.45792	191838
34.46603	245113
34.47415	293208
34.48228	328511
34.49040	324886
34.49853	316665
34.50665	302830
34.51477	268953
34.52290	235354
34.53102	209888
34.53915	194203
34.54727	170305
34.55538	158630
34.56352	142660
34.57163	139664
34.57975	123341
34.58788	127939
34.59600	121877
34.60413	122544
34.61225	117761
34.62037	112986
34.62850	112297
34.63662	106581
34.64475	104165
34.65287	102306
34.66098	97727
34.66912	96662
34.67723	103904
34.68535	88724
34.69348	90031
34.70160	91852
34.70973	85286
34.71785	79882
34.72597	78399
34.73410	80025
34.74222	77531
34.75035	77358
34.75847	71199
34.76658	69715
34.77472	72057
34.78283	68599
34.79097	70231
34.79908	67975
34.80720	64560
34.81533	70294
34.82345	68094
34.83157	67739
34.83970	68360
34.84782	66865
34.85595	63695
34.86407	69766
34.87218	68123
34.88032	62463
34.88843	66468
34.89657	64471
34.90468	60353
34.91280	61920
34.92093	66898
34.92905	65862
34.93717	61180
34.94530	63794
34.95342	64755
34.96155	68574
34.96967	64959
34.97778	63826
34.98592	60142
34.99403	62898
35.00217	58670
35.01028	65986
35.01840	59485
35.02653	62116
35.03465	59413
35.04278	63278
35.05090	61738
35.05902	61079
35.06715	56274
35.07527	62966
35.08338	64089
35.09152	59493
35.09963	58977
35.10777	62588
35.11588	63025
35.12400	62113
35.13213	60428
35.14025	62883
35.14838	64724
35.15650	58389
35.16462	60588
35.17275	57311
35.18087	58872
35.18900	57164
35.19712	58255
35.20523	58215
35.21337	55775
35.22148	58017
35.22960	59463
35.23773	56032
35.24585	59840
35.25398	57154
35.26210	57507
35.27022	60677
35.27835	63204
35.28647	58995
35.29460	59635
35.30272	59383
35.31083	57784
35.31897	54116
35.32708	57734
35.33522	57612
35.34333	55779
35.35145	59296
35.35958	59279
35.36770	63809
35.37582	59212
35.38395	57474
35.39207	61547
35.40020	60113
35.40832	63040
35.41643	60771
35.42457	64499
35.43268	64092
35.44082	67619
35.44893	61478
35.45705	67866
35.46518	63506
35.47330	66379
35.48142	66685
35.48955	66907
35.49767	67764
35.50580	64054
35.51392	63018
35.52203	62699
35.53017	63032
35.53828	61100
35.54642	61764
35.55453	62741
35.56265	63893
35.57078	63890
35.57890	69197
35.58703	65432
35.59515	69684
35.60327	75050
35.61140	64451
35.61952	66761
35.62763	67201
35.63577	62225
35.64388	59819
35.65202	62320
35.66013	58196
35.66825	60123
35.67638	63791
35.68450	57857
35.69263	63368
35.70075	56520
35.70887	58384
35.71700	59111
35.72512	61017
35.73323	60742
35.74137	62479
35.74948	60685
35.75762	64743
35.76573	62919
35.77385	61846
35.78198	59895
35.79010	62240
35.79823	60329
35.80635	59534
35.81447	57721
35.82260	59677
35.83072	57341
35.83885	58296
35.84697	58351
35.85508	62282
35.86322	66337
35.87133	57981
35.87945	59857
35.88758	61552
35.89570	63737
35.90383	60359
35.91195	55919
35.92007	61018
35.92820	60405
35.93632	58785
35.94445	62719
35.95257	63278
35.96068	55662
35.96882	56206
35.97693	56628
35.98507	61722
35.99318	61737
36.00130	62727
36.00943	63510
36.01755	60872
36.02567	63859
36.03380	63137
36.04192	62434
36.05005	62218
36.05817	63724
36.06628	60544
36.07442	63564
36.08253	60024
36.09067	60782
36.09878	58962
36.10690	61394
36.11503	63771
36.12315	65550
36.13127	61406
36.13940	58645
36.14752	63469
36.15565	60211
36.16377	62246
36.17188	63390
36.18002	57205
36.18813	61498
36.19627	60476
36.20438	68327
36.21250	72990
36.22063	93531
36.22875	116809
36.23688	123959
36.24500	126773
36.25312	129853
36.26125	102299
36.26937	89050
36.27748	75369
36.28562	68264
36.29373	67705
36.30187	67657
36.30998	63901
36.31810	62379
36.32623	61508
36.33435	64386
36.34248	59319
36.35060	57386
36.35872	60273
36.36685	62905
36.37497	63295
36.38310	65496
36.39122	63347
36.39933	62913
36.40747	64792
36.41558	61776
36.42370	63305
36.43183	62706
36.43995	61461
36.44808	61807
36.45620	60512
36.46432	62032
36.47245	60176
36.48057	56952
36.48870	58759
36.49682	59412
36.50493	60492
36.51307	61291
36.52118	61756
36.52930	59889
36.53743	59400
36.54555	61033
36.55368	61221
36.56180	59792
36.56992	62290
36.57805	65677
36.58617	59941
36.59430	61741
36.60242	61909
36.61053	65577
36.61867	62031
36.62678	58440
36.63492	60063
36.64303	60879
36.65115	58662
36.65928	63641
36.66740	64066
36.67552	60534
36.68365	64228
36.69177	61667
36.69990	61448
36.70802	61670
36.71613	60627
36.72427	63310
36.73238	64531
36.74052	59062
36.74863	60053
36.75675	62873
36.76488	64374
36.77300	64709
36.78112	65223
36.78925	59606
36.79737	57122
36.80550	60509
36.81362	58298
36.82173	63091
36.82987	60340
36.83798	62271
36.84612	63203
36.85423	64487
36.86235	64774
36.87048	59354
36.87860	62816
36.88673	62912
36.89485	61143
36.90297	59620
36.91110	64457
36.91922	60465
36.92733	62841
36.93547	65285
36.94358	63959
36.95172	66106
36.95983	71816
36.96795	67662
36.97608	67374
36.98420	71115
36.99233	75580
37.00045	73701
37.00857	83079
37.01670	92838
37.02482	96345
37.03295	98889
37.04107	93561
37.04918	80467
37.05732	80148
37.06543	73000
37.07355	71095
37.08168	71331
37.08980	67623
37.09793	67604
37.10605	70002
37.11417	68530
37.12230	66644
37.13042	68232
37.13855	69543
37.14667	70954
37.15478	65664
37.16292	64166
37.17103	70710
37.17915	67508
37.18728	66686
37.19540	65352
37.20353	64713
37.21165	67408
37.21977	68568
37.22790	75672
37.23602	89924
37.24415	115745
37.25227	156743
37.26038	204497
37.26852	241653
37.27663	266618
37.28477	280539
37.29288	263040
37.30100	238213
37.30913	206441
37.31725	177182
37.32537	147718
37.33350	138763
37.34162	129859
37.34975	125855
37.35787	114260
37.36598	111135
37.37412	104895
37.38223	104966
37.39037	100134
37.39848	96507
37.40660	97634
37.41473	92102
37.42285	89097
37.43098	97559
37.43910	89410
37.44722	89301
37.45535	85931
37.46347	86078
37.47158	85705
37.47972	85518
37.48783	83639
