Z:\data\JTB-E02\BACandBLUE\JTB-E02-200-14.D Thu Feb 28 13:00:53 2019
Start of data points
2.09528,74506
2.10340,74310
2.11153,75198
2.11965,73147
2.12778,71744
2.13590,73763
2.14402,73996
2.15215,73108
2.16027,70001
2.16840,71828
2.17652,73814
2.18463,67995
2.19277,67424
2.20088,65144
2.20902,65580
2.21713,67096
2.22525,62739
2.23338,63572
2.24150,68292
2.24962,62188
2.25775,61337
2.26587,103493
2.27400,605158
2.28212,1247660
2.29023,949886
2.29837,495220
2.30648,352713
2.31462,293095
2.32273,271526
2.33085,251393
2.33898,211780
2.34710,202888
2.35522,187495
2.36335,172863
2.37147,160324
2.37960,156259
2.38772,156883
2.39583,140351
2.40397,140386
2.41208,137808
2.42022,145662
2.42833,156153
2.43645,144013
2.44458,129871
2.45270,126684
2.46083,123825
2.46895,120562
2.47707,118458
2.48520,121463
2.49332,117033
2.50143,126748
2.50957,122226
2.51768,112972
2.52582,115271
2.53393,110853
2.54205,116902
2.55018,127504
2.55830,195492
2.56643,242050
2.57455,187529
2.58267,154974
2.59080,136011
2.59892,142659
2.60705,185978
2.61517,319703
2.62328,328158
2.63142,229909
2.63953,187813
2.64765,160575
2.65578,145543
2.66390,134117
2.67203,133559
2.68015,127889
2.68827,119967
2.69640,117812
2.70452,111896
2.71265,111846
2.72077,105133
2.72888,103719
2.73702,109169
2.74513,103518
2.75327,106015
2.76138,109938
2.76950,107353
2.77763,198923
2.78575,651729
2.79387,991384
2.80200,710740
2.81012,436158
2.81825,358990
2.82637,303687
2.83448,269183
2.84262,241170
2.85073,212751
2.85887,201397
2.86698,195950
2.87510,187007
2.88323,161703
2.89135,165378
2.89947,164127
2.90760,149590
2.91572,137317
2.92385,129403
2.93197,124021
2.94008,120864
2.94822,117920
2.95633,113169
2.96447,115996
2.97258,111960
2.98070,106700
2.98883,107102
2.99695,113534
3.00508,149979
3.01320,206733
3.02132,182547
3.02945,148016
3.03757,126847
3.04568,120361
3.05382,125396
3.06193,127013
3.07007,132775
3.07818,157720
3.08630,424155
3.09443,1267897
3.10255,2789743
3.11068,5354118
3.11880,6368901
3.12692,4665535
3.13505,3054448
3.14317,2285786
3.15128,1776076
3.15942,1426335
3.16753,1179175
3.17567,1045790
3.18378,1041839
3.19190,1467624
3.20003,2017702
3.20815,1828692
3.21628,1361601
3.22440,1081086
3.23252,907908
3.24065,807386
3.24877,685949
3.25690,620299
3.26502,551168
3.27313,504910
3.28127,468224
3.28938,597620
3.29750,1424532
3.30563,3728981
3.31375,6346064
3.32188,6780353
3.33000,5192823
3.33812,3496866
3.34625,2460110
3.35437,1858378
3.36250,1511102
3.37062,1281995
3.37873,1114438
3.38687,1030727
3.39498,937520
3.40312,877272
3.41123,803379
3.41935,750445
3.42748,716001
3.43560,668095
3.44372,620484
3.45185,591747
3.45997,549930
3.46810,546881
3.47622,542423
3.48433,525782
3.49247,515491
3.50058,490099
3.50872,468167
3.51683,445095
3.52495,447660
3.53308,435887
3.54120,442834
3.54932,436356
3.55745,396316
3.56557,371150
3.57370,341501
3.58182,343747
3.58993,321405
3.59807,329939
3.60618,298168
3.61432,305452
3.62243,320777
3.63055,327497
3.63868,329934
3.64680,330534
3.65493,340972
3.66305,756017
3.67117,3753568
3.67930,1.118327E+07
3.68742,1.643123E+07
3.69553,1.416124E+07
3.70367,8993354
3.71178,6031485
3.71992,4694072
3.72803,3845535
3.73615,3264047
3.74428,2829457
3.75240,2507511
3.76053,2264496
3.76865,2031600
3.77677,1841105
3.78490,1717748
3.79302,1631110
3.80115,1695660
3.80927,2347963
3.81738,3871193
3.82552,4788456
3.83363,4012297
3.84175,2884923
3.84988,2271608
3.85800,1951758
3.86613,1698447
3.87425,1550840
3.88237,1416188
3.89050,1306547
3.89862,1226853
3.90675,1140000
3.91487,1100097
3.92298,1149056
3.93112,1262725
3.93923,1272717
3.94735,1237039
3.95548,1421368
3.96360,2170926
3.97173,2975395
3.97985,2842209
3.98797,2126417
3.99610,1551325
4.00422,1576864
4.01235,2245067
4.02047,2950456
4.02858,2762772
4.03672,2007231
4.04483,1396820
4.05297,1081103
4.06108,897732
4.06920,807043
4.07733,729062
4.08545,658121
4.09357,635157
4.10170,619151
4.10982,600384
4.11795,576799
4.12607,536951
4.13418,530131
4.14232,548785
4.15043,556129
4.15857,592860
4.16668,613034
4.17480,594052
4.18293,601282
4.19105,559449
4.19917,511662
4.20730,556450
4.21542,1262325
4.22355,4189895
4.23167,1.023299E+07
4.23978,1.572407E+07
4.24792,1.684599E+07
4.25603,1.339051E+07
4.26417,8720099
4.27228,5812173
4.28040,4237514
4.28853,3189451
4.29665,2507184
4.30478,2057140
4.31290,1723789
4.32102,1451798
4.32915,1263701
4.33727,1107854
4.34538,1012206
4.35352,948158
4.36163,903912
4.36977,894599
4.37788,882125
4.38600,804910
4.39413,717685
4.40225,653997
4.41038,592390
4.41850,575341
4.42662,542229
4.43475,510475
4.44287,496164
4.45100,491978
4.45912,463315
4.46723,445358
4.47537,437390
4.48348,428121
4.49160,414065
4.49973,418225
4.50785,397205
4.51598,383387
4.52410,376298
4.53222,383312
4.54035,377591
4.54847,376271
4.55660,376579
4.56472,376742
4.57283,352898
4.58097,339141
4.58908,331990
4.59720,322701
4.60533,318340
4.61345,314102
4.62158,325059
4.62970,390032
4.63782,545960
4.64595,714481
4.65407,768489
4.66220,645635
4.67032,527379
4.67843,447231
4.68657,410119
4.69468,383848
4.70282,338267
4.71093,322138
4.71905,295415
4.72718,286983
4.73530,280576
4.74342,279819
4.75155,275151
4.75967,263139
4.76780,256688
4.77592,255194
4.78403,267479
4.79217,374099
4.80028,718050
4.80842,1280398
4.81653,1575294
4.82465,1375520
4.83278,1042868
4.84090,830928
4.84903,738457
4.85715,678978
4.86527,616107
4.87340,514926
4.88152,465767
4.88963,426278
4.89777,409532
4.90588,385190
4.91402,357272
4.92213,356942
4.93025,339921
4.93838,375461
4.94650,558079
4.95463,1041943
4.96275,1861047
4.97087,2588192
4.97900,2730911
4.98712,2279778
4.99523,1705997
5.00337,1257006
5.01148,1010774
5.01962,823837
5.02773,777627
5.03585,774238
5.04398,849602
5.05210,868132
5.06023,778134
5.06835,702558
5.07647,613825
5.08460,567242
5.09272,551902
5.10085,503984
5.10897,485425
5.11708,475006
5.12522,451393
5.13333,429626
5.14145,417147
5.14958,420389
5.15770,450253
5.16583,518925
5.17395,568283
5.18207,553687
5.19020,527770
5.19832,493898
5.20645,494429
5.21457,531123
5.22268,517337
5.23082,489722
5.23893,459806
5.24705,430741
5.25518,420672
5.26330,378740
5.27143,340912
5.27955,318383
5.28767,307626
5.29580,295770
5.30392,292242
5.31205,288238
5.32017,291281
5.32828,295652
5.33642,313050
5.34453,335493
5.35267,366781
5.36078,332093
5.36890,315656
5.37703,298709
5.38515,289695
5.39327,300156
5.40140,320641
5.40952,321660
5.41765,319713
5.42577,299054
5.43388,270642
5.44202,260972
5.45013,272994
5.45827,282573
5.46638,299512
5.47450,287153
5.48263,275555
5.49075,256401
5.49888,240301
5.50700,234128
5.51512,246631
5.52325,258953
5.53137,251980
5.53948,249749
5.54762,253926
5.55573,262060
5.56387,315419
5.57198,414145
5.58010,502010
5.58823,520793
5.59635,436478
5.60448,374339
5.61260,292210
5.62072,274764
5.62885,256736
5.63697,249994
5.64508,253196
5.65322,245106
5.66133,248577
5.66947,229644
5.67758,237445
5.68570,267108
5.69383,317088
5.70195,362779
5.71008,377567
5.71820,339634
5.72632,290188
5.73445,254772
5.74257,234405
5.75070,223460
5.75882,214697
5.76693,216115
5.77507,206566
5.78318,207459
5.79130,197396
5.79943,198942
5.80755,184170
5.81568,188226
5.82380,191208
5.83192,197559
5.84005,195631
5.84817,203848
5.85630,202535
5.86442,195969
5.87253,194969
5.88067,190337
5.88878,176572
5.89692,176302
5.90503,180811
5.91315,167942
5.92128,181018
5.92940,170545
5.93752,167224
5.94565,163916
5.95377,180194
5.96190,214951
5.97002,327566
5.97813,523459
5.98627,765201
5.99438,921390
6.00252,879052
6.01063,712622
6.01875,507119
6.02688,385708
6.03500,308818
6.04312,277410
6.05125,249093
6.05937,228315
6.06750,213718
6.07562,211300
6.08373,197132
6.09187,195209
6.09998,187016
6.10812,181178
6.11623,186699
6.12435,197284
6.13248,245325
6.14060,355958
6.14873,490571
6.15685,562727
6.16497,500129
6.17310,409967
6.18122,328058
6.18933,272148
6.19747,254415
6.20558,246453
6.21372,231667
6.22183,225741
6.22995,222272
6.23808,210517
6.24620,211918
6.25433,220316
6.26245,225643
6.27057,233131
6.27870,224756
6.28682,218750
6.29495,217839
6.30307,212743
6.31118,213194
6.31932,209030
6.32743,223343
6.33555,260427
6.34368,287931
6.35180,311573
6.35993,297667
6.36805,261312
6.37617,232637
6.38430,233971
6.39242,228731
6.40055,222178
6.40867,216749
6.41678,221983
6.42492,216854
6.43303,219524
6.44115,212396
6.44928,229174
6.45740,212510
6.46553,208103
6.47365,217988
6.48177,221466
6.48990,230753
6.49802,231605
6.50615,227883
6.51427,227735
6.52238,224233
6.53052,219900
6.53863,229028
6.54677,232667
6.55488,231738
6.56300,239129
6.57113,268306
6.57925,339038
6.58737,413779
6.59550,422704
6.60362,375492
6.61175,323705
6.61987,289186
6.62798,270527
6.63612,252357
6.64423,258378
6.65237,320785
6.66048,533839
6.66860,978177
6.67673,1509196
6.68485,1651536
6.69297,1348251
6.70110,933318
6.70922,662171
6.71735,502845
6.72547,432679
6.73358,403078
6.74172,366473
6.74983,321296
6.75797,280690
6.76608,261859
6.77420,245676
6.78233,234698
6.79045,229592
6.79858,208702
6.80670,204510
6.81482,194471
6.82295,199713
6.83107,185894
6.83918,180246
6.84732,179507
6.85543,188418
6.86357,181839
6.87168,177922
6.87980,165063
6.88793,143238
6.89605,130295
6.90418,134618
6.91230,136874
6.92042,124163
6.92855,119689
6.93667,118582
6.94480,115801
6.95292,111864
6.96103,115361
6.96917,135274
6.97728,161977
6.98540,195755
6.99353,207199
7.00165,185212
7.00978,165981
7.01790,140908
7.02602,134367
7.03415,125064
7.04227,129581
7.05040,124855
7.05852,131103
7.06663,141272
7.07477,144492
7.08288,141772
7.09100,132779
7.09913,128172
7.10725,119706
7.11538,111328
7.12350,113630
7.13162,108539
7.13975,120272
7.14787,121033
7.15600,161824
7.16412,208119
7.17223,239107
7.18037,239911
7.18848,218354
7.19662,169036
7.20473,165322
7.21285,244860
7.22098,576900
7.22910,1316567
7.23722,2250098
7.24535,2798705
7.25347,2445433
7.26160,1683897
7.26972,948344
7.27783,572197
7.28597,349998
7.29408,244919
7.30222,170447
7.31033,134684
7.31845,128110
7.32658,128166
7.33470,131337
7.34283,133383
7.35095,128681
7.35907,125855
7.36720,115296
7.37532,111222
7.38343,111161
7.39157,111625
7.39968,113145
7.40782,114496
7.41593,103066
7.42405,108549
7.43218,99452
7.44030,104448
7.44843,106243
7.45655,100433
7.46467,106535
7.47280,101659
7.48092,99643
7.48903,92869
7.49717,88383
7.50528,90595
7.51342,90834
7.52153,120737
7.52965,178881
7.53778,310219
7.54590,522432
7.55403,793927
7.56215,1036824
7.57027,1128563
7.57840,1042389
7.58652,838375
7.59465,582921
7.60277,409479
7.61088,272508
7.61902,208799
7.62713,163579
7.63525,139557
7.64338,129103
7.65150,114794
7.65963,105272
7.66775,106876
7.67587,96841
7.68400,92963
7.69212,87743
7.70025,90480
7.70837,90269
7.71648,99175
7.72462,90862
7.73273,91041
7.74085,86689
7.74898,87849
7.75710,89670
7.76523,90436
7.77335,92086
7.78147,92119
7.78960,96980
7.79772,105922
7.80585,113204
7.81397,119331
7.82208,121859
7.83022,116728
7.83833,115177
7.84647,94749
7.85458,91207
7.86270,92878
7.87083,92265
7.87895,107108
7.88707,115334
7.89520,120969
7.90332,118122
7.91145,110079
7.91957,110992
7.92768,124109
7.93582,173841
7.94393,255273
7.95207,350484
7.96018,370454
7.96830,349008
7.97643,251035
7.98455,181023
7.99268,144962
8.00080,110138
8.00892,93859
8.01705,84060
8.02517,83526
8.03328,80154
8.04142,80396
8.04953,77289
8.05767,79683
8.06578,73870
8.07390,75058
8.08203,76582
8.09015,75070
8.09828,75587
8.10640,75224
8.11452,71702
8.12265,80575
8.13077,68952
8.13890,77851
8.14702,92690
8.15513,104804
8.16327,113408
8.17138,106857
8.17950,92357
8.18763,91298
8.19575,77463
8.20388,77913
8.21200,74379
8.22012,73914
8.22825,68981
8.23637,76178
8.24450,66589
8.25262,66080
8.26073,65168
8.26887,66498
8.27698,61774
8.28510,66695
8.29323,64413
8.30135,69459
8.30948,68570
8.31760,74296
8.32572,82998
8.33385,76128
8.34197,71527
8.35010,69588
8.35822,68328
8.36633,73470
8.37447,67023
8.38258,74404
8.39072,68848
8.39883,68675
8.40695,69529
8.41508,67748
8.42320,62020
8.43132,63772
8.43945,60777
8.44757,57294
8.45570,54577
8.46382,60320
8.47193,63264
8.48007,64663
8.48818,69934
8.49632,57498
8.50443,60116
8.51255,56038
8.52068,73009
8.52880,104525
8.53692,234087
8.54505,455839
8.55317,746212
8.56130,902417
8.56942,855974
8.57753,601761
8.58567,351087
8.59378,215040
8.60192,147050
8.61003,114059
8.61815,109832
8.62628,103775
8.63440,105923
8.64253,98573
8.65065,95359
8.65877,86431
8.66690,78818
8.67502,81976
8.68313,80240
8.69127,76888
8.69938,76073
8.70752,75165
8.71563,68218
8.72375,73646
8.73188,69463
8.74000,68103
8.74813,67826
8.75625,67807
8.76437,79422
8.77250,126855
8.78062,208682
8.78873,370273
8.79687,518958
8.80498,587282
8.81312,532990
8.82123,421795
8.82935,314714
8.83748,229771
8.84560,192628
8.85373,180484
8.86185,182436
8.86997,182192
8.87810,173780
8.88622,167497
8.89435,156740
8.90247,145398
8.91058,144054
8.91872,135908
8.92683,142351
8.93495,144963
8.94308,163823
8.95120,175473
8.95933,185355
8.96745,183066
8.97557,169444
8.98370,154215
8.99182,148586
8.99995,152145
9.00807,144725
9.01618,130784
9.02432,124967
9.03243,118603
9.04057,108591
9.04868,109828
9.05680,106807
9.06493,101303
9.07305,96807
9.08117,97458
9.08930,101705
9.09742,108359
9.10555,122085
9.11367,136618
9.12178,159589
9.12992,161070
9.13803,159333
9.14617,141389
9.15428,127144
9.16240,115366
9.17053,111427
9.17865,98045
9.18678,105661
9.19490,96771
9.20302,92510
9.21115,95673
9.21927,96543
9.22738,98536
9.23552,96575
9.24363,84953
9.25177,94288
9.25988,84878
9.26800,93017
9.27613,84877
9.28425,84234
9.29238,78701
9.30050,83732
9.30862,76637
9.31675,86384
9.32487,79277
9.33298,79541
9.34112,78012
9.34923,78565
9.35737,82384
9.36548,84290
9.37360,78250
9.38173,79998
9.38985,82033
9.39798,80589
9.40610,87761
9.41422,87673
9.42235,101862
9.43047,115282
9.43860,131666
9.44672,142361
9.45483,145552
9.46297,125733
9.47108,113054
9.47920,100295
9.48733,94152
9.49545,83394
9.50358,93432
9.51170,101125
9.51982,117625
9.52795,136763
9.53607,143221
9.54420,138228
9.55232,120649
9.56043,107659
9.56857,95467
9.57668,83867
9.58480,75670
9.59293,71209
9.60105,71186
9.60918,65331
9.61730,59622
9.62542,57666
9.63355,57479
9.64167,55665
9.64980,50977
9.65792,51953
9.66603,51642
9.67417,56641
9.68228,52423
9.69042,51225
9.69853,50999
9.70665,51296
9.71478,46567
9.72290,51584
9.73102,51966
9.73915,50453
9.74727,51818
9.75540,46352
9.76352,47768
9.77163,46584
9.77977,44785
9.78788,49605
9.79602,48635
9.80413,45721
9.81225,49525
9.82038,47681
9.82850,47068
9.83663,46793
9.84475,46455
9.85287,45746
9.86100,49003
9.86912,52320
9.87723,55070
9.88537,56140
9.89348,55507
9.90162,49552
9.90973,55188
9.91785,46836
9.92598,50753
9.93410,58254
9.94223,72382
9.95035,105781
9.95847,128735
9.96660,150386
9.97472,148430
9.98283,125693
9.99097,102115
9.99908,86905
10.00722,79325
10.01533,76387
10.02345,71907
10.03158,71310
10.03970,67869
10.04783,61710
10.05595,61546
10.06407,60926
10.07220,58471
10.08032,57769
10.08845,62941
10.09657,62822
10.10468,74817
10.11282,64367
10.12093,68815
10.12905,61179
10.13718,58662
10.14530,56518
10.15343,59068
10.16155,56852
10.16967,55051
10.17780,55890
10.18592,51323
10.19405,53479
10.20217,53438
10.21028,53307
10.21842,51802
10.22653,56742
10.23467,54552
10.24278,59926
10.25090,62854
10.25903,71990
10.26715,111982
10.27527,249907
10.28340,599894
10.29152,1356708
10.29965,2405099
10.30777,3800732
10.31588,5477327
10.32402,8125486
10.33213,1.245328E+07
10.34027,1.743461E+07
10.34838,2.108772E+07
10.35650,2.077039E+07
10.36463,1.609667E+07
10.37275,9489107
10.38087,4691643
10.38900,2434626
10.39712,1419652
10.40525,961529
10.41337,709126
10.42148,550363
10.42962,443026
10.43773,386819
10.44587,350487
10.45398,343903
10.46210,327294
10.47023,315977
10.47835,290396
10.48648,273761
10.49460,249787
10.50272,234425
10.51085,219729
10.51897,198331
10.52708,200184
10.53522,186661
10.54333,184145
10.55147,176536
10.55958,185879
10.56770,168641
10.57583,171261
10.58395,156006
10.59208,153812
10.60020,140964
10.60832,143206
10.61645,137501
10.62457,128670
10.63268,121150
10.64082,119156
10.64893,114208
10.65707,111105
10.66518,105429
10.67330,107225
10.68143,103639
10.68955,108769
10.69768,111116
10.70580,105727
10.71392,106843
10.72205,107982
10.73017,103089
10.73830,104422
10.74642,100257
10.75453,95771
10.76267,99858
10.77078,100561
10.77890,90776
10.78703,89871
10.79515,89852
10.80328,90321
10.81140,91988
10.81952,90577
10.82765,89116
10.83577,86109
10.84390,84101
10.85202,80420
10.86013,78141
10.86827,73587
10.87638,74550
10.88452,76940
10.89263,73137
10.90075,76972
10.90888,69507
10.91700,71008
10.92512,68977
10.93325,66850
10.94137,69030
10.94950,72852
10.95762,69941
10.96573,63186
10.97387,69539
10.98198,68911
10.99012,65011
10.99823,67983
11.00635,70768
11.01448,64305
11.02260,66618
11.03072,68225
11.03885,63546
11.04697,63669
11.05510,63384
11.06322,61526
11.07133,62149
11.07947,65996
11.08758,69798
11.09572,77012
11.10383,69803
11.11195,67166
11.12008,72628
11.12820,59676
11.13633,53285
11.14445,52091
11.15257,51862
11.16070,53046
11.16882,54390
11.17693,60959
11.18507,57712
11.19318,58875
11.20132,63851
11.20943,58340
11.21755,57259
11.22568,52573
11.23380,57400
11.24193,58035
11.25005,48742
11.25817,48877
11.26630,49122
11.27442,47389
11.28255,47376
11.29067,43859
11.29878,51602
11.30692,64080
11.31503,107054
11.32315,187682
11.33128,323058
11.33940,469402
11.34753,619547
11.35565,694374
11.36377,639874
11.37190,483811
11.38002,357998
11.38815,233648
11.39627,186711
11.40438,154477
11.41252,151440
11.42063,141363
11.42875,130832
11.43688,118136
11.44500,115679
11.45313,114807
11.46125,100322
11.46937,90871
11.47750,98408
11.48562,108409
11.49375,132620
11.50187,163153
11.50998,185938
11.51812,190554
11.52623,172866
11.53437,149753
11.54248,130986
11.55060,128230
11.55873,117138
11.56685,118898
11.57497,110745
11.58310,96866
11.59122,94525
11.59935,90850
11.60747,104664
11.61558,136471
11.62372,175866
11.63183,192301
11.63997,185451
11.64808,173781
11.65620,127634
11.66433,106955
11.67245,83981
11.68058,81089
11.68870,79159
11.69682,76800
11.70495,78864
11.71307,81422
11.72118,70802
11.72932,71842
11.73743,65168
11.74557,64142
11.75368,60629
11.76180,59890
11.76993,61392
11.77805,62071
11.78618,60195
11.79430,55278
11.80242,49492
11.81055,51706
11.81867,56379
11.82678,51610
11.83492,54161
11.84303,53362
11.85117,51831
11.85928,51353
11.86740,49705
11.87553,52183
11.88365,50363
11.89178,48697
11.89990,47227
11.90802,45971
11.91615,48522
11.92427,50093
11.93240,54209
11.94052,53963
11.94863,59958
11.95677,50862
11.96488,58763
11.97300,49222
11.98113,48741
11.98925,48695
11.99738,53943
12.00550,60652
12.01362,72326
12.02175,85465
12.02987,83019
12.03800,79354
12.04612,78147
12.05423,62016
12.06237,59320
12.07048,51023
12.07860,53941
12.08673,51782
12.09485,52155
12.10298,60712
12.11110,69622
12.11922,94976
12.12735,137283
12.13547,179325
12.14360,204075
12.15172,191760
12.15983,164422
12.16797,118263
12.17608,91077
12.18422,71972
12.19233,69968
12.20045,64322
12.20858,71753
12.21670,68177
12.22482,65008
12.23295,71847
12.24107,67434
12.24920,62844
12.25732,67173
12.26543,62042
12.27357,60007
12.28168,59082
12.28982,58875
12.29793,59061
12.30605,58411
12.31418,59700
12.32230,56265
12.33043,51556
12.33855,53464
12.34667,59629
12.35480,55408
12.36292,55496
12.37103,59539
12.37917,56940
12.38728,54656
12.39542,59365
12.40353,54275
12.41165,63620
12.41978,74626
12.42790,88949
12.43603,103323
12.44415,115924
12.45227,103108
12.46040,88118
12.46852,88840
12.47663,68312
12.48477,69996
12.49288,61502
12.50102,60225
12.50913,57505
12.51725,54984
12.52538,50750
12.53350,55221
12.54163,58274
12.54975,68268
12.55787,85440
12.56600,100295
12.57412,116138
12.58225,125146
12.59037,117208
12.59848,97908
12.60662,82327
12.61473,70487
12.62285,69893
12.63098,64707
12.63910,65760
12.64723,61795
12.65535,56506
12.66347,56686
12.67160,58049
12.67972,53126
12.68785,53603
12.69597,49758
12.70408,52342
12.71222,47868
12.72033,51304
12.72847,54469
12.73658,51220
12.74470,53732
12.75283,52178
12.76095,53187
12.76907,48068
12.77720,50821
12.78532,47224
12.79345,48407
12.80157,42797
12.80968,44349
12.81782,42831
12.82593,42230
12.83407,44463
12.84218,40059
12.85030,43451
12.85843,40673
12.86655,36188
12.87467,44973
12.88280,40779
12.89092,41316
12.89905,48897
12.90717,37418
12.91528,38508
12.92342,37695
12.93153,37664
12.93967,40144
12.94778,38102
12.95590,42050
12.96403,41713
12.97215,39130
12.98028,44577
12.98840,47642
12.99652,54186
13.00465,52486
13.01277,48165
13.02088,41003
13.02902,43096
13.03713,42311
13.04527,41934
13.05338,39200
13.06150,39030
13.06963,41122
13.07775,44351
13.08588,40795
13.09400,44821
13.10212,42035
13.11025,42350
13.11837,42913
13.12648,44472
13.13462,41876
13.14273,40634
13.15087,42501
13.15898,36520
13.16710,39762
13.17523,44744
13.18335,40402
13.19148,44298
13.19960,42556
13.20772,43657
13.21585,47478
13.22397,51917
13.23210,49589
13.24022,46433
13.24833,45857
13.25647,44184
13.26458,43313
13.27270,44107
13.28083,41682
13.28895,39802
13.29708,39244
13.30520,39406
13.31332,41362
13.32145,36512
13.32957,35192
13.33770,36946
13.34582,36007
13.35393,35467
13.36207,35045
13.37018,36647
13.37832,35173
13.38643,35205
13.39455,35901
13.40268,38453
13.41080,32283
13.41892,31552
13.42705,32520
13.43517,35971
13.44330,34118
13.45142,35805
13.45953,38061
13.46767,37064
13.47578,37291
13.48392,38491
13.49203,40266
13.50015,37462
13.50828,37624
13.51640,34084
13.52452,37452
13.53265,41515
13.54077,42316
13.54890,41428
13.55702,40694
13.56513,40904
13.57327,41079
13.58138,43010
13.58952,41203
13.59763,46207
13.60575,44433
13.61388,51920
13.62200,54907
13.63013,57956
13.63825,60050
13.64637,56255
13.65450,50089
13.66262,44327
13.67073,37517
13.67887,36468
13.68698,39246
13.69512,36386
13.70323,35638
13.71135,38647
13.71948,36545
13.72760,38166
13.73573,41557
13.74385,43170
13.75197,45454
13.76010,54335
13.76822,76890
13.77635,117550
13.78447,158273
13.79258,211777
13.80072,257889
13.80883,274099
13.81695,300230
13.82508,286134
13.83320,274528
13.84133,277847
13.84945,265415
13.85757,243799
13.86570,208686
13.87382,174425
13.88195,137454
13.89007,122322
13.89818,100342
13.90632,85769
13.91443,78841
13.92255,68838
13.93068,65282
13.93880,63823
13.94693,62558
13.95505,64613
13.96317,67499
13.97130,87599
13.97942,119254
13.98755,135071
13.99567,159155
14.00378,165062
14.01192,139710
14.02003,123780
14.02817,95489
14.03628,85076
14.04440,77250
14.05253,69984
14.06065,65657
14.06877,63226
14.07690,59708
14.08502,60546
14.09315,61477
14.10127,59863
14.10938,60432
14.11752,57282
14.12563,55776
14.13377,51490
14.14188,57630
14.15000,54006
14.15813,61047
14.16625,60362
14.17437,66472
14.18250,60736
14.19062,66603
14.19875,78911
14.20687,96224
14.21498,129685
14.22312,160452
14.23123,184517
14.23937,191600
14.24748,190516
14.25560,174537
14.26373,167651
14.27185,157413
14.27998,147672
14.28810,127203
14.29622,114716
14.30435,102467
14.31247,90909
14.32058,85139
14.32872,82808
14.33683,81829
14.34497,84775
14.35308,84611
14.36120,86017
14.36933,86321
14.37745,77948
14.38558,66610
14.39370,63183
14.40182,54665
14.40995,57466
14.41807,59331
14.42620,70904
14.43432,77387
14.44243,76839
14.45057,71298
14.45868,63932
14.46680,55556
14.47493,53677
14.48305,48785
14.49118,47853
14.49930,49178
14.50742,46024
14.51555,53122
14.52367,47827
14.53180,48298
14.53992,49618
14.54803,50270
14.55617,46366
14.56428,49386
14.57242,45025
14.58053,44749
14.58865,42807
14.59678,42662
14.60490,39798
14.61302,39673
14.62115,35952
14.62927,36980
14.63740,41034
14.64552,45441
14.65363,40006
14.66177,39573
14.66988,37540
14.67802,34547
14.68613,34801
14.69425,37931
14.70238,40182
14.71050,34865
14.71862,39764
14.72675,40130
14.73487,39753
14.74300,41108
14.75112,41087
14.75923,39764
14.76737,45569
14.77548,42535
14.78362,48387
14.79173,56183
14.79985,99227
14.80798,243365
14.81610,650101
14.82423,1503229
14.83235,2826246
14.84047,4164980
14.84860,4906325
14.85672,4617985
14.86483,3595542
14.87297,2378239
14.88108,1430356
14.88922,904035
14.89733,615476
14.90545,485620
14.91358,402606
14.92170,342860
14.92983,305188
14.93795,271486
14.94607,250224
14.95420,238434
14.96232,215079
14.97043,194716
14.97857,184806
14.98668,175578
14.99482,166062
15.00293,157281
15.01105,155607
15.01918,144077
15.02730,137909
15.03543,132023
15.04355,128095
15.05167,116981
15.05980,120306
15.06792,112396
15.07605,105889
15.08417,107351
15.09228,97580
15.10042,96531
15.10853,98082
15.11665,97735
15.12478,96738
15.13290,94755
15.14103,104105
15.14915,125817
15.15727,123268
15.16540,118434
15.17352,117479
15.18165,91099
15.18977,84529
15.19788,71556
15.20602,62623
15.21413,58169
15.22227,57277
15.23038,59238
15.23850,52399
15.24663,49692
15.25475,57589
15.26287,50668
15.27100,52173
15.27912,48740
15.28725,56171
15.29537,46976
15.30348,47224
15.31162,50634
15.31973,52604
15.32787,48568
15.33598,44997
15.34410,45833
15.35223,45409
15.36035,44417
15.36847,47444
15.37660,45209
15.38472,50781
15.39285,43985
15.40097,48666
15.40908,46347
15.41722,45974
15.42533,44364
15.43347,44567
15.44158,47444
15.44970,44743
15.45783,48124
15.46595,48504
15.47408,51676
15.48220,62835
15.49032,81711
15.49845,89638
15.50657,108986
15.51468,119757
15.52282,126849
15.53093,120286
15.53907,117572
15.54718,112007
15.55530,110228
15.56343,101703
15.57155,97737
15.57968,76473
15.58780,71045
15.59592,64111
15.60405,58474
15.61217,53524
15.62030,50536
15.62842,50163
15.63653,50165
15.64467,44939
15.65278,49310
15.66090,43750
15.66903,45711
15.67715,45557
15.68528,46737
15.69340,43812
15.70152,44103
15.70965,44980
15.71777,41139
15.72590,42565
15.73402,43408
15.74213,45559
15.75027,52932
15.75838,54279
15.76650,82824
15.77463,137208
15.78275,229137
15.79088,356752
15.79900,486238
15.80712,533268
15.81525,475069
15.82337,354668
15.83150,250267
15.83962,173227
15.84773,130269
15.85587,103732
15.86398,96480
15.87212,90635
15.88023,95455
15.88835,100714
15.89648,105073
15.90460,104857
15.91272,113309
15.92085,97387
15.92897,87405
15.93710,81123
15.94522,72216
15.95333,71304
15.96147,68770
15.96958,72997
15.97772,70256
15.98583,79887
15.99395,82966
16.00208,77498
16.01020,85159
16.01832,77117
16.02645,79170
16.03457,73898
16.04270,80481
16.05082,72184
16.05893,65784
16.06707,63305
16.07518,59933
16.08332,52701
16.09143,52663
16.09955,58038
16.10768,52793
16.11580,48153
16.12393,53983
16.13205,56715
16.14017,57024
16.14830,56865
16.15642,59115
16.16453,59433
16.17267,57786
16.18078,55575
16.18892,53271
16.19703,54373
16.20515,47834
16.21328,54441
16.22140,48094
16.22953,47914
16.23765,52096
16.24577,48971
16.25390,48154
16.26202,48067
16.27015,47836
16.27827,45893
16.28638,46640
16.29452,52878
16.30263,54640
16.31075,55676
16.31888,55094
16.32700,51355
16.33513,53890
16.34325,49877
16.35137,49821
16.35950,52087
16.36762,59383
16.37575,73375
16.38387,85761
16.39198,96368
16.40012,93128
16.40823,77930
16.41635,69496
16.42448,68067
16.43260,55148
16.44073,59355
16.44885,63269
16.45697,89590
16.46510,156127
16.47322,308120
16.48135,546519
16.48947,831174
16.49758,979447
16.50572,947139
16.51383,773302
16.52197,511902
16.53008,331251
16.53820,223993
16.54633,159904
16.55445,129488
16.56257,118875
16.57070,102393
16.57882,95232
16.58695,91076
16.59507,93387
16.60318,88368
16.61132,85956
16.61943,88725
16.62757,92654
16.63568,90768
16.64380,83733
16.65193,78091
16.66005,73996
16.66818,67359
16.67630,68435
16.68442,67304
16.69255,58560
16.70067,53205
16.70878,56639
16.71692,55107
16.72503,54642
16.73317,54439
16.74128,52873
16.74940,50589
16.75753,50739
16.76565,58111
16.77378,62890
16.78190,62609
16.79002,61859
16.79815,56224
16.80627,54243
16.81438,52018
16.82252,44486
16.83063,41643
16.83877,47527
16.84688,45734
16.85500,38596
16.86313,42577
16.87125,42710
16.87938,39801
16.88750,39256
16.89562,41743
16.90375,41890
16.91187,40598
16.92000,40612
16.92812,41708
16.93623,41209
16.94437,40917
16.95248,42689
16.96060,41658
16.96873,42895
16.97685,42489
16.98498,40799
16.99310,43545
17.00122,40735
17.00935,38383
17.01747,41981
17.02560,44641
17.03372,41959
17.04183,41108
17.04997,49312
17.05808,47279
17.06622,57735
17.07433,52424
17.08245,56296
17.09058,53062
17.09870,56842
17.10682,65408
17.11495,66768
17.12307,69416
17.13120,72591
17.13932,75426
17.14743,67880
17.15557,65335
17.16368,61595
17.17182,59288
17.17993,56739
17.18805,52539
17.19618,46539
17.20430,45087
17.21242,43745
17.22055,43113
17.22867,48491
17.23680,45244
17.24492,50617
17.25303,48629
17.26117,45812
17.26928,46667
17.27742,53318
17.28553,46444
17.29365,46519
17.30178,45609
17.30990,43778
17.31803,40267
17.32615,54982
17.33427,51093
17.34240,48624
17.35052,57529
17.35863,58757
17.36677,61997
17.37488,56108
17.38302,59591
17.39113,60237
17.39925,61423
17.40738,61330
17.41550,57196
17.42363,55898
17.43175,50663
17.43987,51726
17.44800,53505
17.45612,51376
17.46423,49544
17.47237,51401
17.48048,48399
17.48862,45021
17.49673,43329
17.50485,44402
17.51298,45446
17.52110,44859
17.52923,47612
17.53735,45909
17.54547,43680
17.55360,46869
17.56172,55685
17.56985,69838
17.57797,106512
17.58608,177048
17.59422,312258
17.60233,481632
17.61045,702303
17.61858,885670
17.62670,889776
17.63483,803752
17.64295,622571
17.65107,470205
17.65920,351448
17.66732,321033
17.67545,310045
17.68357,302477
17.69168,271133
17.69982,230365
17.70793,193954
17.71607,159407
17.72418,127612
17.73230,115176
17.74043,98373
17.74855,85079
17.75667,84626
17.76480,81719
17.77292,78039
17.78105,74386
17.78917,67901
17.79728,68378
17.80542,72250
17.81353,69206
17.82167,65925
17.82978,66757
17.83790,73381
17.84603,73928
17.85415,78369
17.86227,81421
17.87040,86805
17.87852,89297
17.88665,91671
17.89477,86398
17.90288,72236
17.91102,67977
17.91913,59717
17.92727,55092
17.93538,54549
17.94350,48448
17.95163,49868
17.95975,46669
17.96788,46648
17.97600,52897
17.98412,49375
17.99225,48006
18.00037,44698
18.00848,46943
18.01662,50823
18.02473,61830
18.03287,69984
18.04098,85164
18.04910,98482
18.05723,102249
18.06535,111525
18.07348,148520
18.08160,211371
18.08972,312293
18.09785,472338
18.10597,562775
18.11410,609876
18.12222,553724
18.13033,448183
18.13847,350657
18.14658,283093
18.15470,238636
18.16283,212212
18.17095,186276
18.17908,174448
18.18720,174596
18.19532,152532
18.20345,153047
18.21157,130946
18.21970,121296
18.22782,112481
18.23593,112801
18.24407,97700
18.25218,99931
18.26030,98299
18.26843,100743
18.27655,94593
18.28468,87794
18.29280,74218
18.30092,67521
18.30905,61973
18.31717,55911
18.32530,55390
18.33342,51776
18.34153,51918
18.34967,49803
18.35778,48760
18.36592,45786
18.37403,58953
18.38215,44890
18.39028,54719
18.39840,51412
18.40652,50649
18.41465,48646
18.42277,51500
18.43090,49556
18.43902,55267
18.44713,61813
18.45527,80304
18.46338,113092
18.47152,158715
18.47963,226869
18.48775,290853
18.49588,333326
18.50400,336614
18.51212,293702
18.52025,234431
18.52837,172125
18.53650,124980
18.54462,91456
18.55273,80623
18.56087,70806
18.56898,69671
18.57712,63303
18.58523,58870
18.59335,65940
18.60148,60043
18.60960,58040
18.61773,59333
18.62585,57945
18.63397,60199
18.64210,62697
18.65022,61569
18.65833,56185
18.66647,52837
18.67458,60988
18.68272,54700
18.69083,54158
18.69895,51644
18.70708,53160
18.71520,55177
18.72333,72637
18.73145,107457
18.73957,159511
18.74770,186038
18.75582,204485
18.76395,224643
18.77207,229615
18.78018,228713
18.78832,232385
18.79643,240827
18.80455,239710
18.81268,241265
18.82080,243012
18.82893,245074
18.83705,247830
18.84517,240282
18.85330,233805
18.86142,240590
18.86955,236846
18.87767,244439
18.88578,238727
18.89392,233928
18.90203,241158
18.91017,244085
18.91828,240356
18.92640,236729
18.93453,245826
18.94265,249104
18.95077,246658
18.95890,248491
18.96702,255438
18.97515,255025
18.98327,248367
18.99138,240654
18.99952,227531
19.00763,236857
19.01577,231606
19.02388,218680
19.03200,223165
19.04013,220010
19.04825,220791
19.05637,222049
19.06450,209636
19.07262,213803
19.08075,211227
19.08887,212551
19.09698,232000
19.10512,251083
19.11323,263936
19.12137,272908
19.12948,262407
19.13760,252535
19.14573,237597
19.15385,223764
19.16198,215019
19.17010,215194
19.17822,222481
19.18635,214149
19.19447,216585
19.20258,211947
19.21072,211913
19.21883,199395
19.22697,208848
19.23508,199018
19.24320,193653
19.25133,195275
19.25945,191072
19.26758,187378
19.27570,186567
19.28382,187160
19.29195,190982
19.30007,191662
19.30818,189709
19.31632,190958
19.32443,186977
19.33257,188274
19.34068,183630
19.34880,185897
19.35693,187110
19.36505,194660
19.37318,208933
19.38130,218335
19.38942,236107
19.39755,234935
19.40567,226761
19.41380,210498
19.42192,196125
19.43003,180890
19.43817,179356
19.44628,179312
19.45440,165623
19.46253,167831
19.47065,166109
19.47878,165536
19.48690,167817
19.49502,168500
19.50315,183944
19.51127,197379
19.51940,231952
19.52752,256276
19.53563,268714
19.54377,267180
19.55188,248069
19.56002,219494
19.56813,191252
19.57625,176417
19.58438,167271
19.59250,160136
19.60062,158531
19.60875,152541
19.61687,147606
19.62500,148431
19.63312,153702
19.64123,156716
19.64937,186264
19.65748,225408
19.66562,312039
19.67373,400597
19.68185,488893
19.68998,542777
19.69810,545674
19.70622,490352
19.71435,439740
19.72247,365529
19.73060,319869
19.73872,274175
19.74683,238693
19.75497,232580
19.76308,205447
19.77122,188413
19.77933,176752
19.78745,176353
19.79558,177680
19.80370,182883
19.81183,192155
19.81995,189467
19.82807,188889
19.83620,175810
19.84432,166910
19.85243,175675
19.86057,223210
19.86868,439498
19.87682,1002191
19.88493,2162630
19.89305,4158033
19.90118,6681562
19.90930,8796654
19.91743,1.023955E+07
19.92555,1.001195E+07
19.93367,8503033
19.94180,6663746
19.94992,5007412
19.95805,3969687
19.96617,3376492
19.97428,3019677
19.98242,2768885
19.99053,2607431
19.99865,2395416
20.00678,2223288
20.01490,2083020
20.02303,1976786
20.03115,1833646
20.03927,1738273
20.04740,1605445
20.05552,1413792
20.06365,1192006
20.07177,929290
20.07988,714780
20.08802,580031
20.09613,486643
20.10425,423572
20.11238,388324
20.12050,364329
20.12863,360756
20.13675,342830
20.14487,338197
20.15300,331334
20.16112,325013
20.16925,337024
20.17737,350691
20.18548,366348
20.19362,396054
20.20173,394110
20.20987,390397
20.21798,370902
20.22610,354731
20.23423,338245
20.24235,319198
20.25047,310287
20.25860,317563
20.26672,351491
20.27485,405785
20.28297,462352
20.29108,539528
20.29922,571861
20.30733,563096
20.31547,509962
20.32358,447501
20.33170,384951
20.33983,321466
20.34795,255750
20.35607,224399
20.36420,181841
20.37232,161968
20.38045,137030
20.38857,133387
20.39668,130515
20.40482,118602
20.41293,120187
20.42107,120265
20.42918,122609
20.43730,130076
20.44543,141102
20.45355,143743
20.46168,160679
20.46980,165671
20.47792,153629
20.48605,147980
20.49417,135817
20.50228,130441
20.51042,122858
20.51853,120483
20.52667,111233
20.53478,107218
20.54290,106674
20.55103,99836
20.55915,98214
20.56728,99780
20.57540,105650
20.58352,100723
20.59165,97445
20.59977,96268
20.60790,97952
20.61602,100310
20.62413,96036
20.63227,92298
20.64038,92741
20.64850,95210
20.65663,92080
20.66475,95321
20.67288,93533
20.68100,90064
20.68912,88922
20.69725,90901
20.70537,91209
20.71350,90714
20.72162,85335
20.72973,84711
20.73787,87089
20.74598,85249
20.75410,81110
20.76223,91593
20.77035,89011
20.77848,90337
20.78660,94991
20.79472,106620
20.80285,135760
20.81097,185887
20.81910,227847
20.82722,295551
20.83533,302266
20.84347,283263
20.85158,251081
20.85972,199380
20.86783,152501
20.87595,118249
20.88408,111552
20.89220,103721
20.90032,99274
20.90845,89338
20.91657,89223
20.92470,88527
20.93282,84940
20.94093,92383
20.94907,88343
20.95718,85307
20.96532,84957
20.97343,80264
20.98155,81950
20.98968,80041
20.99780,74889
21.00593,81024
21.01405,79507
21.02217,81216
21.03030,81494
21.03842,81665
21.04653,78251
21.05467,76983
21.06278,78674
21.07092,76171
21.07903,80881
21.08715,80382
21.09528,79570
21.10340,77283
21.11153,77295
21.11965,81646
21.12777,82386
21.13590,92553
21.14402,100929
21.15213,128696
21.16027,150165
21.16838,188257
21.17652,196717
21.18463,200297
21.19275,178402
21.20088,162103
21.20900,135070
21.21713,115323
21.22525,101802
21.23337,96949
21.24150,98769
21.24962,93619
21.25775,90858
21.26587,88283
21.27398,83965
21.28212,84798
21.29023,80031
21.29835,77845
21.30648,76727
21.31460,81992
21.32273,81128
21.33085,78206
21.33897,79160
21.34710,80703
21.35522,78615
21.36335,83300
21.37147,74671
21.37958,75451
21.38772,79436
21.39583,80182
21.40395,80202
21.41208,86068
21.42020,91653
21.42833,97662
21.43645,100752
21.44457,93782
21.45270,88489
21.46082,92480
21.46895,85914
21.47707,79034
21.48518,83850
21.49332,74298
21.50143,73598
21.50957,75424
21.51768,71453
21.52580,73109
21.53393,78607
21.54205,70841
21.55017,68567
21.55830,64772
21.56642,65986
21.57455,64687
21.58267,71421
21.59078,76214
21.59892,76517
21.60703,77460
21.61517,81451
21.62328,78487
21.63140,85688
21.63953,91718
21.64765,100447
21.65578,115376
21.66390,121407
21.67202,129881
21.68015,120785
21.68827,119277
21.69638,116883
21.70452,103257
21.71263,93655
21.72077,85283
21.72888,82645
21.73700,70794
21.74513,68023
21.75325,66169
21.76138,65850
21.76950,56841
21.77762,58762
21.78575,58081
21.79387,56434
21.80198,59332
21.81012,60028
21.81823,57339
21.82637,58302
21.83448,65129
21.84260,75481
21.85073,83128
21.85885,98227
21.86698,98932
21.87510,94336
21.88322,91044
21.89135,76807
21.89947,76390
21.90760,69144
21.91572,62510
21.92383,56263
21.93197,53017
21.94008,56695
21.94820,62852
21.95633,54831
21.96445,55172
21.97258,47792
21.98070,51290
21.98882,45121
21.99695,47408
22.00507,52133
22.01320,50527
22.02132,50007
22.02943,46180
22.03757,54303
22.04568,53082
22.05382,47267
22.06193,58062
22.07005,53405
22.07818,50444
22.08630,48105
22.09442,50958
22.10255,50990
22.11067,46675
22.11880,50012
22.12692,48263
22.13503,44741
22.14317,46252
22.15128,43227
22.15942,45780
22.16753,47814
22.17565,43655
22.18378,44956
22.19190,49663
22.20002,51190
22.20815,48898
22.21627,46166
22.22440,48281
22.23252,53179
22.24063,53315
22.24877,54429
22.25688,55610
22.26502,56074
22.27313,64556
22.28125,57722
22.28938,52400
22.29750,55042
22.30563,62243
22.31375,69950
22.32187,88179
22.33000,100673
22.33812,123451
22.34623,138788
22.35437,138143
22.36248,124710
22.37062,118808
22.37873,104520
22.38685,95013
22.39498,82172
22.40310,87204
22.41123,94286
22.41935,112644
22.42747,121983
22.43560,131698
22.44372,142464
22.45185,137977
22.45997,125152
22.46808,126225
22.47622,112802
22.48433,116094
22.49245,113838
22.50058,118723
22.50870,124034
22.51683,130794
22.52495,131990
22.53307,125536
22.54120,123718
22.54932,122085
22.55745,118632
22.56557,118086
22.57368,121868
22.58182,113724
22.58993,108145
22.59805,106306
22.60618,107086
22.61430,103143
22.62243,103797
22.63055,103385
22.63867,102432
22.64680,101639
22.65492,97838
22.66305,110193
22.67117,108662
22.67928,111260
22.68742,114081
22.69553,124476
22.70367,126111
22.71178,138480
22.71990,142962
22.72803,153931
22.73615,152186
22.74427,155975
22.75240,136243
22.76052,127317
22.76865,121572
22.77677,108790
22.78488,110409
22.79302,111503
22.80113,125569
22.80927,121563
22.81738,132599
22.82550,133637
22.83363,133894
22.84175,126008
22.84987,122907
22.85800,116358
22.86612,112384
22.87425,117589
22.88237,119533
22.89048,119418
22.89862,123888
22.90673,124754
22.91487,132524
22.92298,142465
22.93110,153214
22.93923,159254
22.94735,168750
22.95548,159258
22.96360,132723
22.97172,119632
22.97985,108811
22.98797,90206
22.99608,87573
23.00422,81434
23.01233,78674
23.02047,70641
23.02858,73368
23.03670,72495
23.04483,64561
23.05295,60990
23.06108,62755
23.06920,63816
23.07732,66177
23.08545,67644
23.09357,61970
23.10170,60466
23.10982,62835
23.11793,60501
23.12607,58818
23.13418,53619
23.14230,51303
23.15043,53828
23.15855,55071
23.16668,52206
23.17480,51733
23.18292,49834
23.19105,48483
23.19917,48953
23.20730,50143
23.21542,54305
23.22353,66146
23.23167,80727
23.23978,102811
23.24790,113716
23.25603,126317
23.26415,140899
23.27228,152682
23.28040,162926
23.28852,156092
23.29665,150168
23.30477,145917
23.31290,147990
23.32102,137603
23.32913,141619
23.33727,141611
23.34538,145949
23.35352,146649
23.36163,160549
23.36975,174523
23.37788,179516
23.38600,187758
23.39412,187523
23.40225,171926
23.41037,171415
23.41850,162426
23.42662,156853
23.43473,153610
23.44287,157438
23.45098,147237
23.45912,148646
23.46723,150376
23.47535,147755
23.48348,147130
23.49160,138660
23.49973,143772
23.50785,133339
23.51597,135895
23.52410,136943
23.53222,128824
23.54033,138888
23.54847,140706
23.55658,134509
23.56472,134547
23.57283,141618
23.58095,136881
23.58908,157034
23.59720,179304
23.60533,185608
23.61345,201694
23.62157,192211
23.62970,199168
23.63782,194965
23.64593,219227
23.65407,287539
23.66218,380654
23.67032,497923
23.67843,572683
23.68655,595633
23.69468,545983
23.70280,458450
23.71093,357435
23.71905,293439
23.72717,231312
23.73530,197098
23.74342,188424
23.75155,167743
23.75967,191054
23.76778,278965
23.77592,488269
23.78403,947669
23.79215,1620436
23.80028,2373634
23.80840,2817799
23.81653,2890428
23.82465,2475208
23.83277,1989818
23.84090,1490261
23.84902,1118600
23.85715,850577
23.86527,670110
23.87338,553153
23.88152,470805
23.88963,411876
23.89775,373339
23.90588,341292
23.91400,327539
23.92213,314656
23.93025,314966
23.93837,294506
23.94650,274247
23.95462,268972
23.96275,247551
23.97087,237070
23.97898,233117
23.98712,213466
23.99523,211374
24.00337,193209
24.01148,192195
24.01960,194708
24.02773,229213
24.03585,262348
24.04397,310378
24.05210,339067
24.06022,321691
24.06835,288484
24.07647,237839
24.08458,201770
24.09272,196562
24.10083,164487
24.10897,165468
24.11708,160640
24.12520,150426
24.13333,152332
24.14145,154434
24.14958,171123
24.15770,176729
24.16582,187231
24.17395,188477
24.18207,175030
24.19018,170348
24.19832,163436
24.20643,162274
24.21457,154254
24.22268,140135
24.23080,146319
24.23893,146252
24.24705,141242
24.25518,135520
24.26330,127992
24.27142,125330
24.27955,119478
24.28767,120978
24.29580,110799
24.30392,120259
24.31203,113012
24.32017,121417
24.32828,116029
24.33640,111056
24.34453,106583
24.35265,107769
24.36078,107236
24.36890,105264
24.37702,96997
24.38515,99711
24.39327,98200
24.40140,100277
24.40952,117256
24.41763,129144
24.42577,141881
24.43388,140568
24.44200,125051
24.45013,101429
24.45825,92982
24.46638,82983
24.47450,78902
24.48262,81357
24.49075,88575
24.49887,90382
24.50700,91589
24.51512,92458
24.52323,107634
24.53137,116103
24.53948,128855
24.54762,140554
24.55573,147584
24.56385,160183
24.57198,157758
24.58010,147235
24.58822,137355
24.59635,122130
24.60447,114083
24.61260,108205
24.62072,99665
24.62883,96393
24.63697,96843
24.64508,86206
24.65322,83578
24.66133,83681
24.66945,78591
24.67758,74703
24.68570,71825
24.69382,76267
24.70195,79060
24.71007,69812
24.71820,77201
24.72632,68887
24.73443,70700
24.74257,64358
24.75068,69475
24.75882,69341
24.76693,71229
24.77505,76321
24.78318,73828
24.79130,72952
24.79943,72418
24.80755,75540
24.81567,75412
24.82380,80177
24.83192,80465
24.84003,82728
24.84817,91292
24.85628,108890
24.86442,131106
24.87253,168605
24.88065,233405
24.88878,308263
24.89690,382062
24.90503,472012
24.91315,503637
24.92127,477399
24.92940,408927
24.93752,351177
24.94565,292998
24.95377,257690
24.96188,258032
24.97002,231526
24.97813,234570
24.98625,227808
24.99438,232550
25.00250,227388
25.01063,231979
25.01875,234319
25.02687,235991
25.03500,229044
25.04312,232475
25.05125,233764
25.05937,228666
25.06748,232758
25.07562,234900
25.08373,233132
25.09185,236605
25.09998,240624
25.10810,270587
25.11623,329188
25.12435,499907
25.13247,872198
25.14060,1449714
25.14872,2063382
25.15685,2622461
25.16497,2821643
25.17308,2640450
25.18122,2101676
25.18933,1488012
25.19747,1025398
25.20558,700505
25.21370,504626
25.22183,389829
25.22995,330456
25.23807,308476
25.24620,327283
25.25432,381330
25.26245,504386
25.27057,693109
25.27868,864619
25.28682,992657
25.29493,997718
25.30307,917675
25.31118,730440
25.31930,532605
25.32743,399828
25.33555,306104
25.34368,258842
25.35180,224316
25.35992,215254
25.36805,196303
25.37617,191616
25.38428,193278
25.39242,188596
25.40053,176936
25.40867,176223
25.41678,170430
25.42490,165286
25.43303,167792
25.44115,173002
25.44928,162530
25.45740,170338
25.46552,161216
25.47365,164581
25.48177,159661
25.48988,151225
25.49802,154727
25.50613,151949
25.51427,146179
25.52238,123266
25.53050,104188
25.53863,96893
25.54675,85674
25.55488,85949
25.56300,81040
25.57112,80448
25.57925,78131
25.58737,75904
25.59550,76874
25.60362,72762
25.61173,70760
25.61987,72355
25.62798,69639
25.63610,79140
25.64423,76713
25.65235,85693
25.66048,92696
25.66860,92669
25.67672,93765
25.68485,86174
25.69297,76881
25.70110,80774
25.70922,69978
25.71733,65680
25.72547,67987
25.73358,68644
25.74170,73763
25.74983,68872
25.75795,67630
25.76608,70336
25.77420,68269
25.78232,67986
25.79045,66717
25.79857,61688
25.80670,66959
25.81482,66319
25.82293,65227
25.83107,69996
25.83918,70345
25.84732,75882
25.85543,80283
25.86355,73845
25.87168,73748
25.87980,67497
25.88792,71332
25.89605,66048
25.90417,87661
25.91230,119249
25.92042,163714
25.92853,200155
25.93667,219411
25.94478,237812
25.95292,244070
25.96103,258431
25.96915,271430
25.97728,254810
25.98540,268231
25.99353,256310
26.00165,270968
26.00977,251569
26.01790,251975
26.02602,261552
26.03413,250993
26.04227,245528
26.05038,244593
26.05852,268943
26.06663,258640
26.07475,256925
26.08288,250389
26.09100,258214
26.09913,254521
26.10725,257834
26.11537,257425
26.12350,246233
26.13162,257864
26.13973,254728
26.14787,254682
26.15598,261400
26.16412,258797
26.17223,251441
26.18035,256161
26.18848,244296
26.19660,238295
26.20473,242777
26.21285,236488
26.22097,230415
26.22910,236814
26.23722,230088
26.24535,225315
26.25347,218171
26.26158,223542
26.26972,228911
26.27783,217353
26.28595,209414
26.29408,212935
26.30220,213424
26.31033,206820
26.31845,204408
26.32657,217896
26.33470,205700
26.34282,203980
26.35095,206346
26.35907,204755
26.36718,196451
26.37532,201931
26.38343,209607
26.39157,226089
26.39968,230560
26.40780,246964
26.41593,251979
26.42405,244740
26.43217,237735
26.44030,230198
26.44842,205746
26.45655,202879
26.46467,193165
26.47278,178029
26.48092,181090
26.48903,189966
26.49717,179482
26.50528,182799
26.51340,172011
26.52153,168577
26.52965,164875
26.53777,164395
26.54590,162644
26.55402,155613
26.56215,159402
26.57027,151631
26.57838,152226
26.58652,154282
26.59463,147605
26.60277,148787
26.61088,148404
26.61900,150822
26.62713,143266
26.63525,143730
26.64338,142603
26.65150,151560
26.65962,148296
26.66775,143489
26.67587,148506
26.68398,149326
26.69212,148834
26.70023,150623
26.70837,146838
26.71648,137609
26.72460,130992
26.73273,133352
26.74085,131693
26.74898,130155
26.75710,135275
26.76522,131526
26.77335,136717
26.78147,130556
26.78958,129772
26.79772,128377
26.80583,135117
26.81397,127259
26.82208,139572
26.83020,141229
26.83833,141258
26.84645,134771
26.85458,125405
26.86270,128345
26.87082,123689
26.87895,124535
26.88707,111783
26.89520,115790
26.90332,118023
26.91143,120740
26.91957,113693
26.92768,111861
26.93580,109994
26.94393,104170
26.95205,108604
26.96018,113485
26.96830,117609
26.97642,121442
26.98455,146583
26.99267,187991
27.00080,266069
27.00892,407947
27.01703,596661
27.02517,817546
27.03328,990277
27.04142,1082548
27.04953,1021015
27.05765,875876
27.06578,712766
27.07390,571930
27.08202,459389
27.09015,372851
27.09827,313227
27.10640,270520
27.11452,257674
27.12263,230377
27.13077,217196
27.13888,209881
27.14702,193938
27.15513,188434
27.16325,188902
27.17138,203600
27.17950,199413
27.18762,213192
27.19575,216206
27.20387,213960
27.21200,212884
27.22012,196606
27.22823,176323
27.23637,162317
27.24448,153874
27.25262,145786
27.26073,138045
27.26885,134356
27.27698,126420
27.28510,120066
27.29323,118020
27.30135,115439
27.30947,118644
27.31760,112060
27.32572,113346
27.33383,117830
27.34197,100606
27.35008,107000
27.35822,109717
27.36633,108249
27.37445,109712
27.38258,110033
27.39070,107083
27.39883,104256
27.40695,102638
27.41507,106739
27.42320,100582
27.43132,96072
27.43945,97273
27.44757,93714
27.45568,95962
27.46382,93620
27.47193,90558
27.48005,97921
27.48818,98636
27.49630,91969
27.50443,96293
27.51255,89120
27.52067,85046
27.52880,93786
27.53692,87965
27.54505,88091
27.55317,87340
27.56128,85614
27.56942,83471
27.57753,87107
27.58565,92240
27.59378,93950
27.60190,93960
27.61003,106406
27.61815,114017
27.62627,109131
27.63440,95679
27.64252,91633
27.65065,87528
27.65877,82888
27.66688,78483
27.67502,76542
27.68313,83432
27.69127,76821
27.69938,75509
27.70750,78207
27.71563,78079
27.72375,71503
27.73187,72430
27.74000,74010
27.74812,74888
27.75625,68316
27.76437,75581
27.77248,88459
27.78062,105212
27.78873,116205
27.79687,137134
27.80498,148643
27.81310,141650
27.82123,127558
27.82935,115923
27.83748,100098
27.84560,92512
27.85372,83713
27.86185,73233
27.86997,72348
27.87808,72117
27.88622,67154
27.89433,69572
27.90247,65436
27.91058,67111
27.91870,67103
27.92683,66866
27.93495,65350
27.94308,64393
27.95120,68178
27.95932,63048
27.96745,70134
27.97557,62268
27.98368,64651
27.99182,68276
27.99993,67562
28.00807,75408
28.01618,74488
28.02430,69346
28.03243,78798
28.04055,77538
28.04868,74790
28.05680,80919
28.06492,78339
28.07305,75185
28.08117,73509
28.08930,72340
28.09742,69080
28.10553,65548
28.11367,66539
28.12178,64477
28.12990,57812
28.13803,64394
28.14615,57177
28.15428,63373
28.16240,59027
28.17052,62707
28.17865,59907
28.18677,61871
28.19490,65327
28.20302,63130
28.21113,74757
28.21927,83502
28.22738,88860
28.23550,97856
28.24363,92590
28.25175,91210
28.25988,87443
28.26800,74298
28.27612,78135
28.28425,65669
28.29237,65805
28.30050,66134
28.30862,66206
28.31673,77253
28.32487,80635
28.33298,89996
28.34112,99976
28.34923,115348
28.35735,134682
28.36548,136530
28.37360,153181
28.38172,161417
28.38985,174179
28.39797,179641
28.40610,166584
28.41422,165049
28.42233,158598
28.43047,148412
28.43858,138888
28.44672,133878
28.45483,120596
28.46295,110299
28.47108,104867
28.47920,100296
28.48733,93591
28.49545,92434
28.50357,93454
28.51170,88890
28.51982,87382
28.52793,87926
28.53607,81855
28.54418,82078
28.55232,79509
28.56043,75732
28.56855,79305
28.57668,74796
28.58480,71161
28.59293,64575
28.60105,66816
28.60917,69354
28.61730,70589
28.62542,65667
28.63353,74936
28.64167,69205
28.64978,74924
28.65792,71371
28.66603,73946
28.67415,78137
28.68228,70160
28.69040,67981
28.69853,80676
28.70665,71846
28.71477,70945
28.72290,67046
28.73102,70716
28.73915,72600
28.74727,64105
28.75538,71754
28.76352,67253
28.77163,70161
28.77975,72548
28.78788,80433
28.79600,83437
28.80413,84963
28.81225,86609
28.82037,79380
28.82850,77557
28.83662,70574
28.84475,65349
28.85287,70698
28.86098,65516
28.86912,62694
28.87723,66438
28.88537,67396
28.89348,70951
28.90160,68621
28.90973,72844
28.91785,74487
28.92597,75164
28.93410,73151
28.94222,70212
28.95035,71270
28.95847,71157
28.96658,79933
28.97472,75575
28.98283,75655
28.99097,72594
28.99908,71783
29.00720,64908
29.01533,59810
29.02345,55561
29.03157,58273
29.03970,60639
29.04782,62781
29.05595,64484
29.06407,70205
29.07218,70832
29.08032,73617
29.08843,79245
29.09657,80989
29.10468,86135
29.11280,79756
29.12093,73211
29.12905,67830
29.13718,59931
29.14530,67022
29.15342,65857
29.16155,66974
29.16967,61956
29.17778,67231
29.18592,65259
29.19403,70526
29.20217,75590
29.21028,80895
29.21840,90430
29.22653,104043
29.23465,101855
29.24278,100791
29.25090,94803
29.25902,105095
29.26715,91241
29.27527,85173
29.28338,81100
29.29152,75340
29.29963,72077
29.30777,62186
29.31588,62947
29.32400,60070
29.33213,61558
29.34025,57496
29.34838,55100
29.35650,57411
29.36462,58368
29.37275,55162
29.38087,55255
29.38900,55350
29.39712,57444
29.40523,57520
29.41337,56158
29.42148,58055
29.42960,50576
29.43773,53451
29.44585,53916
29.45398,58167
29.46210,54993
29.47022,53506
29.47835,50987
29.48647,51983
29.49460,59983
29.50272,63901
29.51083,59491
29.51897,61436
29.52708,62298
29.53522,61090
29.54333,58410
29.55145,58043
29.55958,56654
29.56770,55718
29.57582,54899
29.58395,56398
29.59207,52730
29.60020,53033
29.60832,51566
29.61643,53497
29.62457,55127
29.63268,57366
29.64082,52062
29.64893,58938
29.65705,51092
29.66518,55827
29.67330,50293
29.68143,54208
29.68955,51083
29.69767,54042
29.70580,55827
29.71392,53471
29.72203,54809
29.73017,61236
29.73828,56305
29.74642,56869
29.75453,58185
29.76265,53858
29.77078,52114
29.77890,49081
29.78703,51469
29.79515,48966
29.80327,49092
29.81140,46831
29.81952,47500
29.82763,46185
29.83577,47931
29.84388,51259
29.85202,54202
29.86013,54624
29.86825,79724
29.87638,108561
29.88450,193458
29.89263,355129
29.90075,556725
29.90887,782881
29.91700,907383
29.92512,867015
29.93325,669150
29.94137,459554
29.94948,275644
29.95762,163384
29.96573,114082
29.97385,87145
29.98198,89019
29.99010,91883
29.99823,96607
30.00635,94410
30.01447,103618
30.02260,110636
30.03072,109819
30.03885,103264
30.04697,112918
30.05508,117143
30.06322,107847
30.07133,108784
30.07945,104111
30.08758,104572
30.09570,98838
30.10383,98290
30.11195,89678
30.12007,88623
30.12820,89074
30.13632,82896
30.14445,84375
30.15257,75946
30.16068,77958
30.16882,76333
30.17693,74085
30.18507,71099
30.19318,71631
30.20130,70714
30.20943,63468
30.21755,68732
30.22567,64928
30.23380,65183
30.24192,60457
30.25005,62740
30.25817,61366
30.26628,60108
30.27442,56952
30.28253,60419
30.29067,60212
30.29878,60671
30.30690,57934
30.31503,61956
30.32315,60899
30.33128,58635
30.33940,56411
30.34752,59678
30.35565,55976
30.36377,57327
30.37188,57817
30.38002,59810
30.38813,55786
30.39627,60517
30.40438,62179
30.41250,63286
30.42063,57724
30.42875,51438
30.43688,55910
30.44500,51155
30.45312,55594
30.46125,53938
30.46937,54637
30.47748,57115
30.48562,52847
30.49373,60556
30.50187,55823
30.50998,65668
30.51810,63730
30.52623,61325
30.53435,57678
30.54248,56743
30.55060,56304
30.55872,54205
30.56685,51968
30.57497,52560
30.58310,50031
30.59122,56862
30.59933,49112
30.60747,50201
30.61558,52132
30.62370,49343
30.63183,51086
30.63995,46079
30.64808,49131
30.65620,48534
30.66432,51025
30.67245,53419
30.68057,52803
30.68870,58657
30.69682,55815
30.70493,52893
30.71307,57528
30.72118,52406
30.72932,50499
30.73743,54891
30.74555,58470
30.75368,48473
30.76180,57680
30.76992,58625
30.77805,62757
30.78617,79497
30.79430,95434
30.80242,146588
30.81053,188665
30.81867,244527
30.82678,262953
30.83492,249888
30.84303,209662
30.85115,171878
30.85928,116205
30.86740,90103
30.87552,79922
30.88365,69613
30.89177,66359
30.89990,66154
30.90802,64144
30.91613,61762
30.92427,61830
30.93238,68294
30.94052,66346
30.94863,60542
30.95675,64615
30.96488,62262
30.97300,61028
30.98113,61303
30.98925,61953
30.99737,64605
31.00550,61252
31.01362,58037
31.02173,61891
31.02987,65726
31.03798,67155
31.04612,64776
31.05423,63605
31.06235,61396
31.07048,69595
31.07860,63626
31.08673,74146
31.09485,90643
31.10297,122776
31.11110,157153
31.11922,171977
31.12733,194178
31.13547,168649
31.14358,147365
31.15172,114040
31.15983,86390
31.16795,74257
31.17608,69832
31.18420,67549
31.19233,69106
31.20045,77682
31.20857,85232
31.21670,103603
31.22482,116358
31.23295,131593
31.24107,135135
31.24918,128567
31.25732,102453
31.26543,93380
31.27355,78374
31.28168,70235
31.28980,61941
31.29793,55762
31.30605,54280
31.31417,52940
31.32230,51853
31.33042,57619
31.33855,54961
31.34667,55752
31.35478,53478
31.36292,56801
31.37103,55891
31.37917,63721
31.38728,65154
31.39540,70901
31.40353,73567
31.41165,69520
31.41977,66308
31.42790,64848
31.43602,59119
31.44415,55368
31.45227,57396
31.46038,57762
31.46852,63862
31.47663,63330
31.48477,70085
31.49288,79674
31.50100,82572
31.50913,77143
31.51725,71292
31.52537,70826
31.53350,68142
31.54162,66230
31.54975,66056
31.55787,70278
31.56598,76867
31.57412,81306
31.58223,86796
31.59037,87734
31.59848,91938
31.60660,86979
31.61473,80290
31.62285,73243
31.63098,75753
31.63910,66726
31.64722,71809
31.65535,70802
31.66347,78732
31.67158,78011
31.67972,84596
31.68783,83097
31.69597,89044
31.70408,79306
31.71220,82561
31.72033,82306
31.72845,73890
31.73658,75060
31.74470,81192
31.75282,72955
31.76095,76429
31.76907,72327
31.77720,73616
31.78532,75505
31.79343,75175
31.80157,76869
31.80968,73151
31.81780,75924
31.82593,74508
31.83405,77046
31.84218,75786
31.85030,71386
31.85842,76875
31.86655,78443
31.87467,84194
31.88280,83326
31.89092,84032
31.89903,80184
31.90717,86625
31.91528,94178
31.92340,97846
31.93153,100684
31.93965,93473
31.94778,101531
31.95590,106886
31.96402,104452
31.97215,100173
31.98027,108655
31.98840,111358
31.99652,111884
32.00463,111803
32.01277,110973
32.02088,105870
32.02902,101674
32.03713,96922
32.04525,95878
32.05338,93532
32.06150,91294
32.06962,88348
32.07775,89999
32.08587,83189
32.09400,83177
32.10212,84207
32.11023,88393
32.11837,80811
32.12648,77764
32.13462,72227
32.14273,70033
32.15085,73421
32.15898,66909
32.16710,67322
32.17522,65533
32.18335,65507
32.19147,65086
32.19960,64794
32.20772,61320
32.21583,58943
32.22397,64881
32.23208,68553
32.24022,61694
32.24833,64817
32.25645,64995
32.26458,71975
32.27270,67871
32.28083,68302
32.28895,69043
32.29707,71765
32.30520,70512
32.31332,69471
32.32143,72668
32.32957,64924
32.33768,54182
32.34582,61918
32.35393,61349
32.36205,58995
32.37018,61605
32.37830,59615
32.38643,61910
32.39455,58004
32.40267,59205
32.41080,63007
32.41892,58811
32.42705,54363
32.43517,57300
32.44328,59907
32.45142,51948
32.45953,54001
32.46765,52880
32.47578,54218
32.48390,57697
32.49203,55728
32.50015,51075
32.50827,53949
32.51640,51399
32.52452,52947
32.53265,59341
32.54077,51974
32.54888,53670
32.55702,53823
32.56513,53127
32.57325,52814
32.58138,50863
32.58950,54244
32.59763,48692
32.60575,51444
32.61387,50890
32.62200,48275
32.63012,49708
32.63825,52296
32.64637,50353
32.65448,51758
32.66262,50609
32.67073,64243
32.67887,63142
32.68698,63624
32.69510,66243
32.70323,68543
32.71135,57924
32.71947,59172
32.72760,63757
32.73572,51947
32.74385,55134
32.75197,53020
32.76008,58900
32.76822,47345
32.77633,51017
32.78447,50923
32.79258,50446
32.80070,51687
32.80883,50291
32.81695,47790
32.82508,49755
32.83320,49191
32.84132,48728
32.84945,43621
32.85757,43487
32.86568,48227
32.87382,57053
32.88193,52068
32.89007,47415
32.89818,45483
32.90630,49526
32.91443,50562
32.92255,52640
32.93068,48696
32.93880,50680
32.94692,48901
32.95505,49996
32.96317,47246
32.97128,52292
32.97942,63655
32.98753,75332
32.99567,89712
33.00378,113912
33.01190,148286
33.02003,157290
33.02815,156947
33.03628,134698
33.04440,114882
33.05252,84862
33.06065,77616
33.06877,70548
33.07690,65396
33.08502,71289
33.09313,68050
33.10127,71835
33.10938,82247
33.11750,91961
33.12563,99687
33.13375,100497
33.14188,102454
33.15000,92746
33.15812,80448
33.16625,74433
33.17437,77398
33.18250,63129
33.19062,56990
33.19873,60128
33.20687,55724
33.21498,59163
33.22312,59517
33.23123,61290
33.23935,52735
33.24748,54100
33.25560,55991
33.26372,56182
33.27185,52733
33.27997,51919
33.28810,61192
33.29622,53962
33.30433,55674
33.31247,48190
33.32058,52455
33.32872,55701
33.33683,50990
33.34495,53119
33.35308,50118
33.36120,56789
33.36932,52276
33.37745,55959
33.38557,50695
33.39370,50036
33.40182,54664
33.40993,57926
33.41807,52931
33.42618,47894
33.43432,55216
33.44243,51118
33.45055,51662
33.45868,45733
33.46680,43434
33.47493,44655
33.48305,46475
33.49117,50127
33.49930,52459
33.50742,55010
33.51553,56261
33.52367,62336
33.53178,55126
33.53992,59141
33.54803,58735
33.55615,57973
33.56428,57575
33.57240,57718
33.58053,56548
33.58865,67389
33.59677,55773
33.60490,51201
33.61302,51318
33.62113,48127
33.62927,47389
33.63738,49146
33.64552,55809
33.65363,52249
33.66175,52866
33.66988,53630
33.67800,54502
33.68613,52342
33.69425,52418
33.70237,51703
33.71050,53406
33.71862,48588
33.72675,53147
33.73487,51960
33.74298,48985
33.75112,46298
33.75923,49054
33.76735,49035
33.77548,50698
33.78360,48559
33.79173,51487
33.79985,50552
33.80797,49918
33.81610,50525
33.82422,49201
33.83235,45968
33.84047,52528
33.84858,55920
33.85672,56065
33.86483,57012
33.87297,57964
33.88108,52592
33.88920,56481
33.89733,57666
33.90545,58567
33.91357,53569
33.92170,52835
33.92982,53881
33.93795,51999
33.94607,49161
33.95418,51081
33.96232,54336
33.97043,53020
33.97857,55619
33.98668,50535
33.99480,52481
34.00293,54279
34.01105,52288
34.01917,50157
34.02730,47766
34.03542,50384
34.04355,51641
34.05167,52338
34.05978,49771
34.06792,47174
34.07603,49024
34.08417,51983
34.09228,55477
34.10040,53434
34.10853,47372
34.11665,46847
34.12478,47394
34.13290,48439
34.14102,49887
34.14915,52563
34.15727,49733
34.16538,45860
34.17352,55428
34.18163,50484
34.18977,52258
34.19788,48848
34.20600,45114
34.21413,48778
34.22225,48934
34.23038,51018
34.23850,45871
34.24662,49301
34.25475,47642
34.26287,47456
34.27100,50236
34.27912,49177
34.28723,49010
34.29537,49784
34.30348,54345
34.31160,47251
34.31973,53130
34.32785,47470
34.33598,52831
34.34410,49418
34.35222,56414
34.36035,57997
34.36847,53528
34.37660,49619
34.38472,47795
34.39283,49969
34.40097,51913
34.40908,50409
34.41720,52567
34.42533,53808
34.43345,52934
34.44158,52278
34.44970,52206
34.45782,52558
34.46595,55248
34.47407,51480
34.48220,50814
34.49032,51627
34.49843,54126
34.50657,53087
34.51468,50977
34.52282,49498
34.53093,50006
34.53905,56937
34.54718,66789
34.55530,64256
34.56342,70373
34.57155,69114
34.57967,73424
34.58780,76501
34.59592,75831
34.60403,66160
34.61217,69429
34.62028,63569
34.62842,68599
34.63653,56995
34.64465,60267
34.65278,60271
34.66090,58644
34.66902,56630
34.67715,55334
34.68527,57948
34.69340,57382
34.70152,58270
34.70963,52743
34.71777,52809
34.72588,57813
34.73402,54445
34.74213,55447
34.75025,53168
34.75838,56052
34.76650,52919
34.77463,55686
34.78275,59769
34.79087,53885
34.79900,58756
34.80712,55899
34.81523,53847
34.82337,51055
34.83148,60702
34.83962,53293
34.84773,56309
34.85585,52857
34.86398,53236
34.87210,54312
34.88023,51106
34.88835,53202
34.89647,53834
34.90460,55470
34.91272,52898
34.92085,55068
34.92897,52809
34.93708,59847
34.94522,62985
34.95333,79090
34.96145,98042
34.96958,153056
34.97770,223655
34.98583,276777
34.99395,311848
35.00207,292805
35.01020,239966
35.01832,176252
35.02645,119310
35.03457,87689
35.04268,68609
35.05082,64591
35.05893,65116
35.06707,68540
35.07518,63855
35.08330,64954
35.09143,62357
35.09955,61051
35.10767,65156
35.11580,61314
35.12392,62046
35.13205,58931
35.14017,60355
35.14828,60290
35.15642,63431
35.16453,62574
35.17267,71156
35.18078,60443
35.18890,62564
35.19703,56826
35.20515,56186
35.21327,55112
35.22140,54422
35.22952,64025
35.23765,58287
35.24577,58866
35.25388,54733
35.26202,58268
35.27013,57066
35.27827,62727
35.28638,58287
35.29450,59189
35.30263,59988
35.31075,60221
35.31888,58205
35.32700,59400
35.33512,51549
35.34325,53038
35.35137,55932
35.35948,57245
35.36762,54075
35.37573,54053
35.38387,55290
35.39198,51593
35.40010,52028
35.40823,56525
35.41635,59262
35.42448,58519
35.43260,58985
35.44072,62360
35.44885,60662
35.45697,58103
35.46508,60295
35.47322,60364
35.48133,56666
35.48947,63355
35.49758,58807
35.50570,63407
35.51383,61551
35.52195,60906
35.53008,57013
35.53820,57035
35.54632,56184
35.55445,57543
35.56257,59587
35.57070,56119
35.57882,56708
35.58693,53629
35.59507,57837
35.60318,57851
35.61130,56094
35.61943,60488
35.62755,55223
35.63568,60212
35.64380,53472
35.65192,55678
35.66005,55843
35.66817,53993
35.67630,55036
35.68442,56382
35.69253,58660
35.70067,61153
35.70878,59492
35.71692,59689
35.72503,64389
35.73315,55475
35.74128,60747
35.74940,60047
35.75752,63336
35.76565,61103
35.77377,65201
35.78190,67291
35.79002,69401
35.79813,63961
35.80627,66850
35.81438,64385
35.82252,57322
35.83063,60942
35.83875,61478
35.84688,55650
35.85500,53513
35.86312,59641
35.87125,57965
35.87937,53099
35.88750,56345
35.89562,55688
35.90373,52735
35.91187,54598
35.91998,53905
35.92812,52750
35.93623,56505
35.94435,60955
35.95248,59120
35.96060,57684
35.96873,56287
35.97685,56965
35.98497,54577
35.99310,53055
36.00122,55756
36.00933,57228
36.01747,65528
36.02558,57875
36.03372,62002
36.04183,59014
36.04995,56322
36.05808,61854
36.06620,62000
36.07433,58621
36.08245,56596
36.09057,56945
36.09870,58497
36.10682,56812
36.11495,57972
36.12307,50876
36.13118,52852
36.13932,63015
36.14743,57308
36.15555,61587
36.16368,61420
36.17180,64176
36.17993,63761
36.18805,68043
36.19617,63372
36.20430,53625
36.21242,52927
36.22055,56599
36.22867,57679
36.23678,59943
36.24492,61945
36.25303,55298
36.26115,54954
36.26928,56489
36.27740,53478
36.28553,57465
36.29365,56777
36.30177,58942
36.30990,56819
36.31802,64692
36.32615,66161
36.33427,72056
36.34238,69025
36.35052,64797
36.35863,64114
36.36677,60814
36.37488,63509
36.38300,62668
36.39113,60584
36.39925,57266
36.40737,64286
36.41550,63807
36.42362,62824
36.43175,63934
36.43987,62298
36.44798,60499
36.45612,57176
36.46423,59258
36.47237,57975
36.48048,54673
36.48860,59324
36.49673,56729
36.50485,57824
36.51297,54166
36.52110,56845
36.52922,56187
36.53735,52337
36.54547,58762
36.55358,62977
36.56172,56905
36.56983,59297
36.57797,56268
36.58608,56753
36.59420,54722
36.60233,56314
36.61045,58447
36.61858,57334
36.62670,56231
36.63482,64361
36.64295,58327
36.65107,53471
36.65918,64977
36.66732,55318
36.67543,58830
36.68357,60738
36.69168,61641
36.69980,56935
36.70793,62239
36.71605,61602
36.72418,62222
36.73230,63434
36.74042,59044
36.74855,60728
36.75667,61014
36.76480,60660
36.77292,59222
36.78103,58235
36.78917,63611
36.79728,56167
36.80540,54886
36.81353,63375
36.82165,63695
36.82978,58952
36.83790,63379
36.84602,64537
36.85415,60796
36.86227,61332
36.87040,59515
36.87852,57129
36.88663,58709
36.89477,64144
36.90288,60452
36.91100,60122
36.91913,63967
36.92725,61833
36.93538,61265
36.94350,67490
36.95162,79947
36.95975,95110
36.96787,115434
36.97600,128115
36.98412,134007
36.99223,127802
37.00037,124099
37.00848,109291
37.01662,92355
37.02473,81857
37.03285,77659
37.04098,74541
37.04910,79065
37.05722,78013
37.06535,81171
37.07347,77590
37.08160,79244
37.08972,85674
37.09783,81389
37.10597,83185
37.11408,81906
37.12222,87357
37.13033,83587
37.13845,75609
37.14658,82332
37.15470,82922
37.16283,79923
37.17095,80530
37.17907,80331
37.18720,80744
37.19532,82859
37.20343,83704
37.21157,83023
37.21968,84791
37.22782,84440
37.23593,84520
37.24405,87537
37.25218,83624
37.26030,81578
37.26843,75862
37.27655,78351
37.28467,75747
37.29280,72964
37.30092,77822
37.30903,82367
37.31717,80094
37.32528,77080
37.33342,78253
37.34153,86136
37.34965,80897
37.35778,84706
37.36590,86598
37.37403,90616
37.38215,92670
37.39027,89637
37.39840,91361
37.40652,87149
37.41465,87106
37.42277,91151
37.43088,87873
37.43902,90600
37.44713,83435
37.45525,85769
37.46338,86139
37.47150,83207
37.47963,84976
37.48775,83573
