C:\MassHunter\GCMS\1\data\JTB-E02\BACandBLUE\JTB-E18-019-10.D Fri Jul 05 12:25:40 2019
Start of data points
2.09532	45598
2.10343	47495
2.11157	47630
2.11968	49789
2.12780	46901
2.13593	48462
2.14405	48550
2.15218	51926
2.16030	51894
2.16842	48653
2.17655	49672
2.18467	46540
2.19280	47620
2.20092	41740
2.20903	41700
2.21717	43249
2.22528	43168
2.23340	41760
2.24153	44199
2.24965	40747
2.25778	42714
2.26590	47426
2.27402	193180
2.28215	1107111
2.29027	1353847
2.29840	559434
2.30652	301756
2.31463	216061
2.32277	191813
2.33088	163419
2.33902	148807
2.34713	142305
2.35525	126763
2.36338	119766
2.37150	108442
2.37962	109429
2.38775	102797
2.39587	100939
2.40400	93575
2.41212	94670
2.42023	92053
2.42837	94062
2.43648	93623
2.44462	87928
2.45273	93863
2.46085	88566
2.46898	85558
2.47710	81683
2.48523	77956
2.49335	98373
2.50147	123751
2.50960	107764
2.51772	94288
2.52583	92885
2.53397	87552
2.54208	85599
2.55022	83683
2.55833	103787
2.56645	161389
2.57458	168857
2.58270	126069
2.59083	113420
2.59895	103025
2.60707	178269
2.61520	832384
2.62332	1294697
2.63145	778465
2.63957	418723
2.64768	280519
2.65582	216558
2.66393	179895
2.67205	150990
2.68018	141268
2.68830	127220
2.69643	118888
2.70455	111046
2.71267	103731
2.72080	98810
2.72892	99464
2.73705	97230
2.74517	94227
2.75328	93634
2.76142	85141
2.76953	82809
2.77765	87712
2.78578	126615
2.79390	234975
2.80203	209376
2.81015	140465
2.81827	129083
2.82640	135349
2.83452	136302
2.84265	126555
2.85077	109099
2.85888	102367
2.86702	93974
2.87513	88476
2.88327	93739
2.89138	83592
2.89950	79805
2.90763	80264
2.91575	78365
2.92387	75131
2.93200	81394
2.94012	77024
2.94825	72429
2.95637	76826
2.96448	82701
2.97262	100984
2.98073	93836
2.98887	81715
2.99698	83873
3.00510	84087
3.01323	83581
3.02135	82574
3.02947	75540
3.03760	72554
3.04572	71590
3.05385	74607
3.06197	80024
3.07008	77787
3.07822	102899
3.08633	439204
3.09447	2150187
3.10258	4424697
3.11070	5513136
3.11883	6106586
3.12695	4429248
3.13508	2643634
3.14320	1883586
3.15132	1454054
3.15945	1175441
3.16757	974184
3.17568	839188
3.18382	775873
3.19193	925958
3.20007	1468578
3.20818	1484713
3.21630	1069964
3.22443	811978
3.23255	698247
3.24068	591176
3.24880	520803
3.25692	462292
3.26505	419665
3.27317	371691
3.28130	351743
3.28942	385392
3.29753	795981
3.30567	2175572
3.31378	4208638
3.32190	4959310
3.33003	4044019
3.33815	2838374
3.34628	2066148
3.35440	1598436
3.36252	1298910
3.37065	1088795
3.37877	943962
3.38690	822423
3.39502	735548
3.40313	671589
3.41127	614175
3.41938	563867
3.42750	528891
3.43563	507155
3.44375	481883
3.45188	451041
3.46000	429137
3.46812	430957
3.47625	437468
3.48437	440344
3.49250	417853
3.50062	396189
3.50873	368930
3.51687	358111
3.52498	345004
3.53312	339219
3.54123	355622
3.54935	348114
3.55748	339056
3.56560	325071
3.57372	354043
3.58185	403788
3.58997	410878
3.59810	355135
3.60622	324628
3.61433	316395
3.62247	327298
3.63058	336861
3.63872	323862
3.64683	313479
3.65495	314813
3.66308	352929
3.67120	829319
3.67933	2651775
3.68745	4696451
3.69557	4250407
3.70370	2582780
3.71182	1666860
3.71993	1299005
3.72807	1096157
3.73618	954664
3.74432	864069
3.75243	776461
3.76055	704465
3.76868	660745
3.77680	618810
3.78493	582947
3.79305	560129
3.80117	570346
3.80930	797764
3.81742	1437898
3.82553	1940572
3.83367	1656586
3.84178	1189833
3.84992	902278
3.85803	772981
3.86615	700266
3.87428	638874
3.88240	580811
3.89053	540334
3.89865	513773
3.90677	489361
3.91490	476914
3.92302	528416
3.93115	632695
3.93927	704019
3.94738	776573
3.95552	1690374
3.96363	4899564
3.97175	8965333
3.97988	9589352
3.98800	6493835
3.99613	4174079
4.00425	7328044
4.01237	1.995773E+07
4.02050	3.469881E+07
4.02862	3.788892E+07
4.03675	2.611258E+07
4.04487	1.276839E+07
4.05298	6450318
4.06112	4127129
4.06923	3049846
4.07735	2405998
4.08548	1967995
4.09360	1663531
4.10173	1456933
4.10985	1291650
4.11797	1156068
4.12610	1068372
4.13422	985323
4.14235	954359
4.15047	984086
4.15858	1014833
4.16672	935680
4.17483	870611
4.18297	819187
4.19108	778912
4.19920	723975
4.20733	738736
4.21545	1454091
4.22357	4541959
4.23170	1.071734E+07
4.23982	1.578947E+07
4.24795	1.617396E+07
4.25607	1.15114E+07
4.26418	6880906
4.27232	4579524
4.28043	3358294
4.28857	2598225
4.29668	2083356
4.30480	1737731
4.31293	1487669
4.32105	1334125
4.32918	1190987
4.33730	1096998
4.34542	1002501
4.35355	985352
4.36167	953303
4.36978	920576
4.37792	869428
4.38603	814893
4.39417	763136
4.40228	717968
4.41040	685328
4.41853	654332
4.42665	636492
4.43478	612693
4.44290	598761
4.45102	571384
4.45915	551495
4.46727	542796
4.47538	526316
4.48352	516108
4.49163	507368
4.49977	485001
4.50788	486915
4.51600	469950
4.52413	459319
4.53225	447321
4.54038	440378
4.54850	423756
4.55662	430476
4.56475	419003
4.57287	407704
4.58100	396019
4.58912	390545
4.59723	384670
4.60537	378290
4.61348	371259
4.62160	378237
4.62973	422821
4.63785	535277
4.64598	676436
4.65410	726447
4.66222	630771
4.67035	498965
4.67847	435659
4.68660	404981
4.69472	388297
4.70283	373378
4.71097	347079
4.71908	340551
4.72722	345336
4.73533	330130
4.74345	324383
4.75158	322785
4.75970	316419
4.76782	301275
4.77595	293619
4.78407	310616
4.79220	387025
4.80032	652179
4.80843	1107278
4.81657	1358934
4.82468	1164844
4.83282	862124
4.84093	687908
4.84905	631832
4.85718	580013
4.86530	537946
4.87342	487633
4.88155	461541
4.88967	414428
4.89780	398727
4.90592	376325
4.91403	367690
4.92217	350470
4.93028	369079
4.93842	518028
4.94653	978527
4.95465	1914084
4.96278	2989988
4.97090	3574318
4.97903	3282475
4.98715	2498809
4.99527	1794061
5.00340	1347657
5.01152	1051601
5.01963	871637
5.02777	842420
5.03588	983321
5.04402	1229107
5.05213	1344886
5.06025	1166782
5.06838	965924
5.07650	806532
5.08463	720620
5.09275	671657
5.10087	631518
5.10900	588571
5.11712	554981
5.12523	522852
5.13337	519779
5.14148	496335
5.14962	486067
5.15773	491032
5.16585	495391
5.17398	520863
5.18210	509482
5.19023	478897
5.19835	481119
5.20647	459779
5.21460	484887
5.22272	479557
5.23085	461083
5.23897	441400
5.24708	437230
5.25522	412106
5.26333	395652
5.27145	358635
5.27958	359310
5.28770	337183
5.29583	337370
5.30395	332649
5.31207	322154
5.32020	327280
5.32832	331509
5.33645	346333
5.34457	367658
5.35268	387738
5.36082	363161
5.36893	344023
5.37707	322913
5.38518	312281
5.39330	316204
5.40143	311695
5.40955	314999
5.41767	314872
5.42580	304806
5.43392	308905
5.44205	295428
5.45017	300371
5.45828	301306
5.46642	285059
5.47453	285643
5.48267	278275
5.49078	272134
5.49890	270562
5.50703	268363
5.51515	264673
5.52327	275649
5.53140	275392
5.53952	272751
5.54765	268799
5.55577	254596
5.56388	261358
5.57202	263646
5.58013	281020
5.58827	288822
5.59638	276490
5.60450	261762
5.61263	248299
5.62075	244432
5.62888	255758
5.63700	265640
5.64512	271727
5.65325	275750
5.66137	265207
5.66948	257251
5.67762	267740
5.68573	287628
5.69387	330708
5.70198	338871
5.71010	329139
5.71823	288502
5.72635	259010
5.73448	252313
5.74260	237591
5.75072	234031
5.75885	237015
5.76697	227031
5.77510	219729
5.78322	231956
5.79133	221864
5.79947	215285
5.80758	221035
5.81570	219719
5.82383	220771
5.83195	216147
5.84008	223743
5.84820	232094
5.85632	218719
5.86445	218029
5.87257	211650
5.88070	214303
5.88882	205233
5.89693	203422
5.90507	192745
5.91318	173143
5.92130	156492
5.92943	153426
5.93755	150974
5.94568	164326
5.95380	170969
5.96192	196276
5.97005	215824
5.97817	239630
5.98630	281449
5.99442	294056
6.00253	298814
6.01067	273481
6.01878	231253
6.02692	205608
6.03503	194564
6.04315	178232
6.05128	171566
6.05940	159972
6.06752	155332
6.07565	145457
6.08377	150855
6.09190	151291
6.10002	144209
6.10813	145532
6.11627	155448
6.12438	170366
6.13252	213078
6.14063	302962
6.14875	410161
6.15688	445400
6.16500	405375
6.17313	316980
6.18125	261354
6.18937	227907
6.19750	214762
6.20562	210437
6.21373	200981
6.22187	204727
6.22998	190460
6.23812	192064
6.24623	189205
6.25435	193488
6.26248	184916
6.27060	184717
6.27873	190829
6.28685	192464
6.29497	183245
6.30310	189304
6.31122	194600
6.31933	202321
6.32747	214041
6.33558	237528
6.34372	260000
6.35183	267209
6.35995	248502
6.36808	227134
6.37620	208522
6.38433	205392
6.39245	205999
6.40057	196212
6.40870	195646
6.41682	195784
6.42495	196807
6.43307	188738
6.44118	190783
6.44932	194956
6.45743	198233
6.46555	188320
6.47368	192837
6.48180	199211
6.48993	204168
6.49805	198130
6.50617	197753
6.51430	204923
6.52242	194491
6.53055	193785
6.53867	208730
6.54678	201294
6.55492	200066
6.56303	197721
6.57115	205707
6.57928	216368
6.58740	224333
6.59553	222933
6.60365	221243
6.61177	213373
6.61990	205270
6.62802	212130
6.63615	212981
6.64427	204346
6.65238	221699
6.66052	257199
6.66863	325698
6.67677	393887
6.68488	402913
6.69300	342158
6.70113	294519
6.70925	256770
6.71737	240653
6.72550	238505
6.73362	234724
6.74175	227113
6.74987	232569
6.75798	231832
6.76612	223597
6.77423	189260
6.78237	178548
6.79048	167557
6.79860	164490
6.80673	154793
6.81485	146907
6.82298	148026
6.83110	145736
6.83922	150923
6.84735	157407
6.85547	172810
6.86358	197908
6.87172	210844
6.87983	182845
6.88797	149924
6.89608	126092
6.90420	106824
6.91233	102739
6.92045	100152
6.92858	98928
6.93670	94914
6.94482	89049
6.95295	94830
6.96107	93372
6.96918	104095
6.97732	112169
6.98543	123887
6.99357	125735
7.00168	118444
7.00980	100205
7.01793	90580
7.02605	92937
7.03418	84749
7.04230	92140
7.05042	85495
7.05855	81473
7.06667	82916
7.07480	82967
7.08292	80917
7.09103	83759
7.09917	78375
7.10728	78750
7.11540	76722
7.12353	72928
7.13165	81152
7.13978	90003
7.14790	114535
7.15602	162394
7.16415	223091
7.17227	250260
7.18040	236580
7.18852	192188
7.19663	146338
7.20477	123864
7.21288	125072
7.22102	197306
7.22913	425494
7.23725	864336
7.24538	1290891
7.25350	1382985
7.26162	1094495
7.26975	682175
7.27787	394638
7.28600	288344
7.29412	237458
7.30223	194635
7.31037	152707
7.31848	126253
7.32662	121896
7.33473	117402
7.34285	111843
7.35098	100191
7.35910	109532
7.36722	98033
7.37535	88914
7.38347	102631
7.39160	98137
7.39972	104732
7.40783	98752
7.41597	92614
7.42408	90146
7.43222	86789
7.44033	89591
7.44845	89742
7.45658	88722
7.46470	89209
7.47283	88080
7.48095	82159
7.48907	80228
7.49720	76632
7.50532	73209
7.51343	80756
7.52157	89329
7.52968	110172
7.53782	144746
7.54593	178032
7.55405	214355
7.56218	232642
7.57030	215374
7.57843	189829
7.58655	146574
7.59467	112519
7.60280	100930
7.61092	93191
7.61903	83266
7.62717	79754
7.63528	79209
7.64342	80705
7.65153	77476
7.65965	74101
7.66778	68241
7.67590	72959
7.68403	71277
7.69215	70447
7.70027	72164
7.70840	70161
7.71652	74433
7.72465	73470
7.73277	68356
7.74088	73710
7.74902	71592
7.75713	73289
7.76525	74100
7.77338	73930
7.78150	73854
7.78963	72305
7.79775	85583
7.80587	83096
7.81400	82701
7.82212	85173
7.83025	81886
7.83837	72785
7.84648	70059
7.85462	70265
7.86273	67451
7.87087	76068
7.87898	71780
7.88710	71374
7.89523	71165
7.90335	73473
7.91147	71486
7.91960	70921
7.92772	82305
7.93585	91458
7.94397	108525
7.95208	113671
7.96022	115978
7.96833	100952
7.97647	93647
7.98458	85746
7.99270	78999
8.00083	69162
8.00895	64913
8.01708	66305
8.02520	65358
8.03332	65715
8.04145	63249
8.04957	65498
8.05768	62764
8.06582	60739
8.07393	59030
8.08207	62126
8.09018	60298
8.09830	60057
8.10643	61225
8.11455	57031
8.12268	64605
8.13080	64118
8.13892	71683
8.14705	86091
8.15517	91667
8.16328	93787
8.17142	88024
8.17953	77836
8.18767	69822
8.19578	68793
8.20390	61833
8.21203	64900
8.22015	65177
8.22828	61215
8.23640	63702
8.24452	65576
8.25265	62932
8.26077	60299
8.26890	59364
8.27702	61377
8.28513	55142
8.29327	56166
8.30138	60671
8.30950	60390
8.31763	62019
8.32575	69495
8.33388	69099
8.34200	62211
8.35012	64076
8.35825	56241
8.36637	61597
8.37450	59897
8.38262	61616
8.39073	67527
8.39887	61296
8.40698	61159
8.41510	57910
8.42323	55584
8.43135	53033
8.43948	58004
8.44760	51705
8.45572	54227
8.46385	53548
8.47197	55603
8.48010	52394
8.48822	50671
8.49633	52339
8.50447	51562
8.51258	56981
8.52072	58234
8.52883	77563
8.53695	135313
8.54508	233292
8.55320	341991
8.56132	411798
8.56945	372757
8.57757	271648
8.58570	184018
8.59382	120700
8.60193	105012
8.61007	103332
8.61818	91688
8.62632	88726
8.63443	79502
8.64255	75239
8.65068	67051
8.65880	66706
8.66693	64900
8.67505	65567
8.68317	62436
8.69130	67493
8.69942	67829
8.70753	62386
8.71567	60532
8.72378	63595
8.73192	61674
8.74003	68468
8.74815	107442
8.75628	206430
8.76440	415569
8.77253	729560
8.78065	1014498
8.78877	1080019
8.79690	939092
8.80502	659737
8.81313	428303
8.82127	274009
8.82938	203090
8.83752	180208
8.84563	166387
8.85375	172857
8.86188	173731
8.87000	163355
8.87813	161684
8.88625	150237
8.89437	140976
8.90250	142134
8.91062	127328
8.91875	136984
8.92687	126354
8.93498	125632
8.94312	139411
8.95123	145768
8.95935	149379
8.96748	151220
8.97560	140850
8.98373	132132
8.99185	123624
8.99997	120198
9.00810	112682
9.01622	113136
9.02435	107411
9.03247	100852
9.04058	100569
9.04872	101042
9.05683	101453
9.06497	98075
9.07308	95199
9.08120	93288
9.08933	98294
9.09745	98505
9.10557	102512
9.11370	108894
9.12182	116105
9.12995	116215
9.13807	106386
9.14618	98618
9.15432	100550
9.16243	95158
9.17057	99948
9.17868	87377
9.18680	93690
9.19493	90366
9.20305	85834
9.21117	83453
9.21930	80162
9.22742	81346
9.23555	86066
9.24367	85483
9.25178	83802
9.25992	84842
9.26803	82900
9.27617	81561
9.28428	78592
9.29240	75595
9.30053	77717
9.30865	78238
9.31678	72899
9.32490	70349
9.33302	74026
9.34115	73043
9.34927	72688
9.35738	72680
9.36552	70697
9.37363	74913
9.38177	68422
9.38988	71370
9.39800	79479
9.40613	78747
9.41425	80561
9.42238	86813
9.43050	96341
9.43862	105807
9.44675	111247
9.45487	104806
9.46298	96868
9.47112	87167
9.47923	77649
9.48737	76938
9.49548	69594
9.50360	75992
9.51173	85223
9.51985	91326
9.52798	100901
9.53610	97127
9.54422	91048
9.55235	78282
9.56047	65325
9.56860	59471
9.57672	62091
9.58483	65790
9.59297	59830
9.60108	62672
9.60920	58582
9.61733	54065
9.62545	51722
9.63358	48449
9.64170	44144
9.64982	48528
9.65795	47988
9.66607	45112
9.67420	52224
9.68232	48908
9.69043	46842
9.69857	46776
9.70668	47839
9.71482	43220
9.72293	47008
9.73105	44262
9.73918	47355
9.74730	44344
9.75542	44344
9.76355	46250
9.77167	40107
9.77980	43664
9.78792	43146
9.79603	42182
9.80417	42180
9.81228	45240
9.82042	39661
9.82853	42776
9.83665	44154
9.84478	39370
9.85290	40921
9.86102	44642
9.86915	45122
9.87727	49426
9.88540	56108
9.89352	49209
9.90163	44601
9.90977	48352
9.91788	51482
9.92602	52593
9.93413	66449
9.94225	88890
9.95038	122960
9.95850	157705
9.96663	167691
9.97475	158731
9.98287	135404
9.99100	107407
9.99912	96759
10.00723	81877
10.01537	68597
10.02348	67914
10.03162	60083
10.03973	55645
10.04785	55874
10.05598	53235
10.06410	52899
10.07223	50715
10.08035	54062
10.08847	56464
10.09660	56200
10.10472	54711
10.11285	54470
10.12097	57784
10.12908	58433
10.13722	52682
10.14533	51297
10.15345	51956
10.16158	50029
10.16970	53729
10.17783	53588
10.18595	51919
10.19407	51045
10.20220	47867
10.21032	50147
10.21845	52253
10.22657	49280
10.23468	52717
10.24282	54549
10.25093	62429
10.25905	69660
10.26718	111552
10.27530	243478
10.28343	521213
10.29155	1011801
10.29967	1609927
10.30780	2298747
10.31592	3262607
10.32405	4811567
10.33217	6713362
10.34028	8085903
10.34842	7844524
10.35653	6306415
10.36467	4393374
10.37278	3002981
10.38090	2218259
10.38903	1615103
10.39715	1149436
10.40527	819000
10.41340	608430
10.42152	463232
10.42965	404204
10.43777	348130
10.44588	321464
10.45402	298084
10.46213	270073
10.47027	259079
10.47838	244505
10.48650	234244
10.49463	213548
10.50275	214844
10.51088	192436
10.51900	183209
10.52712	176244
10.53525	168180
10.54337	165311
10.55148	155518
10.55962	160081
10.56773	150782
10.57587	151641
10.58398	150870
10.59210	144429
10.60023	132851
10.60835	131520
10.61648	125738
10.62460	118067
10.63272	120343
10.64085	113356
10.64897	112218
10.65708	104078
10.66522	104220
10.67333	106830
10.68147	104439
10.68958	103431
10.69770	100178
10.70583	101963
10.71395	94804
10.72208	95140
10.73020	95729
10.73832	93911
10.74645	97389
10.75457	92568
10.76270	93039
10.77082	88392
10.77893	86241
10.78707	82411
10.79518	82051
10.80330	77444
10.81143	80591
10.81955	73179
10.82768	80502
10.83580	78653
10.84392	76591
10.85205	71454
10.86017	74129
10.86830	67826
10.87642	70073
10.88453	68946
10.89267	73572
10.90078	69540
10.90890	63020
10.91703	69468
10.92515	70160
10.93328	66551
10.94140	62547
10.94952	62876
10.95765	68437
10.96577	67463
10.97390	69629
10.98202	68779
10.99013	67881
10.99827	64493
11.00638	66602
11.01452	63609
11.02263	60951
11.03075	58240
11.03888	59286
11.04700	62418
11.05512	58605
11.06325	57226
11.07137	61087
11.07950	62040
11.08762	63344
11.09573	63507
11.10387	61149
11.11198	58637
11.12012	57804
11.12823	53379
11.13635	55811
11.14448	50631
11.15260	50761
11.16073	53731
11.16885	55166
11.17697	60641
11.18510	55394
11.19322	54181
11.20133	53631
11.20947	52180
11.21758	54936
11.22572	52380
11.23383	54303
11.24195	49811
11.25008	48315
11.25820	45192
11.26633	50199
11.27445	44002
11.28257	46310
11.29070	47879
11.29882	56855
11.30693	69968
11.31507	90955
11.32318	128941
11.33132	191265
11.33943	246104
11.34755	276602
11.35568	266196
11.36380	231726
11.37193	172229
11.38005	133407
11.38817	100667
11.39630	88097
11.40442	78771
11.41255	74385
11.42067	69321
11.42878	70056
11.43692	64745
11.44503	64843
11.45315	61794
11.46128	58161
11.46940	59029
11.47753	61507
11.48565	74847
11.49377	86737
11.50190	101044
11.51002	107659
11.51815	105174
11.52627	96699
11.53438	88415
11.54252	76830
11.55063	70800
11.55877	70692
11.56688	67882
11.57500	62855
11.58313	60018
11.59125	64990
11.59937	73186
11.60750	85851
11.61562	105933
11.62375	118989
11.63187	120334
11.63998	104855
11.64812	88957
11.65623	73069
11.66437	68069
11.67248	59481
11.68060	60066
11.68873	59815
11.69685	59619
11.70497	61999
11.71310	61703
11.72122	65784
11.72935	58262
11.73747	53399
11.74558	56405
11.75372	51287
11.76183	52445
11.76997	48689
11.77808	46486
11.78620	51696
11.79433	63254
11.80245	57880
11.81058	52711
11.81870	50834
11.82682	52361
11.83495	52810
11.84307	51229
11.85118	53548
11.85932	49321
11.86743	47606
11.87557	51405
11.88368	49446
11.89180	44053
11.89993	49898
11.90805	43317
11.91618	49177
11.92430	53069
11.93242	55214
11.94055	60598
11.94867	57685
11.95678	54543
11.96492	53350
11.97303	59700
11.98117	94289
11.98928	189850
11.99740	357295
12.00553	629449
12.01365	833139
12.02178	867073
12.02990	746698
12.03802	541573
12.04615	351948
12.05427	257914
12.06240	177318
12.07052	147248
12.07863	131460
12.08677	121133
12.09488	114720
12.10300	107657
12.11113	106047
12.11925	106989
12.12738	102559
12.13550	99525
12.14362	100729
12.15175	91677
12.15987	89482
12.16800	84975
12.17612	77982
12.18423	76689
12.19237	75050
12.20048	74954
12.20862	75581
12.21673	76695
12.22485	77560
12.23298	74946
12.24110	70299
12.24922	70853
12.25735	67641
12.26547	68709
12.27360	68083
12.28172	64890
12.28983	64562
12.29797	61985
12.30608	66421
12.31422	64709
12.32233	61634
12.33045	59605
12.33858	59230
12.34670	60979
12.35482	55771
12.36295	54300
12.37107	56696
12.37920	57552
12.38732	57449
12.39543	59107
12.40357	60711
12.41168	73844
12.41982	82202
12.42793	89279
12.43605	98443
12.44418	88444
12.45230	83600
12.46043	75940
12.46855	71325
12.47667	66657
12.48480	60983
12.49292	62936
12.50103	58658
12.50917	57410
12.51728	58874
12.52542	68298
12.53353	99263
12.54165	179618
12.54978	387281
12.55790	736752
12.56603	1133894
12.57415	1302834
12.58227	1195583
12.59040	883388
12.59852	545362
12.60665	325428
12.61477	203552
12.62288	150055
12.63102	129827
12.63913	114113
12.64725	100344
12.65538	97481
12.66350	88416
12.67163	82731
12.67975	75103
12.68787	73631
12.69600	68922
12.70412	70024
12.71225	69217
12.72037	72216
12.72848	76181
12.73662	79064
12.74473	85184
12.75285	86527
12.76098	77201
12.76910	66023
12.77723	64210
12.78535	56823
12.79347	54241
12.80160	56164
12.80972	51600
12.81785	54549
12.82597	46753
12.83408	49140
12.84222	49343
12.85033	46380
12.85847	46994
12.86658	46789
12.87470	51465
12.88283	52642
12.89095	46175
12.89907	46987
12.90720	46942
12.91532	46915
12.92345	43923
12.93157	45355
12.93968	45562
12.94782	53637
12.95593	70404
12.96407	99181
12.97218	174571
12.98030	255522
12.98843	328639
12.99655	329890
13.00467	270031
13.01280	197275
13.02092	132178
13.02905	100026
13.03717	86650
13.04528	78667
13.05342	77588
13.06153	77417
13.06967	75018
13.07778	75187
13.08590	73804
13.09403	67037
13.10215	62286
13.11028	59219
13.11840	53888
13.12652	53030
13.13465	51686
13.14277	53308
13.15088	54004
13.15902	55756
13.16713	51724
13.17527	53446
13.18338	55726
13.19150	53981
13.19963	59004
13.20775	54672
13.21588	55234
13.22400	53687
13.23212	55835
13.24025	55172
13.24837	51129
13.25650	52555
13.26462	49706
13.27273	52560
13.28087	44817
13.28898	44447
13.29710	46274
13.30523	41466
13.31335	43541
13.32148	43232
13.32960	38304
13.33772	40437
13.34585	43012
13.35397	41746
13.36210	46376
13.37022	41925
13.37833	42776
13.38647	43382
13.39458	39970
13.40272	40769
13.41083	42130
13.41895	40786
13.42708	39110
13.43520	41105
13.44332	39206
13.45145	37273
13.45957	39797
13.46770	41502
13.47582	41253
13.48393	42381
13.49207	42196
13.50018	43038
13.50832	40550
13.51643	41124
13.52455	42716
13.53268	42401
13.54080	42208
13.54892	42149
13.55705	39873
13.56517	36626
13.57330	40762
13.58142	43577
13.58953	47878
13.59767	47507
13.60578	68664
13.61392	93566
13.62203	133983
13.63015	142736
13.63828	141618
13.64640	116477
13.65453	83617
13.66265	67981
13.67077	59446
13.67890	52383
13.68702	48184
13.69513	46387
13.70327	46443
13.71138	43136
13.71952	42961
13.72763	60790
13.73575	92725
13.74388	214720
13.75200	531015
13.76013	1212153
13.76825	2289297
13.77637	3433607
13.78450	4001660
13.79262	3798559
13.80073	2922351
13.80887	2003935
13.81698	1265941
13.82512	853500
13.83323	681415
13.84135	578967
13.84948	514918
13.85760	436929
13.86573	395357
13.87385	351990
13.88197	308893
13.89010	277923
13.89822	261649
13.90635	239069
13.91447	226475
13.92258	213585
13.93072	201972
13.93883	194774
13.94695	199168
13.95508	198212
13.96320	227127
13.97133	262240
13.97945	296387
13.98757	330219
13.99570	313084
14.00382	272713
14.01195	258829
14.02007	208362
14.02818	190385
14.03632	168543
14.04443	165583
14.05257	158377
14.06068	154422
14.06880	149051
14.07693	144113
14.08505	141915
14.09317	138928
14.10130	138120
14.10942	131647
14.11755	133519
14.12567	133836
14.13378	141227
14.14192	160560
14.15003	187943
14.15817	197449
14.16628	214159
14.17440	228713
14.18253	274296
14.19065	329703
14.19877	400938
14.20690	425369
14.21502	394527
14.22315	338992
14.23127	276537
14.23938	232887
14.24752	215009
14.25563	194114
14.26377	178346
14.27188	161838
14.28000	143930
14.28813	126312
14.29625	117890
14.30438	115156
14.31250	103880
14.32062	101838
14.32875	98353
14.33687	94909
14.34498	89260
14.35312	82847
14.36123	82036
14.36937	78157
14.37748	71938
14.38560	76855
14.39373	96118
14.40185	130062
14.40998	193754
14.41810	299621
14.42622	374369
14.43435	394597
14.44247	336380
14.45060	250225
14.45872	173818
14.46683	126857
14.47497	107508
14.48308	96823
14.49120	88319
14.49933	80880
14.50745	89236
14.51558	91839
14.52370	90354
14.53182	97699
14.53995	92600
14.54807	88188
14.55620	80300
14.56432	74176
14.57243	69396
14.58057	66124
14.58868	60084
14.59680	64679
14.60493	57588
14.61305	57800
14.62118	57081
14.62930	55219
14.63742	56341
14.64555	53825
14.65367	55263
14.66180	56193
14.66992	48253
14.67803	49312
14.68617	55398
14.69428	50840
14.70242	52273
14.71053	54303
14.71865	58777
14.72678	54512
14.73490	54556
14.74302	55707
14.75115	57995
14.75927	57242
14.76740	56640
14.77552	62378
14.78363	67490
14.79177	80706
14.79988	155695
14.80802	346799
14.81613	724144
14.82425	1309418
14.83238	1867752
14.84050	2041593
14.84862	1921148
14.85675	1451000
14.86487	938656
14.87300	587730
14.88112	391019
14.88923	279620
14.89737	214190
14.90548	185272
14.91362	162621
14.92173	149648
14.92985	140567
14.93798	128205
14.94610	117073
14.95423	106388
14.96235	108693
14.97047	105711
14.97860	105582
14.98672	101702
14.99483	98979
15.00297	98844
15.01108	83360
15.01922	86679
15.02733	85265
15.03545	81417
15.04358	78113
15.05170	76861
15.05983	73553
15.06795	74485
15.07607	67114
15.08420	68202
15.09232	67157
15.10045	60667
15.10857	65650
15.11668	63302
15.12482	62785
15.13293	68237
15.14105	71298
15.14918	72743
15.15730	75121
15.16543	69297
15.17355	67924
15.18167	61780
15.18980	56212
15.19792	60398
15.20605	50586
15.21417	50832
15.22228	49789
15.23042	46617
15.23853	53195
15.24665	49382
15.25478	47967
15.26290	51005
15.27103	48915
15.27915	46105
15.28727	44799
15.29540	46220
15.30352	43887
15.31165	43373
15.31977	45666
15.32788	47526
15.33602	43040
15.34413	41036
15.35227	44768
15.36038	40578
15.36850	39636
15.37663	40845
15.38475	47961
15.39287	47089
15.40100	48481
15.40912	50663
15.41725	56662
15.42537	57285
15.43348	56754
15.44162	54025
15.44973	48828
15.45787	48639
15.46598	49663
15.47410	56662
15.48223	56266
15.49035	68324
15.49848	85798
15.50660	89507
15.51472	89499
15.52285	98395
15.53097	84191
15.53908	92874
15.54722	86650
15.55533	79485
15.56347	78556
15.57158	70243
15.57970	62469
15.58783	53367
15.59595	46821
15.60408	46698
15.61220	43409
15.62032	40435
15.62845	40888
15.63657	41355
15.64468	43119
15.65282	41689
15.66093	41470
15.66907	44373
15.67718	39523
15.68530	38425
15.69343	38515
15.70155	42332
15.70968	42857
15.71780	39585
15.72592	41280
15.73405	41916
15.74217	42834
15.75030	48469
15.75842	59158
15.76653	86145
15.77467	128196
15.78278	179327
15.79090	227262
15.79903	245349
15.80715	222635
15.81528	173825
15.82340	128806
15.83152	102805
15.83965	86216
15.84777	66168
15.85590	64572
15.86402	62451
15.87213	57238
15.88027	58688
15.88838	55925
15.89650	56947
15.90463	51536
15.91275	52744
15.92088	56372
15.92900	50310
15.93712	59239
15.94525	66929
15.95337	89784
15.96150	122908
15.96962	156048
15.97773	200193
15.98587	216510
15.99398	203557
16.00212	176577
16.01023	144302
16.01835	117801
16.02648	106828
16.03460	98710
16.04272	87130
16.05085	81508
16.05897	73606
16.06710	67420
16.07522	64654
16.08333	61457
16.09147	54824
16.09958	54279
16.10772	54343
16.11583	53828
16.12395	59710
16.13208	59849
16.14020	55377
16.14833	56106
16.15645	59781
16.16457	56647
16.17270	59657
16.18082	56110
16.18893	50610
16.19707	51139
16.20518	51318
16.21332	51919
16.22143	54401
16.22955	54867
16.23768	52959
16.24580	53125
16.25393	52014
16.26205	48933
16.27017	46905
16.27830	47556
16.28642	48706
16.29453	55429
16.30267	52112
16.31078	48922
16.31892	50022
16.32703	53463
16.33515	50950
16.34328	60170
16.35140	75719
16.35953	110621
16.36765	148504
16.37577	194688
16.38390	228072
16.39202	213118
16.40015	183522
16.40827	147141
16.41638	110932
16.42452	90748
16.43263	85351
16.44075	74843
16.44888	82118
16.45700	111950
16.46513	152994
16.47325	218302
16.48137	291406
16.48950	328665
16.49762	310371
16.50575	249683
16.51387	187235
16.52198	136975
16.53012	98054
16.53823	86026
16.54637	76999
16.55448	75168
16.56260	70251
16.57073	71532
16.57885	71862
16.58697	73299
16.59510	78341
16.60322	89539
16.61135	100823
16.61947	108870
16.62758	110912
16.63572	104740
16.64383	93490
16.65197	78357
16.66008	69687
16.66820	65063
16.67633	64364
16.68445	57842
16.69257	56999
16.70070	55801
16.70882	55646
16.71695	52291
16.72507	50698
16.73318	50812
16.74132	51976
16.74943	46584
16.75757	50097
16.76568	48674
16.77380	52501
16.78193	52448
16.79005	49679
16.79818	44641
16.80630	44311
16.81442	41332
16.82255	43655
16.83067	43223
16.83878	41342
16.84692	43561
16.85503	46058
16.86317	41999
16.87128	41536
16.87940	44618
16.88753	39193
16.89565	38942
16.90378	40426
16.91190	42068
16.92002	40794
16.92815	42225
16.93627	41599
16.94440	42242
16.95252	42169
16.96063	44684
16.96877	41271
16.97688	40723
16.98500	38758
16.99313	38263
17.00125	39171
17.00938	38091
17.01750	44227
17.02562	43946
17.03375	48551
17.04187	47240
17.05000	51007
17.05812	50461
17.06623	54393
17.07437	52649
17.08248	52817
17.09060	57126
17.09873	64879
17.10685	73780
17.11498	80506
17.12310	82330
17.13122	82952
17.13935	85682
17.14747	76077
17.15560	70647
17.16372	66319
17.17183	56251
17.17997	54542
17.18808	46814
17.19622	46726
17.20433	41432
17.21245	38175
17.22058	38691
17.22870	46441
17.23682	45040
17.24495	40309
17.25307	37437
17.26120	40547
17.26932	40289
17.27743	39849
17.28557	41840
17.29368	41095
17.30182	40509
17.30993	42949
17.31805	48812
17.32618	51165
17.33430	58769
17.34242	65889
17.35055	65565
17.35867	68190
17.36680	66600
17.37492	66533
17.38303	66715
17.39117	63390
17.39928	55445
17.40742	53508
17.41553	49576
17.42365	52210
17.43178	47656
17.43990	48167
17.44803	46887
17.45615	48370
17.46427	44528
17.47240	45252
17.48052	45068
17.48863	40400
17.49677	43652
17.50488	40850
17.51302	43790
17.52113	41749
17.52925	43835
17.53738	44188
17.54550	48851
17.55363	49568
17.56175	61704
17.56987	90852
17.57800	149659
17.58612	244044
17.59425	406209
17.60237	579121
17.61048	722137
17.61862	747858
17.62673	664789
17.63485	514565
17.64298	385503
17.65110	296062
17.65923	269683
17.66735	264452
17.67547	253895
17.68360	225854
17.69172	196203
17.69985	154614
17.70797	135413
17.71608	107634
17.72422	100166
17.73233	90705
17.74045	82541
17.74858	81319
17.75670	76223
17.76483	71638
17.77295	69361
17.78107	71799
17.78920	87522
17.79732	128350
17.80545	217658
17.81357	359908
17.82168	572473
17.82982	742021
17.83793	796640
17.84607	719116
17.85418	561866
17.86230	418756
17.87043	292389
17.87855	220086
17.88667	173247
17.89480	149813
17.90292	131841
17.91105	122257
17.91917	111001
17.92728	105420
17.93542	95562
17.94353	90510
17.95167	86570
17.95978	87292
17.96790	82927
17.97603	74176
17.98415	79894
17.99228	77873
18.00040	72689
18.00852	69760
18.01665	78826
18.02477	82540
18.03288	84769
18.04102	94712
18.04913	105950
18.05727	171334
18.06538	313802
18.07350	644732
18.08163	1146435
18.08975	1686393
18.09788	2115188
18.10600	2149304
18.11412	1836446
18.12225	1365846
18.13037	963887
18.13848	689433
18.14662	548600
18.15473	447610
18.16287	395219
18.17098	350029
18.17910	307999
18.18723	285687
18.19535	271521
18.20348	261332
18.21160	223712
18.21972	211408
18.22785	199383
18.23597	183297
18.24410	178201
18.25222	187825
18.26033	224333
18.26847	282403
18.27658	339758
18.28470	375667
18.29283	392069
18.30095	380571
18.30908	395761
18.31720	392657
18.32532	389991
18.33345	389074
18.34157	397331
18.34970	389257
18.35782	390400
18.36593	388433
18.37407	392742
18.38218	381811
18.39030	386443
18.39843	391700
18.40655	425663
18.41468	423040
18.42280	449649
18.43092	469583
18.43905	451983
18.44717	450768
18.45530	447665
18.46342	492499
18.47153	542733
18.47967	590926
18.48778	613675
18.49592	588251
18.50403	547044
18.51215	477648
18.52028	427568
18.52840	388924
18.53652	358068
18.54465	337386
18.55277	326623
18.56090	326406
18.56902	315999
18.57713	310985
18.58527	308009
18.59338	300658
18.60152	301172
18.60963	295787
18.61775	299460
18.62588	292559
18.63400	291048
18.64213	282600
18.65025	276662
18.65837	272511
18.66650	275486
18.67462	262683
18.68273	255452
18.69087	251825
18.69898	254053
18.70712	252464
18.71523	245448
18.72335	245171
18.73148	237208
18.73960	239418
18.74773	239862
18.75585	233705
18.76397	230732
18.77210	231987
18.78022	215833
18.78835	222369
18.79647	219709
18.80458	222332
18.81272	223688
18.82083	216720
18.82895	216721
18.83708	215047
18.84520	207847
18.85333	203887
18.86145	205382
18.86957	198179
18.87770	210277
18.88582	196972
18.89395	200343
18.90207	196099
18.91018	200179
18.91832	191895
18.92643	195973
18.93455	190532
18.94268	189056
18.95080	191256
18.95893	197959
18.96705	191440
18.97517	197686
18.98330	195841
18.99142	186686
18.99955	183613
19.00767	180869
19.01578	170166
19.02392	176734
19.03203	172177
19.04017	166748
19.04828	172969
19.05640	170973
19.06453	168326
19.07265	176435
19.08077	197009
19.08890	223313
19.09702	262654
19.10515	291776
19.11327	305758
19.12138	294666
19.12952	268760
19.13763	238535
19.14577	210374
19.15388	198111
19.16200	185316
19.17013	171804
19.17825	178823
19.18637	167103
19.19450	161255
19.20262	165855
19.21075	160637
19.21887	152309
19.22698	152148
19.23512	147209
19.24323	141776
19.25137	141163
19.25948	141368
19.26760	137839
19.27573	144354
19.28385	147644
19.29198	158418
19.30010	158073
19.30822	155490
19.31635	156542
19.32447	149343
19.33258	154888
19.34072	150273
19.34883	160354
19.35697	173286
19.36508	193372
19.37320	222977
19.38133	223131
19.38945	222065
19.39758	198744
19.40570	177301
19.41382	161596
19.42195	146955
19.43007	131273
19.43820	132210
19.44632	132814
19.45443	123160
19.46257	128858
19.47068	134659
19.47880	153507
19.48693	190661
19.49505	235443
19.50318	266443
19.51130	278385
19.51942	260565
19.52755	212068
19.53567	189309
19.54380	151030
19.55192	134606
19.56003	120746
19.56817	122892
19.57628	115383
19.58440	112203
19.59253	109879
19.60065	109456
19.60878	106005
19.61690	106045
19.62502	107372
19.63315	105742
19.64127	125284
19.64940	143467
19.65752	175801
19.66563	206958
19.67377	237538
19.68188	255353
19.69002	248798
19.69813	243317
19.70625	224404
19.71438	195504
19.72250	187874
19.73062	170560
19.73875	161385
19.74687	144518
19.75500	135252
19.76312	131814
19.77123	123191
19.77937	121565
19.78748	126528
19.79562	130774
19.80373	132466
19.81185	132841
19.81998	123171
19.82810	119933
19.83623	118420
19.84435	122046
19.85247	152961
19.86060	284753
19.86872	635472
19.87683	1363678
19.88497	2516368
19.89308	3906590
19.90122	5182813
19.90933	5699624
19.91745	5105171
19.92558	4014296
19.93370	2789201
19.94183	1864373
19.94995	1324158
19.95807	1007471
19.96620	835637
19.97432	749353
19.98243	698916
19.99057	621977
19.99868	579972
20.00682	555893
20.01493	516664
20.02305	495643
20.03118	461268
20.03930	409735
20.04743	369614
20.05555	323984
20.06367	278213
20.07180	229170
20.07992	201128
20.08805	184637
20.09617	171112
20.10428	160883
20.11242	157828
20.12053	157884
20.12865	139362
20.13678	131807
20.14490	127966
20.15303	129672
20.16115	126486
20.16927	134238
20.17740	145775
20.18552	152359
20.19365	154174
20.20177	152240
20.20988	155396
20.21802	141294
20.22613	140754
20.23425	129431
20.24238	130841
20.25050	140844
20.25863	167170
20.26675	185661
20.27487	216089
20.28300	238913
20.29112	244437
20.29925	233554
20.30737	202469
20.31548	178760
20.32362	161599
20.33173	139930
20.33987	123053
20.34798	109992
20.35610	97976
20.36423	96646
20.37235	93094
20.38047	90083
20.38860	81242
20.39672	80218
20.40485	79542
20.41297	84220
20.42108	79794
20.42922	85033
20.43733	91507
20.44547	95895
20.45358	100717
20.46170	104785
20.46983	111192
20.47795	115039
20.48608	109329
20.49420	107433
20.50232	100129
20.51045	87139
20.51857	83184
20.52668	82863
20.53482	78732
20.54293	75238
20.55107	77641
20.55918	78535
20.56730	78594
20.57543	71690
20.58355	73792
20.59168	69115
20.59980	74977
20.60792	68742
20.61605	65991
20.62417	71168
20.63228	69166
20.64042	69191
20.64853	72553
20.65667	70841
20.66478	70337
20.67290	69274
20.68103	69413
20.68915	70419
20.69728	69378
20.70540	67983
20.71352	64616
20.72165	62386
20.72977	62333
20.73790	65159
20.74602	65784
20.75413	65202
20.76227	67714
20.77038	70886
20.77850	73578
20.78663	83884
20.79475	111173
20.80288	150592
20.81100	184206
20.81912	229420
20.82725	246105
20.83537	226728
20.84350	183018
20.85162	135266
20.85973	106637
20.86787	91580
20.87598	83380
20.88412	68588
20.89223	72558
20.90035	69634
20.90848	68283
20.91660	69073
20.92472	70485
20.93285	71131
20.94097	72221
20.94910	68002
20.95722	66138
20.96533	65843
20.97347	71165
20.98158	65917
20.98972	62741
20.99783	60123
21.00595	59299
21.01408	59380
21.02220	62061
21.03032	62837
21.03845	63237
21.04657	62812
21.05470	65745
21.06282	71430
21.07093	64226
21.07907	64585
21.08718	64724
21.09532	59764
21.10343	58307
21.11155	60504
21.11968	60007
21.12780	61284
21.13593	63251
21.14405	67178
21.15217	69849
21.16030	82241
21.16842	83575
21.17653	84298
21.18467	76664
21.19278	75495
21.20092	66105
21.20903	67299
21.21715	63939
21.22528	59143
21.23340	62321
21.24153	60765
21.24965	61337
21.25777	59397
21.26590	59077
21.27402	59912
21.28215	59089
21.29027	58164
21.29838	58188
21.30652	59593
21.31463	55820
21.32275	55927
21.33088	55565
21.33900	56104
21.34713	57733
21.35525	59527
21.36337	55789
21.37150	60022
21.37962	65125
21.38775	64877
21.39587	79797
21.40398	83294
21.41212	92308
21.42023	89411
21.42835	94941
21.43648	85904
21.44460	75393
21.45273	70244
21.46085	68088
21.46897	62693
21.47710	61667
21.48522	62969
21.49335	59273
21.50147	58362
21.50958	54836
21.51772	57778
21.52583	56784
21.53397	56163
21.54208	58494
21.55020	56148
21.55833	56784
21.56645	52815
21.57457	55611
21.58270	63841
21.59082	71859
21.59895	70699
21.60707	74787
21.61518	73026
21.62332	82511
21.63143	88324
21.63957	85502
21.64768	87097
21.65580	85527
21.66393	86403
21.67205	86977
21.68017	94663
21.68830	84756
21.69642	84623
21.70455	76396
21.71267	73434
21.72078	70951
21.72892	66132
21.73703	65015
21.74517	63070
21.75328	63756
21.76140	60112
21.76953	59545
21.77765	60734
21.78578	64696
21.79390	64080
21.80202	66364
21.81015	68897
21.81827	67943
21.82638	75546
21.83452	77388
21.84263	78871
21.85077	77977
21.85888	75073
21.86700	68687
21.87513	63180
21.88325	63105
21.89138	60623
21.89950	54669
21.90762	59584
21.91575	57116
21.92387	56225
21.93200	51770
21.94012	51917
21.94823	50565
21.95637	50465
21.96448	48591
21.97260	49841
21.98073	50707
21.98885	46560
21.99698	45435
22.00510	49968
22.01322	51301
22.02135	48134
22.02947	51095
22.03760	48515
22.04572	49874
22.05383	50202
22.06197	46749
22.07008	50780
22.07820	48993
22.08633	47793
22.09445	47370
22.10258	51587
22.11070	46591
22.11882	49385
22.12695	47269
22.13507	48052
22.14320	47366
22.15132	48861
22.15943	51541
22.16757	50346
22.17568	47970
22.18382	46613
22.19193	45924
22.20005	48467
22.20818	50068
22.21630	46067
22.22442	54560
22.23255	48900
22.24067	51623
22.24880	51852
22.25692	53685
22.26503	51229
22.27317	52336
22.28128	50569
22.28942	52197
22.29753	54799
22.30565	59014
22.31378	61116
22.32190	56782
22.33003	59388
22.33815	59788
22.34627	56753
22.35440	53261
22.36252	55077
22.37063	53553
22.37877	52798
22.38688	54895
22.39502	67707
22.40313	78401
22.41125	89198
22.41938	100461
22.42750	106992
22.43563	110101
22.44375	98689
22.45187	85303
22.46000	68930
22.46812	66117
22.47623	66641
22.48437	70879
22.49248	82891
22.50062	86664
22.50873	94350
22.51685	84267
22.52498	82380
22.53310	75813
22.54123	71503
22.54935	70140
22.55747	61686
22.56560	66307
22.57372	62340
22.58185	57522
22.58997	54273
22.59808	56326
22.60622	52705
22.61433	55455
22.62245	53636
22.63058	51241
22.63870	52558
22.64683	51449
22.65495	56581
22.66307	53090
22.67120	53850
22.67932	54306
22.68745	55154
22.69557	64252
22.70368	63707
22.71182	70022
22.71993	73780
22.72805	68836
22.73618	66000
22.74430	67191
22.75243	63235
22.76055	58737
22.76867	57411
22.77680	60681
22.78492	68855
22.79305	73049
22.80117	82956
22.80928	84845
22.81742	95492
22.82553	93978
22.83367	87270
22.84178	74885
22.84990	67746
22.85803	63811
22.86615	69665
22.87427	61771
22.88240	68968
22.89052	71924
22.89865	80333
22.90677	118362
22.91488	138541
22.92302	161065
22.93113	175252
22.93927	175192
22.94738	154029
22.95550	124421
22.96363	107392
22.97175	88403
22.97988	81928
22.98800	74146
22.99612	73643
23.00425	67536
23.01237	64407
23.02048	63772
23.02862	53751
23.03673	57835
23.04487	51761
23.05298	53653
23.06110	57306
23.06923	59065
23.07735	66733
23.08548	67669
23.09360	71402
23.10172	66375
23.10985	67092
23.11797	69416
23.12608	67121
23.13422	63311
23.14233	68876
23.15047	69339
23.15858	66029
23.16670	68845
23.17483	72449
23.18295	72203
23.19108	72352
23.19920	75000
23.20732	69705
23.21545	68266
23.22357	71831
23.23170	70620
23.23982	70538
23.24793	72434
23.25607	80704
23.26418	80733
23.27230	76875
23.28043	82243
23.28855	74631
23.29668	71977
23.30480	73546
23.31292	74088
23.32105	76505
23.32917	76182
23.33730	86299
23.34542	111837
23.35353	144762
23.36167	200969
23.36978	296565
23.37792	406215
23.38603	519261
23.39415	645130
23.40228	772852
23.41040	850254
23.41852	890485
23.42665	918189
23.43477	905508
23.44290	872497
23.45102	819006
23.45913	794127
23.46727	724711
23.47538	674275
23.48352	629774
23.49163	563781
23.49975	528859
23.50788	478941
23.51600	444078
23.52412	409764
23.53225	383728
23.54037	348513
23.54850	331097
23.55662	305537
23.56473	301028
23.57287	288903
23.58098	286313
23.58912	284715
23.59723	284853
23.60535	298854
23.61348	298863
23.62160	285004
23.62973	255289
23.63785	235478
23.64597	233343
23.65410	235069
23.66222	247730
23.67033	264951
23.67847	246993
23.68658	218912
23.69472	201533
23.70283	175291
23.71095	163308
23.71908	148980
23.72720	137346
23.73533	143559
23.74345	147940
23.75157	196908
23.75970	336596
23.76782	603666
23.77593	1044212
23.78407	1680175
23.79218	2204176
23.80032	2417466
23.80843	2362874
23.81655	1986829
23.82468	1628346
23.83280	1287502
23.84093	1033451
23.84905	810610
23.85717	666989
23.86530	535886
23.87342	463678
23.88155	409554
23.88967	373107
23.89778	333761
23.90592	317724
23.91403	299312
23.92215	281263
23.93028	269896
23.93840	237038
23.94653	231790
23.95465	219154
23.96277	205208
23.97090	194834
23.97902	190690
23.98715	184697
23.99527	193939
24.00338	228463
24.01152	315958
24.01963	488704
24.02777	703647
24.03588	892275
24.04400	933863
24.05213	823720
24.06025	605488
24.06837	419110
24.07650	278408
24.08462	203819
24.09275	171777
24.10087	153623
24.10898	137440
24.11712	135726
24.12523	133929
24.13337	125961
24.14148	125582
24.14960	123156
24.15773	118159
24.16585	119817
24.17398	119648
24.18210	122057
24.19022	121967
24.19835	118605
24.20647	113896
24.21458	114033
24.22272	106587
24.23083	102445
24.23897	99041
24.24708	93338
24.25520	98834
24.26333	91700
24.27145	95477
24.27958	88645
24.28770	89761
24.29582	86270
24.30395	87998
24.31207	86759
24.32018	83043
24.32832	83640
24.33643	83011
24.34457	80693
24.35268	85261
24.36080	86842
24.36893	95632
24.37705	113982
24.38518	134336
24.39330	142802
24.40142	146517
24.40955	133452
24.41767	108552
24.42580	90729
24.43392	83986
24.44203	85600
24.45017	80541
24.45828	80530
24.46640	86414
24.47453	97888
24.48265	96250
24.49078	106950
24.49890	107016
24.50702	106734
24.51515	108160
24.52327	112125
24.53140	126468
24.53952	142198
24.54763	158168
24.55577	169844
24.56388	171710
24.57200	168925
24.58013	171008
24.58825	165013
24.59638	160430
24.60450	147963
24.61262	154373
24.62075	150523
24.62887	157768
24.63700	156512
24.64512	165747
24.65323	158471
24.66137	165666
24.66948	159996
24.67762	165888
24.68573	164380
24.69385	169219
24.70198	170900
24.71010	173990
24.71822	175931
24.72635	173653
24.73447	180613
24.74260	179016
24.75072	182618
24.75883	180612
24.76697	190633
24.77508	194512
24.78322	191089
24.79133	188607
24.79945	187661
24.80758	192792
24.81570	181439
24.82383	195943
24.83195	199038
24.84007	214508
24.84820	241623
24.85632	277522
24.86443	335774
24.87257	421072
24.88068	505478
24.88882	582078
24.89693	615175
24.90505	589846
24.91318	506932
24.92130	414051
24.92943	317381
24.93755	260311
24.94567	220501
24.95380	191202
24.96192	171153
24.97003	169394
24.97817	167375
24.98628	163315
24.99442	155489
25.00253	153173
25.01065	147373
25.01878	147974
25.02690	140722
25.03503	143303
25.04315	137454
25.05127	139198
25.05940	126457
25.06752	120899
25.07565	114171
25.08377	109096
25.09188	108620
25.10002	144656
25.10813	218225
25.11625	434331
25.12438	794274
25.13250	1334400
25.14063	1944003
25.14875	2298019
25.15687	2304256
25.16500	1904680
25.17312	1324365
25.18125	867611
25.18937	510994
25.19748	293976
25.20562	183507
25.21373	144331
25.22187	128917
25.22998	112677
25.23810	122853
25.24623	133994
25.25435	161232
25.26247	200238
25.27060	221549
25.27872	228655
25.28685	220615
25.29497	198386
25.30308	164319
25.31122	132280
25.31933	114560
25.32747	101559
25.33558	91293
25.34370	85660
25.35183	78933
25.35995	75746
25.36807	72966
25.37620	66878
25.38432	70515
25.39245	65809
25.40057	67687
25.40868	63317
25.41682	69274
25.42493	64725
25.43307	63995
25.44118	66605
25.44930	64367
25.45743	63364
25.46555	66209
25.47368	75210
25.48180	80899
25.48992	104173
25.49805	133995
25.50617	172096
25.51428	192790
25.52242	209107
25.53053	216601
25.53867	230490
25.54678	230290
25.55490	234764
25.56303	240658
25.57115	240268
25.57928	249593
25.58740	252771
25.59552	247038
25.60365	248338
25.61177	250170
25.61988	245232
25.62802	248577
25.63613	246666
25.64427	245497
25.65238	235169
25.66050	245593
25.66863	236153
25.67675	244957
25.68488	234168
25.69300	228724
25.70112	240192
25.70925	228625
25.71737	228765
25.72550	226365
25.73362	225891
25.74173	221230
25.74987	229626
25.75798	220453
25.76610	215035
25.77423	218164
25.78235	213481
25.79048	213825
25.79860	218918
25.80672	217905
25.81485	216598
25.82297	220231
25.83110	221420
25.83922	227533
25.84733	231776
25.85547	233967
25.86358	238053
25.87172	236023
25.87983	212907
25.88795	194047
25.89608	187518
25.90420	185918
25.91232	180569
25.92045	179390
25.92857	177275
25.93670	175881
25.94482	172264
25.95293	176363
25.96107	169689
25.96918	160309
25.97732	158995
25.98543	163710
25.99355	162729
26.00168	157012
26.00980	156283
26.01792	156935
26.02605	154131
26.03417	143202
26.04230	150385
26.05042	151594
26.05853	152486
26.06667	142138
26.07478	144488
26.08292	140876
26.09103	142636
26.09915	146635
26.10728	141221
26.11540	142110
26.12353	136238
26.13165	140964
26.13977	138580
26.14790	142828
26.15602	139578
26.16413	131367
26.17227	137613
26.18038	131715
26.18852	126017
26.19663	129402
26.20475	124775
26.21288	124054
26.22100	124019
26.22913	116457
26.23725	117383
26.24537	118106
26.25350	113065
26.26162	108332
26.26975	112029
26.27787	111408
26.28598	106345
26.29412	108779
26.30223	106111
26.31035	105009
26.31848	100686
26.32660	102646
26.33473	97713
26.34285	94600
26.35097	98287
26.35910	99957
26.36722	101222
26.37535	101552
26.38347	101336
26.39158	107289
26.39972	116568
26.40783	108228
26.41595	106154
26.42408	100566
26.43220	95938
26.44033	97491
26.44845	92203
26.45657	89831
26.46470	96300
26.47282	90623
26.48095	92975
26.48907	92465
26.49718	82657
26.50532	86859
26.51343	81366
26.52157	81597
26.52968	83470
26.53780	75472
26.54593	78234
26.55405	77537
26.56217	77484
26.57030	76320
26.57842	72530
26.58655	70785
26.59467	74331
26.60278	66183
26.61092	73011
26.61903	72194
26.62717	69512
26.63528	74614
26.64340	73878
26.65153	74567
26.65965	73556
26.66777	77342
26.67590	82017
26.68402	75291
26.69215	76457
26.70027	69887
26.70838	69710
26.71652	67698
26.72463	67504
26.73277	73076
26.74088	67034
26.74900	70017
26.75713	68601
26.76525	65369
26.77338	64473
26.78150	66664
26.78962	70986
26.79775	72861
26.80587	73827
26.81398	73623
26.82212	75815
26.83023	70315
26.83837	67609
26.84648	67086
26.85460	66916
26.86273	60382
26.87085	58622
26.87898	63978
26.88710	63461
26.89522	55191
26.90335	62544
26.91147	54854
26.91960	61912
26.92772	57273
26.93583	58170
26.94397	59855
26.95208	65937
26.96020	62428
26.96833	70145
26.97645	85406
26.98458	106640
26.99270	145037
27.00082	210085
27.00895	270384
27.01707	350552
27.02520	410677
27.03332	448512
27.04143	452239
27.04957	420807
27.05768	368877
27.06580	321277
27.07393	263318
27.08205	227166
27.09018	189428
27.09830	173228
27.10642	160233
27.11455	147056
27.12267	135590
27.13080	131821
27.13892	128297
27.14703	122033
27.15517	114867
27.16328	111140
27.17142	109128
27.17953	104241
27.18765	110958
27.19578	100158
27.20390	107992
27.21202	92964
27.22015	97761
27.22827	95182
27.23640	89697
27.24452	87697
27.25263	86947
27.26077	89720
27.26888	80815
27.27702	82780
27.28513	74612
27.29325	73362
27.30138	76156
27.30950	70610
27.31763	68564
27.32575	66486
27.33387	69774
27.34200	67561
27.35012	72595
27.35823	69393
27.36637	69251
27.37448	67621
27.38262	66676
27.39073	69265
27.39885	66765
27.40698	62604
27.41510	62055
27.42323	58621
27.43135	62154
27.43947	58028
27.44760	59931
27.45572	59478
27.46383	56220
27.47197	56022
27.48008	60129
27.48822	56251
27.49633	58329
27.50445	59539
27.51258	63320
27.52070	61631
27.52883	62147
27.53695	58520
27.54507	64118
27.55320	62428
27.56132	61172
27.56945	60537
27.57757	62711
27.58568	69089
27.59382	74151
27.60193	76504
27.61005	79572
27.61818	71747
27.62630	64331
27.63443	58964
27.64255	60280
27.65067	55614
27.65880	55024
27.66692	55927
27.67505	53612
27.68317	54156
27.69128	56887
27.69942	55999
27.70753	55454
27.71567	58360
27.72378	53416
27.73190	53251
27.74003	49558
27.74815	52534
27.75627	51512
27.76440	53474
27.77252	50879
27.78065	50591
27.78877	52919
27.79688	51444
27.80502	54626
27.81313	51617
27.82127	50601
27.82938	56161
27.83750	52672
27.84563	49393
27.85375	50393
27.86187	49459
27.87000	50289
27.87812	49701
27.88625	46000
27.89437	47689
27.90248	48886
27.91062	44068
27.91873	49712
27.92687	47717
27.93498	49467
27.94310	50752
27.95123	46823
27.95935	41157
27.96748	44202
27.97560	46859
27.98372	46473
27.99185	48953
27.99997	52943
28.00808	47987
28.01622	55568
28.02433	55398
28.03247	56641
28.04058	68211
28.04870	60001
28.05683	66173
28.06495	66421
28.07308	62149
28.08120	59495
28.08932	57888
28.09745	58630
28.10557	57111
28.11368	58223
28.12182	52734
28.12993	54181
28.13807	46371
28.14618	46946
28.15430	50867
28.16243	46651
28.17055	45484
28.17868	50911
28.18680	53663
28.19492	56409
28.20305	62092
28.21117	69223
28.21930	76689
28.22742	72967
28.23553	73218
28.24367	70634
28.25178	65515
28.25990	58918
28.26803	54224
28.27615	52184
28.28428	50064
28.29240	46727
28.30052	49730
28.30865	56099
28.31677	65461
28.32490	75260
28.33302	86849
28.34113	93301
28.34927	108708
28.35738	118692
28.36552	133512
28.37363	145162
28.38175	158124
28.38988	159372
28.39800	163549
28.40612	162995
28.41425	164536
28.42237	166083
28.43050	150880
28.43862	138823
28.44673	135433
28.45487	134247
28.46298	117439
28.47112	120702
28.47923	105077
28.48735	101132
28.49548	97008
28.50360	88526
28.51172	89296
28.51985	83798
28.52797	80064
28.53610	79793
28.54422	74935
28.55233	70203
28.56047	67569
28.56858	65448
28.57672	67717
28.58483	64818
28.59295	67864
28.60108	64681
28.60920	66626
28.61733	64761
28.62545	65716
28.63357	70375
28.64170	65971
28.64982	70345
28.65793	66428
28.66607	69299
28.67418	69467
28.68232	68723
28.69043	66970
28.69855	59751
28.70668	61508
28.71480	63749
28.72293	59223
28.73105	56990
28.73917	65637
28.74730	65046
28.75542	70704
28.76355	80785
28.77167	79318
28.77978	76000
28.78792	73266
28.79603	68325
28.80415	63290
28.81228	65379
28.82040	63207
28.82853	60101
28.83665	60321
28.84477	60596
28.85290	58556
28.86102	61399
28.86915	58907
28.87727	66205
28.88538	66645
28.89352	67856
28.90163	69903
28.90975	74447
28.91788	71516
28.92600	62723
28.93413	60641
28.94225	60042
28.95037	60285
28.95850	57966
28.96662	56351
28.97475	59447
28.98287	55842
28.99098	56710
28.99912	53902
29.00723	51279
29.01537	47501
29.02348	51956
29.03160	47423
29.03973	50002
29.04785	47619
29.05597	50623
29.06410	57269
29.07222	51015
29.08035	49020
29.08847	49901
29.09658	54132
29.10472	48428
29.11283	51606
29.12097	51298
29.12908	51666
29.13720	49648
29.14533	49629
29.15345	48199
29.16157	49709
29.16970	50717
29.17782	52741
29.18595	58846
29.19407	68004
29.20218	79753
29.21032	89100
29.21843	95362
29.22657	96648
29.23468	93129
29.24280	89980
29.25093	89425
29.25905	93695
29.26718	99647
29.27530	100404
29.28342	98519
29.29155	89472
29.29967	72036
29.30778	63619
29.31592	57276
29.32403	53116
29.33217	47266
29.34028	46663
29.34840	47357
29.35653	44259
29.36465	47665
29.37278	41808
29.38090	45663
29.38902	44052
29.39715	47531
29.40527	45960
29.41340	51058
29.42152	49872
29.42963	56944
29.43777	49230
29.44588	53408
29.45400	54490
29.46213	50762
29.47025	49906
29.47838	50039
29.48650	53264
29.49462	47601
29.50275	49942
29.51087	48687
29.51900	49282
29.52712	47281
29.53523	48525
29.54337	46590
29.55148	51502
29.55962	43954
29.56773	42667
29.57585	44800
29.58398	43133
29.59210	42111
29.60022	45289
29.60835	43786
29.61647	43243
29.62460	44575
29.63272	43329
29.64083	46228
29.64897	47363
29.65708	45685
29.66522	43526
29.67333	47371
29.68145	48054
29.68958	49538
29.69770	51355
29.70582	44900
29.71395	46833
29.72207	48246
29.73020	46281
29.73832	43823
29.74643	48743
29.75457	43197
29.76268	42827
29.77082	42462
29.77893	43216
29.78705	44443
29.79518	41185
29.80330	42091
29.81143	40643
29.81955	40835
29.82767	41463
29.83580	40537
29.84392	42542
29.85203	42686
29.86017	50023
29.86828	48058
29.87642	49129
29.88453	59912
29.89265	78089
29.90078	77192
29.90890	78749
29.91703	76749
29.92515	63152
29.93327	64323
29.94140	53873
29.94952	49762
29.95763	55094
29.96577	58882
29.97388	62938
29.98202	69623
29.99013	75111
29.99825	82697
30.00638	87356
30.01450	86967
30.02263	95902
30.03075	96345
30.03887	96439
30.04700	100666
30.05512	101299
30.06325	96837
30.07137	95477
30.07948	98380
30.08762	98487
30.09573	94757
30.10385	90396
30.11198	89887
30.12010	86506
30.12823	87594
30.13635	87359
30.14447	79073
30.15260	79692
30.16072	73444
30.16885	71237
30.17697	71162
30.18508	70752
30.19322	64201
30.20133	67107
30.20947	67269
30.21758	65685
30.22570	62682
30.23383	58873
30.24195	56381
30.25007	60443
30.25820	57416
30.26632	61547
30.27445	54986
30.28257	53606
30.29068	56769
30.29882	53172
30.30693	53691
30.31507	50914
30.32318	58272
30.33130	56180
30.33943	54832
30.34755	48686
30.35567	50972
30.36380	51284
30.37192	55426
30.38005	47034
30.38817	51877
30.39628	52226
30.40442	47786
30.41253	46099
30.42067	42804
30.42878	51920
30.43690	49012
30.44503	47820
30.45315	50366
30.46128	45164
30.46940	48506
30.47752	50304
30.48565	45400
30.49377	44390
30.50188	46101
30.51002	42537
30.51813	51654
30.52627	46432
30.53438	43820
30.54250	45930
30.55063	43976
30.55875	43237
30.56688	43870
30.57500	43243
30.58312	46901
30.59125	41762
30.59937	43308
30.60750	42308
30.61562	44964
30.62373	43481
30.63187	42738
30.63998	42485
30.64810	42179
30.65623	45218
30.66435	42497
30.67248	40970
30.68060	43231
30.68872	41946
30.69685	44005
30.70497	43486
30.71310	43149
30.72122	41654
30.72933	39857
30.73747	41943
30.74558	42677
30.75370	43073
30.76183	45437
30.76995	48710
30.77808	56736
30.78620	74639
30.79432	96714
30.80245	111492
30.81057	122674
30.81870	122185
30.82682	116930
30.83493	104727
30.84307	97432
30.85118	92237
30.85932	85279
30.86743	82353
30.87555	83620
30.88368	81676
30.89180	80658
30.89992	81563
30.90805	83925
30.91617	85348
30.92430	80244
30.93242	86171
30.94053	80452
30.94867	87987
30.95678	87251
30.96492	86138
30.97303	82741
30.98115	86210
30.98928	85676
30.99740	85637
31.00552	85763
31.01365	92107
31.02177	80661
31.02990	85138
31.03802	85290
31.04613	84312
31.05427	85160
31.06238	84374
31.07052	88852
31.07863	91290
31.08675	91565
31.09488	101166
31.10300	105557
31.11113	103786
31.11925	105823
31.12737	96217
31.13550	92303
31.14362	91555
31.15173	88266
31.15987	87057
31.16798	89141
31.17612	93584
31.18423	100118
31.19235	109545
31.20048	128822
31.20860	145417
31.21673	171248
31.22485	182220
31.23297	172112
31.24110	170511
31.24922	151659
31.25735	128744
31.26547	104436
31.27358	92137
31.28172	88347
31.28983	84161
31.29795	71315
31.30608	82142
31.31420	77675
31.32233	78331
31.33045	79722
31.33857	77933
31.34670	78457
31.35482	78175
31.36295	74628
31.37107	73573
31.37918	74632
31.38732	78765
31.39543	75162
31.40355	75024
31.41168	74112
31.41980	66513
31.42793	73740
31.43605	69425
31.44417	65353
31.45230	69060
31.46042	71223
31.46855	64244
31.47667	70321
31.48478	64158
31.49292	62717
31.50103	66705
31.50917	64243
31.51728	60934
31.52540	62029
31.53353	62924
31.54165	65804
31.54977	60718
31.55790	67085
31.56602	69364
31.57415	66321
31.58227	65435
31.59038	62366
31.59852	61954
31.60663	56394
31.61477	61283
31.62288	58162
31.63100	62340
31.63913	59242
31.64725	61570
31.65538	60101
31.66350	62137
31.67162	65546
31.67975	67582
31.68787	66934
31.69598	57716
31.70412	60025
31.71223	56998
31.72037	58555
31.72848	59071
31.73660	56679
31.74473	55137
31.75285	54498
31.76098	56025
31.76910	54708
31.77722	54539
31.78535	57269
31.79347	55884
31.80158	57940
31.80972	57973
31.81783	57163
31.82597	53730
31.83408	54302
31.84220	48650
31.85033	51955
31.85845	56561
31.86658	54984
31.87470	58648
31.88282	58912
31.89095	66138
31.89907	68696
31.90720	74962
31.91532	76268
31.92343	81876
31.93157	85710
31.93968	92200
31.94780	88441
31.95593	93054
31.96405	95313
31.97218	94550
31.98030	103821
31.98842	104868
31.99655	103595
32.00467	97233
32.01280	98106
32.02092	95672
32.02903	92412
32.03717	92850
32.04528	87065
32.05342	90595
32.06153	88122
32.06965	86713
32.07778	82301
32.08590	72944
32.09402	74840
32.10215	65985
32.11027	68433
32.11840	61971
32.12652	67037
32.13463	65696
32.14277	63852
32.15088	59546
32.15902	63500
32.16713	61182
32.17525	61633
32.18338	56253
32.19150	58284
32.19962	57444
32.20775	58626
32.21587	56094
32.22400	54657
32.23212	56873
32.24023	54065
32.24837	54053
32.25648	54159
32.26462	58822
32.27273	57280
32.28085	58864
32.28898	57120
32.29710	58694
32.30523	52117
32.31335	52723
32.32147	50547
32.32960	51141
32.33772	53616
32.34583	56104
32.35397	52299
32.36208	53406
32.37022	50499
32.37833	54475
32.38645	55262
32.39458	46608
32.40270	54509
32.41083	46898
32.41895	49886
32.42707	50947
32.43520	50013
32.44332	45098
32.45143	50984
32.45957	49744
32.46768	51288
32.47582	49340
32.48393	51773
32.49205	51156
32.50018	47917
32.50830	48272
32.51643	53434
32.52455	47009
32.53267	48687
32.54080	46269
32.54892	48704
32.55705	49895
32.56517	47865
32.57328	49656
32.58142	47554
32.58953	52575
32.59765	48454
32.60578	44329
32.61390	45928
32.62203	47004
32.63015	45387
32.63827	51329
32.64640	58143
32.65452	59178
32.66265	62463
32.67077	63320
32.67888	56844
32.68702	54835
32.69513	56141
32.70327	49578
32.71138	50514
32.71950	50350
32.72763	47500
32.73575	48607
32.74387	50828
32.75200	49462
32.76012	48236
32.76825	47343
32.77637	50143
32.78448	45391
32.79262	45212
32.80073	44642
32.80887	50945
32.81698	44198
32.82510	44188
32.83323	49041
32.84135	45134
32.84947	47980
32.85760	44499
32.86572	45383
32.87385	46455
32.88197	48008
32.89008	46162
32.89822	44828
32.90633	50264
32.91447	50541
32.92258	47608
32.93070	44936
32.93883	47446
32.94695	46275
32.95508	48599
32.96320	48791
32.97132	47816
32.97945	54382
32.98757	58831
32.99568	61480
33.00382	67966
33.01193	69645
33.02007	70000
33.02818	63230
33.03630	57001
33.04443	55222
33.05255	52887
33.06068	50890
33.06880	52759
33.07692	55035
33.08505	57647
33.09317	54398
33.10130	61157
33.10942	67494
33.11753	66973
33.12567	64884
33.13378	61074
33.14190	62654
33.15003	59735
33.15815	54469
33.16628	55162
33.17440	51587
33.18252	52845
33.19065	50158
33.19877	46715
33.20690	49158
33.21502	53796
33.22313	50509
33.23127	47999
33.23938	46966
33.24750	45310
33.25563	48714
33.26375	48475
33.27188	47303
33.28000	46337
33.28812	47882
33.29625	45626
33.30437	43836
33.31250	44630
33.32062	45525
33.32873	45498
33.33687	48372
33.34498	46544
33.35312	48156
33.36123	49625
33.36935	50320
33.37748	46185
33.38560	48285
33.39372	48326
33.40185	46421
33.40997	44249
33.41810	49099
33.42622	51446
33.43433	45005
33.44247	42345
33.45058	43752
33.45872	44470
33.46683	44384
33.47495	43251
33.48308	45550
33.49120	43616
33.49932	46005
33.50745	47368
33.51557	46715
33.52370	50781
33.53182	46465
33.53993	51426
33.54807	52390
33.55618	56487
33.56432	54693
33.57243	53103
33.58055	47722
33.58868	48209
33.59680	48892
33.60493	45558
33.61305	45916
33.62117	46709
33.62930	45432
33.63742	48286
33.64553	46715
33.65367	50983
33.66178	50468
33.66992	46936
33.67803	49570
33.68615	48835
33.69428	48001
33.70240	46141
33.71053	45775
33.71865	44003
33.72677	48998
33.73490	44369
33.74302	46104
33.75115	45320
33.75927	45302
33.76738	45613
33.77552	41258
33.78363	41831
33.79175	46710
33.79988	44725
33.80800	46741
33.81613	43623
33.82425	45110
33.83237	46194
33.84050	43698
33.84862	48759
33.85675	49107
33.86487	43445
33.87298	48162
33.88112	43443
33.88923	46475
33.89735	49341
33.90548	48970
33.91360	46924
33.92173	49801
33.92985	49878
33.93797	44191
33.94610	48074
33.95422	40644
33.96235	41630
33.97047	40934
33.97858	43956
33.98672	42752
33.99483	41053
34.00297	43520
34.01108	46636
34.01920	46998
34.02733	42572
34.03545	48794
34.04357	45615
34.05170	44969
34.05982	44167
34.06795	44768
34.07607	41596
34.08418	44528
34.09232	46524
34.10043	50315
34.10857	46446
34.11668	47052
34.12480	46779
34.13293	44074
34.14105	42462
34.14918	44878
34.15730	46324
34.16542	47380
34.17355	45477
34.18167	46425
34.18978	45039
34.19792	46165
34.20603	46469
34.21417	44713
34.22228	45461
34.23040	49582
34.23853	43786
34.24665	43566
34.25478	46736
34.26290	46614
34.27102	42358
34.27915	42873
34.28727	45260
34.29538	44478
34.30352	42591
34.31163	46625
34.31977	44790
34.32788	46421
34.33600	48904
34.34413	45985
34.35225	43997
34.36038	49344
34.36850	46934
34.37662	43635
34.38475	45381
34.39287	43647
34.40100	46919
34.40912	43597
34.41723	47159
34.42537	43392
34.43348	44169
34.44160	45643
34.44973	43956
34.45785	40269
34.46598	47230
34.47410	43339
34.48222	46835
34.49035	50764
34.49847	51489
34.50660	56769
34.51472	64565
34.52283	69533
34.53097	74878
34.53908	77098
34.54720	84332
34.55533	89393
34.56345	88051
34.57158	87950
34.57970	86733
34.58782	79701
34.59595	78282
34.60407	71507
34.61220	68415
34.62032	65189
34.62843	62444
34.63657	60213
34.64468	57231
34.65282	56910
34.66093	55298
34.66905	55465
34.67718	59315
34.68530	51517
34.69342	57091
34.70155	51976
34.70967	55688
34.71780	54169
34.72592	52960
34.73403	51970
34.74217	53528
34.75028	48110
34.75842	52895
34.76653	51835
34.77465	49800
34.78278	47428
34.79090	49397
34.79903	48573
34.80715	50607
34.81527	52236
34.82340	58203
34.83152	58998
34.83963	50211
34.84777	50713
34.85588	51200
34.86402	48218
34.87213	49361
34.88025	51857
34.88838	49126
34.89650	55437
34.90463	50323
34.91275	52025
34.92087	54161
34.92900	49415
34.93712	54840
34.94525	54428
34.95337	56570
34.96148	58184
34.96962	61019
34.97773	59175
34.98585	59302
34.99398	54394
35.00210	53745
35.01023	51582
35.01835	50093
35.02647	50523
35.03460	48360
35.04272	51884
35.05085	47209
35.05897	51381
35.06708	47829
35.07522	49446
35.08333	48617
35.09145	49414
35.09958	49799
35.10770	46572
35.11583	45754
35.12395	47890
35.13207	45856
35.14020	51680
35.14832	49177
35.15645	50302
35.16457	48009
35.17268	50014
35.18082	47604
35.18893	54474
35.19707	48468
35.20518	47058
35.21330	49506
35.22143	44938
35.22955	45017
35.23767	47053
35.24580	51249
35.25392	45782
35.26205	47232
35.27017	48883
35.27828	46968
35.28642	51593
35.29453	47642
35.30267	49684
35.31078	47112
35.31890	49625
35.32703	47170
35.33515	48148
35.34327	49647
35.35140	50378
35.35952	46926
35.36765	45394
35.37577	49639
35.38388	47618
35.39202	46780
35.40013	46676
35.40827	51328
35.41638	50351
35.42450	50954
35.43263	47731
35.44075	50857
35.44888	49910
35.45700	54029
35.46512	52685
35.47325	50108
35.48137	52632
35.48948	50936
35.49762	50727
35.50573	48863
35.51387	48564
35.52198	46559
35.53010	48150
35.53823	47729
35.54635	51944
35.55448	50731
35.56260	49184
35.57072	49203
35.57885	51564
35.58697	50710
35.59510	47797
35.60322	49964
35.61133	50630
35.61947	47974
35.62758	47236
35.63570	48816
35.64383	48232
35.65195	50203
35.66008	50377
35.66820	49582
35.67632	52640
35.68445	46565
35.69257	51976
35.70070	46338
35.70882	50923
35.71693	48317
35.72507	49836
35.73318	50700
35.74130	48355
35.74943	52463
35.75755	52233
35.76568	52884
35.77380	54468
35.78192	55632
35.79005	51765
35.79817	53174
35.80630	48649
35.81442	46764
35.82253	50472
35.83067	53589
35.83878	49847
35.84692	48346
35.85503	48989
35.86315	52199
35.87128	50131
35.87940	44913
35.88752	46312
35.89565	50608
35.90377	47175
35.91190	47084
35.92002	50669
35.92813	48875
35.93627	49623
35.94438	49423
35.95252	48590
35.96063	49488
35.96875	47754
35.97688	47504
35.98500	49472
35.99313	49355
36.00125	50177
36.00937	49185
36.01750	49820
36.02562	51318
36.03373	50936
36.04187	52709
36.04998	51482
36.05812	47590
36.06623	52188
36.07435	49071
36.08248	53131
36.09060	51030
36.09873	46786
36.10685	47461
36.11497	49410
36.12310	50804
36.13122	52686
36.13933	47208
36.14747	50873
36.15558	51976
36.16372	49255
36.17183	53847
36.17995	48976
36.18808	51977
36.19620	45695
36.20433	46872
36.21245	48542
36.22057	47262
36.22870	48043
36.23682	47146
36.24495	48072
36.25307	48799
36.26118	50523
36.26932	51522
36.27743	53497
36.28555	60787
36.29368	58019
36.30180	61882
36.30993	64707
36.31805	64524
36.32617	66375
36.33430	64845
36.34242	63118
36.35055	64557
36.35867	63955
36.36678	67671
36.37492	67116
36.38303	68035
36.39115	66542
36.39928	65898
36.40740	69024
36.41553	67530
36.42365	73117
36.43177	74077
36.43990	70870
36.44802	71145
36.45615	72694
36.46427	67546
36.47238	68141
36.48052	72440
36.48863	70146
36.49677	69582
36.50488	67129
36.51300	68332
36.52113	70891
36.52925	69882
36.53737	75878
36.54550	74920
36.55362	71499
36.56175	67961
36.56987	73461
36.57798	71596
36.58612	69921
36.59423	72735
36.60237	71920
36.61048	67468
36.61860	74601
36.62673	67836
36.63485	73012
36.64298	74758
36.65110	70694
36.65922	67161
36.66735	71379
36.67547	72589
36.68358	72652
36.69172	66620
36.69983	69705
36.70797	69657
36.71608	70866
36.72420	72424
36.73233	68142
36.74045	65741
36.74858	67996
36.75670	70110
36.76482	66954
36.77295	65478
36.78107	65792
36.78918	66350
36.79732	63200
36.80543	65583
36.81357	67613
36.82168	62334
36.82980	63109
36.83793	64191
36.84605	60365
36.85418	68270
36.86230	69988
36.87042	66081
36.87855	66244
36.88667	65129
36.89480	63557
36.90292	64533
36.91103	59560
36.91917	64648
36.92728	67166
36.93540	67446
36.94353	67892
36.95165	76541
36.95978	75711
36.96790	78944
36.97602	83465
36.98415	79878
36.99227	74847
37.00040	72554
37.00852	68109
37.01663	68386
37.02477	67103
37.03288	63656
37.04102	62952
37.04913	63665
37.05725	65233
37.06538	65737
37.07350	64249
37.08162	65928
37.08975	63687
37.09787	63895
37.10600	65021
37.11412	67305
37.12223	63614
37.13037	58617
37.13848	63990
37.14662	60015
37.15473	66704
37.16285	65120
37.17098	63605
37.17910	61832
37.18722	64019
37.19535	60476
37.20347	60574
37.21160	59400
37.21972	61354
37.22783	63107
37.23597	62986
37.24408	62044
37.25222	58658
37.26033	62857
37.26845	61697
37.27658	60310
37.28470	59760
37.29283	60995
37.30095	62410
37.30907	68414
37.31720	74164
37.32532	79774
37.33343	85806
37.34157	92479
37.34968	91261
37.35782	94305
37.36593	93469
37.37405	85629
37.38218	82779
37.39030	85991
37.39843	76811
37.40655	75650
37.41467	76189
37.42280	78048
37.43092	73339
37.43905	73031
37.44717	72141
37.45528	76535
37.46342	72971
37.47153	66377
37.47965	66732
37.48778	65551
