Z:\data\JTB-E02\BACandBLUE\JTB-E02-204-15.D Sat Mar 09 14:03:28 2019
Start of data points
2.09513,55914
2.10325,57226
2.11137,58507
2.11950,56582
2.12762,57073
2.13575,58335
2.14387,61577
2.15198,57705
2.16012,56887
2.16823,57815
2.17635,51274
2.18448,54396
2.19260,48146
2.20073,51211
2.20885,53224
2.21697,48401
2.22510,52315
2.23322,46358
2.24135,47500
2.24947,51934
2.25758,47372
2.26572,77379
2.27383,604179
2.28195,1665274
2.29008,1149419
2.29820,554814
2.30633,393015
2.31445,314900
2.32257,280382
2.33070,254036
2.33882,224183
2.34695,208945
2.35507,185507
2.36318,170384
2.37132,154769
2.37943,154768
2.38757,146099
2.39568,145522
2.40380,135005
2.41193,135364
2.42005,136225
2.42817,144657
2.43630,124163
2.44442,123811
2.45255,122690
2.46067,123473
2.46878,112259
2.47692,105944
2.48503,110830
2.49317,111192
2.50128,119466
2.50940,112304
2.51753,111227
2.52565,105805
2.53378,101745
2.54190,101818
2.55002,110872
2.55815,182755
2.56627,306469
2.57438,271889
2.58252,192912
2.59063,162572
2.59877,166214
2.60688,385489
2.61500,1017589
2.62313,980486
2.63125,559477
2.63938,358663
2.64750,284351
2.65562,233625
2.66375,190979
2.67187,169618
2.67998,161378
2.68812,154225
2.69623,140132
2.70437,131066
2.71248,124099
2.72060,126382
2.72873,116850
2.73685,117557
2.74498,113313
2.75310,111483
2.76122,101277
2.76935,106254
2.77747,199361
2.78560,739855
2.79372,1196089
2.80183,783468
2.80997,474854
2.81808,369222
2.82620,331662
2.83433,278481
2.84245,253775
2.85058,212618
2.85870,192148
2.86682,180235
2.87495,172107
2.88307,157845
2.89120,153157
2.89932,143001
2.90743,139220
2.91557,135583
2.92368,121935
2.93182,119638
2.93993,114889
2.94805,116330
2.95618,110386
2.96430,122265
2.97242,119056
2.98055,112278
2.98867,103272
2.99680,112853
3.00492,114586
3.01303,121404
3.02117,120677
3.02928,112427
3.03742,102686
3.04553,103804
3.05365,101183
3.06178,93470
3.06990,100307
3.07802,135246
3.08615,465771
3.09427,1552118
3.10240,3007813
3.11052,5115457
3.11863,5859920
3.12677,4015391
3.13488,2571930
3.14302,1972236
3.15113,1540315
3.15925,1233591
3.16738,1060104
3.17550,915906
3.18363,886923
3.19175,1287674
3.19987,1820215
3.20800,1574338
3.21612,1148271
3.22423,913582
3.23237,779949
3.24048,683789
3.24862,580671
3.25673,529917
3.26485,472751
3.27298,426053
3.28110,416951
3.28923,511430
3.29735,1263970
3.30547,3376005
3.31360,5751790
3.32172,6070380
3.32983,4535046
3.33797,3028514
3.34608,2151392
3.35422,1676602
3.36233,1384070
3.37045,1167063
3.37858,1001463
3.38670,915694
3.39483,822413
3.40295,747484
3.41107,707373
3.41920,654781
3.42732,620608
3.43545,603439
3.44357,558357
3.45168,524166
3.45982,503327
3.46793,498853
3.47605,501462
3.48418,498330
3.49230,472735
3.50043,453486
3.50855,425433
3.51667,419606
3.52480,405427
3.53292,399241
3.54105,415328
3.54917,396538
3.55728,367824
3.56542,342742
3.57353,334748
3.58167,351321
3.58978,326399
3.59790,319373
3.60603,318284
3.61415,305700
3.62227,313192
3.63040,323257
3.63852,317113
3.64665,310766
3.65477,311215
3.66288,626458
3.67102,2892519
3.67913,8802669
3.68727,1.2859E+07
3.69538,1.028378E+07
3.70350,6034470
3.71163,3998100
3.71975,3100350
3.72787,2570889
3.73600,2242955
3.74412,1968636
3.75225,1750917
3.76037,1606271
3.76848,1448088
3.77662,1337349
3.78473,1258754
3.79287,1183853
3.80098,1244340
3.80910,1932242
3.81723,3282632
3.82535,4006195
3.83348,3144770
3.84160,2221841
3.84972,1734757
3.85785,1482109
3.86597,1329797
3.87408,1210003
3.88222,1101770
3.89033,1041684
3.89847,960836
3.90658,910826
3.91470,866993
3.92283,926177
3.93095,1067527
3.93908,1080662
3.94720,1065957
3.95532,1443601
3.96345,2595752
3.97157,3698718
3.97970,3402090
3.98782,2375874
3.99593,1885909
4.00407,3084460
4.01218,6487687
4.02030,9572814
4.02843,8455469
4.03655,5339696
4.04468,3115332
4.05280,2077612
4.06092,1575410
4.06905,1296025
4.07717,1085564
4.08530,974315
4.09342,881941
4.10153,796697
4.10967,743106
4.11778,694587
4.12590,642314
4.13403,611811
4.14215,615168
4.15028,643769
4.15840,643965
4.16652,610616
4.17465,614061
4.18277,600416
4.19090,577854
4.19902,513223
4.20713,569458
4.21527,1399947
4.22338,4751938
4.23152,1.093213E+07
4.23963,1.589777E+07
4.24775,1.574595E+07
4.25588,1.152892E+07
4.26400,7248453
4.27212,4951500
4.28025,3634664
4.28837,2788141
4.29650,2204223
4.30462,1819659
4.31273,1508525
4.32087,1279362
4.32898,1107740
4.33712,993521
4.34523,895734
4.35335,833272
4.36148,821657
4.36960,813752
4.37772,779648
4.38585,711615
4.39397,630509
4.40210,569041
4.41022,532185
4.41833,484954
4.42647,463182
4.43458,453687
4.44272,428985
4.45083,412073
4.45895,390774
4.46708,386071
4.47520,370402
4.48333,375442
4.49145,351560
4.49957,349119
4.50770,334641
4.51582,337261
4.52393,323216
4.53207,323750
4.54018,314152
4.54832,330348
4.55643,329293
4.56455,322879
4.57268,301210
4.58080,296219
4.58893,281815
4.59705,274885
4.60517,268425
4.61330,276291
4.62142,290037
4.62955,380109
4.63767,547201
4.64578,722999
4.65392,747554
4.66203,609025
4.67015,460235
4.67828,388168
4.68640,368181
4.69453,333880
4.70265,307083
4.71077,289294
4.71890,285726
4.72702,291657
4.73515,293364
4.74327,273132
4.75138,259752
4.75952,244433
4.76763,246317
4.77577,228771
4.78388,265102
4.79200,460916
4.80013,1057182
4.80825,1945126
4.81637,2381096
4.82450,1932995
4.83262,1342568
4.84075,993804
4.84887,861056
4.85698,779445
4.86512,663135
4.87323,576653
4.88137,520423
4.88948,469300
4.89760,436029
4.90573,416681
4.91385,388304
4.92197,367139
4.93010,360042
4.93822,398219
4.94635,581749
4.95447,1053451
4.96258,1772378
4.97072,2411153
4.97883,2477111
4.98697,2034188
4.99508,1558397
5.00320,1183911
5.01133,935273
5.01945,800073
5.02758,748660
5.03570,772722
5.04382,830735
5.05195,852254
5.06007,773439
5.06818,672333
5.07632,609548
5.08443,554499
5.09257,533685
5.10068,498162
5.10880,465655
5.11693,452886
5.12505,447263
5.13318,418632
5.14130,406832
5.14942,414020
5.15755,449148
5.16567,515742
5.17378,580410
5.18192,558073
5.19003,498147
5.19817,464143
5.20628,486885
5.21440,502049
5.22253,508886
5.23065,482758
5.23878,433493
5.24690,416559
5.25502,393895
5.26315,361534
5.27127,330410
5.27940,312182
5.28752,290421
5.29563,273907
5.30377,296835
5.31188,285069
5.32000,266062
5.32813,281755
5.33625,295656
5.34438,340026
5.35250,346621
5.36062,330272
5.36875,288760
5.37687,273478
5.38500,270890
5.39312,267753
5.40123,286339
5.40937,281311
5.41748,274236
5.42562,254781
5.43373,247082
5.44185,240603
5.44998,230549
5.45810,239619
5.46622,248054
5.47435,234629
5.48247,226462
5.49060,213882
5.49872,211394
5.50683,208718
5.51497,221341
5.52308,215256
5.53122,226498
5.53933,216123
5.54745,215349
5.55558,236482
5.56370,297027
5.57182,408225
5.57995,510853
5.58807,542601
5.59620,484600
5.60432,387645
5.61243,321803
5.62057,276619
5.62868,253538
5.63682,247423
5.64493,233004
5.65305,228689
5.66118,230200
5.66930,214881
5.67743,226282
5.68555,250087
5.69367,297304
5.70180,337940
5.70992,316899
5.71803,280626
5.72617,245860
5.73428,223453
5.74242,204654
5.75053,195685
5.75865,194853
5.76678,184343
5.77490,177897
5.78303,171528
5.79115,175274
5.79927,178895
5.80740,166827
5.81552,164324
5.82365,169502
5.83177,171016
5.83988,164857
5.84802,167107
5.85613,170892
5.86425,158801
5.87238,159387
5.88050,158875
5.88863,155834
5.89675,158011
5.90487,141171
5.91300,143249
5.92112,145518
5.92925,154085
5.93737,148792
5.94548,147185
5.95362,155668
5.96173,192011
5.96985,210570
5.97798,267730
5.98610,342652
5.99423,396746
6.00235,379180
6.01047,334772
6.01860,269927
6.02672,219494
6.03485,176411
6.04297,163595
6.05108,162800
6.05922,153636
6.06733,145978
6.07547,142056
6.08358,135347
6.09170,135620
6.09983,142424
6.10795,160886
6.11607,193376
6.12420,224186
6.13232,271508
6.14045,382057
6.14857,522474
6.15668,557191
6.16482,489749
6.17293,364886
6.18107,288199
6.18918,243701
6.19730,220363
6.20543,212166
6.21355,202488
6.22167,203103
6.22980,199185
6.23792,187060
6.24605,178259
6.25417,191037
6.26228,198062
6.27042,193013
6.27853,203427
6.28667,187156
6.29478,179390
6.30290,174675
6.31103,187759
6.31915,180141
6.32728,189676
6.33540,213937
6.34352,237945
6.35165,251590
6.35977,231640
6.36788,219055
6.37602,200809
6.38413,194851
6.39227,189514
6.40038,200346
6.40850,186203
6.41663,186653
6.42475,191500
6.43288,184600
6.44100,183632
6.44912,193262
6.45725,191211
6.46537,192812
6.47350,187338
6.48162,189970
6.48973,198374
6.49787,193161
6.50598,198184
6.51410,200442
6.52223,203457
6.53035,198964
6.53848,202182
6.54660,205182
6.55472,199168
6.56285,219393
6.57097,252657
6.57910,309519
6.58722,374254
6.59533,393583
6.60347,345847
6.61158,277183
6.61970,242206
6.62783,230446
6.63595,229188
6.64408,238977
6.65220,363029
6.66032,726631
6.66845,1455767
6.67657,2151184
6.68470,2211907
6.69282,1659798
6.70093,1047257
6.70907,674640
6.71718,510992
6.72532,439029
6.73343,399903
6.74155,362654
6.74968,339425
6.75780,329062
6.76592,329020
6.77405,308845
6.78217,297692
6.79030,292857
6.79842,280825
6.80653,277600
6.81467,272992
6.82278,273606
6.83092,262397
6.83903,277820
6.84715,287515
6.85528,295388
6.86340,290912
6.87153,271413
6.87965,221735
6.88777,186235
6.89590,168649
6.90402,162472
6.91213,148179
6.92027,144218
6.92838,137533
6.93652,135333
6.94463,129752
6.95275,136757
6.96088,141550
6.96900,164107
6.97713,202238
6.98525,217658
6.99337,228421
7.00150,189490
7.00962,165877
7.01773,138844
7.02587,134560
7.03398,146482
7.04212,137916
7.05023,148016
7.05835,136810
7.06648,130478
7.07460,121386
7.08273,114601
7.09085,106877
7.09897,108011
7.10710,100271
7.11522,103763
7.12335,101268
7.13147,107074
7.13958,107506
7.14772,119466
7.15583,162966
7.16395,195554
7.17208,210237
7.18020,212906
7.18833,170161
7.19645,145993
7.20457,122136
7.21270,115514
7.22082,108612
7.22895,107109
7.23707,110572
7.24518,140109
7.25332,314793
7.26143,755452
7.26957,1559081
7.27768,2358078
7.28580,2567072
7.29393,2052342
7.30205,1303510
7.31017,792060
7.31830,485068
7.32642,356410
7.33455,295398
7.34267,275664
7.35078,244920
7.35892,196055
7.36703,153848
7.37517,128648
7.38328,125444
7.39140,111984
7.39953,102889
7.40765,105890
7.41577,103716
7.42390,97269
7.43202,97092
7.44015,95992
7.44827,98925
7.45638,102142
7.46452,100747
7.47263,99944
7.48077,102411
7.48888,110379
7.49700,142537
7.50513,226664
7.51325,386051
7.52138,605731
7.52950,832038
7.53762,992988
7.54575,988236
7.55387,826720
7.56198,624942
7.57012,426773
7.57823,282346
7.58637,208738
7.59448,160251
7.60260,140412
7.61073,121134
7.61885,119928
7.62698,109673
7.63510,108067
7.64322,111644
7.65135,100286
7.65947,97909
7.66758,97071
7.67572,88235
7.68383,100892
7.69197,93210
7.70008,92713
7.70820,94803
7.71633,86194
7.72445,84306
7.73258,84875
7.74070,88637
7.74882,81385
7.75695,80703
7.76507,78238
7.77320,80636
7.78132,85356
7.78943,90383
7.79757,104373
7.80568,111091
7.81380,118468
7.82193,116249
7.83005,108062
7.83818,102154
7.84630,107016
7.85442,114159
7.86255,135122
7.87067,173948
7.87880,177972
7.88692,175581
7.89503,152085
7.90317,128571
7.91128,107554
7.91942,101381
7.92753,124893
7.93565,191290
7.94378,284432
7.95190,376814
7.96002,416554
7.96815,371621
7.97627,268673
7.98440,191967
7.99252,141040
8.00063,122491
8.00877,108722
8.01688,95149
8.02502,87701
8.03313,86512
8.04125,87441
8.04938,81622
8.05750,79789
8.06562,78857
8.07375,82720
8.08187,75499
8.09000,73505
8.09812,74959
8.10623,71997
8.11437,77077
8.12248,80886
8.13062,79670
8.13873,88804
8.14685,97445
8.15498,112490
8.16310,113835
8.17123,111643
8.17935,99357
8.18747,83411
8.19560,76511
8.20372,72023
8.21183,75259
8.21997,69211
8.22808,73959
8.23622,72313
8.24433,68324
8.25245,67265
8.26058,71943
8.26870,65829
8.27683,68829
8.28495,77900
8.29307,82437
8.30120,81613
8.30932,80910
8.31745,78820
8.32557,76800
8.33368,71811
8.34182,68152
8.34993,73630
8.35805,67141
8.36618,71534
8.37430,72136
8.38243,71217
8.39055,76798
8.39867,72706
8.40680,68369
8.41492,68826
8.42305,63423
8.43117,67634
8.43928,61723
8.44742,60483
8.45553,65019
8.46365,63625
8.47178,66911
8.47990,65724
8.48803,65310
8.49615,63448
8.50427,66338
8.51240,62791
8.52052,59627
8.52865,60194
8.53677,67023
8.54488,104909
8.55302,230031
8.56113,542834
8.56927,1034903
8.57738,1510696
8.58550,1665550
8.59363,1384718
8.60175,925058
8.60987,551488
8.61800,286302
8.62612,199889
8.63425,144181
8.64237,131224
8.65048,116284
8.65862,120660
8.66673,106589
8.67487,98798
8.68298,100292
8.69110,97826
8.69923,97128
8.70735,92015
8.71547,91344
8.72360,83918
8.73172,83725
8.73985,80140
8.74797,85827
8.75608,98341
8.76422,140344
8.77233,244421
8.78047,363613
8.78858,481158
8.79670,522640
8.80483,465531
8.81295,379426
8.82108,280837
8.82920,220071
8.83732,171242
8.84545,159234
8.85357,149930
8.86168,160602
8.86982,163342
8.87793,161590
8.88607,166312
8.89418,158152
8.90230,153110
8.91043,145398
8.91855,137987
8.92668,145554
8.93480,135953
8.94292,146933
8.95105,152460
8.95917,174713
8.96730,191230
8.97542,199757
8.98353,196707
8.99167,185334
8.99978,167078
9.00790,143943
9.01603,126080
9.02415,118904
9.03228,115193
9.04040,111603
9.04852,102995
9.05665,102653
9.06477,104736
9.07290,103675
9.08102,106786
9.08913,114002
9.09727,122619
9.10538,152432
9.11352,171122
9.12163,175412
9.12975,162917
9.13788,138969
9.14600,122770
9.15412,120824
9.16225,112167
9.17037,100372
9.17850,98473
9.18662,89925
9.19473,90810
9.20287,87634
9.21098,86055
9.21912,88861
9.22723,88471
9.23535,89472
9.24348,83887
9.25160,86348
9.25972,89288
9.26785,89750
9.27597,93442
9.28410,81955
9.29222,85882
9.30033,83556
9.30847,82822
9.31658,79339
9.32472,81148
9.33283,85442
9.34095,77988
9.34908,81473
9.35720,82326
9.36533,79593
9.37345,82817
9.38157,83889
9.38970,91172
9.39782,98678
9.40593,97889
9.41407,118777
9.42218,136196
9.43032,152731
9.43843,153421
9.44655,136624
9.45468,119359
9.46280,108436
9.47093,100014
9.47905,88576
9.48717,89694
9.49530,97515
9.50342,90729
9.51153,104440
9.51967,117130
9.52778,110711
9.53592,118287
9.54403,110737
9.55215,100177
9.56028,90223
9.56840,93166
9.57653,108381
9.58465,115236
9.59277,123328
9.60090,107928
9.60902,102879
9.61715,76663
9.62527,69538
9.63338,63892
9.64152,60768
9.64963,67599
9.65775,56166
9.66588,55678
9.67400,56989
9.68213,54283
9.69025,55802
9.69837,56285
9.70650,55639
9.71462,54674
9.72275,51338
9.73087,51563
9.73898,54079
9.74712,57611
9.75523,55877
9.76337,52495
9.77148,52981
9.77960,53171
9.78773,54005
9.79585,54089
9.80397,47777
9.81210,50935
9.82022,52114
9.82835,50336
9.83647,50061
9.84458,49954
9.85272,51952
9.86083,50149
9.86897,51503
9.87708,51203
9.88520,58713
9.89333,61362
9.90145,64965
9.90957,76911
9.91770,84611
9.92582,96942
9.93395,104280
9.94207,106548
9.95018,98456
9.95832,92434
9.96643,86532
9.97457,81738
9.98268,78282
9.99080,73571
9.99893,75845
10.00705,71018
10.01518,74942
10.02330,73434
10.03142,69602
10.03955,62537
10.04767,64350
10.05578,53077
10.06392,57761
10.07203,60260
10.08017,61814
10.08828,60719
10.09640,67138
10.10453,64148
10.11265,63206
10.12078,65166
10.12890,57088
10.13702,56691
10.14515,52171
10.15327,51151
10.16140,50833
10.16952,55032
10.17763,50203
10.18577,55261
10.19388,52940
10.20200,55294
10.21013,56439
10.21825,56788
10.22638,53124
10.23450,56897
10.24262,60645
10.25075,61348
10.25887,75884
10.26700,96133
10.27512,180095
10.28323,400291
10.29137,992794
10.29948,2083957
10.30760,3641077
10.31573,5455774
10.32385,7690268
10.33198,1.119245E+07
10.34010,1.706084E+07
10.34822,2.529581E+07
10.35635,3.287901E+07
10.36447,3.682335E+07
10.37260,3.411131E+07
10.38072,2.284793E+07
10.38883,1.10189E+07
10.39697,4317622
10.40508,1866996
10.41322,1157736
10.42133,899079
10.42945,732109
10.43758,647939
10.44570,573719
10.45382,534621
10.46195,496086
10.47007,458347
10.47820,437378
10.48632,402235
10.49443,378191
10.50257,341155
10.51068,322189
10.51882,314029
10.52693,335919
10.53505,337888
10.54318,349101
10.55130,347045
10.55942,327397
10.56755,285820
10.57567,261937
10.58380,242277
10.59192,216820
10.60003,207995
10.60817,204353
10.61628,198104
10.62442,191278
10.63253,178040
10.64065,175850
10.64878,170395
10.65690,158814
10.66503,164385
10.67315,160858
10.68127,154129
10.68940,150012
10.69752,156779
10.70563,148101
10.71377,141291
10.72188,144981
10.73002,141554
10.73813,140759
10.74625,133619
10.75438,132894
10.76250,131439
10.77063,126192
10.77875,117602
10.78687,113435
10.79500,119134
10.80312,119068
10.81125,114930
10.81937,115222
10.82748,124389
10.83562,111131
10.84373,105745
10.85185,102157
10.85998,97093
10.86810,97853
10.87623,93765
10.88435,94427
10.89247,84759
10.90060,90564
10.90872,84212
10.91685,89112
10.92497,85694
10.93308,87534
10.94122,89497
10.94933,82917
10.95745,86418
10.96558,80865
10.97370,81185
10.98183,83977
10.98995,89957
10.99807,87132
11.00620,76663
11.01432,80703
11.02245,76887
11.03057,78877
11.03868,77289
11.04682,77074
11.05493,76236
11.06307,72522
11.07118,73056
11.07930,83150
11.08743,78130
11.09555,80120
11.10367,79269
11.11180,74135
11.11992,70433
11.12805,69093
11.13617,63303
11.14428,57735
11.15242,59518
11.16053,58677
11.16867,60645
11.17678,66996
11.18490,71028
11.19303,63253
11.20115,71097
11.20928,65485
11.21740,61056
11.22552,56594
11.23365,55850
11.24177,53946
11.24988,52947
11.25802,52171
11.26613,47377
11.27427,51548
11.28238,55029
11.29050,62238
11.29863,82393
11.30675,128448
11.31488,221210
11.32300,359728
11.33112,555503
11.33925,678524
11.34737,681771
11.35548,591677
11.36362,438829
11.37173,294187
11.37987,204380
11.38798,139809
11.39610,115182
11.40423,106457
11.41235,113371
11.42048,111641
11.42860,112321
11.43672,104335
11.44485,99543
11.45297,95292
11.46110,89234
11.46922,98577
11.47733,100106
11.48547,117788
11.49358,149969
11.50170,176180
11.50983,198120
11.51795,194677
11.52608,170001
11.53420,140150
11.54232,129003
11.55045,124018
11.55857,127041
11.56670,134694
11.57482,116058
11.58293,106671
11.59107,97440
11.59918,89540
11.60730,91008
11.61543,119160
11.62355,155995
11.63168,185212
11.63980,191901
11.64792,171144
11.65605,143309
11.66417,111725
11.67230,97547
11.68042,83738
11.68853,82330
11.69667,77205
11.70478,80998
11.71292,79790
11.72103,67900
11.72915,64528
11.73728,66468
11.74540,61001
11.75352,63722
11.76165,64205
11.76977,60546
11.77790,60543
11.78602,61051
11.79413,60402
11.80227,59092
11.81038,60297
11.81852,56341
11.82663,54017
11.83475,56702
11.84288,55883
11.85100,57873
11.85913,54269
11.86725,54869
11.87537,54490
11.88350,53067
11.89162,46703
11.89973,47250
11.90787,49826
11.91598,51614
11.92412,55376
11.93223,55538
11.94035,59142
11.94848,61823
11.95660,56130
11.96473,57699
11.97285,49090
11.98097,53984
11.98910,55291
11.99722,56702
12.00533,71958
12.01347,80869
12.02158,90641
12.02972,96605
12.03783,87714
12.04595,76431
12.05408,69519
12.06220,57996
12.07033,53534
12.07845,56485
12.08657,59681
12.09470,62486
12.10282,78795
12.11095,98221
12.11907,123019
12.12718,141393
12.13532,156027
12.14343,144813
12.15155,117717
12.15968,86882
12.16780,72949
12.17593,55946
12.18405,55674
12.19217,53569
12.20030,55846
12.20842,58406
12.21655,56716
12.22467,57712
12.23278,60588
12.24092,57869
12.24903,65387
12.25717,64632
12.26528,59400
12.27340,59592
12.28153,59148
12.28965,57511
12.29777,52640
12.30590,54047
12.31402,55329
12.32215,53139
12.33027,51737
12.33838,54659
12.34652,52217
12.35463,47587
12.36277,51419
12.37088,51211
12.37900,50501
12.38713,50910
12.39525,55694
12.40337,56384
12.41150,58066
12.41962,69798
12.42775,93213
12.43587,100152
12.44398,107944
12.45212,113136
12.46023,93287
12.46837,86332
12.47648,71713
12.48460,64843
12.49273,55470
12.50085,57618
12.50898,55539
12.51710,61050
12.52522,55900
12.53335,55876
12.54147,58644
12.54958,77244
12.55772,111495
12.56583,177744
12.57397,273154
12.58208,354991
12.59020,385882
12.59833,333373
12.60645,240671
12.61458,161373
12.62270,111850
12.63082,90696
12.63895,75474
12.64707,79185
12.65520,68295
12.66332,67092
12.67143,61889
12.67957,57673
12.68768,57472
12.69580,61448
12.70393,58179
12.71205,59415
12.72018,65459
12.72830,66815
12.73642,75669
12.74455,78832
12.75267,72499
12.76080,71008
12.76892,63366
12.77703,57724
12.78517,56127
12.79328,51967
12.80140,54561
12.80953,50346
12.81765,51092
12.82578,44877
12.83390,47676
12.84202,45153
12.85015,41977
12.85827,43252
12.86640,43584
12.87452,41890
12.88263,45145
12.89077,40958
12.89888,42626
12.90702,39826
12.91513,41387
12.92325,43716
12.93138,41662
12.93950,40928
12.94762,40318
12.95575,39936
12.96387,38661
12.97200,41443
12.98012,44750
12.98823,44937
12.99637,43917
13.00448,43604
13.01262,43063
13.02073,46358
13.02885,47085
13.03698,39016
13.04510,40708
13.05322,40819
13.06135,41814
13.06947,43752
13.07760,40918
13.08572,45244
13.09383,43789
13.10197,45838
13.11008,45144
13.11822,45221
13.12633,45265
13.13445,39821
13.14258,38129
13.15070,41092
13.15883,43641
13.16695,45015
13.17507,43147
13.18320,44637
13.19132,45449
13.19943,48405
13.20757,52784
13.21568,49366
13.22382,48994
13.23193,55585
13.24005,51667
13.24818,50593
13.25630,44211
13.26443,44778
13.27255,46652
13.28067,46044
13.28880,44868
13.29692,39541
13.30505,38641
13.31317,41707
13.32128,42077
13.32942,38050
13.33753,40884
13.34565,40745
13.35378,40148
13.36190,39322
13.37003,39861
13.37815,41525
13.38627,40983
13.39440,37052
13.40252,40031
13.41065,39436
13.41877,35814
13.42688,38925
13.43502,36981
13.44313,38300
13.45125,37411
13.45938,38983
13.46750,41453
13.47563,39587
13.48375,45189
13.49187,43213
13.50000,36934
13.50812,37309
13.51625,39049
13.52437,38424
13.53248,36360
13.54062,39229
13.54873,43708
13.55687,39860
13.56498,54096
13.57310,44373
13.58123,48021
13.58935,49448
13.59747,51762
13.60560,46520
13.61372,48120
13.62185,53123
13.62997,56127
13.63808,55543
13.64622,58187
13.65433,54776
13.66247,46919
13.67058,40952
13.67870,41603
13.68683,36707
13.69495,36824
13.70308,40187
13.71120,41456
13.71932,40850
13.72745,37791
13.73557,44294
13.74368,44925
13.75182,50278
13.75993,65288
13.76807,89067
13.77618,123181
13.78430,174526
13.79243,217296
13.80055,250070
13.80868,270776
13.81680,273019
13.82492,283922
13.83305,298150
13.84117,298072
13.84928,284716
13.85742,249144
13.86553,197985
13.87367,156617
13.88178,125490
13.88990,115065
13.89803,96039
13.90615,81114
13.91428,73675
13.92240,72359
13.93052,65387
13.93865,61531
13.94677,63570
13.95490,68622
13.96302,75447
13.97113,100298
13.97927,137891
13.98738,169136
13.99550,199423
14.00363,207670
14.01175,180833
14.01988,138573
14.02800,105992
14.03612,92435
14.04425,85783
14.05237,79099
14.06050,70765
14.06862,68526
14.07673,69103
14.08487,66447
14.09298,66301
14.10110,62855
14.10923,54835
14.11735,53399
14.12548,53713
14.13360,58176
14.14172,66986
14.14985,55991
14.15797,61594
14.16610,60678
14.17422,63088
14.18233,63065
14.19047,68528
14.19858,75853
14.20672,95991
14.21483,128345
14.22295,157473
14.23108,183239
14.23920,197015
14.24732,194330
14.25545,194901
14.26357,182212
14.27170,164513
14.27982,152339
14.28793,121871
14.29607,111078
14.30418,103642
14.31232,96842
14.32043,84420
14.32855,87420
14.33668,83660
14.34480,76635
14.35293,79483
14.36105,71581
14.36917,68390
14.37730,65026
14.38542,59014
14.39353,59505
14.40167,53165
14.40978,55614
14.41792,62821
14.42603,69671
14.43415,74542
14.44228,70346
14.45040,70894
14.45853,66773
14.46665,61189
14.47477,55474
14.48290,54004
14.49102,54973
14.49915,52877
14.50727,50680
14.51538,54013
14.52352,50450
14.53163,55772
14.53975,54660
14.54788,51525
14.55600,47725
14.56413,49948
14.57225,46670
14.58037,46392
14.58850,45825
14.59662,43376
14.60475,41518
14.61287,43129
14.62098,41367
14.62912,43249
14.63723,42538
14.64535,38233
14.65348,42789
14.66160,40618
14.66973,38686
14.67785,41027
14.68597,39849
14.69410,39231
14.70222,37713
14.71035,32922
14.71847,41272
14.72658,41522
14.73472,42716
14.74283,41079
14.75097,41558
14.75908,45803
14.76720,51754
14.77533,46979
14.78345,49424
14.79157,56998
14.79970,106415
14.80782,253682
14.81595,671966
14.82407,1607367
14.83218,2946766
14.84032,4235234
14.84843,4746067
14.85657,4296330
14.86468,3168780
14.87280,2045952
14.88093,1194379
14.88905,732040
14.89717,503685
14.90530,390343
14.91342,317486
14.92155,286687
14.92967,253240
14.93778,232936
14.94592,213539
14.95403,193196
14.96217,184350
14.97028,171466
14.97840,162970
14.98653,151060
14.99465,141185
15.00278,141310
15.01090,146707
15.01902,132157
15.02715,123790
15.03527,120706
15.04338,111426
15.05152,107313
15.05963,106386
15.06777,101389
15.07588,97580
15.08400,99799
15.09213,87306
15.10025,92738
15.10838,87566
15.11650,88431
15.12462,82776
15.13275,92480
15.14087,98038
15.14900,97730
15.15712,110468
15.16523,110357
15.17337,105190
15.18148,90819
15.18960,79889
15.19773,70068
15.20585,60881
15.21398,58595
15.22210,57589
15.23022,55894
15.23835,56133
15.24647,51231
15.25460,52492
15.26272,49416
15.27083,50213
15.27897,49825
15.28708,51163
15.29520,49656
15.30333,46667
15.31145,47063
15.31958,46521
15.32770,47669
15.33582,44679
15.34395,45832
15.35207,40049
15.36020,48355
15.36832,43198
15.37643,46860
15.38457,45982
15.39268,45575
15.40082,52073
15.40893,48302
15.41705,49669
15.42518,42124
15.43330,41864
15.44142,44066
15.44955,48790
15.45767,49111
15.46580,51587
15.47392,57445
15.48203,72372
15.49017,91950
15.49828,113983
15.50642,120913
15.51453,126952
15.52265,127105
15.53078,139112
15.53890,138440
15.54703,147749
15.55515,150534
15.56327,134456
15.57140,107069
15.57952,91653
15.58763,68556
15.59577,61719
15.60388,57527
15.61202,57960
15.62013,52929
15.62825,54882
15.63638,48832
15.64450,49480
15.65263,49092
15.66075,51092
15.66887,47934
15.67700,48847
15.68512,45169
15.69323,48336
15.70137,43897
15.70948,46180
15.71762,48431
15.72573,44826
15.73385,46338
15.74198,48864
15.75010,49773
15.75823,58950
15.76635,69729
15.77447,113842
15.78260,176900
15.79072,259602
15.79885,324949
15.80697,349583
15.81508,308183
15.82322,230557
15.83133,164552
15.83945,122545
15.84758,98235
15.85570,81206
15.86383,78081
15.87195,72722
15.88007,65774
15.88820,66390
15.89632,61836
15.90445,63707
15.91257,61584
15.92068,61738
15.92882,60599
15.93693,55932
15.94505,66398
15.95318,59255
15.96130,60357
15.96943,68658
15.97755,75549
15.98567,79202
15.99380,96523
16.00192,97900
16.01005,90990
16.01817,92681
16.02628,97915
16.03442,93454
16.04253,90568
16.05067,85780
16.05878,77926
16.06690,64888
16.07503,59040
16.08315,59737
16.09127,54951
16.09940,57052
16.10752,52345
16.11565,54628
16.12377,55633
16.13188,57482
16.14002,53520
16.14813,60861
16.15627,61286
16.16438,59187
16.17250,60911
16.18063,55844
16.18875,54580
16.19688,52000
16.20500,51556
16.21312,50197
16.22125,51068
16.22937,54131
16.23748,48391
16.24562,53193
16.25373,49361
16.26187,52195
16.26998,47408
16.27810,44943
16.28623,51009
16.29435,52171
16.30248,53757
16.31060,57002
16.31872,58311
16.32685,55223
16.33497,56570
16.34308,51335
16.35122,52958
16.35933,64443
16.36747,79586
16.37558,89447
16.38370,95849
16.39183,109168
16.39995,104523
16.40808,87974
16.41620,75726
16.42432,64078
16.43245,53131
16.44057,58972
16.44870,64106
16.45682,92987
16.46493,164577
16.47307,308251
16.48118,518819
16.48930,711676
16.49743,823641
16.50555,759626
16.51368,578821
16.52180,386528
16.52992,250221
16.53805,174265
16.54617,129680
16.55430,107308
16.56242,101390
16.57053,89327
16.57867,79562
16.58678,86075
16.59492,87685
16.60303,86270
16.61115,86600
16.61928,88786
16.62740,96597
16.63552,85536
16.64365,82744
16.65177,76109
16.65990,66385
16.66802,62619
16.67613,68174
16.68427,62654
16.69238,60116
16.70052,56058
16.70863,55961
16.71675,54784
16.72488,57324
16.73300,49647
16.74112,53651
16.74925,53260
16.75737,52119
16.76550,55054
16.77362,63806
16.78173,60958
16.78987,60979
16.79798,57706
16.80612,53759
16.81423,52209
16.82235,46979
16.83048,46785
16.83860,44965
16.84673,44928
16.85485,40980
16.86297,44342
16.87110,44534
16.87922,40942
16.88733,44168
16.89547,49780
16.90358,42217
16.91172,39187
16.91983,39111
16.92795,41853
16.93608,45183
16.94420,42342
16.95233,45106
16.96045,40198
16.96857,43790
16.97670,41233
16.98482,42600
16.99293,42686
17.00107,43381
17.00918,42427
17.01732,45037
17.02543,46297
17.03355,42788
17.04168,45093
17.04980,44709
17.05793,50541
17.06605,58507
17.07417,52529
17.08230,52656
17.09042,52796
17.09855,50599
17.10667,46433
17.11478,53181
17.12292,57243
17.13103,49097
17.13915,49206
17.14728,49751
17.15540,50641
17.16353,46867
17.17165,50025
17.17977,44790
17.18790,45502
17.19602,48670
17.20415,43318
17.21227,41752
17.22038,38369
17.22852,43678
17.23663,43301
17.24477,43691
17.25288,47045
17.26100,40982
17.26913,45298
17.27725,44039
17.28537,41905
17.29350,44862
17.30162,45537
17.30975,46800
17.31787,44191
17.32598,51568
17.33412,48962
17.34223,52338
17.35037,63148
17.35848,60769
17.36660,60272
17.37473,57452
17.38285,57705
17.39097,57988
17.39910,55152
17.40722,55610
17.41535,52966
17.42347,56682
17.43158,52589
17.43972,54524
17.44783,53208
17.45597,51933
17.46408,46432
17.47220,49118
17.48033,47180
17.48845,44500
17.49658,44869
17.50470,45062
17.51282,45011
17.52095,44839
17.52907,42848
17.53718,49851
17.54532,48554
17.55343,47828
17.56157,52430
17.56968,62761
17.57780,90682
17.58593,148442
17.59405,239849
17.60218,359700
17.61030,478462
17.61842,553727
17.62655,542678
17.63467,478799
17.64280,369959
17.65092,308519
17.65903,294596
17.66717,299361
17.67528,322925
17.68340,309013
17.69153,286952
17.69965,242308
17.70778,181228
17.71590,146708
17.72402,127838
17.73215,109250
17.74027,95311
17.74840,89763
17.75652,82165
17.76463,79047
17.77277,75460
17.78088,73617
17.78900,68904
17.79713,69475
17.80525,66792
17.81338,66927
17.82150,70895
17.82962,68899
17.83775,68401
17.84587,73120
17.85400,76401
17.86212,78676
17.87023,86203
17.87837,85640
17.88648,91325
17.89462,77961
17.90273,72325
17.91085,64437
17.91898,63123
17.92710,53982
17.93522,50528
17.94335,52452
17.95147,51184
17.95960,49845
17.96772,44576
17.97583,49166
17.98397,48463
17.99208,43342
18.00022,48834
18.00833,46737
18.01645,58577
18.02458,57091
18.03270,68575
18.04083,78244
18.04895,95988
18.05707,93910
18.06520,91975
18.07332,89135
18.08143,90885
18.08957,104884
18.09768,120671
18.10582,129840
18.11393,132211
18.12205,122057
18.13018,119662
18.13830,105607
18.14643,97050
18.15455,101757
18.16267,93664
18.17080,89779
18.17892,82014
18.18703,81791
18.19517,77023
18.20328,76239
18.21142,73429
18.21953,69272
18.22765,60640
18.23578,63877
18.24390,58669
18.25203,59289
18.26015,60866
18.26827,63626
18.27640,55964
18.28452,56148
18.29265,51864
18.30077,49919
18.30888,47998
18.31702,48689
18.32513,51667
18.33325,44472
18.34138,48930
18.34950,46795
18.35763,46904
18.36575,49678
18.37387,47076
18.38200,44735
18.39012,40958
18.39825,45862
18.40637,50202
18.41448,47716
18.42262,45898
18.43073,49069
18.43885,53788
18.44698,63155
18.45510,81235
18.46323,91445
18.47135,119275
18.47947,151597
18.48760,192820
18.49572,195111
18.50385,191508
18.51197,162171
18.52008,134646
18.52822,97862
18.53633,81240
18.54447,73163
18.55258,63615
18.56070,56340
18.56883,59200
18.57695,55285
18.58507,52963
18.59320,49331
18.60132,62464
18.60945,62531
18.61757,61167
18.62568,59860
18.63382,62560
18.64193,60781
18.65007,53987
18.65818,62015
18.66630,50840
18.67443,50260
18.68255,48055
18.69068,49749
18.69880,48495
18.70692,44507
18.71505,44395
18.72317,43909
18.73128,40641
18.73942,41239
18.74753,44806
18.75567,54919
18.76378,81471
18.77190,121406
18.78003,155282
18.78815,176126
18.79628,186850
18.80440,199478
18.81252,199253
18.82065,213046
18.82877,216964
18.83688,210114
18.84502,214840
18.85313,213133
18.86127,220907
18.86938,226155
18.87750,223121
18.88563,216133
18.89375,212439
18.90188,219061
18.91000,214305
18.91812,211662
18.92625,225152
18.93437,224759
18.94250,233808
18.95062,232602
18.95873,243447
18.96687,251184
18.97498,251054
18.98310,239146
18.99123,237207
18.99935,229694
19.00748,221866
19.01560,209842
19.02372,222542
19.03185,210715
19.03997,209291
19.04810,205781
19.05622,200299
19.06433,201657
19.07247,201597
19.08058,190032
19.08872,215404
19.09683,225908
19.10495,240304
19.11308,248767
19.12120,254035
19.12932,249246
19.13745,235734
19.14557,228158
19.15370,220957
19.16182,208160
19.16993,212584
19.17807,216582
19.18618,225938
19.19432,213873
19.20243,208217
19.21055,217605
19.21868,210515
19.22680,194642
19.23492,192651
19.24305,188335
19.25117,178453
19.25930,186299
19.26742,184381
19.27553,196921
19.28367,206143
19.29178,202325
19.29992,220729
19.30803,216507
19.31615,216608
19.32428,208180
19.33240,193621
19.34053,186548
19.34865,185307
19.35677,193752
19.36490,202818
19.37302,220924
19.38113,230181
19.38927,241899
19.39738,235785
19.40552,210761
19.41363,204961
19.42175,185806
19.42988,174394
19.43800,166717
19.44613,166921
19.45425,170144
19.46237,168189
19.47050,165271
19.47862,151492
19.48673,157839
19.49487,155221
19.50298,165187
19.51112,185533
19.51923,215265
19.52735,230985
19.53548,249387
19.54360,238538
19.55173,225139
19.55985,197740
19.56797,180575
19.57610,163484
19.58422,149729
19.59235,157676
19.60047,140138
19.60858,144942
19.61672,136513
19.62483,133748
19.63295,135387
19.64108,151094
19.64920,195482
19.65733,231804
19.66545,332369
19.67357,436799
19.68170,528932
19.68982,568769
19.69795,536533
19.70607,469053
19.71418,402848
19.72232,327928
19.73043,277163
19.73857,242821
19.74668,222170
19.75480,199895
19.76293,189839
19.77105,184257
19.77917,174065
19.78730,179029
19.79542,179215
19.80355,183415
19.81167,175973
19.81978,183237
19.82792,173879
19.83603,171996
19.84417,155744
19.85228,147993
19.86040,148439
19.86853,167570
19.87665,229009
19.88478,353577
19.89290,545228
19.90102,775146
19.90915,987531
19.91727,1156308
19.92538,1181797
19.93352,1117458
19.94163,1015496
19.94977,935136
19.95788,875203
19.96600,820150
19.97413,760747
19.98225,744354
19.99038,684204
19.99850,676869
20.00662,652450
20.01475,614853
20.02287,598028
20.03098,566975
20.03912,551443
20.04723,498165
20.05537,446360
20.06348,400359
20.07160,326064
20.07973,279832
20.08785,245552
20.09598,240121
20.10410,219051
20.11222,211427
20.12035,199097
20.12847,192188
20.13660,183996
20.14472,178400
20.15283,186751
20.16097,192162
20.16908,208240
20.17720,237635
20.18533,254154
20.19345,266448
20.20158,275987
20.20970,273240
20.21782,251499
20.22595,227558
20.23407,219582
20.24220,209645
20.25032,223517
20.25843,235082
20.26657,298432
20.27468,357489
20.28280,446840
20.29093,541564
20.29905,560092
20.30718,548475
20.31530,492690
20.32342,405389
20.33155,316199
20.33967,260638
20.34780,211585
20.35592,180385
20.36403,159527
20.37217,137375
20.38028,130976
20.38842,124166
20.39653,113993
20.40465,111927
20.41278,115009
20.42090,114427
20.42902,124522
20.43715,130206
20.44527,134532
20.45340,155507
20.46152,160454
20.46963,154663
20.47777,155740
20.48588,142388
20.49402,130429
20.50213,120997
20.51025,112516
20.51838,102742
20.52650,105486
20.53463,98773
20.54275,101218
20.55087,96790
20.55900,101754
20.56712,100197
20.57523,96069
20.58337,97418
20.59148,93235
20.59962,92323
20.60773,87699
20.61585,83262
20.62398,92310
20.63210,89573
20.64023,90361
20.64835,86692
20.65647,85558
20.66460,83802
20.67272,88927
20.68083,83059
20.68897,80898
20.69708,86669
20.70522,79067
20.71333,86505
20.72145,80869
20.72958,82740
20.73770,78172
20.74583,83662
20.75395,77711
20.76207,83965
20.77020,85489
20.77832,90466
20.78645,98573
20.79457,115789
20.80268,149457
20.81082,189558
20.81893,254911
20.82705,304134
20.83518,310402
20.84330,282352
20.85143,229203
20.85955,173045
20.86767,126009
20.87580,120656
20.88392,106557
20.89205,99473
20.90017,90246
20.90828,87986
20.91642,85063
20.92453,84553
20.93267,86609
20.94078,80583
20.94890,83112
20.95703,84280
20.96515,80910
20.97327,77625
20.98140,76814
20.98952,78163
20.99765,78048
21.00577,73205
21.01388,76514
21.02202,71662
21.03013,75244
21.03827,77946
21.04638,82923
21.05450,77212
21.06263,77042
21.07075,78168
21.07887,75511
21.08700,71400
21.09512,72310
21.10325,70717
21.11137,74397
21.11948,74839
21.12762,75926
21.13573,79275
21.14387,90099
21.15198,112293
21.16010,117359
21.16823,139034
21.17635,148000
21.18448,136345
21.19260,126103
21.20072,106702
21.20885,98172
21.21697,92288
21.22508,93782
21.23322,80285
21.24133,81363
21.24947,81697
21.25758,79797
21.26570,76314
21.27383,74867
21.28195,74701
21.29008,74124
21.29820,77362
21.30632,74616
21.31445,73545
21.32257,69151
21.33068,66824
21.33882,66330
21.34693,66166
21.35507,72056
21.36318,69208
21.37130,69930
21.37943,65954
21.38755,65943
21.39568,67984
21.40380,79183
21.41192,78155
21.42005,75992
21.42817,86147
21.43630,91550
21.44442,91576
21.45253,87417
21.46067,81900
21.46878,74611
21.47690,71671
21.48503,74273
21.49315,76006
21.50128,67456
21.50940,67892
21.51752,67908
21.52565,64056
21.53377,63403
21.54190,66245
21.55002,70118
21.55813,67465
21.56627,74735
21.57438,70855
21.58252,71984
21.59063,75982
21.59875,81897
21.60688,82877
21.61500,81313
21.62312,77222
21.63125,75775
21.63937,77240
21.64750,91213
21.65562,100476
21.66373,106436
21.67187,105364
21.67998,108668
21.68812,109890
21.69623,97999
21.70435,89934
21.71248,82166
21.72060,73924
21.72872,66630
21.73685,64837
21.74497,62616
21.75310,64264
21.76122,60446
21.76933,62673
21.77747,59099
21.78558,57609
21.79372,60959
21.80183,58019
21.80995,54186
21.81808,56909
21.82620,64739
21.83433,70396
21.84245,79053
21.85057,91342
21.85870,102495
21.86682,103786
21.87493,101059
21.88307,91485
21.89118,79289
21.89932,66897
21.90743,64665
21.91555,65221
21.92368,54851
21.93180,60826
21.93993,59382
21.94805,53105
21.95617,51211
21.96430,50155
21.97242,48281
21.98055,49745
21.98867,48965
21.99678,49281
22.00492,43980
22.01303,49395
22.02115,51148
22.02928,47540
22.03740,50420
22.04553,46783
22.05365,52264
22.06177,48648
22.06990,51763
22.07802,51436
22.08615,48002
22.09427,51985
22.10238,52850
22.11052,52711
22.11863,49923
22.12675,53313
22.13488,47557
22.14300,44692
22.15113,47882
22.15925,46464
22.16737,49204
22.17550,48606
22.18362,53118
22.19175,45955
22.19987,45555
22.20798,47178
22.21612,47089
22.22423,45444
22.23237,48064
22.24048,51288
22.24860,55161
22.25673,60032
22.26485,63946
22.27297,60553
22.28110,58957
22.28922,59141
22.29735,61739
22.30547,71145
22.31358,85310
22.32172,123897
22.32983,156955
22.33797,214123
22.34608,237112
22.35420,252269
22.36233,237686
22.37045,203363
22.37857,176606
22.38670,154942
22.39482,141058
22.40295,151314
22.41107,161750
22.41918,182966
22.42732,191075
22.43543,197835
22.44357,188310
22.45168,168596
22.45980,157419
22.46793,135486
22.47605,126581
22.48418,120754
22.49230,120054
22.50042,123814
22.50855,134143
22.51667,128945
22.52478,125609
22.53292,125241
22.54103,124121
22.54917,113496
22.55728,119825
22.56540,115844
22.57353,107351
22.58165,108269
22.58978,101222
22.59790,96914
22.60602,100481
22.61415,91981
22.62227,92662
22.63040,98184
22.63852,90742
22.64663,93472
22.65477,91570
22.66288,99493
22.67100,97859
22.67913,106407
22.68725,108085
22.69538,121168
22.70350,116998
22.71162,119841
22.71975,123764
22.72787,122725
22.73600,115061
22.74412,108729
22.75223,103490
22.76037,99850
22.76848,93971
22.77660,91239
22.78473,86331
22.79285,78142
22.80098,85065
22.80910,93037
22.81722,92186
22.82535,95406
22.83347,92443
22.84160,86517
22.84972,77029
22.85783,69640
22.86597,74458
22.87408,74575
22.88222,80702
22.89033,89805
22.89845,91332
22.90658,92665
22.91470,102074
22.92282,120759
22.93095,132553
22.93907,139050
22.94720,149182
22.95532,136915
22.96343,132176
22.97157,121104
22.97968,101316
22.98782,90138
22.99593,83512
23.00405,73044
23.01218,72700
23.02030,68484
23.02843,62299
23.03655,60580
23.04467,69488
23.05280,75251
23.06092,91611
23.06903,107692
23.07717,121270
23.08528,127156
23.09342,131036
23.10153,126317
23.10965,134276
23.11778,132513
23.12590,141455
23.13403,133118
23.14215,135471
23.15027,136879
23.15840,138028
23.16652,132436
23.17463,137443
23.18277,139800
23.19088,131878
23.19902,131542
23.20713,137343
23.21525,135870
23.22338,137051
23.23150,131650
23.23963,140671
23.24775,152657
23.25587,171620
23.26400,180635
23.27212,181428
23.28025,179716
23.28837,180840
23.29648,168990
23.30462,153547
23.31273,145756
23.32085,145953
23.32898,133427
23.33710,142762
23.34523,151198
23.35335,159030
23.36147,189503
23.36960,198148
23.37772,223184
23.38585,231199
23.39397,254779
23.40208,262459
23.41022,269191
23.41833,268789
23.42647,269136
23.43458,273139
23.44270,262112
23.45083,249369
23.45895,258041
23.46707,237391
23.47520,228415
23.48332,217302
23.49145,209996
23.49957,196230
23.50768,194242
23.51582,179661
23.52393,180878
23.53207,166192
23.54018,167580
23.54830,174266
23.55643,154914
23.56455,153322
23.57267,157821
23.58080,164514
23.58892,185377
23.59705,193843
23.60517,215861
23.61328,229344
23.62142,231297
23.62953,226736
23.63767,246987
23.64578,312357
23.65390,441763
23.66203,624650
23.67015,801188
23.67828,910081
23.68640,880167
23.69452,757664
23.70265,594985
23.71077,449328
23.71888,331704
23.72702,250683
23.73513,212766
23.74327,187400
23.75138,177716
23.75950,224345
23.76763,397808
23.77575,797201
23.78388,1516186
23.79200,2450243
23.80012,3375616
23.80825,3829039
23.81637,3653649
23.82448,3027299
23.83262,2302677
23.84073,1788424
23.84887,1283703
23.85698,965373
23.86510,774030
23.87323,629186
23.88135,540553
23.88948,479361
23.89760,427946
23.90572,377009
23.91385,354621
23.92197,357435
23.93010,330143
23.93822,308265
23.94633,290877
23.95447,273018
23.96258,258764
23.97070,239608
23.97883,238600
23.98695,218707
23.99508,217422
24.00320,208956
24.01132,212163
24.01945,242907
24.02757,298038
24.03570,364893
24.04382,431914
24.05193,441342
24.06007,413611
24.06818,349955
24.07632,282136
24.08443,231913
24.09255,205601
24.10068,185041
24.10880,168195
24.11692,159316
24.12505,157963
24.13317,154999
24.14130,163041
24.14942,157966
24.15753,168823
24.16567,167387
24.17378,173978
24.18192,164162
24.19003,160460
24.19815,156866
24.20628,153909
24.21440,156220
24.22252,149600
24.23065,145663
24.23877,143455
24.24690,137874
24.25502,123347
24.26313,116805
24.27127,107982
24.27938,100738
24.28752,103036
24.29563,110074
24.30375,105765
24.31188,101094
24.32000,102407
24.32813,99132
24.33625,98583
24.34437,96856
24.35250,92347
24.36062,98489
24.36873,85194
24.37687,90596
24.38498,88769
24.39312,91050
24.40123,99934
24.40935,116905
24.41748,120756
24.42560,122194
24.43373,125244
24.44185,110705
24.44997,96330
24.45810,87012
24.46622,80267
24.47435,74690
24.48247,77213
24.49058,83889
24.49872,85793
24.50683,79715
24.51495,90980
24.52308,95447
24.53120,98870
24.53933,104364
24.54745,109467
24.55557,108312
24.56370,108544
24.57182,106172
24.57995,108171
24.58807,101530
24.59618,97516
24.60432,92175
24.61243,83129
24.62055,86096
24.62868,78105
24.63680,81091
24.64493,76314
24.65305,80523
24.66117,73344
24.66930,76544
24.67742,79049
24.68555,70227
24.69367,69913
24.70178,69564
24.70992,69713
24.71803,70675
24.72617,70530
24.73428,71836
24.74240,70106
24.75053,64855
24.75865,78319
24.76677,102148
24.77490,137010
24.78302,167674
24.79115,189973
24.79927,204630
24.80738,211533
24.81552,228910
24.82363,227818
24.83177,229521
24.83988,240245
24.84800,264221
24.85613,293627
24.86425,329806
24.87237,379502
24.88050,447815
24.88862,549191
24.89675,639395
24.90487,679679
24.91298,670373
24.92112,591166
24.92923,503561
24.93737,399745
24.94548,337256
24.95360,292773
24.96173,265755
24.96985,257810
24.97798,251102
24.98610,233913
24.99422,231385
25.00235,233273
25.01047,230357
25.01858,228032
25.02672,222925
25.03483,235497
25.04297,220843
25.05108,221514
25.05920,214552
25.06733,217229
25.07545,217509
25.08358,217414
25.09170,218445
25.09982,223890
25.10795,271942
25.11607,365791
25.12420,603580
25.13232,1073859
25.14043,1683956
25.14857,2328382
25.15668,2701244
25.16480,2663380
25.17293,2321538
25.18105,1723484
25.18918,1208419
25.19730,767974
25.20542,524881
25.21355,390058
25.22167,316322
25.22980,276192
25.23792,245089
25.24603,243626
25.25417,255261
25.26228,261387
25.27042,257678
25.27853,250168
25.28665,239294
25.29478,218863
25.30290,190571
25.31102,163302
25.31915,146272
25.32727,127944
25.33540,120374
25.34352,107247
25.35163,103152
25.35977,102999
25.36788,92657
25.37602,81831
25.38413,81396
25.39225,81251
25.40038,78964
25.40850,76593
25.41662,77422
25.42475,77212
25.43287,74769
25.44100,73099
25.44912,75889
25.45723,70162
25.46537,72281
25.47348,71343
25.48162,71099
25.48973,72741
25.49785,70119
25.50598,83030
25.51410,72879
25.52223,74226
25.53035,70297
25.53847,72434
25.54660,67935
25.55472,69504
25.56283,62803
25.57097,70613
25.57908,62747
25.58722,63883
25.59533,63371
25.60345,63341
25.61158,63345
25.61970,66313
25.62783,63735
25.63595,76283
25.64407,82095
25.65220,85547
25.66032,103763
25.66843,128164
25.67657,166956
25.68468,233823
25.69282,288020
25.70093,319836
25.70905,325439
25.71718,340556
25.72530,338884
25.73343,340236
25.74155,355691
25.74967,344762
25.75780,345560
25.76592,350018
25.77405,349097
25.78217,337363
25.79028,336978
25.79842,342260
25.80653,354595
25.81465,341405
25.82278,337640
25.83090,348510
25.83903,353680
25.84715,355933
25.85527,349703
25.86340,348889
25.87152,327680
25.87965,331900
25.88777,313352
25.89588,317972
25.90402,311259
25.91213,306300
25.92027,297417
25.92838,298689
25.93650,295073
25.94463,298761
25.95275,298556
25.96087,288167
25.96900,303087
25.97712,286517
25.98525,276602
25.99337,274495
26.00148,272159
26.00962,266187
26.01773,265487
26.02587,268843
26.03398,264004
26.04210,256726
26.05023,254378
26.05835,262588
26.06647,254028
26.07460,261630
26.08272,259071
26.09085,254509
26.09897,250515
26.10708,244525
26.11522,244476
26.12333,238742
26.13147,249870
26.13958,243963
26.14770,248012
26.15583,249929
26.16395,246409
26.17208,234450
26.18020,242763
26.18832,232369
26.19645,233539
26.20457,226727
26.21268,217075
26.22082,224387
26.22893,218283
26.23707,214339
26.24518,210736
26.25330,209857
26.26143,213048
26.26955,200922
26.27768,206189
26.28580,198246
26.29392,202325
26.30205,193448
26.31017,191062
26.31830,195855
26.32642,193627
26.33453,191547
26.34267,185658
26.35078,189990
26.35890,197884
26.36703,198277
26.37515,210423
26.38328,218904
26.39140,236201
26.39952,265756
26.40765,273596
26.41577,279070
26.42390,264569
26.43202,239394
26.44013,225621
26.44827,210834
26.45638,202322
26.46450,188858
26.47263,184418
26.48075,173173
26.48888,181516
26.49700,173738
26.50512,167976
26.51325,174125
26.52137,163722
26.52950,161133
26.53762,156594
26.54573,166365
26.55387,161923
26.56198,160328
26.57012,152347
26.57823,155739
26.58635,151170
26.59448,145328
26.60260,143154
26.61072,144116
26.61885,144339
26.62697,143557
26.63510,138267
26.64322,138139
26.65133,142743
26.65947,145136
26.66758,150901
26.67572,150534
26.68383,153042
26.69195,151655
26.70008,142312
26.70820,136597
26.71632,135803
26.72445,132845
26.73257,131010
26.74070,130727
26.74882,127322
26.75693,122823
26.76507,129029
26.77318,119357
26.78132,121420
26.78943,126418
26.79755,120614
26.80568,117971
26.81380,129215
26.82193,124846
26.83005,121668
26.83817,122682
26.84630,120551
26.85442,114709
26.86253,116928
26.87067,114234
26.87878,111565
26.88692,114150
26.89503,107601
26.90315,108742
26.91128,108972
26.91940,114789
26.92753,103755
26.93565,103556
26.94377,96374
26.95190,108138
26.96002,99071
26.96815,105663
26.97627,112588
26.98438,135477
26.99252,194017
27.00063,303019
27.00875,466144
27.01688,680373
27.02500,965855
27.03313,1181324
27.04125,1209828
27.04937,1129699
27.05750,970168
27.06562,756722
27.07375,603754
27.08187,486949
27.08998,406187
27.09812,343022
27.10623,290734
27.11435,256862
27.12248,235023
27.13060,212940
27.13873,213068
27.14685,196111
27.15497,191323
27.16310,180556
27.17122,180690
27.17935,186309
27.18747,184443
27.19558,173516
27.20372,181323
27.21183,169850
27.21997,152708
27.22808,148164
27.23620,141803
27.24433,136781
27.25245,124516
27.26057,119864
27.26870,120806
27.27682,117159
27.28495,119870
27.29307,105542
27.30118,110942
27.30932,105965
27.31743,100983
27.32557,100803
27.33368,104632
27.34180,95053
27.34993,93886
27.35805,95980
27.36618,105144
27.37430,98939
27.38242,98342
27.39055,95905
27.39867,94428
27.40678,101119
27.41492,91572
27.42303,89604
27.43117,94169
27.43928,99206
27.44740,86227
27.45553,86720
27.46365,90673
27.47178,85747
27.47990,82444
27.48802,76746
27.49615,82978
27.50427,77301
27.51238,81517
27.52052,82366
27.52863,82128
27.53677,87316
27.54488,81935
27.55300,85909
27.56113,82933
27.56925,83135
27.57738,85068
27.58550,88168
27.59362,95282
27.60175,100972
27.60987,106740
27.61800,99420
27.62612,99701
27.63423,90413
27.64237,85573
27.65048,79078
27.65860,77891
27.66673,77634
27.67485,77725
27.68298,71837
27.69110,72346
27.69922,69517
27.70735,75499
27.71547,69859
27.72360,67895
27.73172,71520
27.73983,65795
27.74797,66842
27.75608,69675
27.76422,72258
27.77233,65924
27.78045,71913
27.78858,67697
27.79670,68618
27.80482,65734
27.81295,76196
27.82107,72335
27.82920,69367
27.83732,78460
27.84543,71868
27.85357,73818
27.86168,70878
27.86982,69948
27.87793,70285
27.88605,64465
27.89418,65166
27.90230,62134
27.91042,63331
27.91855,64453
27.92667,59266
27.93480,60160
27.94292,58117
27.95103,61231
27.95917,58981
27.96728,57742
27.97542,64532
27.98353,56588
27.99165,60559
27.99978,61320
28.00790,61099
28.01603,62673
28.02415,65393
28.03227,68721
28.04040,69279
28.04852,74361
28.05663,70261
28.06477,79043
28.07288,74200
28.08102,68730
28.08913,69487
28.09725,62011
28.10538,65131
28.11350,63753
28.12163,56995
28.12975,58704
28.13787,56835
28.14600,56855
28.15412,57971
28.16223,59937
28.17037,52954
28.17848,58958
28.18662,55825
28.19473,60347
28.20285,61408
28.21098,74083
28.21910,85370
28.22723,90399
28.23535,92753
28.24347,90633
28.25160,87196
28.25972,81265
28.26785,80013
28.27597,65620
28.28408,60453
28.29222,57863
28.30033,66371
28.30845,61807
28.31658,62785
28.32470,67643
28.33283,79334
28.34095,92393
28.34907,113460
28.35720,133397
28.36532,158900
28.37345,191255
28.38157,206043
28.38968,218638
28.39782,226820
28.40593,220849
28.41407,226219
28.42218,200432
28.43030,191659
28.43843,171244
28.44655,156973
28.45467,145418
28.46280,134054
28.47092,122505
28.47905,118224
28.48717,107988
28.49528,106586
28.50342,107803
28.51153,101942
28.51967,99939
28.52778,94739
28.53590,89233
28.54403,90722
28.55215,85436
28.56027,78294
28.56840,85593
28.57652,80544
28.58465,73421
28.59277,75289
28.60088,69612
28.60902,78447
28.61713,70447
28.62527,80333
28.63338,77892
28.64150,80158
28.64963,80317
28.65775,84235
28.66588,83848
28.67400,83943
28.68212,81346
28.69025,77397
28.69837,74222
28.70648,72586
28.71462,79768
28.72273,66804
28.73087,64305
28.73898,64090
28.74710,63905
28.75523,65039
28.76335,64531
28.77148,70113
28.77960,72891
28.78772,79007
28.79585,83038
28.80397,86154
28.81210,85916
28.82022,74417
28.82833,78641
28.83647,79517
28.84458,69717
28.85270,67210
28.86083,64377
28.86895,67492
28.87708,68197
28.88520,74717
28.89332,73185
28.90145,75378
28.90957,76306
28.91770,82160
28.92582,72787
28.93393,76994
28.94207,71017
28.95018,76352
28.95830,78413
28.96643,75932
28.97455,75575
28.98268,85054
28.99080,74201
28.99892,72127
29.00705,73397
29.01517,63838
29.02330,66694
29.03142,64843
29.03953,61647
29.04767,61532
29.05578,59225
29.06392,63854
29.07203,60801
29.08015,61897
29.08828,68981
29.09640,68300
29.10452,65244
29.11265,62692
29.12077,63637
29.12890,60905
29.13702,57085
29.14513,59046
29.15327,63390
29.16138,56933
29.16952,61886
29.17763,59428
29.18575,69130
29.19388,70209
29.20200,76542
29.21012,94004
29.21825,95764
29.22637,107903
29.23450,106683
29.24262,101867
29.25073,90450
29.25887,77868
29.26698,73115
29.27512,67095
29.28323,69068
29.29135,59707
29.29948,59239
29.30760,57695
29.31573,55219
29.32385,56760
29.33197,57963
29.34010,53747
29.34822,53733
29.35633,52937
29.36447,56019
29.37258,56953
29.38072,58145
29.38883,57610
29.39695,59524
29.40508,54588
29.41320,57767
29.42133,57337
29.42945,70754
29.43757,64970
29.44570,60075
29.45382,61620
29.46195,60118
29.47007,56979
29.47818,59036
29.48632,54729
29.49443,55661
29.50255,57730
29.51068,60488
29.51880,62534
29.52693,60649
29.53505,64514
29.54317,59278
29.55130,57471
29.55942,59378
29.56755,54630
29.57567,48597
29.58378,52158
29.59192,53317
29.60003,48576
29.60815,51198
29.61628,48436
29.62440,52149
29.63253,52260
29.64065,51710
29.64877,50955
29.65690,55545
29.66502,53602
29.67315,50004
29.68127,56018
29.68938,56797
29.69752,56249
29.70563,57253
29.71377,64001
29.72188,54044
29.73000,53418
29.73813,53002
29.74625,49913
29.75437,55121
29.76250,52511
29.77062,49436
29.77875,48956
29.78687,47858
29.79498,51027
29.80312,46976
29.81123,47732
29.81937,43900
29.82748,44066
29.83560,43570
29.84373,48425
29.85185,53370
29.85998,61414
29.86810,96453
29.87622,164376
29.88435,324739
29.89247,577418
29.90058,922461
29.90872,1209182
29.91683,1307961
29.92497,1145838
29.93308,820931
29.94120,506719
29.94933,304528
29.95745,174953
29.96558,131056
29.97370,101344
29.98182,96889
29.98995,97033
29.99807,109370
30.00618,106538
30.01432,112598
30.02243,122611
30.03057,125723
30.03868,127909
30.04680,128119
30.05493,136218
30.06305,129732
30.07118,131117
30.07930,126963
30.08742,120804
30.09555,118330
30.10367,111472
30.11180,110488
30.11992,104393
30.12803,97885
30.13617,91841
30.14428,91669
30.15240,92066
30.16053,80406
30.16865,89061
30.17678,80405
30.18490,86707
30.19302,84876
30.20115,84486
30.20927,78023
30.21740,84466
30.22552,80431
30.23363,75711
30.24177,73342
30.24988,68670
30.25800,69154
30.26613,65951
30.27425,64078
30.28238,67389
30.29050,59940
30.29862,65993
30.30675,62672
30.31487,65704
30.32300,64419
30.33112,64528
30.33923,64901
30.34737,57886
30.35548,60675
30.36362,63764
30.37173,60887
30.37985,59476
30.38798,57651
30.39610,63417
30.40422,57278
30.41235,55080
30.42047,58837
30.42860,59048
30.43672,60042
30.44483,56202
30.45297,57873
30.46108,51275
30.46922,60210
30.47733,56992
30.48545,60892
30.49358,59037
30.50170,55087
30.50983,60553
30.51795,59210
30.52607,58006
30.53420,55754
30.54232,60942
30.55043,61443
30.55857,63931
30.56668,56978
30.57482,56177
30.58293,61411
30.59105,62552
30.59918,61687
30.60730,62720
30.61543,61407
30.62355,58826
30.63167,59582
30.63980,56370
30.64792,55136
30.65605,57299
30.66417,57398
30.67228,56228
30.68042,57513
30.68853,55642
30.69665,63821
30.70478,60943
30.71290,59221
30.72103,59179
30.72915,58554
30.73727,59995
30.74540,57048
30.75352,57368
30.76165,58922
30.76977,64917
30.77788,67206
30.78602,81326
30.79413,109734
30.80225,155476
30.81038,198230
30.81850,238410
30.82663,264406
30.83475,234870
30.84287,180204
30.85100,145346
30.85912,108119
30.86725,82870
30.87537,68737
30.88348,67722
30.89162,60657
30.89973,60739
30.90787,59894
30.91598,57811
30.92410,60117
30.93223,60449
30.94035,58554
30.94847,56746
30.95660,57570
30.96472,60869
30.97285,67498
30.98097,61852
30.98908,57109
30.99722,57257
31.00533,60861
31.01347,61124
31.02158,59363
31.02970,56316
31.03783,64210
31.04595,65163
31.05407,67066
31.06220,63994
31.07032,66967
31.07845,69800
31.08657,84530
31.09468,109971
31.10282,150687
31.11093,202607
31.11907,232667
31.12718,231867
31.13530,199766
31.14343,163603
31.15155,113901
31.15968,92439
31.16780,76597
31.17592,70297
31.18405,69251
31.19217,78452
31.20028,83720
31.20842,98827
31.21653,108799
31.22467,124859
31.23278,137549
31.24090,128761
31.24903,126097
31.25715,114825
31.26528,94118
31.27340,76242
31.28152,62637
31.28965,61523
31.29777,57374
31.30590,54973
31.31402,52994
31.32213,55998
31.33027,52519
31.33838,59296
31.34650,56364
31.35463,58257
31.36275,58222
31.37088,61747
31.37900,69455
31.38712,70433
31.39525,77788
31.40337,77160
31.41150,86795
31.41962,80841
31.42773,84667
31.43587,73845
31.44398,85105
31.45210,75754
31.46023,78640
31.46835,76512
31.47648,78452
31.48460,78641
31.49272,82227
31.50085,78970
31.50897,81351
31.51710,83755
31.52522,80977
31.53333,80542
31.54147,80946
31.54958,83115
31.55772,78730
31.56583,85646
31.57395,78593
31.58208,79264
31.59020,79299
31.59832,86450
31.60645,79458
31.61457,77262
31.62270,77292
31.63082,80056
31.63893,77967
31.64707,79527
31.65518,78363
31.66332,83207
31.67143,83609
31.67955,81760
31.68768,86576
31.69580,80967
31.70393,85903
31.71205,78439
31.72017,79770
31.72830,75685
31.73642,84139
31.74453,74059
31.75267,72272
31.76078,78058
31.76892,76224
31.77703,67474
31.78515,76428
31.79328,72561
31.80140,74008
31.80953,70693
31.81765,73270
31.82577,75388
31.83390,76032
31.84202,67765
31.85013,74312
31.85827,71819
31.86638,74748
31.87452,82046
31.88263,82563
31.89075,80806
31.89888,76618
31.90700,82685
31.91513,93049
31.92325,87251
31.93137,94947
31.93950,92300
31.94762,96996
31.95575,94031
31.96387,106071
31.97198,106359
31.98012,105642
31.98823,105656
31.99635,108813
32.00448,112859
32.01260,107821
32.02073,113505
32.02885,107370
32.03697,102424
32.04510,100585
32.05322,97520
32.06135,89487
32.06947,87705
32.07758,81033
32.08572,84754
32.09383,87558
32.10195,77410
32.11008,83076
32.11820,68028
32.12633,78688
32.13445,71834
32.14257,73558
32.15070,67360
32.15882,68394
32.16695,60296
32.17507,63739
32.18318,68642
32.19132,59582
32.19943,60847
32.20757,61575
32.21568,58993
32.22380,64591
32.23193,64549
32.24005,57604
32.24817,60788
32.25630,65820
32.26442,64928
32.27255,66681
32.28067,64218
32.28878,64615
32.29692,66993
32.30503,66525
32.31317,65960
32.32128,59599
32.32940,56873
32.33753,60895
32.34565,56457
32.35378,66611
32.36190,59058
32.37002,59548
32.37815,61750
32.38627,62149
32.39438,59028
32.40252,58034
32.41063,59622
32.41877,52891
32.42688,53100
32.43500,51581
32.44313,56181
32.45125,54198
32.45938,51120
32.46750,50915
32.47562,54645
32.48375,52076
32.49187,56234
32.49998,55233
32.50812,54871
32.51623,51734
32.52437,59389
32.53248,54355
32.54060,53010
32.54873,56880
32.55685,53106
32.56498,53278
32.57310,54029
32.58122,51946
32.58935,52553
32.59747,55182
32.60560,53853
32.61372,51320
32.62183,53675
32.62997,48976
32.63808,47230
32.64620,49982
32.65433,48346
32.66245,51348
32.67058,50549
32.67870,56361
32.68682,65678
32.69495,66461
32.70307,66500
32.71120,62468
32.71932,63695
32.72743,56052
32.73557,57567
32.74368,51322
32.75182,53395
32.75993,52816
32.76805,49640
32.77618,49906
32.78430,49742
32.79242,49135
32.80055,50126
32.80867,48044
32.81680,51041
32.82492,54272
32.83303,50268
32.84117,47863
32.84928,54450
32.85742,50767
32.86553,46963
32.87365,48608
32.88178,47087
32.88990,48301
32.89802,53404
32.90615,50503
32.91427,50160
32.92240,48062
32.93052,52058
32.93863,50527
32.94677,51557
32.95488,50234
32.96302,49719
32.97113,51433
32.97925,58552
32.98738,57493
32.99550,62759
33.00363,67220
33.01175,70596
33.01987,70554
33.02800,67936
33.03612,67125
33.04423,56396
33.05237,57755
33.06048,59827
33.06862,60148
33.07673,63625
33.08485,68214
33.09298,72466
33.10110,79909
33.10923,89331
33.11735,112481
33.12547,117053
33.13360,123254
33.14172,109882
33.14985,98227
33.15797,87680
33.16608,72624
33.17422,63660
33.18233,55302
33.19045,60091
33.19858,55092
33.20670,52850
33.21483,57670
33.22295,53405
33.23107,54169
33.23920,55990
33.24732,50609
33.25545,54484
33.26357,52932
33.27168,52110
33.27982,51023
33.28793,52756
33.29605,51249
33.30418,48446
33.31230,48463
33.32043,56542
33.32855,58406
33.33667,58122
33.34480,50901
33.35292,54378
33.36105,57080
33.36917,54763
33.37728,55848
33.38542,57370
33.39353,57016
33.40167,50264
33.40978,50376
33.41790,49724
33.42603,47757
33.43415,48151
33.44227,48890
33.45040,48367
33.45852,47449
33.46665,50615
33.47477,51517
33.48288,46304
33.49102,48308
33.49913,46479
33.50727,46292
33.51538,49824
33.52350,49018
33.53163,47459
33.53975,53613
33.54787,53783
33.55600,49651
33.56412,58442
33.57225,51982
33.58037,59546
33.58848,52983
33.59662,50518
33.60473,53280
33.61287,50305
33.62098,46703
33.62910,49025
33.63723,46168
33.64535,49072
33.65348,47632
33.66160,52507
33.66972,50907
33.67785,52813
33.68597,56798
33.69408,51095
33.70222,52274
33.71033,47792
33.71847,49510
33.72658,46969
33.73470,49249
33.74283,46838
33.75095,47957
33.75908,51193
33.76720,45996
33.77532,42877
33.78345,46995
33.79157,46101
33.79970,47415
33.80782,46825
33.81593,47025
33.82407,51962
33.83218,50906
33.84030,46845
33.84843,53855
33.85655,52150
33.86468,50480
33.87280,50381
33.88092,54194
33.88905,51966
33.89717,53702
33.90530,50400
33.91342,49379
33.92153,58018
33.92967,50446
33.93778,49538
33.94590,49975
33.95403,52472
33.96215,51213
33.97028,48604
33.97840,49145
33.98652,48141
33.99465,51266
34.00277,50211
34.01090,47380
34.01902,49122
34.02713,51769
34.03527,49718
34.04338,51230
34.05152,46172
34.05963,48349
34.06775,48984
34.07588,48800
34.08400,49352
34.09212,48728
34.10025,49624
34.10837,50729
34.11650,49937
34.12462,47600
34.13273,47381
34.14087,54235
34.14898,52247
34.15712,46402
34.16523,48659
34.17335,47111
34.18148,50119
34.18960,50645
34.19773,40394
34.20585,47711
34.21397,47031
34.22210,52549
34.23022,50958
34.23833,49932
34.24647,46935
34.25458,48137
34.26272,47218
34.27083,52419
34.27895,48946
34.28708,47576
34.29520,50163
34.30333,47982
34.31145,46542
34.31957,46002
34.32770,49064
34.33582,45438
34.34393,48314
34.35207,45954
34.36018,44631
34.36832,45394
34.37643,48152
34.38455,48634
34.39268,50365
34.40080,54384
34.40893,47102
34.41705,46213
34.42517,50483
34.43330,49491
34.44142,46742
34.44955,46634
34.45767,48309
34.46578,48506
34.47392,45092
34.48203,50243
34.49015,47960
34.49828,46470
34.50640,47426
34.51453,49153
34.52265,45557
34.53077,53541
34.53890,57754
34.54702,57123
34.55515,64164
34.56327,70697
34.57138,74776
34.57952,73710
34.58763,78377
34.59575,70874
34.60388,72671
34.61200,66867
34.62013,64221
34.62825,64492
34.63637,64743
34.64450,58210
34.65262,62935
34.66075,59414
34.66887,59379
34.67698,54081
34.68512,51130
34.69323,51473
34.70137,53805
34.70948,53746
34.71760,50743
34.72573,57022
34.73385,51931
34.74197,55421
34.75010,52600
34.75822,53586
34.76635,52838
34.77447,50537
34.78258,60282
34.79072,49338
34.79883,54117
34.80697,51282
34.81508,48411
34.82320,51452
34.83133,52542
34.83945,53282
34.84758,55916
34.85570,46874
34.86382,53027
34.87195,52246
34.88007,51822
34.88818,46894
34.89632,50907
34.90443,48121
34.91257,47372
34.92068,49938
34.92880,51052
34.93693,55747
34.94505,66762
34.95318,85840
34.96130,131329
34.96942,202593
34.97755,295328
34.98567,382679
34.99378,413295
35.00192,384725
35.01003,286675
35.01817,190886
35.02628,125359
35.03440,86077
35.04253,72954
35.05065,66800
35.05878,61429
35.06690,60732
35.07502,60382
35.08315,61968
35.09127,61316
35.09940,61911
35.10752,61839
35.11563,54460
35.12377,60218
35.13188,53425
35.14000,58673
35.14813,60878
35.15625,58861
35.16438,57109
35.17250,60161
35.18062,58194
35.18875,57697
35.19687,55412
35.20500,54182
35.21312,64038
35.22123,58310
35.22937,51527
35.23748,55618
35.24562,53481
35.25373,51417
35.26185,52041
35.26998,58328
35.27810,49496
35.28622,61201
35.29435,55100
35.30247,57370
35.31060,54578
35.31872,52504
35.32683,55589
35.33497,55133
35.34308,58379
35.35122,52235
35.35933,50198
35.36745,56612
35.37558,52670
35.38370,55008
35.39182,51324
35.39995,53413
35.40807,58419
35.41620,54678
35.42432,52168
35.43243,55155
35.44057,54270
35.44868,58044
35.45682,59147
35.46493,59391
35.47305,57189
35.48118,54670
35.48930,60406
35.49743,60869
35.50555,55887
35.51367,53770
35.52180,55250
35.52992,58742
35.53803,59617
35.54617,50271
35.55428,51697
35.56242,54019
35.57053,52840
35.57865,53056
35.58678,54206
35.59490,55204
35.60303,50624
35.61115,50195
35.61927,55499
35.62740,53925
35.63552,55254
35.64363,53312
35.65177,51276
35.65988,47097
35.66802,50865
35.67613,51300
35.68425,52683
35.69238,55143
35.70050,56183
35.70863,56255
35.71675,62663
35.72487,56781
35.73300,59879
35.74112,56151
35.74925,57154
35.75737,64595
35.76548,60539
35.77362,68829
35.78173,63323
35.78985,61613
35.79798,58535
35.80610,59806
35.81423,57343
35.82235,57803
35.83047,52715
35.83860,55717
35.84672,54478
35.85485,56240
35.86297,56354
35.87108,48734
35.87922,56975
35.88733,52912
35.89547,52144
35.90358,51953
35.91170,52259
35.91983,52515
35.92795,51140
35.93607,52047
35.94420,53542
35.95232,51606
35.96045,51840
35.96857,55588
35.97668,48236
35.98482,53079
35.99293,51165
36.00107,56454
36.00918,56769
36.01730,57389
36.02543,59308
36.03355,64247
36.04168,55999
36.04980,56714
36.05792,57702
36.06605,57970
36.07417,57500
36.08228,57505
36.09042,55671
36.09853,54024
36.10667,54274
36.11478,56672
36.12290,56366
36.13103,61287
36.13915,52856
36.14728,58546
36.15540,57806
36.16352,60309
36.17165,59415
36.17977,57440
36.18788,57066
36.19602,58483
36.20413,54656
36.21227,49517
36.22038,55662
36.22850,56035
36.23663,56135
36.24475,52590
36.25288,54324
36.26100,53283
36.26912,50722
36.27725,50927
36.28537,55447
36.29350,53627
36.30162,53854
36.30973,56647
36.31787,61943
36.32598,63900
36.33410,65966
36.34223,61354
36.35035,58354
36.35848,60008
36.36660,56018
36.37472,52962
36.38285,62150
36.39097,54493
36.39910,54793
36.40722,50670
36.41533,57967
36.42347,66219
36.43158,54067
36.43970,54880
36.44783,60398
36.45595,57007
36.46408,53812
36.47220,52271
36.48032,54343
36.48845,52759
36.49657,54435
36.50470,57473
36.51282,59740
36.52093,58851
36.52907,52596
36.53718,52121
36.54532,54656
36.55343,51487
36.56155,56824
36.56968,58299
36.57780,61468
36.58592,54734
36.59405,53090
36.60217,55808
36.61030,51266
36.61842,56543
36.62653,57629
36.63467,54080
36.64278,51974
36.65092,57997
36.65903,55524
36.66715,51624
36.67528,60203
36.68340,58833
36.69153,64953
36.69965,54745
36.70777,55600
36.71590,56053
36.72402,56231
36.73213,56318
36.74027,59711
36.74838,57248
36.75652,54904
36.76463,56072
36.77275,57833
36.78088,59069
36.78900,54529
36.79713,57572
36.80525,58529
36.81337,64429
36.82150,54079
36.82962,58217
36.83773,60922
36.84587,60236
36.85398,60021
36.86212,65815
36.87023,67725
36.87835,65588
36.88648,67698
36.89460,74020
36.90273,73323
36.91085,72588
36.91897,71580
36.92710,74913
36.93522,75870
36.94335,73804
36.95147,76264
36.95958,83393
36.96772,88715
36.97583,96617
36.98395,95471
36.99208,90299
37.00020,88595
37.00833,85548
37.01645,87646
37.02457,83707
37.03270,77461
37.04082,79201
37.04895,75707
37.05707,74886
37.06518,73599
37.07332,76468
37.08143,75225
37.08957,79139
37.09768,76851
37.10580,72924
37.11393,75791
37.12205,72417
37.13017,68842
37.13830,75429
37.14642,71284
37.15455,68145
37.16267,79846
37.17078,72618
37.17892,74903
37.18703,79245
37.19517,74756
37.20328,75575
37.21140,77520
37.21953,79510
37.22765,72436
37.23577,71888
37.24390,74249
37.25202,72859
37.26015,68159
37.26827,68891
37.27638,75262
37.28452,68793
37.29263,67445
37.30077,68880
37.30888,66785
37.31700,68284
37.32513,69954
37.33325,71155
37.34138,68923
37.34950,75998
37.35762,75055
37.36575,81154
37.37387,82379
37.38198,84522
37.39012,86338
37.39823,81593
37.40637,82643
37.41448,79913
37.42260,77366
37.43073,77873
37.43885,76348
37.44698,76788
37.45510,75390
37.46322,75702
37.47135,71415
37.47947,73811
37.48758,74639
