C:\MassHunter\GCMS\1\data\JTB-E18\JTB-E18-034-13.D Tue Oct 15 11:44:14 2019
Start of data points
2.09513	73019
2.10327	71919
2.11138	71269
2.11950	72357
2.12763	70722
2.13575	74575
2.14387	72825
2.15200	72382
2.16012	72921
2.16825	72738
2.17637	74980
2.18448	71493
2.19262	71125
2.20073	65862
2.20887	68277
2.21698	67293
2.22510	62966
2.23323	65160
2.24135	67968
2.24947	61138
2.25760	57539
2.26572	73255
2.27385	638714
2.28197	4118307
2.29008	5142303
2.29822	2422943
2.30633	1229488
2.31447	895472
2.32258	741450
2.33070	625757
2.33883	563635
2.34695	503868
2.35508	432842
2.36320	384693
2.37132	363472
2.37945	336746
2.38757	309645
2.39568	289045
2.40382	275258
2.41193	270390
2.42007	257609
2.42818	259417
2.43630	245143
2.44443	223390
2.45255	235406
2.46068	225108
2.46880	208177
2.47692	203810
2.48505	191966
2.49317	192931
2.50128	206850
2.50942	188494
2.51753	178622
2.52567	173189
2.53378	167976
2.54190	159926
2.55003	168178
2.55815	163050
2.56628	168189
2.57440	163391
2.58252	148049
2.59065	142435
2.59877	144826
2.60690	145566
2.61502	170191
2.62313	206324
2.63127	189791
2.63938	168776
2.64750	154411
2.65563	150400
2.66375	142533
2.67188	135684
2.68000	135612
2.68812	125416
2.69625	123667
2.70437	124618
2.71250	127307
2.72062	118295
2.72873	120224
2.73687	116791
2.74498	111668
2.75312	112762
2.76123	115351
2.76935	117959
2.77748	113330
2.78560	113016
2.79372	112023
2.80185	105774
2.80997	107362
2.81810	106512
2.82622	109927
2.83433	106074
2.84247	105644
2.85058	97627
2.85872	105604
2.86683	101663
2.87495	100882
2.88308	100452
2.89120	95941
2.89933	102749
2.90745	100018
2.91557	90362
2.92370	92135
2.93182	94085
2.93993	91337
2.94807	89984
2.95618	90224
2.96432	91860
2.97243	96463
2.98055	98230
2.98868	95575
2.99680	95792
3.00493	97994
3.01305	95842
3.02117	91218
3.02930	88498
3.03742	86704
3.04553	87598
3.05367	91629
3.06178	88068
3.06992	101614
3.07803	107807
3.08615	103364
3.09428	94021
3.10240	98059
3.11053	114678
3.11865	129852
3.12677	124224
3.13490	107342
3.14302	99271
3.15115	96529
3.15927	91673
3.16738	93403
3.17552	87197
3.18363	84831
3.19175	86547
3.19988	85928
3.20800	86223
3.21613	85321
3.22425	81035
3.23237	80522
3.24050	77376
3.24862	82096
3.25675	76490
3.26487	79253
3.27298	82121
3.28112	116346
3.28923	409356
3.29735	1778666
3.30548	5408589
3.31360	1.039909E+07
3.32173	1.18024E+07
3.32985	9475641
3.33797	6799708
3.34610	5048837
3.35422	3919762
3.36235	3164008
3.37047	2653873
3.37858	2283203
3.38672	1985589
3.39483	1778647
3.40297	1594457
3.41108	1454419
3.41920	1320067
3.42733	1225829
3.43545	1146729
3.44357	1048725
3.45170	990897
3.45982	932353
3.46795	892703
3.47607	854369
3.48418	820280
3.49232	792421
3.50043	761140
3.50857	734833
3.51668	699698
3.52480	690424
3.53293	654550
3.54105	626855
3.54918	607321
3.55730	586219
3.56542	554075
3.57355	539614
3.58167	541016
3.58978	526788
3.59792	504281
3.60603	500785
3.61417	492372
3.62228	472362
3.63040	449429
3.63853	456477
3.64665	424528
3.65478	432278
3.66290	407406
3.67102	409268
3.67915	396192
3.68727	388436
3.69538	378642
3.70352	367653
3.71163	360971
3.71977	348816
3.72788	348994
3.73600	348159
3.74413	336506
3.75225	327313
3.76038	312970
3.76850	316963
3.77662	311125
3.78475	302901
3.79287	303699
3.80100	290791
3.80912	295837
3.81723	296292
3.82537	284052
3.83348	284666
3.84160	282057
3.84973	279101
3.85785	278663
3.86598	262963
3.87410	264179
3.88222	254621
3.89035	259422
3.89847	253703
3.90660	245315
3.91472	242516
3.92283	245571
3.93097	236742
3.93908	243028
3.94722	233259
3.95533	229995
3.96345	228538
3.97158	227152
3.97970	225966
3.98782	220464
3.99595	217634
4.00407	211133
4.01220	209116
4.02032	203474
4.02843	209706
4.03657	203637
4.04468	202697
4.05282	200926
4.06093	201727
4.06905	201637
4.07718	192369
4.08530	196850
4.09342	193763
4.10155	190519
4.10967	190919
4.11780	187275
4.12592	186321
4.13403	182312
4.14217	190000
4.15028	192305
4.15842	200211
4.16653	195495
4.17465	195025
4.18278	188825
4.19090	181073
4.19903	180983
4.20715	173563
4.21527	180104
4.22340	179389
4.23152	178723
4.23963	189863
4.24777	193407
4.25588	184232
4.26402	178055
4.27213	173295
4.28025	177535
4.28838	171407
4.29650	163827
4.30463	163085
4.31275	174304
4.32087	164424
4.32900	167568
4.33712	167295
4.34523	170798
4.35337	164145
4.36148	169224
4.36962	176883
4.37773	174850
4.38585	175652
4.39398	169016
4.40210	165341
4.41023	161955
4.41835	163417
4.42647	157884
4.43460	149704
4.44272	155459
4.45085	149512
4.45897	158028
4.46708	148246
4.47522	144941
4.48333	144423
4.49145	148033
4.49958	145618
4.50770	153443
4.51583	137039
4.52395	137017
4.53207	152006
4.54020	154600
4.54832	153615
4.55645	159750
4.56457	151638
4.57268	141421
4.58082	140470
4.58893	141448
4.59707	141902
4.60518	140769
4.61330	138006
4.62143	132990
4.62955	137101
4.63767	133892
4.64580	130752
4.65392	132580
4.66205	133923
4.67017	137871
4.67828	131134
4.68642	129747
4.69453	125184
4.70267	128166
4.71078	131441
4.71890	127338
4.72703	132736
4.73515	125737
4.74327	126536
4.75140	128826
4.75952	123364
4.76765	127709
4.77577	125870
4.78388	130171
4.79202	126162
4.80013	131056
4.80827	121921
4.81638	117820
4.82450	126896
4.83263	124594
4.84075	122461
4.84888	121202
4.85700	119764
4.86512	128717
4.87325	125520
4.88137	124273
4.88948	121109
4.89762	123838
4.90573	133428
4.91387	165059
4.92198	344033
4.93010	818369
4.93823	1794912
4.94635	2906818
4.95448	3698206
4.96260	3515015
4.97072	2701221
4.97885	1947003
4.98697	1452692
4.99510	1127356
5.00322	963248
5.01133	839922
5.01947	756475
5.02758	698195
5.03570	632480
5.04383	602284
5.05195	563579
5.06008	546580
5.06820	520993
5.07632	499427
5.08445	469127
5.09257	453320
5.10070	434622
5.10882	425703
5.11693	408563
5.12507	400730
5.13318	372359
5.14130	372472
5.14943	359051
5.15755	352875
5.16568	344351
5.17380	340700
5.18192	330923
5.19005	325927
5.19817	329195
5.20630	312243
5.21442	305840
5.22253	309227
5.23067	319038
5.23878	338274
5.24692	368625
5.25503	363402
5.26315	326879
5.27128	299466
5.27940	279888
5.28752	283106
5.29565	255729
5.30377	258826
5.31190	247543
5.32002	244552
5.32813	246505
5.33627	236625
5.34438	241504
5.35252	242282
5.36063	235721
5.36875	225642
5.37688	223765
5.38500	232895
5.39313	227011
5.40125	217326
5.40937	217426
5.41750	216359
5.42562	208936
5.43373	206369
5.44187	201705
5.44998	200730
5.45812	200959
5.46623	201383
5.47435	206820
5.48248	192214
5.49060	196941
5.49873	190345
5.50685	194827
5.51497	185796
5.52310	189658
5.53122	189389
5.53933	186057
5.54747	181556
5.55558	186222
5.56372	186184
5.57183	179872
5.57995	179627
5.58808	178022
5.59620	177484
5.60433	181168
5.61245	175920
5.62057	180580
5.62870	176103
5.63682	184745
5.64495	186395
5.65307	178015
5.66118	177893
5.66932	178960
5.67743	189670
5.68555	211801
5.69368	223546
5.70180	235486
5.70993	225259
5.71805	205786
5.72617	186851
5.73430	184844
5.74242	178482
5.75055	170537
5.75867	167214
5.76678	174650
5.77492	167481
5.78303	161964
5.79115	161229
5.79928	161401
5.80740	155379
5.81553	166327
5.82365	157822
5.83177	156206
5.83990	150520
5.84802	153958
5.85615	155609
5.86427	152365
5.87238	154509
5.88052	144753
5.88863	150910
5.89677	144743
5.90488	139552
5.91300	124133
5.92113	110678
5.92925	108688
5.93737	106982
5.94550	108228
5.95362	103258
5.96175	116245
5.96987	118183
5.97798	127680
5.98612	135283
5.99423	133875
6.00237	133804
6.01048	120373
6.01860	125951
6.02673	120890
6.03485	117347
6.04298	122088
6.05110	121103
6.05922	114431
6.06735	113669
6.07547	112431
6.08358	111003
6.09172	106687
6.09983	105200
6.10797	109195
6.11608	105025
6.12420	107787
6.13233	102509
6.14045	110167
6.14858	110213
6.15670	102664
6.16482	109905
6.17295	110351
6.18107	118095
6.18918	117617
6.19732	121781
6.20543	124426
6.21357	125970
6.22168	134030
6.22980	135979
6.23793	132744
6.24605	142124
6.25418	135791
6.26230	149226
6.27042	151117
6.27855	152512
6.28667	159160
6.29480	155683
6.30292	153358
6.31103	158715
6.31917	155894
6.32728	163473
6.33540	162773
6.34353	171251
6.35165	172340
6.35978	177284
6.36790	172557
6.37602	174525
6.38415	180231
6.39227	182491
6.40040	178718
6.40852	188047
6.41663	185499
6.42477	194437
6.43288	200665
6.44102	212961
6.44913	213487
6.45725	210373
6.46538	219017
6.47350	197752
6.48162	206514
6.48975	205248
6.49787	205531
6.50600	212718
6.51412	208370
6.52223	213632
6.53037	209827
6.53848	212302
6.54662	218968
6.55473	220025
6.56285	218861
6.57098	225988
6.57910	203214
6.58722	152621
6.59535	137277
6.60347	123283
6.61160	114374
6.61972	110693
6.62783	105995
6.63597	106785
6.64408	107125
6.65222	96817
6.66033	95976
6.66845	96294
6.67658	94563
6.68470	94034
6.69283	92716
6.70095	91519
6.70907	92547
6.71720	90839
6.72532	88916
6.73343	88342
6.74157	85166
6.74968	89194
6.75782	88696
6.76593	81999
6.77405	79716
6.78218	81813
6.79030	83214
6.79843	80718
6.80655	77718
6.81467	83262
6.82280	79578
6.83092	77791
6.83903	78444
6.84717	71228
6.85528	62908
6.86342	55880
6.87153	57518
6.87965	55315
6.88778	54206
6.89590	57721
6.90403	54894
6.91215	52903
6.92027	53350
6.92840	54632
6.93652	50521
6.94465	51857
6.95277	47227
6.96088	49583
6.96902	47534
6.97713	49818
6.98525	52761
6.99338	51416
7.00150	49451
7.00963	48153
7.01775	49334
7.02587	49104
7.03400	46615
7.04212	47321
7.05025	49916
7.05837	46677
7.06648	49065
7.07462	48902
7.08273	46029
7.09087	43692
7.09898	44094
7.10710	45574
7.11523	50566
7.12335	48362
7.13147	45982
7.13960	45435
7.14772	49036
7.15585	40349
7.16397	46464
7.17208	41308
7.18022	47857
7.18833	47898
7.19647	43415
7.20458	46412
7.21270	47018
7.22083	45482
7.22895	46404
7.23708	45078
7.24520	46240
7.25332	42645
7.26145	43216
7.26957	41427
7.27768	43613
7.28582	42684
7.29393	48648
7.30207	43105
7.31018	46784
7.31830	45792
7.32643	43070
7.33455	45673
7.34268	44853
7.35080	44616
7.35892	41916
7.36705	48943
7.37517	42759
7.38328	47467
7.39142	44792
7.39953	48444
7.40767	46031
7.41578	45661
7.42390	48713
7.43203	47992
7.44015	47251
7.44828	47171
7.45640	49117
7.46452	46626
7.47265	47107
7.48077	43283
7.48890	46162
7.49702	46523
7.50513	48311
7.51327	45445
7.52138	45457
7.52950	45501
7.53763	45116
7.54575	46378
7.55388	42748
7.56200	42808
7.57012	39982
7.57825	41137
7.58637	43362
7.59450	44115
7.60262	40155
7.61073	39302
7.61887	42893
7.62698	39222
7.63510	45033
7.64323	40013
7.65135	45129
7.65948	50505
7.66760	45011
7.67572	41243
7.68385	39173
7.69197	40706
7.70010	44671
7.70822	39129
7.71633	39360
7.72447	38185
7.73258	42413
7.74072	38380
7.74883	39812
7.75695	46177
7.76508	38915
7.77320	38036
7.78132	36410
7.78945	42168
7.79757	41450
7.80570	41323
7.81382	38486
7.82193	40212
7.83007	35194
7.83818	39975
7.84632	39552
7.85443	35718
7.86255	39067
7.87068	37024
7.87880	37101
7.88692	36032
7.89505	36376
7.90317	35913
7.91130	37463
7.91942	37392
7.92753	36519
7.93567	35665
7.94378	34304
7.95192	34316
7.96003	35696
7.96815	38228
7.97628	38314
7.98440	36107
7.99253	36629
8.00065	37799
8.00877	38006
8.01690	37385
8.02502	38660
8.03313	40398
8.04127	44849
8.04938	36528
8.05752	40562
8.06563	42389
8.07375	40129
8.08188	41186
8.09000	42594
8.09813	39795
8.10625	42036
8.11437	38327
8.12250	35371
8.13062	35983
8.13875	36495
8.14687	35061
8.15498	36601
8.16312	39399
8.17123	42770
8.17935	42238
8.18748	41494
8.19560	39354
8.20373	37342
8.21185	37588
8.21997	35323
8.22810	34759
8.23622	36324
8.24435	38255
8.25247	38945
8.26058	37202
8.26872	35521
8.27683	36028
8.28497	34806
8.29308	35074
8.30120	33789
8.30933	38091
8.31745	35657
8.32557	37724
8.33370	40669
8.34182	38417
8.34995	37767
8.35807	36877
8.36618	36834
8.37432	35886
8.38243	33877
8.39057	34246
8.39868	32152
8.40680	32450
8.41493	35719
8.42305	31722
8.43117	37283
8.43930	36267
8.44742	33062
8.45555	32312
8.46367	35537
8.47178	35053
8.47992	31693
8.48803	33577
8.49617	31383
8.50428	33468
8.51240	36227
8.52053	44767
8.52865	45706
8.53678	48713
8.54490	43474
8.55302	54840
8.56115	318690
8.56927	837481
8.57738	950387
8.58552	462857
8.59363	230207
8.60177	161681
8.60988	135153
8.61800	113837
8.62613	95242
8.63425	91104
8.64238	85581
8.65050	81737
8.65862	79006
8.66675	72882
8.67487	71109
8.68298	71804
8.69112	69471
8.69923	64048
8.70737	63928
8.71548	72651
8.72360	117769
8.73173	204069
8.73985	351605
8.74798	500994
8.75610	583794
8.76422	547025
8.77235	423485
8.78047	315408
8.78860	245852
8.79672	225747
8.80483	213806
8.81297	194017
8.82108	183213
8.82920	173520
8.83733	165455
8.84545	150657
8.85358	154779
8.86170	143070
8.86982	141154
8.87795	130825
8.88607	130543
8.89420	129306
8.90232	120326
8.91043	123464
8.91857	113763
8.92668	113652
8.93482	109236
8.94293	107099
8.95105	111586
8.95918	263187
8.96730	1148967
8.97542	2577084
8.98355	2635668
8.99167	1870941
8.99980	1403677
9.00792	1104497
9.01603	911812
9.02417	760102
9.03228	642369
9.04042	565705
9.04853	488665
9.05665	438485
9.06478	396032
9.07290	351777
9.08102	320305
9.08915	292350
9.09727	274925
9.10540	259247
9.11352	246161
9.12163	226625
9.12977	213688
9.13788	203637
9.14602	202871
9.15413	193924
9.16225	186117
9.17038	184799
9.17850	183081
9.18663	171120
9.19475	169107
9.20287	158895
9.21100	154913
9.21912	156276
9.22723	153840
9.23537	140097
9.24348	135073
9.25162	134335
9.25973	132077
9.26785	130377
9.27598	125329
9.28410	122267
9.29223	118474
9.30035	111749
9.30847	113116
9.31660	107173
9.32472	109350
9.33285	111302
9.34097	103949
9.34908	103334
9.35722	97320
9.36533	99327
9.37345	102635
9.38158	99719
9.38970	99571
9.39783	96306
9.40595	96173
9.41407	92756
9.42220	93170
9.43032	93166
9.43845	96993
9.44657	131051
9.45468	295714
9.46282	655382
9.47093	800559
9.47905	683328
9.48718	516639
9.49530	410905
9.50343	340422
9.51155	307383
9.51967	266895
9.52780	244662
9.53592	217337
9.54405	195227
9.55217	180317
9.56028	168005
9.56842	154005
9.57653	147502
9.58467	146539
9.59278	135164
9.60090	128183
9.60903	121655
9.61715	118410
9.62527	118106
9.63340	110638
9.64152	105395
9.64965	106108
9.65777	98747
9.66588	98522
9.67402	98088
9.68213	92266
9.69027	93401
9.69838	92877
9.70650	84202
9.71463	83903
9.72275	86883
9.73087	83820
9.73900	82268
9.74712	78657
9.75525	81260
9.76337	77272
9.77148	78378
9.77962	79496
9.78773	78498
9.79587	71779
9.80398	73179
9.81210	75513
9.82023	77475
9.82835	71584
9.83648	75145
9.84460	78077
9.85272	77113
9.86085	77846
9.86897	71800
9.87708	78033
9.88522	72554
9.89333	71638
9.90147	81827
9.90958	77849
9.91770	71093
9.92583	73992
9.93395	63890
9.94208	65343
9.95020	70960
9.95832	70528
9.96645	86926
9.97457	111814
9.98270	116249
9.99082	103297
9.99893	95407
10.00707	89089
10.01518	83722
10.02330	80841
10.03143	78104
10.03955	77699
10.04768	75045
10.05580	68337
10.06392	70916
10.07205	67613
10.08017	64684
10.08830	63489
10.09642	60790
10.10453	62255
10.11267	61227
10.12078	62775
10.12890	61215
10.13703	62071
10.14515	63538
10.15328	62801
10.16140	65363
10.16952	71782
10.17765	83199
10.18577	85177
10.19390	97100
10.20202	107857
10.21013	122460
10.21827	129370
10.22638	121657
10.23452	104440
10.24263	92959
10.25075	84667
10.25888	77867
10.26700	71929
10.27512	64910
10.28325	70754
10.29137	70607
10.29950	65230
10.30762	63082
10.31573	56316
10.32387	58675
10.33198	61589
10.34012	63283
10.34823	59548
10.35635	59504
10.36448	60027
10.37260	60185
10.38073	55233
10.38885	53781
10.39697	56855
10.40510	58336
10.41322	58200
10.42133	54495
10.42947	55569
10.43758	55856
10.44572	51799
10.45383	51597
10.46195	52704
10.47008	52120
10.47820	49402
10.48633	52575
10.49445	51835
10.50257	49569
10.51070	52800
10.51882	50557
10.52693	49038
10.53507	48084
10.54318	52928
10.55132	51851
10.55943	46991
10.56755	47640
10.57568	48061
10.58380	48205
10.59193	44289
10.60005	48841
10.60817	45790
10.61630	48540
10.62442	45024
10.63255	48659
10.64067	48904
10.64878	48226
10.65692	48187
10.66503	45041
10.67315	44121
10.68128	47910
10.68940	46194
10.69753	45514
10.70565	48727
10.71377	48548
10.72190	46601
10.73002	49111
10.73815	50148
10.74627	46931
10.75438	46935
10.76252	47572
10.77063	49958
10.77877	52186
10.78688	45096
10.79500	47105
10.80313	45444
10.81125	46660
10.81937	43665
10.82750	47381
10.83562	46012
10.84375	44085
10.85187	45166
10.85998	45480
10.86812	47783
10.87623	45319
10.88437	47138
10.89248	47637
10.90060	45058
10.90873	47512
10.91685	44812
10.92497	46654
10.93310	43541
10.94122	45494
10.94935	44384
10.95747	46226
10.96558	46656
10.97372	47162
10.98183	44564
10.98997	43161
10.99808	43542
11.00620	43214
11.01433	48429
11.02245	53385
11.03058	72482
11.03870	106391
11.04682	128202
11.05495	128297
11.06307	113044
11.07118	97515
11.07932	85882
11.08743	73944
11.09557	67504
11.10368	63470
11.11180	63985
11.11993	64149
11.12805	58869
11.13618	60243
11.14430	62080
11.15242	62137
11.16055	63229
11.16867	57921
11.17678	59623
11.18492	56625
11.19303	54752
11.20117	54236
11.20928	52551
11.21740	48758
11.22553	47984
11.23365	52417
11.24178	47670
11.24990	51384
11.25802	46396
11.26615	48059
11.27427	44309
11.28240	46883
11.29052	45242
11.29863	45225
11.30677	47117
11.31488	42561
11.32300	47749
11.33113	45368
11.33925	45190
11.34738	43481
11.35550	47884
11.36362	41840
11.37175	42094
11.37987	44437
11.38800	45778
11.39612	40910
11.40423	43224
11.41237	42324
11.42048	41805
11.42862	42651
11.43673	40728
11.44485	45265
11.45298	44031
11.46110	42795
11.46922	41911
11.47735	46260
11.48547	42710
11.49360	42680
11.50172	40740
11.50983	39778
11.51797	39529
11.52608	40726
11.53422	42002
11.54233	42593
11.55045	40962
11.55858	39010
11.56670	41996
11.57482	40451
11.58295	39094
11.59107	42768
11.59920	40963
11.60732	41469
11.61543	41738
11.62357	46108
11.63168	43635
11.63982	41928
11.64793	42334
11.65605	43128
11.66418	39926
11.67230	38199
11.68043	43081
11.68855	43617
11.69667	44251
11.70480	42984
11.71292	45472
11.72103	48086
11.72917	43783
11.73728	46311
11.74542	42008
11.75353	42765
11.76165	42290
11.76978	40868
11.77790	43996
11.78603	41105
11.79415	41618
11.80227	41598
11.81040	43673
11.81852	40670
11.82665	39284
11.83477	42915
11.84288	38141
11.85102	39846
11.85913	41872
11.86725	41618
11.87538	39359
11.88350	38541
11.89163	43295
11.89975	37700
11.90787	41004
11.91600	39079
11.92412	38790
11.93225	40795
11.94037	36151
11.94848	41082
11.95662	39767
11.96473	39519
11.97285	46382
11.98098	39443
11.98910	45433
11.99723	45529
12.00535	41702
12.01347	43248
12.02160	40604
12.02972	36927
12.03785	35619
12.04597	36979
12.05408	41221
12.06222	39811
12.07033	38639
12.07847	38248
12.08658	39491
12.09470	40468
12.10283	35116
12.11095	39793
12.11907	38584
12.12720	40641
12.13532	35120
12.14345	35750
12.15157	39243
12.15968	40961
12.16782	38536
12.17593	38977
12.18407	38430
12.19218	37836
12.20030	39953
12.20843	37270
12.21655	39549
12.22467	37808
12.23280	41572
12.24092	39219
12.24905	38966
12.25717	41680
12.26528	46661
12.27342	40790
12.28153	40624
12.28967	42411
12.29778	38770
12.30590	40694
12.31403	40243
12.32215	40334
12.33028	39362
12.33840	36463
12.34652	36856
12.35465	40937
12.36277	35944
12.37088	39816
12.37902	38984
12.38713	33784
12.39527	35985
12.40338	38484
12.41150	37337
12.41963	38003
12.42775	38877
12.43588	36565
12.44400	37352
12.45212	37237
12.46025	39946
12.46837	40472
12.47650	39051
12.48462	38856
12.49273	37443
12.50087	35216
12.50898	33873
12.51710	40219
12.52523	37033
12.53335	35614
12.54148	36130
12.54960	38675
12.55772	35540
12.56585	37339
12.57397	34763
12.58210	34237
12.59022	40167
12.59833	34225
12.60647	35865
12.61458	34410
12.62272	38475
12.63083	34509
12.63895	35216
12.64708	33549
12.65520	37090
12.66332	36026
12.67145	33024
12.67957	32625
12.68770	34345
12.69582	37189
12.70393	39020
12.71207	39910
12.72018	41168
12.72832	40503
12.73643	45618
12.74455	43265
12.75268	41768
12.76080	41532
12.76892	42185
12.77705	40516
12.78517	39869
12.79330	37736
12.80142	37396
12.80953	35489
12.81767	37165
12.82578	35914
12.83392	36281
12.84203	35712
12.85015	34681
12.85828	35460
12.86640	36430
12.87453	36715
12.88265	35749
12.89077	32406
12.89890	35726
12.90702	34973
12.91513	36705
12.92327	36576
12.93138	36843
12.93952	34863
12.94763	35592
12.95575	36172
12.96388	36829
12.97200	34501
12.98013	37003
12.98825	36987
12.99637	34447
13.00450	38086
13.01262	36126
13.02073	36754
13.02887	36810
13.03698	36000
13.04512	34293
13.05323	34093
13.06135	34819
13.06948	35757
13.07760	34811
13.08573	34938
13.09385	39005
13.10197	37488
13.11010	35909
13.11822	34649
13.12635	37443
13.13447	41581
13.14258	37132
13.15072	38320
13.15883	41958
13.16695	41550
13.17508	40052
13.18320	39003
13.19133	39666
13.19945	37403
13.20757	36373
13.21570	39725
13.22382	36624
13.23195	35094
13.24007	35873
13.24818	36532
13.25632	37967
13.26443	35451
13.27257	34978
13.28068	35758
13.28880	31751
13.29693	38026
13.30505	37788
13.31317	34218
13.32130	33891
13.32942	35142
13.33755	32320
13.34567	38966
13.35378	38483
13.36192	35344
13.37003	34096
13.37817	33113
13.38628	36444
13.39440	35445
13.40253	33914
13.41065	33673
13.41877	35546
13.42690	34542
13.43502	34414
13.44315	34953
13.45127	34323
13.45938	33994
13.46752	36875
13.47563	33881
13.48377	36694
13.49188	34667
13.50000	38106
13.50813	35897
13.51625	32988
13.52438	33833
13.53250	33939
13.54062	34961
13.54875	35380
13.55687	31874
13.56498	32025
13.57312	33560
13.58123	35672
13.58937	36086
13.59748	33615
13.60560	34958
13.61373	28777
13.62185	36473
13.62998	32838
13.63810	32146
13.64622	34361
13.65435	30831
13.66247	32349
13.67060	33913
13.67872	37799
13.68683	36914
13.69497	33593
13.70308	37110
13.71120	31959
13.71933	32065
13.72745	31760
13.73558	34531
13.74370	33947
13.75182	34259
13.75995	33967
13.76807	34264
13.77620	33274
13.78432	35113
13.79243	33539
13.80057	31957
13.80868	34620
13.81680	32716
13.82493	34896
13.83305	32652
13.84118	34245
13.84930	34854
13.85742	36113
13.86555	39104
13.87367	37134
13.88180	36993
13.88992	39599
13.89803	40125
13.90617	38692
13.91428	34452
13.92242	34782
13.93053	43579
13.93865	34619
13.94678	37852
13.95490	35015
13.96302	34196
13.97115	34308
13.97927	34530
13.98740	33618
13.99552	34268
14.00363	36458
14.01177	40125
14.01988	36501
14.02802	37481
14.03613	32499
14.04425	36271
14.05238	32861
14.06050	35840
14.06862	35541
14.07675	34307
14.08487	33468
14.09300	35943
14.10112	34713
14.10923	34186
14.11737	45488
14.12548	62170
14.13362	94361
14.14173	132571
14.14985	153123
14.15798	159110
14.16610	145525
14.17423	125202
14.18235	108837
14.19047	97054
14.19860	88195
14.20672	80692
14.21483	76802
14.22297	73976
14.23108	73146
14.23922	64318
14.24733	66651
14.25545	63108
14.26358	57355
14.27170	57353
14.27983	56016
14.28795	51747
14.29607	49359
14.30420	48051
14.31232	39980
14.32045	42422
14.32857	40477
14.33668	38278
14.34482	37439
14.35293	41712
14.36105	36966
14.36918	37857
14.37730	37662
14.38543	35158
14.39355	35561
14.40167	35965
14.40980	36365
14.41792	36933
14.42605	35854
14.43417	35859
14.44228	32189
14.45042	35722
14.45853	35755
14.46665	35308
14.47478	39245
14.48290	37237
14.49103	35397
14.49915	34689
14.50727	38754
14.51540	36631
14.52352	36378
14.53165	37033
14.53977	35618
14.54788	34263
14.55602	32742
14.56413	33059
14.57227	37803
14.58038	36716
14.58850	33948
14.59663	35422
14.60475	36119
14.61287	33781
14.62100	34151
14.62912	33053
14.63725	32254
14.64537	37559
14.65348	32609
14.66162	36509
14.66973	37058
14.67787	34505
14.68598	33532
14.69410	32086
14.70223	32385
14.71035	32785
14.71848	34325
14.72660	38636
14.73472	39056
14.74285	48722
14.75097	55946
14.75908	55493
14.76722	56916
14.77533	47377
14.78347	47441
14.79158	40365
14.79970	41732
14.80783	39316
14.81595	38398
14.82408	35849
14.83220	37716
14.84032	37485
14.84845	39246
14.85657	39497
14.86468	36916
14.87282	37097
14.88093	37886
14.88907	38161
14.89718	36735
14.90530	36779
14.91343	37310
14.92155	37977
14.92968	38757
14.93780	37134
14.94592	36817
14.95405	38151
14.96217	38868
14.97030	34570
14.97842	36203
14.98653	34577
14.99467	35727
15.00278	38619
15.01090	31951
15.01903	36929
15.02715	37114
15.03528	37049
15.04340	32907
15.05152	35434
15.05965	33298
15.06777	34819
15.07590	35575
15.08402	35395
15.09213	34482
15.10027	40099
15.10838	35347
15.11650	35259
15.12463	34535
15.13275	33134
15.14088	34065
15.14900	33128
15.15712	33313
15.16525	32572
15.17337	30273
15.18150	32124
15.18962	32678
15.19773	33252
15.20587	31747
15.21398	32264
15.22212	35336
15.23023	31942
15.23835	33910
15.24648	31897
15.25460	32917
15.26272	33567
15.27085	31441
15.27897	32449
15.28710	31181
15.29522	34983
15.30333	30440
15.31147	33478
15.31958	28744
15.32772	28371
15.33583	33771
15.34395	32086
15.35208	31464
15.36020	31663
15.36833	31759
15.37645	37736
15.38457	30798
15.39270	32746
15.40082	32508
15.40893	32877
15.41707	31062
15.42518	29382
15.43332	32999
15.44143	33225
15.44955	31205
15.45768	31078
15.46580	33669
15.47393	37170
15.48205	34120
15.49017	33135
15.49830	33755
15.50642	29824
15.51453	31538
15.52267	32102
15.53078	34655
15.53892	34782
15.54703	32322
15.55515	33104
15.56328	32745
15.57140	32071
15.57953	32381
15.58765	29374
15.59577	32272
15.60390	33397
15.61202	31775
15.62015	32453
15.62827	33298
15.63638	32461
15.64452	29697
15.65263	35253
15.66075	32097
15.66888	35331
15.67700	31588
15.68513	30542
15.69325	33245
15.70137	33303
15.70950	33440
15.71762	34270
15.72575	32884
15.73387	33730
15.74198	32985
15.75012	32060
15.75823	33887
15.76637	31649
15.77448	32041
15.78260	33061
15.79073	33788
15.79885	30199
15.80697	32786
15.81510	33095
15.82322	32986
15.83135	33392
15.83947	33689
15.84758	29682
15.85572	35094
15.86383	31093
15.87197	28963
15.88008	32601
15.88820	32702
15.89633	33584
15.90445	31601
15.91257	30157
15.92070	30125
15.92882	32743
15.93695	34014
15.94507	32757
15.95318	30964
15.96132	31468
15.96943	33894
15.97757	34379
15.98568	34511
15.99380	33996
16.00193	35619
16.01005	38809
16.01818	42051
16.02630	42784
16.03442	42068
16.04255	43257
16.05067	41654
16.05878	37877
16.06692	36200
16.07503	39044
16.08317	36290
16.09128	39880
16.09940	34220
16.10753	35181
16.11565	34953
16.12378	32570
16.13190	36538
16.14002	34144
16.14815	32898
16.15627	37104
16.16440	37071
16.17252	36818
16.18063	34789
16.18877	34406
16.19688	35932
16.20500	34468
16.21313	34616
16.22125	31854
16.22938	32837
16.23750	34605
16.24562	32577
16.25375	34848
16.26187	33613
16.27000	35160
16.27812	29329
16.28623	33722
16.29437	33427
16.30248	35601
16.31060	35505
16.31873	33478
16.32685	33596
16.33498	32775
16.34310	34562
16.35122	34357
16.35935	33688
16.36747	33422
16.37560	32784
16.38372	33796
16.39183	31222
16.39997	32222
16.40808	32367
16.41622	37462
16.42433	37956
16.43245	32474
16.44058	34313
16.44870	36133
16.45682	34725
16.46495	33945
16.47307	34426
16.48120	33664
16.48932	30148
16.49743	32025
16.50557	32183
16.51368	34410
16.52182	31986
16.52993	31635
16.53805	33346
16.54618	34601
16.55430	33679
16.56242	36169
16.57055	33039
16.57867	32913
16.58680	31536
16.59492	32947
16.60303	30305
16.61117	33879
16.61928	31439
16.62742	32704
16.63553	33781
16.64365	30318
16.65178	34010
16.65990	36495
16.66803	32865
16.67615	32447
16.68427	32368
16.69240	34022
16.70052	35090
16.70863	32598
16.71677	36761
16.72488	35230
16.73302	35741
16.74113	38333
16.74925	32155
16.75738	34577
16.76550	35175
16.77363	31659
16.78175	32491
16.78987	32775
16.79800	32945
16.80612	32107
16.81425	35721
16.82237	34135
16.83048	33725
16.83862	31773
16.84673	32278
16.85485	31727
16.86298	35558
16.87110	35165
16.87923	34921
16.88735	36300
16.89547	31021
16.90360	37048
16.91172	33378
16.91985	35473
16.92797	35284
16.93608	36343
16.94422	34663
16.95233	35187
16.96045	36659
16.96858	31776
16.97670	36352
16.98483	34280
16.99295	36592
17.00107	31465
17.00920	35798
17.01732	35210
17.02545	37662
17.03357	33286
17.04168	35418
17.04982	34091
17.05793	35763
17.06607	36501
17.07418	35060
17.08230	33148
17.09043	34993
17.09855	36983
17.10667	35165
17.11480	39215
17.12292	34818
17.13105	35018
17.13917	37901
17.14728	35017
17.15542	38790
17.16353	36114
17.17167	35366
17.17978	37404
17.18790	36503
17.19603	33615
17.20415	34280
17.21228	35175
17.22040	32957
17.22852	34756
17.23665	33048
17.24477	35285
17.25288	36959
17.26102	33601
17.26913	33654
17.27727	34778
17.28538	34906
17.29350	36489
17.30163	36321
17.30975	39341
17.31788	40592
17.32600	38490
17.33412	35153
17.34225	37703
17.35037	35527
17.35848	38442
17.36662	39715
17.37473	41746
17.38287	39408
17.39098	35428
17.39910	35542
17.40723	39033
17.41535	37480
17.42348	37930
17.43160	34792
17.43972	36781
17.44785	35370
17.45597	36269
17.46410	34648
17.47222	35080
17.48033	35446
17.48847	34071
17.49658	36957
17.50470	35644
17.51283	37636
17.52095	36773
17.52908	38375
17.53720	35783
17.54532	38599
17.55345	36619
17.56157	40905
17.56970	34645
17.57782	37946
17.58593	34574
17.59407	36436
17.60218	36009
17.61030	36407
17.61843	36185
17.62655	35118
17.63468	41504
17.64280	35347
17.65092	37364
17.65905	36867
17.66717	36090
17.67530	36217
17.68342	36042
17.69153	33952
17.69967	37287
17.70778	36693
17.71592	43788
17.72403	34391
17.73215	35395
17.74028	33598
17.74840	35184
17.75652	32067
17.76465	35037
17.77277	35057
17.78090	34747
17.78902	34210
17.79713	35510
17.80527	33955
17.81338	36271
17.82152	35715
17.82963	38758
17.83775	33805
17.84588	33601
17.85400	32741
17.86213	31066
17.87025	32534
17.87837	34313
17.88650	34915
17.89462	34440
17.90273	32839
17.91087	34402
17.91898	28806
17.92712	33928
17.93523	34020
17.94335	30277
17.95148	31317
17.95960	31252
17.96773	33501
17.97585	31036
17.98397	30970
17.99210	31382
18.00022	155925
18.00835	758247
18.01647	928004
18.02458	415797
18.03272	204337
18.04083	141887
18.04895	118384
18.05708	103125
18.06520	92510
18.07333	84871
18.08145	77801
18.08957	82717
18.09770	77750
18.10582	71517
18.11395	66787
18.12207	68231
18.13018	73436
18.13832	312677
18.14643	952410
18.15455	753648
18.16268	494978
18.17080	349932
18.17893	284593
18.18705	233335
18.19517	199917
18.20330	182504
18.21142	168196
18.21955	165476
18.22767	290449
18.23578	484159
18.24392	367448
18.25203	271029
18.26017	255226
18.26828	204378
18.27640	184638
18.28453	169193
18.29265	159039
18.30077	146190
18.30890	138526
18.31702	134726
18.32515	123176
18.33327	120654
18.34138	115944
18.34952	114060
18.35763	108231
18.36577	101642
18.37388	103804
18.38200	97483
18.39013	93527
18.39825	94294
18.40637	91216
18.41450	94501
18.42262	100237
18.43075	96429
18.43887	87624
18.44698	84265
18.45512	83307
18.46323	92298
18.47137	134159
18.47948	176553
18.48760	220158
18.49573	228830
18.50385	226387
18.51198	212226
18.52010	189417
18.52822	169799
18.53635	145991
18.54447	130863
18.55258	122916
18.56072	126635
18.56883	124996
18.57697	121433
18.58508	113315
18.59320	117711
18.60133	120379
18.60945	111561
18.61758	114208
18.62570	109973
18.63382	109914
18.64195	106202
18.65007	99368
18.65820	94882
18.66632	95983
18.67443	92780
18.68257	94084
18.69068	88633
18.69880	91070
18.70693	87281
18.71505	89114
18.72318	82696
18.73130	80956
18.73942	85086
18.74755	78814
18.75567	81233
18.76380	77120
18.77192	79428
18.78003	80578
18.78817	77707
18.79628	77031
18.80440	75507
18.81253	76384
18.82065	77659
18.82878	71410
18.83690	73962
18.84502	73284
18.85315	77006
18.86127	74483
18.86940	75402
18.87752	67474
18.88563	74622
18.89377	68009
18.90188	66609
18.91002	68096
18.91813	70627
18.92625	72212
18.93438	62555
18.94250	67649
18.95062	68992
18.95875	64742
18.96687	63596
18.97500	61555
18.98312	66705
18.99123	64320
18.99937	58933
19.00748	58945
19.01562	58878
19.02373	63575
19.03185	55275
19.03998	59516
19.04810	57853
19.05623	57435
19.06435	57375
19.07247	60697
19.08060	64641
19.08872	64077
19.09683	70459
19.10497	70660
19.11308	71692
19.12122	71441
19.12933	72853
19.13745	68175
19.14558	65686
19.15370	63189
19.16183	61663
19.16995	61970
19.17807	60085
19.18620	58362
19.19432	59422
19.20243	62319
19.21057	58696
19.21868	61488
19.22682	58538
19.23493	55949
19.24305	58465
19.25118	56964
19.25930	57093
19.26743	60743
19.27555	59294
19.28367	60716
19.29180	64944
19.29992	61762
19.30805	60664
19.31617	56457
19.32428	60003
19.33242	54798
19.34053	52800
19.34865	55293
19.35678	56247
19.36490	54577
19.37303	53962
19.38115	60511
19.38927	62409
19.39740	58446
19.40552	61574
19.41365	69145
19.42177	77321
19.42988	97160
19.43802	118315
19.44613	125690
19.45425	121590
19.46238	107338
19.47050	90621
19.47863	72520
19.48675	62567
19.49487	57197
19.50300	56324
19.51112	57523
19.51925	53053
19.52737	57078
19.53548	57548
19.54362	56650
19.55173	59026
19.55987	57574
19.56798	56912
19.57610	54246
19.58423	52496
19.59235	52390
19.60047	56136
19.60860	73232
19.61672	113965
19.62485	202426
19.63297	368810
19.64108	607340
19.64922	876522
19.65733	1117554
19.66547	1220482
19.67358	1081265
19.68170	813710
19.68983	559695
19.69795	381089
19.70608	262319
19.71420	204410
19.72232	159801
19.73045	135425
19.73857	112168
19.74668	105267
19.75482	101298
19.76293	96342
19.77107	86082
19.77918	79967
19.78730	75687
19.79543	74834
19.80355	73080
19.81168	70596
19.81980	67353
19.82792	67311
19.83605	63922
19.84417	61120
19.85228	63222
19.86042	61415
19.86853	66307
19.87667	66836
19.88478	74010
19.89290	84445
19.90103	102581
19.90915	133857
19.91728	171391
19.92540	201460
19.93352	221277
19.94165	200158
19.94977	183050
19.95790	146439
19.96602	121904
19.97413	99847
19.98227	93309
19.99038	82754
19.99850	83183
20.00663	74901
20.01475	74216
20.02288	71597
20.03100	70967
20.03912	69055
20.04725	68562
20.05537	64346
20.06350	60897
20.07162	61631
20.07973	62140
20.08787	57480
20.09598	59816
20.10412	58371
20.11223	59421
20.12035	58867
20.12848	55888
20.13660	54915
20.14472	58754
20.15285	56170
20.16097	56051
20.16910	57129
20.17722	56563
20.18533	54925
20.19347	57769
20.20158	60548
20.20972	83507
20.21783	113051
20.22595	180375
20.23408	277179
20.24220	378424
20.25032	460555
20.25845	466109
20.26657	438101
20.27470	345657
20.28282	256205
20.29093	189929
20.29907	149062
20.30718	116347
20.31532	100517
20.32343	85811
20.33155	75341
20.33968	75000
20.34780	73084
20.35593	69792
20.36405	70717
20.37217	71184
20.38030	85254
20.38842	107453
20.39653	144261
20.40467	178053
20.41278	218979
20.42092	243291
20.42903	248461
20.43715	242418
20.44528	207585
20.45340	176415
20.46153	145013
20.46965	118202
20.47777	99856
20.48590	84787
20.49402	77867
20.50213	74904
20.51027	76165
20.51838	76214
20.52652	70205
20.53463	65595
20.54275	63418
20.55088	64730
20.55900	62562
20.56713	64918
20.57525	70977
20.58337	74368
20.59150	71862
20.59962	78778
20.60775	68980
20.61587	67232
20.62398	66487
20.63212	64486
20.64023	65549
20.64835	61429
20.65648	63850
20.66460	57631
20.67273	55932
20.68085	55973
20.68897	54828
20.69710	54033
20.70522	52823
20.71335	51608
20.72147	54022
20.72958	48969
20.73772	54445
20.74583	49965
20.75397	52359
20.76208	52715
20.77020	47964
20.77833	46479
20.78645	48077
20.79457	51265
20.80270	49924
20.81082	48861
20.81895	49260
20.82707	49385
20.83518	46322
20.84332	44518
20.85143	47948
20.85957	48025
20.86768	50410
20.87580	46164
20.88393	44044
20.89205	48125
20.90017	43479
20.90830	45713
20.91642	45329
20.92455	46203
20.93267	48275
20.94078	47864
20.94892	45827
20.95703	42968
20.96517	46020
20.97328	47239
20.98140	48444
20.98953	48565
20.99765	45087
21.00578	43545
21.01390	45291
21.02202	42939
21.03015	44776
21.03827	40990
21.04638	43144
21.05452	45390
21.06263	45518
21.07077	45831
21.07888	45743
21.08700	42086
21.09513	43849
21.10325	45522
21.11138	44580
21.11950	40952
21.12762	40816
21.13575	44215
21.14387	43965
21.15200	46589
21.16012	42631
21.16823	45274
21.17637	50596
21.18448	43552
21.19260	40495
21.20073	42196
21.20885	43902
21.21698	45450
21.22510	46265
21.23322	39399
21.24135	47805
21.24947	45482
21.25760	46238
21.26572	44637
21.27383	42255
21.28197	42266
21.29008	42887
21.29820	43796
21.30633	44225
21.31445	44499
21.32258	41780
21.33070	42712
21.33882	44082
21.34695	45480
21.35507	43416
21.36320	43808
21.37132	39902
21.37943	43339
21.38757	41890
21.39568	40575
21.40382	42284
21.41193	46717
21.42005	44855
21.42818	41956
21.43630	45479
21.44442	40778
21.45255	42686
21.46067	41745
21.46880	42517
21.47692	46739
21.48503	43269
21.49317	44920
21.50128	45428
21.50942	44414
21.51753	42112
21.52565	47114
21.53378	47799
21.54190	46842
21.55003	50430
21.55815	59105
21.56627	78424
21.57440	97840
21.58252	126417
21.59063	138350
21.59877	131083
21.60688	120768
21.61502	105281
21.62313	89932
21.63125	72325
21.63938	68005
21.64750	62557
21.65563	58515
21.66375	61762
21.67187	62910
21.68000	68294
21.68812	71435
21.69623	73144
21.70437	62743
21.71248	65922
21.72062	58356
21.72873	56003
21.73685	60242
21.74498	55358
21.75310	70135
21.76123	80061
21.76935	105085
21.77747	127671
21.78560	141143
21.79372	138725
21.80185	139269
21.80997	109670
21.81808	87446
21.82622	72664
21.83433	65176
21.84245	54777
21.85058	59142
21.85870	54444
21.86683	54561
21.87495	64839
21.88307	63376
21.89120	62823
21.89932	61096
21.90745	58426
21.91557	54356
21.92368	52076
21.93182	53118
21.93993	47843
21.94805	49912
21.95618	48175
21.96430	49919
21.97243	46328
21.98055	44481
21.98867	42318
21.99680	42493
22.00492	47747
22.01305	43095
22.02117	42482
22.02928	45030
22.03742	45396
22.04553	48450
22.05367	51407
22.06178	49161
22.06990	49852
22.07803	48260
22.08615	45556
22.09427	46093
22.10240	47241
22.11052	47860
22.11865	45239
22.12677	45039
22.13488	45159
22.14302	47720
22.15113	50122
22.15927	57477
22.16738	62977
22.17550	69824
22.18363	67370
22.19175	61552
22.19988	60698
22.20800	53364
22.21612	52141
22.22425	46390
22.23237	44889
22.24048	42752
22.24862	43187
22.25673	45479
22.26487	48843
22.27298	52644
22.28110	72724
22.28923	89343
22.29735	117841
22.30548	126618
22.31360	120167
22.32172	101951
22.32985	82645
22.33797	71243
22.34608	64940
22.35422	58598
22.36233	54054
22.37047	52974
22.37858	50926
22.38670	45273
22.39483	47993
22.40295	49776
22.41108	54353
22.41920	63101
22.42732	73538
22.43545	83087
22.44357	86876
22.45170	73060
22.45982	68931
22.46793	59881
22.47607	55469
22.48418	52627
22.49230	49632
22.50043	49321
22.50855	47613
22.51668	43877
22.52480	45218
22.53292	47111
22.54105	48049
22.54917	51722
22.55730	50848
22.56542	49991
22.57353	46465
22.58167	48855
22.58978	44786
22.59792	42592
22.60603	44686
22.61415	40168
22.62228	41038
22.63040	40055
22.63852	46423
22.64665	38647
22.65477	39061
22.66290	40795
22.67102	41124
22.67913	42111
22.68727	39888
22.69538	43622
22.70352	39752
22.71163	40863
22.71975	42161
22.72788	42254
22.73600	39787
22.74412	38844
22.75225	38577
22.76037	36750
22.76850	40871
22.77662	39182
22.78473	38604
22.79287	41723
22.80098	34552
22.80912	36955
22.81723	36322
22.82535	37009
22.83348	40877
22.84160	36233
22.84973	36669
22.85785	39968
22.86597	38807
22.87410	42454
22.88222	50397
22.89033	50511
22.89847	67897
22.90658	102760
22.91472	155580
22.92283	216889
22.93095	288462
22.93908	331870
22.94720	334283
22.95533	325211
22.96345	286893
22.97157	245816
22.97970	215494
22.98782	196824
22.99593	173259
23.00407	146005
23.01218	126355
23.02032	104102
23.02843	90350
23.03655	82418
23.04468	66159
23.05280	64824
23.06093	63040
23.06905	63182
23.07717	61097
23.08530	59952
23.09342	57165
23.10155	62705
23.10967	63733
23.11778	69401
23.12592	62633
23.13403	63463
23.14215	63557
23.15028	60536
23.15840	56370
23.16653	54672
23.17465	58019
23.18277	56426
23.19090	63682
23.19902	76137
23.20715	77090
23.21527	83884
23.22338	84730
23.23152	81056
23.23963	73590
23.24777	75201
23.25588	65788
23.26400	63289
23.27213	64526
23.28025	72707
23.28837	70730
23.29650	63738
23.30462	59237
23.31275	58769
23.32087	56846
23.32898	57239
23.33712	53740
23.34523	49650
23.35337	54321
23.36148	50866
23.36960	51392
23.37773	52112
23.38585	48506
23.39398	51150
23.40210	46819
23.41022	49205
23.41835	48530
23.42647	49420
23.43458	48949
23.44272	47651
23.45083	43949
23.45897	46428
23.46708	48702
23.47520	47035
23.48333	47508
23.49145	45498
23.49958	46827
23.50770	49915
23.51582	45977
23.52395	46047
23.53207	44535
23.54018	48853
23.54832	46745
23.55643	48796
23.56457	49088
23.57268	46077
23.58080	44076
23.58893	48300
23.59705	48329
23.60518	49586
23.61330	46602
23.62142	44454
23.62955	47191
23.63767	48121
23.64580	47943
23.65392	50794
23.66203	51020
23.67017	50138
23.67828	50878
23.68640	47595
23.69453	49324
23.70265	47444
23.71078	51900
23.71890	62456
23.72702	128364
23.73515	348486
23.74327	1021801
23.75140	2957394
23.75952	7080857
23.76763	1.174376E+07
23.77577	1.531538E+07
23.78388	1.60959E+07
23.79200	1.455656E+07
23.80013	1.160373E+07
23.80825	8085759
23.81638	5344421
23.82450	3664476
23.83262	2633060
23.84075	1941031
23.84887	1594384
23.85700	1452443
23.86512	1613999
23.87323	1898672
23.88137	2225825
23.88948	2457446
23.89762	2460027
23.90573	2170960
23.91385	1776252
23.92198	1395292
23.93010	1083519
23.93822	885322
23.94635	729670
23.95447	603235
23.96260	531133
23.97072	473608
23.97883	436150
23.98697	394599
23.99508	360233
24.00322	335712
24.01133	307373
24.01945	301970
24.02758	289108
24.03570	286120
24.04382	275195
24.05195	279346
24.06007	272362
24.06820	280534
24.07632	274694
24.08443	257974
24.09257	239958
24.10068	232806
24.10882	225215
24.11693	213250
24.12505	218761
24.13318	218088
24.14130	229373
24.14943	234863
24.15755	233836
24.16567	225742
24.17380	208765
24.18192	186758
24.19003	175308
24.19817	169006
24.20628	162318
24.21442	157129
24.22253	152139
24.23065	141618
24.23878	134548
24.24690	133291
24.25503	131611
24.26315	131624
24.27127	130594
24.27940	124274
24.28752	124192
24.29565	131179
24.30377	136710
24.31188	149682
24.32002	169747
24.32813	175129
24.33625	179189
24.34438	163300
24.35250	146020
24.36063	130315
24.36875	120334
24.37687	112793
24.38500	113397
24.39312	105553
24.40125	110856
24.40937	111598
24.41748	119137
24.42562	136809
24.43373	151184
24.44187	160867
24.44998	164698
24.45810	152467
24.46623	150916
24.47435	137460
24.48247	134570
24.49060	116948
24.49872	112157
24.50685	107873
24.51497	103779
24.52308	101095
24.53122	98426
24.53933	96851
24.54747	89885
24.55558	90952
24.56370	89004
24.57183	92261
24.57995	87777
24.58807	85087
24.59620	89047
24.60432	86331
24.61245	88400
24.62057	89042
24.62868	84673
24.63682	84692
24.64493	93879
24.65307	98857
24.66118	94907
24.66930	90319
24.67743	94034
24.68555	89588
24.69368	84077
24.70180	78793
24.70992	82033
24.71805	78776
24.72617	73010
24.73428	76137
24.74242	72785
24.75053	77026
24.75867	70441
24.76678	73149
24.77490	70035
24.78303	68586
24.79115	63931
24.79928	74444
24.80740	70863
24.81552	67538
24.82365	70225
24.83177	69378
24.83988	66248
24.84802	71938
24.85613	71640
24.86427	70249
24.87238	67818
24.88050	66453
24.88863	70692
24.89675	68649
24.90488	66345
24.91300	62132
24.92112	66488
24.92925	64229
24.93737	70200
24.94550	66673
24.95362	64951
24.96173	64056
24.96987	67042
24.97798	69160
24.98610	63101
24.99423	70815
25.00235	66144
25.01048	63230
25.01860	62162
25.02672	58288
25.03485	63967
25.04297	66865
25.05110	61330
25.05922	64311
25.06733	92245
25.07547	177593
25.08358	400457
25.09172	860676
25.09983	1509292
25.10795	2016698
25.11608	2059707
25.12420	1796416
25.13232	1383243
25.14045	986543
25.14857	752078
25.15670	558748
25.16482	438122
25.17293	366145
25.18107	301485
25.18918	260602
25.19732	219110
25.20543	199232
25.21355	180102
25.22168	161111
25.22980	150692
25.23792	143700
25.24605	130773
25.25417	126981
25.26230	127446
25.27042	117201
25.27853	113931
25.28667	122474
25.29478	106803
25.30292	105855
25.31103	108066
25.31915	104202
25.32728	100791
25.33540	94197
25.34353	93807
25.35165	86056
25.35977	91063
25.36790	85109
25.37602	91218
25.38413	90793
25.39227	97537
25.40038	97655
25.40852	96343
25.41663	94113
25.42475	93179
25.43288	90566
25.44100	91065
25.44913	80183
25.45725	76565
25.46537	77401
25.47350	80726
25.48162	78029
25.48975	72894
25.49787	76057
25.50598	70500
25.51412	72261
25.52223	66926
25.53035	65412
25.53848	69493
25.54660	69939
25.55473	72758
25.56285	65718
25.57097	66217
25.57910	68112
25.58722	62966
25.59535	63066
25.60347	64671
25.61158	61856
25.61972	62805
25.62783	62886
25.63595	61685
25.64408	64337
25.65220	59102
25.66033	59561
25.66845	63663
25.67657	61037
25.68470	64472
25.69282	59533
25.70095	59468
25.70907	59284
25.71718	59894
25.72532	60820
25.73343	59470
25.74157	59877
25.74968	58171
25.75780	58456
25.76593	54618
25.77405	60596
25.78217	55479
25.79030	58047
25.79842	54898
25.80655	56251
25.81467	60864
25.82278	53795
25.83092	50320
25.83903	53999
25.84717	58649
25.85528	52864
25.86340	53054
25.87153	53551
25.87965	56953
25.88777	51329
25.89590	54605
25.90402	55873
25.91215	55346
25.92027	54956
25.92838	51604
25.93652	53697
25.94463	53086
25.95277	59900
25.96088	53039
25.96900	55902
25.97713	55024
25.98525	56162
25.99338	56174
26.00150	53038
26.00962	51530
26.01775	56630
26.02587	57707
26.03398	57219
26.04212	57061
26.05023	54943
26.05837	58807
26.06648	53369
26.07460	51363
26.08273	52307
26.09085	53846
26.09898	56950
26.10710	54827
26.11522	55235
26.12335	57394
26.13147	60781
26.13960	60718
26.14772	59550
26.15583	57905
26.16397	56521
26.17208	60895
26.18020	56853
26.18833	56847
26.19645	54734
26.20458	55447
26.21270	55827
26.22082	56875
26.22895	55583
26.23707	55801
26.24520	52877
26.25332	53535
26.26143	53861
26.26957	53403
26.27768	52339
26.28580	50976
26.29393	52657
26.30205	54176
26.31018	52309
26.31830	52755
26.32642	56319
26.33455	51807
26.34267	52536
26.35080	54618
26.35892	51125
26.36703	52172
26.37517	58182
26.38328	51876
26.39142	48751
26.39953	49051
26.40765	47414
26.41578	50595
26.42390	54477
26.43202	52738
26.44015	50224
26.44827	53728
26.45640	47861
26.46452	50450
26.47263	48858
26.48077	52112
26.48888	48862
26.49702	52930
26.50513	52876
26.51325	51606
26.52138	48785
26.52950	49540
26.53763	47117
26.54575	47808
26.55387	51383
26.56200	54612
26.57012	48990
26.57823	55776
26.58637	52000
26.59448	53401
26.60262	55270
26.61073	54159
26.61885	58055
26.62698	59172
26.63510	57675
26.64323	64166
26.65135	62308
26.65947	65284
26.66760	70743
26.67572	66710
26.68383	66892
26.69197	66130
26.70008	63465
26.70822	61477
26.71633	62208
26.72445	64585
26.73258	64571
26.74070	67155
26.74883	64939
26.75695	67939
26.76507	71650
26.77320	73854
26.78132	76081
26.78945	73611
26.79757	75483
26.80568	69876
26.81382	67872
26.82193	73822
26.83005	72369
26.83818	68957
26.84630	72664
26.85443	74729
26.86255	73969
26.87067	84408
26.87880	85084
26.88692	90682
26.89505	94112
26.90317	106225
26.91128	112179
26.91942	136330
26.92753	213196
26.93567	432369
26.94378	1065564
26.95190	2874920
26.96003	8082930
26.96815	1.9028E+07
26.97627	3.009084E+07
26.98440	3.58823E+07
26.99252	3.489902E+07
27.00065	3.150217E+07
27.00877	2.789231E+07
27.01688	2.332977E+07
27.02502	1.863494E+07
27.03313	1.455916E+07
27.04127	1.112742E+07
27.04938	8366122
27.05750	6037099
27.06563	4254863
27.07375	3055126
27.08187	2247998
27.09000	1769571
27.09812	1397934
27.10625	1149230
27.11437	965926
27.12248	809343
27.13062	707938
27.13873	629485
27.14687	584515
27.15498	524992
27.16310	464150
27.17123	437412
27.17935	408328
27.18748	368769
27.19560	351878
27.20372	328613
27.21185	315994
27.21997	299853
27.22808	285342
27.23622	264112
27.24433	255409
27.25247	243302
27.26058	231184
27.26870	228758
27.27683	215163
27.28495	203382
27.29308	199280
27.30120	192543
27.30932	196234
27.31745	189051
27.32557	179775
27.33368	165491
27.34182	166381
27.34993	162494
27.35807	155851
27.36618	154849
27.37430	161418
27.38243	156692
27.39055	145238
27.39868	154266
27.40680	148363
27.41492	145709
27.42305	143558
27.43117	145353
27.43930	154183
27.44742	153266
27.45553	151227
27.46367	142760
27.47178	142262
27.47990	132977
27.48803	124931
27.49615	125252
27.50428	121545
27.51240	118977
27.52052	124454
27.52865	130941
27.53677	154106
27.54490	204636
27.55302	326927
27.56113	511849
27.56927	786446
27.57738	1111458
27.58552	1377861
27.59363	1508779
27.60175	1512967
27.60988	1340565
27.61800	1137476
27.62612	926601
27.63425	724155
27.64237	573326
27.65050	459700
27.65862	372787
27.66673	302783
27.67487	279087
27.68298	246028
27.69112	217963
27.69923	202214
27.70735	179385
27.71548	171420
27.72360	164794
27.73172	158274
27.73985	147824
27.74797	134695
27.75610	133684
27.76422	130065
27.77233	125963
27.78047	120337
27.78858	117492
27.79672	119050
27.80483	112538
27.81295	109404
27.82108	111761
27.82920	105782
27.83733	104022
27.84545	104493
27.85357	99865
27.86170	93422
27.86982	100845
27.87793	93817
27.88607	97244
27.89418	90275
27.90232	92640
27.91043	87496
27.91855	90120
27.92668	86494
27.93480	83541
27.94293	84973
27.95105	82641
27.95917	86012
27.96730	80041
27.97542	79949
27.98355	78476
27.99167	78345
27.99978	77790
28.00792	76341
28.01603	70214
28.02415	74100
28.03228	69619
28.04040	74482
28.04853	69686
28.05665	70572
28.06477	68493
28.07290	68608
28.08102	74018
28.08915	74645
28.09727	80828
28.10538	91516
28.11352	104429
28.12163	107354
28.12975	109179
28.13788	106975
28.14600	99386
28.15413	87540
28.16225	83233
28.17037	75328
28.17850	73192
28.18662	76409
28.19475	72492
28.20287	74747
28.21098	73291
28.21912	73909
28.22723	89314
28.23537	122682
28.24348	193367
28.25160	320329
28.25973	547556
28.26785	863251
28.27597	1321360
28.28410	1893506
28.29222	2534299
28.30035	3299833
28.30847	3964441
28.31658	4222163
28.32472	4218828
28.33283	3919072
28.34097	3619093
28.34908	3166314
28.35720	2651835
28.36533	2185975
28.37345	1808187
28.38157	1467484
28.38970	1197826
28.39782	984608
28.40595	818759
28.41407	675748
28.42218	575989
28.43032	488267
28.43843	416406
28.44657	365915
28.45468	318508
28.46280	287794
28.47093	260371
28.47905	244316
28.48718	230964
28.49530	205029
28.50342	193246
28.51155	187349
28.51967	185575
28.52778	167729
28.53592	163021
28.54403	153536
28.55217	148364
28.56028	140279
28.56840	146945
28.57653	136290
28.58465	132708
28.59278	128326
28.60090	117477
28.60902	125005
28.61715	123462
28.62527	118779
28.63340	118730
28.64152	122015
28.64963	124438
28.65777	140586
28.66588	161749
28.67400	186356
28.68213	214764
28.69025	247313
28.69838	281352
28.70650	291233
28.71462	298205
28.72275	285823
28.73087	288134
28.73900	272732
28.74712	256721
28.75523	249290
28.76337	234261
28.77148	215565
28.77962	198323
28.78773	191930
28.79585	173649
28.80398	160111
28.81210	143378
28.82022	138937
28.82835	133077
28.83647	122213
28.84460	123044
28.85272	112462
28.86083	120412
28.86897	107593
28.87708	105554
28.88522	105092
28.89333	99526
28.90145	100694
28.90958	94629
28.91770	93208
28.92582	90361
28.93395	90986
28.94207	87530
28.95020	90864
28.95832	99503
28.96643	89182
28.97457	93134
28.98268	87115
28.99082	83555
28.99893	79997
29.00705	86098
29.01518	79855
29.02330	76171
29.03143	75562
29.03955	72976
29.04767	75373
29.05580	71286
29.06392	72666
29.07203	73778
29.08017	67225
29.08828	71314
29.09642	68933
29.10453	73719
29.11265	71509
29.12078	68159
29.12890	70691
29.13703	67896
29.14515	67475
29.15327	66253
29.16140	67886
29.16952	66196
29.17763	65775
29.18577	67457
29.19388	66923
29.20202	66409
29.21013	63792
29.21825	63977
29.22638	64757
29.23450	69092
29.24263	64762
29.25075	67012
29.25887	63539
29.26700	66602
29.27512	62912
29.28325	62669
29.29137	62534
29.29948	61271
29.30762	57007
29.31573	62484
29.32385	59797
29.33198	56414
29.34010	54900
29.34823	63164
29.35635	55338
29.36447	55962
29.37260	58013
29.38072	60991
29.38885	61006
29.39697	66875
29.40508	71743
29.41322	71900
29.42133	67119
29.42947	65247
29.43758	55662
29.44570	57408
29.45383	59028
29.46195	58169
29.47007	55106
29.47820	61480
29.48632	57970
29.49445	57426
29.50257	61257
29.51068	54231
29.51882	57952
29.52693	57080
29.53507	56166
29.54318	57008
29.55130	52653
29.55943	52065
29.56755	48747
29.57567	50750
29.58380	50773
29.59192	51595
29.60005	54229
29.60817	56002
29.61628	55048
29.62442	52881
29.63253	50141
29.64067	51738
29.64878	51561
29.65690	50364
29.66503	52615
29.67315	50834
29.68128	50728
29.68940	46940
29.69752	52909
29.70565	50835
29.71377	46902
29.72188	46538
29.73002	47072
29.73813	45816
29.74627	43666
29.75438	48491
29.76250	47316
29.77063	46946
29.77875	46977
29.78688	50050
29.79500	45018
29.80312	46064
29.81125	44407
29.81937	45113
29.82750	44954
29.83562	51384
29.84373	49637
29.85187	55136
29.85998	68681
29.86810	91637
29.87623	136081
29.88435	178518
29.89248	258227
29.90060	326438
29.90872	402235
29.91685	469334
29.92497	538225
29.93310	599605
29.94122	618778
29.94933	639310
29.95747	663761
29.96558	649019
29.97370	595007
29.98183	563162
29.98995	517855
29.99808	458964
30.00620	415759
30.01432	390277
30.02245	357889
30.03057	317542
30.03870	282376
30.04682	249810
30.05493	237780
30.06307	218986
30.07118	198752
30.07932	178171
30.08743	160894
30.09555	150202
30.10368	139342
30.11180	138999
30.11992	131806
30.12805	139388
30.13617	135907
30.14430	132155
30.15242	134557
30.16053	133493
30.16867	132844
30.17678	131863
30.18492	129102
30.19303	132458
30.20115	129240
30.20928	125318
30.21740	119171
30.22552	113898
30.23365	116289
30.24177	104004
30.24990	109505
30.25802	101542
30.26613	99318
30.27427	95599
30.28238	90513
30.29052	88995
30.29863	84908
30.30675	83851
30.31488	80582
30.32300	78355
30.33113	80105
30.33925	74628
30.34737	69274
30.35550	67723
30.36362	68522
30.37173	71546
30.37987	67138
30.38798	62794
30.39612	61876
30.40423	67072
30.41235	60915
30.42048	61772
30.42860	60641
30.43673	54235
30.44485	55231
30.45297	56127
30.46110	62172
30.46922	55481
30.47735	55308
30.48547	53026
30.49358	54913
30.50172	56003
30.50983	50546
30.51795	54498
30.52608	51413
30.53420	54754
30.54233	51258
30.55045	57523
30.55857	51287
30.56670	52795
30.57482	50854
30.58295	47276
30.59107	51585
30.59918	49344
30.60732	53604
30.61543	52683
30.62355	53240
30.63168	51931
30.63980	47657
30.64793	51341
30.65605	51930
30.66417	47491
30.67230	45850
30.68042	49988
30.68855	46722
30.69667	46993
30.70478	43760
30.71292	44707
30.72103	48704
30.72917	44859
30.73728	47027
30.74540	49016
30.75353	47119
30.76165	44074
30.76977	48319
30.77790	45520
30.78602	43883
30.79415	44988
30.80227	45651
30.81038	48347
30.81852	45634
30.82663	51831
30.83477	49393
30.84288	45912
30.85100	46500
30.85913	47100
30.86725	42449
30.87538	43933
30.88350	46588
30.89162	45322
30.89975	48359
30.90787	43571
30.91598	45669
30.92412	44049
30.93223	45035
30.94037	45491
30.94848	45204
30.95660	42463
30.96473	42522
30.97285	45174
30.98098	37313
30.98910	41070
30.99722	40355
31.00535	41410
31.01347	44725
31.02158	40135
31.02972	39770
31.03783	40361
31.04597	45892
31.05408	44547
31.06220	50780
31.07033	56249
31.07845	63748
31.08658	82455
31.09470	96137
31.10282	94893
31.11095	94563
31.11907	84973
31.12720	79752
31.13532	80080
31.14343	72590
31.15157	66613
31.15968	63135
31.16780	65302
31.17593	64261
31.18405	69884
31.19218	68437
31.20030	74071
31.20842	79421
31.21655	80147
31.22467	72538
31.23280	66773
31.24092	63512
31.24903	56722
31.25717	52648
31.26528	52727
31.27342	48768
31.28153	50172
31.28965	47456
31.29778	45590
31.30590	51124
31.31402	55011
31.32215	55387
31.33027	58262
31.33840	57081
31.34652	51091
31.35463	48168
31.36277	45536
31.37088	46162
31.37902	45204
31.38713	48506
31.39525	43117
31.40338	45480
31.41150	46028
31.41962	47328
31.42775	50808
31.43587	44590
31.44400	46099
31.45212	42663
31.46023	43447
31.46837	43112
31.47648	41831
31.48462	44701
31.49273	43152
31.50085	46426
31.50898	40438
31.51710	42702
31.52523	42081
31.53335	45768
31.54147	45055
31.54960	43451
31.55772	43946
31.56583	45590
31.57397	46262
31.58208	45161
31.59022	44010
31.59833	44304
31.60645	40813
31.61458	40912
31.62270	39713
31.63083	41904
31.63895	38160
31.64707	42785
31.65520	44517
31.66332	40655
31.67143	39344
31.67957	40029
31.68768	36783
31.69582	41225
31.70393	41136
31.71205	40332
31.72018	40397
31.72830	39993
31.73643	38134
31.74455	37675
31.75267	36472
31.76080	39095
31.76892	41026
31.77705	40988
31.78517	40111
31.79328	45242
31.80142	50583
31.80953	58559
31.81765	76254
31.82578	96726
31.83390	129026
31.84203	160429
31.85015	202374
31.85827	236685
31.86640	275144
31.87452	285017
31.88265	290370
31.89077	270884
31.89888	267661
31.90702	267374
31.91513	246889
31.92327	222344
31.93138	211692
31.93950	190742
31.94763	173767
31.95575	161607
31.96387	165150
31.97200	164527
31.98012	170417
31.98825	168005
31.99637	156403
32.00448	144982
32.01262	131563
32.02073	126607
32.02887	117729
32.03698	107691
32.04510	101625
32.05323	98993
32.06135	91226
32.06947	88639
32.07760	82062
32.08572	76756
32.09385	72097
32.10197	71111
32.11008	71143
32.11822	67636
32.12633	65363
32.13447	63448
32.14258	61886
32.15070	66723
32.15883	59788
32.16695	56765
32.17508	55613
32.18320	50803
32.19132	49641
32.19945	54430
32.20757	50218
32.21568	53876
32.22382	52403
32.23193	52141
32.24007	52451
32.24818	55077
32.25630	49282
32.26443	52783
32.27255	48435
32.28068	46601
32.28880	47320
32.29692	48697
32.30505	46934
32.31317	48762
32.32130	44683
32.32942	49156
32.33753	48582
32.34567	49487
32.35378	52573
32.36190	48962
32.37003	51951
32.37815	52002
32.38628	48000
32.39440	52915
32.40252	46616
32.41065	47348
32.41877	45334
32.42690	43115
32.43502	46254
32.44313	46526
32.45127	46050
32.45938	44717
32.46750	45632
32.47563	41891
32.48375	43360
32.49188	44801
32.50000	41364
32.50812	45729
32.51625	42009
32.52437	40696
32.53250	42614
32.54062	45104
32.54873	48242
32.55687	48371
32.56498	59798
32.57312	65176
32.58123	76156
32.58935	69118
32.59748	72303
32.60560	59879
32.61372	53347
32.62185	52881
32.62997	47975
32.63810	44422
32.64622	44966
32.65433	47962
32.66247	47662
32.67058	43752
32.67872	44562
32.68683	42808
32.69495	44097
32.70308	46044
32.71120	42523
32.71932	44911
32.72745	46683
32.73557	46033
32.74370	43679
32.75182	43295
32.75993	45728
32.76807	41096
32.77618	41426
32.78432	43724
32.79243	39493
32.80055	38830
32.80868	40319
32.81680	43216
32.82493	42165
32.83305	41256
32.84117	43962
32.84930	37584
32.85742	41869
32.86553	38463
32.87367	36788
32.88178	42629
32.88992	39692
32.89803	42082
32.90615	40497
32.91428	40995
32.92240	39690
32.93053	43540
32.93865	37360
32.94677	38727
32.95490	41944
32.96302	39216
32.97115	39576
32.97927	40221
32.98738	38642
32.99552	41470
33.00363	41060
33.01175	37333
33.01988	39557
33.02800	39419
33.03613	39439
33.04425	38758
33.05237	35968
33.06050	39259
33.06862	38900
33.07675	45253
33.08487	50332
33.09298	53983
33.10112	57748
33.10923	62250
33.11735	62814
33.12548	61650
33.13360	56008
33.14173	55173
33.14985	50165
33.15797	50137
33.16610	48453
33.17422	54023
33.18235	55376
33.19047	50288
33.19858	56624
33.20672	57130
33.21483	55510
33.22297	53228
33.23108	54626
33.23920	53258
33.24733	50617
33.25545	46414
33.26357	47592
33.27170	44097
33.27982	47814
33.28795	43630
33.29607	47447
33.30418	47234
33.31232	43490
33.32043	44502
33.32857	44102
33.33668	45897
33.34480	38580
33.35293	42637
33.36105	43263
33.36918	44943
33.37730	43507
33.38542	44916
33.39355	47979
33.40167	41199
33.40978	45824
33.41792	40638
33.42603	40602
33.43417	39088
33.44228	40000
33.45040	42329
33.45853	41410
33.46665	38166
33.47478	42637
33.48290	40023
33.49102	41162
33.49915	39594
33.50727	41856
33.51538	40456
33.52352	39810
33.53163	40974
33.53977	39719
33.54788	38754
33.55600	38780
33.56413	42636
33.57225	41589
33.58038	41136
33.58850	38898
33.59662	43224
33.60475	39650
33.61287	36980
33.62100	36467
33.62912	40209
33.63723	42245
33.64537	40533
33.65348	39618
33.66160	39273
33.66973	37874
33.67785	40929
33.68598	38977
33.69410	41300
33.70222	42842
33.71035	39528
33.71847	39930
33.72660	46037
33.73472	46781
33.74283	49705
33.75097	50104
33.75908	55397
33.76720	48915
33.77533	48629
33.78345	46764
33.79158	47125
33.79970	41272
33.80782	42846
33.81595	43079
33.82407	46489
33.83220	45231
33.84032	46353
33.84843	47072
33.85657	49486
33.86468	45087
33.87282	40437
33.88093	44486
33.88905	40783
33.89718	40128
33.90530	41535
33.91342	40325
33.92155	38601
33.92967	39970
33.93780	38520
33.94592	41709
33.95403	41066
33.96217	40697
33.97028	46636
33.97842	41869
33.98653	42226
33.99465	40620
34.00278	40286
34.01090	43168
34.01903	41115
34.02715	44488
34.03527	38242
34.04340	40765
34.05152	39418
34.05963	42883
34.06777	40511
34.07588	42403
34.08402	40560
34.09213	36322
34.10025	37779
34.10838	41430
34.11650	37532
34.12463	38157
34.13275	41455
34.14087	37075
34.14900	37662
34.15712	40974
34.16525	40316
34.17337	38559
34.18148	38917
34.18962	38513
34.19773	39821
34.20585	36964
34.21398	38640
34.22210	36818
34.23023	38331
34.23835	39916
34.24647	40118
34.25460	38708
34.26272	39547
34.27085	37422
34.27897	38333
34.28708	39485
34.29522	37640
34.30333	40107
34.31145	40719
34.31958	40727
34.32770	41294
34.33583	37438
34.34395	41314
34.35207	37749
34.36020	39903
34.36832	40713
34.37645	41096
34.38457	39806
34.39268	40987
34.40082	42769
34.40893	41853
34.41707	49370
34.42518	63018
34.43330	85939
34.44143	113079
34.44955	148836
34.45767	182050
34.46580	207445
34.47392	223995
34.48205	219562
34.49017	212802
34.49828	201571
34.50642	179357
34.51453	157430
34.52267	145151
34.53078	129190
34.53890	118681
34.54703	101756
34.55515	97883
34.56327	91972
34.57140	85384
34.57952	78364
34.58765	75982
34.59577	70488
34.60388	69856
34.61202	66118
34.62013	68370
34.62827	61407
34.63638	64592
34.64450	61571
34.65263	59421
34.66075	58671
34.66888	53928
34.67700	58280
34.68512	55021
34.69325	52604
34.70137	53387
34.70948	49181
34.71762	54078
34.72573	54293
34.73387	52208
34.74198	54382
34.75010	52068
34.75823	48719
34.76635	50844
34.77448	47398
34.78260	45845
34.79072	46624
34.79885	45962
34.80697	45705
34.81510	46405
34.82322	48483
34.83133	46969
34.83947	48767
34.84758	46942
34.85570	49235
34.86383	53322
34.87195	50594
34.88008	52862
34.88820	48073
34.89632	49994
34.90445	45199
34.91257	51869
34.92070	48177
34.92882	43859
34.93693	44074
34.94507	45178
34.95318	47396
34.96130	48260
34.96943	44164
34.97755	41805
34.98568	46667
34.99380	46494
35.00192	42116
35.01005	44821
35.01817	49673
35.02630	51334
35.03442	51879
35.04253	51816
35.05067	53874
35.05878	54813
35.06692	57291
35.07503	55489
35.08315	55453
35.09128	52071
35.09940	50621
35.10752	51333
35.11565	50334
35.12377	48222
35.13190	52795
35.14002	46163
35.14813	47893
35.15627	48026
35.16438	46564
35.17252	46494
35.18063	45473
35.18875	48191
35.19688	44682
35.20500	44536
35.21313	47572
35.22125	46143
35.22937	47222
35.23750	46034
35.24562	44150
35.25373	47875
35.26187	45934
35.26998	47510
35.27812	44796
35.28623	47734
35.29435	45313
35.30248	45788
35.31060	43175
35.31873	46684
35.32685	42296
35.33497	41811
35.34310	43713
35.35122	43583
35.35933	45471
35.36747	44069
35.37558	44191
35.38372	43999
35.39183	48007
35.39995	41057
35.40808	45103
35.41620	46318
35.42433	47424
35.43245	50043
35.44057	46148
35.44870	46090
35.45682	47188
35.46495	48881
35.47307	51090
35.48118	50337
35.48932	51067
35.49743	49307
35.50555	45772
35.51368	44221
35.52180	52307
35.52993	50661
35.53805	45125
35.54617	56907
35.55430	64065
35.56242	71551
35.57055	81988
35.57867	84096
35.58678	84424
35.59492	76726
35.60303	76770
35.61115	65383
35.61928	59747
35.62740	56525
35.63553	56475
35.64365	54668
35.65177	55630
35.65990	52553
35.66802	52815
35.67615	54191
35.68427	48143
35.69238	47502
35.70052	53032
35.70863	52042
35.71677	50385
35.72488	49256
35.73300	46199
35.74113	44110
35.74925	50831
35.75737	49133
35.76550	51596
35.77362	48306
35.78175	48036
35.78987	49581
35.79798	52333
35.80612	58892
35.81423	57399
35.82237	61210
35.83048	59217
35.83860	56489
35.84673	53560
35.85485	51434
35.86298	52444
35.87110	51137
35.87922	45806
35.88735	47411
35.89547	47907
35.90358	47631
35.91172	47625
35.91983	46852
35.92797	43913
35.93608	44869
35.94420	45664
35.95233	50005
35.96045	47113
35.96858	51418
35.97670	46102
35.98482	50029
35.99295	50137
36.00107	54495
36.00918	50808
36.01732	53934
36.02543	52578
36.03357	55813
36.04168	53211
36.04980	50712
36.05793	49014
36.06605	50478
36.07418	51264
36.08230	48439
36.09042	48798
36.09855	48979
36.10667	50964
36.11480	53217
36.12292	51187
36.13103	57993
36.13917	62661
36.14728	53642
36.15540	57709
36.16353	58049
36.17165	61928
36.17978	66228
36.18790	67329
36.19602	70695
36.20415	72283
36.21227	88737
36.22040	95616
36.22852	98981
36.23663	94787
36.24477	86620
36.25288	79950
36.26102	75948
36.26913	67339
36.27725	67308
36.28538	65153
36.29350	61896
36.30162	63248
36.30975	59448
36.31787	61662
36.32600	56409
36.33412	54978
36.34223	52075
36.35037	51949
36.35848	53415
36.36662	47654
36.37473	53557
36.38285	53341
36.39098	50798
36.39910	49506
36.40722	51196
36.41535	49740
36.42347	50244
36.43160	49639
36.43972	54928
36.44783	51139
36.45597	51017
36.46408	51409
36.47222	47617
36.48033	47280
36.48845	50772
36.49658	48170
36.50470	50290
36.51283	46662
36.52095	50729
36.52907	51270
36.53720	52939
36.54532	58801
36.55343	63269
36.56157	67442
36.56968	63129
36.57782	63532
36.58593	58267
36.59405	57234
36.60218	52676
36.61030	53668
36.61843	49603
36.62655	47112
36.63467	49288
36.64280	50946
36.65092	54274
36.65905	52707
36.66717	48888
36.67528	49679
36.68342	51804
36.69153	51374
36.69965	46235
36.70778	47927
36.71590	50369
36.72403	47600
36.73215	47205
36.74027	49936
36.74840	50185
36.75652	49029
36.76465	47762
36.77277	53393
36.78088	48497
36.78902	48250
36.79713	46925
36.80525	50925
36.81338	50812
36.82150	48270
36.82963	49699
36.83775	49880
36.84587	51205
36.85400	49873
36.86212	46372
36.87025	48201
36.87837	51607
36.88648	50776
36.89462	48677
36.90273	53543
36.91087	50694
36.91898	46896
36.92710	53468
36.93523	53545
36.94335	50503
36.95147	54340
36.95960	50697
36.96772	46251
36.97585	52119
36.98397	50917
36.99208	47863
37.00022	52371
37.00833	48601
37.01647	48584
37.02458	50329
37.03270	51597
37.04083	53929
37.04895	53141
37.05707	48425
37.06520	48892
37.07332	53832
37.08145	57251
37.08957	60423
37.09768	59637
37.10582	59961
37.11393	54037
37.12207	63973
37.13018	54577
37.13830	52641
37.14643	55420
37.15455	55422
37.16268	59072
37.17080	58440
37.17892	59275
37.18705	55001
37.19517	53669
37.20328	54573
37.21142	55147
37.21953	68996
37.22767	81773
37.23578	100893
37.24390	131628
37.25203	165091
37.26015	195211
37.26828	203828
37.27640	202551
37.28452	192916
37.29265	170054
37.30077	149779
37.30890	130139
37.31702	109909
37.32513	99437
37.33327	92260
37.34138	87279
37.34950	83958
37.35763	81028
37.36575	78100
37.37388	75970
37.38200	73380
37.39012	76423
37.39825	72442
37.40637	67823
37.41450	65272
37.42262	65597
37.43073	64040
37.43887	65904
37.44698	66230
37.45510	66616
37.46323	70177
37.47135	63246
37.47948	61611
37.48760	60518
