Z:\data\JTB-E02\BACandBLUE\JTB-E18-001-13.D Fri Mar 15 11:56:53 2019
Start of data points
2.09520,53697
2.10332,52087
2.11143,56987
2.11957,49384
2.12768,55569
2.13582,53288
2.14393,49839
2.15205,54573
2.16018,53957
2.16830,57827
2.17642,52126
2.18455,54048
2.19267,48132
2.20080,45962
2.20892,45681
2.21703,52012
2.22517,46598
2.23328,43857
2.24142,40990
2.24953,44577
2.25765,48121
2.26578,48873
2.27390,190960
2.28203,1091031
2.29015,1284603
2.29827,554709
2.30640,343686
2.31452,282743
2.32263,247119
2.33077,216436
2.33888,199291
2.34702,182351
2.35513,169701
2.36325,152920
2.37138,143264
2.37950,142661
2.38763,133760
2.39575,127840
2.40387,122174
2.41200,121592
2.42012,118812
2.42823,127802
2.43637,115368
2.44448,111107
2.45262,115026
2.46073,110918
2.46885,99965
2.47698,104051
2.48510,101135
2.49323,100336
2.50135,111986
2.50947,102321
2.51760,95607
2.52572,96425
2.53385,91454
2.54197,93705
2.55008,92188
2.55822,101583
2.56633,128179
2.57445,129861
2.58258,106442
2.59070,100668
2.59883,96630
2.60695,139472
2.61507,417286
2.62320,593685
2.63132,370289
2.63945,240689
2.64757,192192
2.65568,160614
2.66382,140902
2.67193,131774
2.68007,115396
2.68818,110343
2.69630,105212
2.70443,103563
2.71255,95998
2.72067,98494
2.72880,92538
2.73692,89148
2.74505,91747
2.75317,92265
2.76128,86752
2.76942,90462
2.77753,81841
2.78567,79714
2.79378,83564
2.80190,85670
2.81003,85633
2.81815,82800
2.82627,82086
2.83440,83524
2.84252,82284
2.85065,82509
2.85877,85607
2.86688,79676
2.87502,79497
2.88313,77293
2.89127,80949
2.89938,82759
2.90750,76787
2.91563,70641
2.92375,76349
2.93188,77800
2.94000,78678
2.94812,75981
2.95625,76724
2.96437,77005
2.97248,94599
2.98062,84722
2.98873,84242
2.99687,78886
3.00498,78633
3.01310,86832
3.02123,80162
3.02935,80515
3.03748,77788
3.04560,72525
3.05372,75349
3.06185,75154
3.06997,78467
3.07810,79341
3.08622,228488
3.09433,978882
3.10247,2222023
3.11058,3792745
3.11870,5097003
3.12683,3886514
3.13495,2379807
3.14308,1734398
3.15120,1410191
3.15932,1176475
3.16745,976806
3.17557,843411
3.18370,714161
3.19182,634661
3.19993,571951
3.20807,500850
3.21618,449183
3.22430,412492
3.23243,367492
3.24055,345200
3.24868,320485
3.25680,294252
3.26492,277019
3.27305,256198
3.28117,258284
3.28930,276431
3.29742,577121
3.30553,1759901
3.31367,3664957
3.32178,4610971
3.32992,3828215
3.33803,2663773
3.34615,1880087
3.35428,1473934
3.36240,1232050
3.37052,1056858
3.37865,938736
3.38677,849771
3.39490,769029
3.40302,711671
3.41113,655801
3.41927,624564
3.42738,586375
3.43552,554772
3.44363,538627
3.45175,512427
3.45988,488112
3.46800,492378
3.47612,497409
3.48425,504471
3.49237,469756
3.50050,435684
3.50862,423546
3.51673,397810
3.52487,375330
3.53298,363243
3.54112,348947
3.54923,327536
3.55735,328343
3.56548,322138
3.57360,395540
3.58173,514639
3.58985,534451
3.59797,444043
3.60610,367735
3.61422,345685
3.62233,321640
3.63047,307830
3.63858,304315
3.64672,264593
3.65483,265860
3.66295,240938
3.67108,261179
3.67920,309824
3.68733,382299
3.69545,373211
3.70357,305086
3.71170,260205
3.71982,244915
3.72795,233988
3.73607,218904
3.74418,222952
3.75232,211175
3.76043,214342
3.76855,206147
3.77668,200284
3.78480,198873
3.79293,199063
3.80105,261610
3.80917,705458
3.81730,2011317
3.82542,3169429
3.83355,2750770
3.84167,1743917
3.84978,1177495
3.85792,953436
3.86603,800453
3.87417,695725
3.88228,629943
3.89040,546407
3.89853,518384
3.90665,477888
3.91477,448219
3.92290,417018
3.93102,399358
3.93915,368986
3.94727,407649
3.95538,702758
3.96352,1750123
3.97163,3137918
3.97977,3398136
3.98788,2404381
3.99600,1709511
4.00413,3038031
4.01225,8338762
4.02037,1.517662E+07
4.02850,1.574449E+07
4.03662,1.060337E+07
4.04475,5684601
4.05287,3449247
4.06098,2440291
4.06912,1915888
4.07723,1565831
4.08537,1323376
4.09348,1150243
4.10160,1004238
4.10973,889127
4.11785,802370
4.12598,728354
4.13410,668923
4.14222,632715
4.15035,616610
4.15847,594860
4.16658,566954
4.17472,552807
4.18283,537134
4.19097,529570
4.19908,472208
4.20720,432622
4.21533,400837
4.22345,417448
4.23158,452453
4.23970,502490
4.24782,479712
4.25595,423579
4.26407,374941
4.27218,339080
4.28032,334437
4.28843,324619
4.29657,296734
4.30468,290576
4.31280,285113
4.32093,269549
4.32905,268226
4.33718,275628
4.34530,273032
4.35342,247730
4.36155,251575
4.36967,238312
4.37780,242727
4.38592,238332
4.39403,230342
4.40217,229233
4.41028,220269
4.41840,223599
4.42653,221551
4.43465,208321
4.44278,206688
4.45090,211120
4.45902,208405
4.46715,198709
4.47527,196896
4.48340,199894
4.49152,188241
4.49963,184521
4.50777,190192
4.51588,193236
4.52400,185991
4.53213,181338
4.54025,178798
4.54838,179749
4.55650,179905
4.56462,179154
4.57275,180907
4.58087,174721
4.58900,173277
4.59712,173453
4.60523,162909
4.61337,162411
4.62148,159103
4.62962,165442
4.63773,160041
4.64585,160332
4.65398,165627
4.66210,156330
4.67022,154977
4.67835,158767
4.68647,158892
4.69460,161671
4.70272,161371
4.71083,152871
4.71897,156508
4.72708,151592
4.73522,149772
4.74333,147207
4.75145,141157
4.75958,145654
4.76770,142901
4.77583,138527
4.78395,142498
4.79207,145243
4.80020,160748
4.80832,176657
4.81643,185082
4.82457,179750
4.83268,174417
4.84082,180168
4.84893,188004
4.85705,178866
4.86518,173720
4.87330,170202
4.88143,163075
4.88955,155867
4.89767,146910
4.90580,143996
4.91392,145378
4.92205,140209
4.93017,140331
4.93828,159734
4.94642,268074
4.95453,594351
4.96265,1177051
4.97078,1719356
4.97890,1987084
4.98703,1740366
4.99515,1339448
5.00327,997078
5.01140,775584
5.01952,654602
5.02765,568551
5.03577,522963
5.04388,476584
5.05202,447993
5.06013,422163
5.06825,403362
5.07638,381253
5.08450,357781
5.09263,338120
5.10075,325781
5.10887,312389
5.11700,294700
5.12512,291171
5.13325,274093
5.14137,257852
5.14948,258224
5.15762,249486
5.16573,245530
5.17387,244629
5.18198,233998
5.19010,238498
5.19823,226830
5.20635,213484
5.21447,214227
5.22260,222253
5.23072,214838
5.23885,219723
5.24697,222787
5.25508,221849
5.26322,214498
5.27133,189765
5.27947,175086
5.28758,178363
5.29570,181609
5.30383,180128
5.31195,177865
5.32007,169722
5.32820,172890
5.33632,193371
5.34445,215630
5.35257,226643
5.36068,206425
5.36882,193539
5.37693,186657
5.38507,186677
5.39318,190842
5.40130,192956
5.40943,192210
5.41755,183196
5.42568,176312
5.43380,163993
5.44192,166813
5.45005,170708
5.45817,189479
5.46628,203756
5.47442,190448
5.48253,176886
5.49067,163023
5.49878,152541
5.50690,154504
5.51503,154075
5.52315,161339
5.53128,164438
5.53940,155479
5.54752,154437
5.55565,147321
5.56377,145659
5.57190,144368
5.58002,153652
5.58813,164674
5.59627,171877
5.60438,170119
5.61250,162218
5.62063,150781
5.62875,153856
5.63688,151652
5.64500,149195
5.65312,152035
5.66125,154993
5.66937,142396
5.67750,158794
5.68562,180227
5.69373,215355
5.70187,241105
5.70998,235775
5.71810,210635
5.72623,175492
5.73435,160597
5.74248,154593
5.75060,141048
5.75872,136950
5.76685,142224
5.77497,136037
5.78310,130413
5.79122,132922
5.79933,128790
5.80747,125956
5.81558,126377
5.82372,130217
5.83183,131037
5.83995,124710
5.84808,125794
5.85620,125729
5.86432,123209
5.87245,115873
5.88057,121180
5.88870,122116
5.89682,119009
5.90493,124404
5.91307,146630
5.92118,189999
5.92932,226832
5.93743,217973
5.94555,182452
5.95368,144323
5.96180,122780
5.96993,112873
5.97805,122311
5.98617,131749
5.99430,129863
6.00242,130375
6.01053,132537
6.01867,142407
6.02678,136417
6.03492,125233
6.04303,117268
6.05115,109204
6.05928,101134
6.06740,98676
6.07553,95687
6.08365,92361
6.09177,96676
6.09990,89043
6.10802,91543
6.11613,89733
6.12427,94816
6.13238,89594
6.14052,94547
6.14863,93913
6.15675,97098
6.16488,98289
6.17300,106362
6.18113,105361
6.18925,102258
6.19737,104492
6.20550,107836
6.21362,103719
6.22175,111530
6.22987,108080
6.23798,116404
6.24612,121275
6.25423,132425
6.26235,150457
6.27048,163329
6.27860,155213
6.28673,152852
6.29485,135211
6.30297,129301
6.31110,134928
6.31922,135438
6.32735,131987
6.33547,140389
6.34358,143918
6.35172,140338
6.35983,133181
6.36795,141725
6.37608,144742
6.38420,142503
6.39233,146485
6.40045,147892
6.40857,145905
6.41670,151440
6.42482,151411
6.43295,150325
6.44107,152080
6.44918,155278
6.45732,156899
6.46543,164075
6.47357,165574
6.48168,157882
6.48980,161641
6.49793,173444
6.50605,166155
6.51417,161488
6.52230,174006
6.53042,169924
6.53855,173702
6.54667,172298
6.55478,169942
6.56292,183598
6.57103,180518
6.57917,191231
6.58728,197012
6.59540,205546
6.60353,198988
6.61165,190746
6.61978,183008
6.62790,180307
6.63602,187782
6.64415,193529
6.65227,211719
6.66038,288276
6.66852,464272
6.67663,673304
6.68477,762184
6.69288,661526
6.70100,489332
6.70913,368668
6.71725,327331
6.72538,287335
6.73350,275466
6.74162,262718
6.74975,251641
6.75787,256197
6.76598,245151
6.77412,243270
6.78223,240670
6.79037,234162
6.79848,236846
6.80660,241894
6.81473,236936
6.82285,227926
6.83098,233687
6.83910,233219
6.84722,252034
6.85535,269888
6.86347,278812
6.87160,279863
6.87972,265559
6.88783,240386
6.89597,225214
6.90408,235657
6.91220,225014
6.92033,224372
6.92845,218836
6.93658,217260
6.94470,152281
6.95282,133123
6.96095,140964
6.96907,150799
6.97720,173615
6.98532,188146
6.99343,181254
7.00157,165837
7.00968,133891
7.01782,115959
7.02593,106581
7.03405,100023
7.04218,100681
7.05030,93548
7.05842,94308
7.06655,91701
7.07467,94211
7.08280,87876
7.09092,84210
7.09903,82747
7.10717,81673
7.11528,80897
7.12342,84232
7.13153,78182
7.13965,83910
7.14778,97927
7.15590,124144
7.16402,160952
7.17215,185924
7.18027,174948
7.18840,151668
7.19652,120826
7.20463,111888
7.21277,100277
7.22088,96677
7.22902,90893
7.23713,91123
7.24525,85020
7.25338,87533
7.26150,88254
7.26963,85217
7.27775,90521
7.28587,91362
7.29400,97794
7.30212,106967
7.31023,103816
7.31837,97948
7.32648,91004
7.33462,88462
7.34273,86962
7.35085,89747
7.35898,82608
7.36710,88681
7.37523,80935
7.38335,77803
7.39147,84935
7.39960,72936
7.40772,76179
7.41585,76822
7.42397,72817
7.43208,73424
7.44022,69951
7.44833,73905
7.45645,74516
7.46458,70429
7.47270,71045
7.48083,70207
7.48895,68074
7.49707,65117
7.50520,68720
7.51332,69576
7.52145,64995
7.52957,67639
7.53768,65239
7.54582,61888
7.55393,62574
7.56205,63128
7.57018,66022
7.57830,66138
7.58643,65977
7.59455,62558
7.60267,62090
7.61080,60790
7.61892,67997
7.62705,59857
7.63517,60745
7.64328,59956
7.65142,62679
7.65953,64360
7.66767,60280
7.67578,60244
7.68390,63045
7.69203,63726
7.70015,63580
7.70827,60324
7.71640,58280
7.72452,65779
7.73265,56830
7.74077,59161
7.74888,62704
7.75702,54881
7.76513,59264
7.77327,58292
7.78138,62718
7.78950,59760
7.79763,58463
7.80575,61054
7.81387,58028
7.82200,60294
7.83012,65703
7.83825,65911
7.84637,68485
7.85448,65742
7.86262,76355
7.87073,77063
7.87887,74411
7.88698,65596
7.89510,69223
7.90323,65559
7.91135,63684
7.91948,60499
7.92760,82702
7.93572,126994
7.94385,193317
7.95197,272130
7.96008,330098
7.96822,282931
7.97633,220183
7.98447,160427
7.99258,120306
8.00070,106135
8.00883,87985
8.01695,78315
8.02508,75011
8.03320,70866
8.04132,67290
8.04945,65058
8.05757,63896
8.06570,62332
8.07382,60385
8.08193,56366
8.09007,56247
8.09818,57011
8.10630,54955
8.11443,62658
8.12255,59831
8.13068,59268
8.13880,53492
8.14692,54217
8.15505,55273
8.16317,58465
8.17130,56164
8.17942,57000
8.18753,52439
8.19567,58782
8.20378,52248
8.21190,53829
8.22003,51067
8.22815,55246
8.23628,52905
8.24440,56320
8.25252,55700
8.26065,51774
8.26877,52404
8.27690,54199
8.28502,59971
8.29313,60359
8.30127,64716
8.30938,60479
8.31752,53861
8.32563,56286
8.33375,54157
8.34188,52918
8.35000,53603
8.35812,54369
8.36625,54663
8.37437,55132
8.38250,54578
8.39062,52471
8.39873,54417
8.40687,51755
8.41498,50382
8.42312,49484
8.43123,46439
8.43935,44172
8.44748,46137
8.45560,43724
8.46373,45757
8.47185,46974
8.47997,48966
8.48810,48254
8.49622,48000
8.50433,48177
8.51247,46415
8.52058,46837
8.52872,47733
8.53683,48550
8.54495,44335
8.55308,51630
8.56120,61328
8.56933,104091
8.57745,183422
8.58557,307595
8.59370,394004
8.60182,418606
8.60993,357802
8.61807,261422
8.62618,182547
8.63432,130890
8.64243,101939
8.65055,76941
8.65868,68070
8.66680,64619
8.67493,64759
8.68305,66974
8.69117,62139
8.69930,58815
8.70742,58976
8.71555,57057
8.72367,59107
8.73178,54238
8.73992,60886
8.74803,86905
8.75615,160204
8.76428,333577
8.77240,600804
8.78053,903616
8.78865,1036987
8.79677,956744
8.80490,713136
8.81302,481680
8.82115,332753
8.82927,244505
8.83738,191359
8.84552,158574
8.85363,136390
8.86175,114180
8.86988,120892
8.87800,127059
8.88613,136504
8.89425,142159
8.90237,144525
8.91050,136410
8.91862,124445
8.92675,122418
8.93487,117376
8.94298,105410
8.95112,109907
8.95923,106295
8.96737,103708
8.97548,97262
8.98360,103555
8.99173,107352
8.99985,100678
9.00797,102726
9.01610,94211
9.02422,91111
9.03235,83755
9.04047,88808
9.04858,82763
9.05672,81742
9.06483,77727
9.07297,87666
9.08108,81843
9.08920,83878
9.09733,83165
9.10545,81251
9.11358,78559
9.12170,78558
9.12982,83171
9.13795,78427
9.14607,80113
9.15418,84105
9.16232,81633
9.17043,80965
9.17857,71709
9.18668,72301
9.19480,73793
9.20293,73927
9.21105,68449
9.21918,66877
9.22730,69312
9.23542,70297
9.24355,67122
9.25167,65848
9.25978,65767
9.26792,65270
9.27603,70816
9.28417,67945
9.29228,66753
9.30040,69673
9.30853,62412
9.31665,60399
9.32478,69620
9.33290,68428
9.34102,67288
9.34915,67524
9.35727,61363
9.36540,67215
9.37352,61233
9.38163,57983
9.38977,61109
9.39788,56969
9.40600,59965
9.41413,55421
9.42225,57212
9.43038,59947
9.43850,57430
9.44662,61490
9.45475,59599
9.46287,57696
9.47100,54906
9.47912,55984
9.48723,58439
9.49537,57547
9.50348,65323
9.51162,67848
9.51973,69122
9.52785,67750
9.53598,70614
9.54410,64977
9.55222,66011
9.56035,71715
9.56847,78636
9.57660,87116
9.58472,93754
9.59283,88560
9.60097,75944
9.60908,73531
9.61722,62868
9.62533,57199
9.63345,55186
9.64158,60704
9.64970,76139
9.65782,81358
9.66595,91668
9.67407,80882
9.68220,68186
9.69032,58238
9.69843,47434
9.70657,47189
9.71468,45551
9.72282,45176
9.73093,43138
9.73905,41461
9.74718,42487
9.75530,42450
9.76343,42069
9.77155,44741
9.77967,50321
9.78780,42432
9.79592,40732
9.80403,38504
9.81217,41987
9.82028,42598
9.82842,41657
9.83653,42110
9.84465,40742
9.85278,39958
9.86090,37190
9.86903,39436
9.87715,42091
9.88527,41437
9.89340,46139
9.90152,54165
9.90963,62130
9.91777,54897
9.92588,52585
9.93402,52068
9.94213,47641
9.95025,47215
9.95838,50735
9.96650,54713
9.97463,57433
9.98275,60926
9.99087,64963
9.99900,62895
10.00712,59988
10.01525,54773
10.02337,59362
10.03148,53192
10.03962,46913
10.04773,43813
10.05585,41867
10.06398,44013
10.07210,42333
10.08023,45745
10.08835,43733
10.09647,47119
10.10460,49815
10.11272,45926
10.12085,44515
10.12897,43906
10.13708,39220
10.14522,40372
10.15333,41413
10.16147,36912
10.16958,39183
10.17770,39655
10.18583,38724
10.19395,39030
10.20207,34510
10.21020,38486
10.21832,37610
10.22645,39098
10.23457,40343
10.24268,43579
10.25082,49082
10.25893,53323
10.26707,58057
10.27518,53929
10.28330,50820
10.29143,50331
10.29955,44329
10.30768,45253
10.31580,44740
10.32392,47309
10.33205,56366
10.34017,65144
10.34828,76884
10.35642,92878
10.36453,99096
10.37267,101111
10.38078,91744
10.38890,82465
10.39703,73999
10.40515,69839
10.41328,68756
10.42140,60204
10.42952,62700
10.43765,58005
10.44577,51084
10.45388,52044
10.46202,47679
10.47013,54053
10.47827,49462
10.48638,51194
10.49450,53316
10.50263,48876
10.51075,52575
10.51888,51199
10.52700,45603
10.53512,46674
10.54325,45854
10.55137,52803
10.55950,47471
10.56762,49362
10.57573,48544
10.58387,45760
10.59198,49128
10.60010,50938
10.60823,54976
10.61635,49123
10.62448,55335
10.63260,47254
10.64072,53158
10.64885,51688
10.65697,44902
10.66510,45879
10.67322,45238
10.68133,44167
10.68947,47896
10.69758,43982
10.70570,44488
10.71383,42399
10.72195,46952
10.73008,44135
10.73820,45828
10.74632,46921
10.75445,48517
10.76257,46485
10.77070,44881
10.77882,39560
10.78693,39577
10.79507,39427
10.80318,45519
10.81132,38348
10.81943,38748
10.82755,39939
10.83568,40595
10.84380,35075
10.85192,36648
10.86005,38568
10.86817,36803
10.87630,39177
10.88442,40676
10.89253,40387
10.90067,34495
10.90878,35070
10.91692,37459
10.92503,37573
10.93315,38221
10.94128,37332
10.94940,39544
10.95753,37898
10.96565,37467
10.97377,39839
10.98190,38441
10.99002,38800
10.99813,32123
11.00627,37303
11.01438,35134
11.02252,39934
11.03063,45350
11.03875,46834
11.04688,57607
11.05500,61534
11.06313,75976
11.07125,78165
11.07937,71698
11.08750,59051
11.09562,55770
11.10373,46609
11.11187,38016
11.11998,36953
11.12812,36588
11.13623,37795
11.14435,34523
11.15248,37633
11.16060,38411
11.16873,40218
11.17685,41760
11.18497,42341
11.19310,44122
11.20122,38732
11.20935,38546
11.21747,41426
11.22558,38780
11.23372,35795
11.24183,37768
11.24995,36348
11.25808,36657
11.26620,32232
11.27433,33982
11.28245,32646
11.29057,36537
11.29870,36435
11.30682,34464
11.31495,31829
11.32307,39666
11.33118,31551
11.33932,32793
11.34743,36927
11.35557,38065
11.36368,35832
11.37180,32248
11.37993,33345
11.38805,35294
11.39617,32992
11.40430,32925
11.41242,32776
11.42055,31363
11.42867,31355
11.43678,33516
11.44492,31051
11.45303,29380
11.46117,28775
11.46928,28832
11.47740,32773
11.48553,41568
11.49365,53207
11.50177,81680
11.50990,85730
11.51802,97573
11.52615,92921
11.53427,79701
11.54238,61711
11.55052,55304
11.55863,55606
11.56677,43949
11.57488,45457
11.58300,37980
11.59113,38958
11.59925,36429
11.60738,35210
11.61550,38044
11.62362,38178
11.63175,39006
11.63987,37155
11.64798,38189
11.65612,36029
11.66423,36598
11.67237,41632
11.68048,52034
11.68860,58068
11.69673,65459
11.70485,65680
11.71298,56548
11.72110,52717
11.72922,41646
11.73735,36066
11.74547,35352
11.75358,33773
11.76172,35351
11.76983,38274
11.77797,36083
11.78608,35999
11.79420,37662
11.80233,35162
11.81045,44055
11.81858,39114
11.82670,36246
11.83482,41169
11.84295,40618
11.85107,38068
11.85920,41533
11.86732,43526
11.87543,49293
11.88357,54592
11.89168,59236
11.89980,54724
11.90793,46976
11.91605,45773
11.92418,41241
11.93230,39359
11.94042,41261
11.94855,40477
11.95667,40422
11.96480,43998
11.97292,34070
11.98103,34178
11.98917,34958
11.99728,39893
12.00542,44700
12.01353,51683
12.02165,66713
12.02978,69036
12.03790,77309
12.04602,61228
12.05415,54573
12.06227,49739
12.07040,44253
12.07852,41686
12.08663,40598
12.09477,35986
12.10288,36951
12.11102,38543
12.11913,42554
12.12725,42438
12.13538,39524
12.14350,38048
12.15162,37641
12.15975,36902
12.16787,35247
12.17600,35988
12.18412,31521
12.19223,32558
12.20037,34710
12.20848,33589
12.21662,30134
12.22473,39079
12.23285,35360
12.24098,39001
12.24910,38043
12.25723,40784
12.26535,46016
12.27347,44386
12.28160,39501
12.28972,34760
12.29783,35078
12.30597,34544
12.31408,31143
12.32222,30599
12.33033,30016
12.33845,32258
12.34658,31375
12.35470,30949
12.36283,25687
12.37095,29976
12.37907,30318
12.38720,31138
12.39532,33388
12.40345,34807
12.41157,30267
12.41968,32412
12.42782,36604
12.43593,34685
12.44405,39407
12.45218,37522
12.46030,34581
12.46843,33117
12.47655,32311
12.48467,30982
12.49280,27851
12.50092,30181
12.50905,29170
12.51717,31757
12.52528,31489
12.53342,34535
12.54153,30100
12.54965,28334
12.55778,31375
12.56590,31019
12.57403,32349
12.58215,31098
12.59027,38290
12.59840,45642
12.60652,34342
12.61465,35907
12.62277,37525
12.63088,32400
12.63902,34445
12.64713,33367
12.65527,30493
12.66338,31056
12.67150,28886
12.67963,28495
12.68775,29170
12.69587,31438
12.70400,32976
12.71212,34409
12.72025,41722
12.72837,47152
12.73648,48281
12.74462,48133
12.75273,42675
12.76087,44141
12.76898,38293
12.77710,39406
12.78523,36844
12.79335,30411
12.80147,31719
12.80960,27927
12.81772,30057
12.82585,34791
12.83397,29659
12.84208,28400
12.85022,29795
12.85833,29035
12.86647,27888
12.87458,29016
12.88270,30255
12.89083,31434
12.89895,32334
12.90708,31321
12.91520,30340
12.92332,28134
12.93145,27539
12.93957,33584
12.94768,31601
12.95582,29386
12.96393,30920
12.97207,29785
12.98018,26581
12.98830,27329
12.99643,34181
13.00455,31988
13.01268,33699
13.02080,32475
13.02892,27140
13.03705,33418
13.04517,30513
13.05330,31557
13.06142,30806
13.06953,31692
13.07767,31794
13.08578,27345
13.09390,28014
13.10203,31109
13.11015,27699
13.11828,30318
13.12640,32358
13.13452,28880
13.14265,32938
13.15077,28190
13.15890,28011
13.16702,28165
13.17513,26733
13.18327,31807
13.19138,29157
13.19950,28920
13.20763,32748
13.21575,34115
13.22388,32481
13.23200,31774
13.24012,32024
13.24825,29093
13.25637,28400
13.26450,30463
13.27262,28804
13.28073,30664
13.28887,30130
13.29698,28287
13.30512,29487
13.31323,30883
13.32135,28596
13.32948,31018
13.33760,27942
13.34572,30490
13.35385,28435
13.36197,27322
13.37010,31437
13.37822,25968
13.38633,27872
13.39447,26193
13.40258,32727
13.41072,29386
13.41883,29281
13.42695,27491
13.43508,26888
13.44320,26672
13.45133,25519
13.45945,27502
13.46757,30021
13.47570,30258
13.48382,29458
13.49193,23793
13.50007,29988
13.50818,30383
13.51632,28710
13.52443,25304
13.53255,26260
13.54068,26037
13.54880,28216
13.55693,31149
13.56505,28208
13.57317,28370
13.58130,29333
13.58942,28392
13.59753,25613
13.60567,26863
13.61378,24927
13.62192,31355
13.63003,22915
13.63815,31685
13.64628,30560
13.65440,28173
13.66253,31433
13.67065,28205
13.67877,25736
13.68690,25722
13.69502,24191
13.70315,28079
13.71127,26632
13.71938,29207
13.72752,32716
13.73563,29795
13.74375,29024
13.75188,33441
13.76000,36546
13.76813,51362
13.77625,72666
13.78437,92765
13.79250,103264
13.80062,108767
13.80875,95806
13.81687,76496
13.82498,63275
13.83312,57245
13.84123,45469
13.84937,47960
13.85748,40448
13.86560,39839
13.87373,36200
13.88185,36623
13.88997,33690
13.89810,34231
13.90622,31345
13.91435,35997
13.92247,35562
13.93058,29717
13.93872,33892
13.94683,35757
13.95497,38467
13.96308,43512
13.97120,54410
13.97933,77872
13.98745,105859
13.99557,144054
14.00370,150056
14.01182,128904
14.01995,103170
14.02807,87403
14.03618,74841
14.04432,61812
14.05243,56753
14.06057,50645
14.06868,50669
14.07680,48041
14.08493,47361
14.09305,46559
14.10118,45350
14.10930,41881
14.11742,42302
14.12555,41130
14.13367,41895
14.14178,41685
14.14992,41867
14.15803,43385
14.16617,45094
14.17428,42165
14.18240,44657
14.19053,51128
14.19865,59887
14.20678,84613
14.21490,112104
14.22302,133026
14.23115,149168
14.23927,153724
14.24738,137704
14.25552,134510
14.26363,118121
14.27177,109660
14.27988,97512
14.28800,79984
14.29613,77832
14.30425,71615
14.31238,69413
14.32050,64693
14.32862,62693
14.33675,60615
14.34487,54782
14.35300,54798
14.36112,54424
14.36923,47017
14.37737,50438
14.38548,43809
14.39360,36383
14.40173,35770
14.40985,37768
14.41798,34887
14.42610,33536
14.43422,32781
14.44235,31803
14.45047,32570
14.45860,32135
14.46672,33983
14.47483,34573
14.48297,34910
14.49108,32279
14.49922,29005
14.50733,30291
14.51545,35433
14.52358,33965
14.53170,35145
14.53982,33507
14.54795,37042
14.55607,35196
14.56420,34887
14.57232,31842
14.58043,33613
14.58857,33875
14.59668,34112
14.60482,28748
14.61293,30099
14.62105,29283
14.62918,26085
14.63730,30591
14.64542,32728
14.65355,30366
14.66167,30696
14.66980,29726
14.67792,30852
14.68603,29101
14.69417,28877
14.70228,29922
14.71042,29712
14.71853,28827
14.72665,27076
14.73478,28985
14.74290,29165
14.75103,28464
14.75915,28013
14.76727,27829
14.77540,32852
14.78352,32027
14.79163,29633
14.79977,27757
14.80788,31230
14.81602,29232
14.82413,29024
14.83225,31165
14.84038,29656
14.84850,35728
14.85663,33708
14.86475,32695
14.87287,32519
14.88100,38817
14.88912,31780
14.89725,30184
14.90537,27256
14.91348,29667
14.92162,32099
14.92973,29539
14.93785,27068
14.94598,29548
14.95410,29378
14.96223,31702
14.97035,32390
14.97847,28289
14.98660,31300
14.99472,28636
15.00285,29203
15.01097,32102
15.01908,33238
15.02722,28617
15.03533,33271
15.04345,26849
15.05158,30343
15.05970,27968
15.06783,32193
15.07595,30188
15.08407,25338
15.09220,30399
15.10032,26612
15.10845,29553
15.11657,27467
15.12468,28407
15.13282,29536
15.14093,28920
15.14907,28272
15.15718,28564
15.16530,28331
15.17343,29599
15.18155,27657
15.18967,31238
15.19780,30218
15.20592,26546
15.21405,26986
15.22217,27759
15.23028,27443
15.23842,30767
15.24653,31299
15.25467,26868
15.26278,32654
15.27090,28396
15.27903,27134
15.28715,23518
15.29527,28800
15.30340,26521
15.31152,25080
15.31965,24747
15.32777,25241
15.33588,24177
15.34402,24093
15.35213,23882
15.36027,24128
15.36838,25236
15.37650,26324
15.38463,23549
15.39275,25555
15.40088,25560
15.40900,31639
15.41712,26120
15.42525,29311
15.43337,28080
15.44148,24501
15.44962,25294
15.45773,22833
15.46587,28672
15.47398,27093
15.48210,24678
15.49023,27644
15.49835,27433
15.50648,28788
15.51460,28179
15.52272,28543
15.53085,33750
15.53897,36303
15.54710,38535
15.55522,36587
15.56333,37125
15.57147,32565
15.57958,29319
15.58770,26420
15.59583,26065
15.60395,27191
15.61208,27458
15.62020,29552
15.62832,27133
15.63645,26022
15.64457,28633
15.65270,32997
15.66082,27807
15.66893,28672
15.67707,28077
15.68518,26563
15.69332,26703
15.70143,26733
15.70955,31951
15.71768,23602
15.72580,27241
15.73392,25037
15.74205,27723
15.75017,29318
15.75830,26362
15.76642,28647
15.77453,30869
15.78267,28320
15.79078,37674
15.79892,37134
15.80703,43964
15.81515,37368
15.82328,34624
15.83140,31140
15.83952,32960
15.84765,29104
15.85577,29988
15.86390,29512
15.87202,27409
15.88013,28255
15.88827,29849
15.89638,28760
15.90452,30071
15.91263,31801
15.92075,32818
15.92888,33109
15.93700,37641
15.94513,35852
15.95325,32668
15.96137,31891
15.96950,34784
15.97762,43236
15.98573,54549
15.99387,54112
16.00198,66071
16.01012,68897
16.01823,86870
16.02635,82738
16.03448,85160
16.04260,81483
16.05073,62193
16.05885,54281
16.06697,50556
16.07510,43141
16.08322,44445
16.09133,43102
16.09947,37827
16.10758,37214
16.11572,36555
16.12383,35102
16.13195,40492
16.14008,36395
16.14820,33320
16.15633,36706
16.16445,32812
16.17257,28575
16.18070,31443
16.18882,31550
16.19695,32019
16.20507,30752
16.21318,29529
16.22132,32739
16.22943,34736
16.23755,30925
16.24568,30269
16.25380,28967
16.26193,29253
16.27005,32467
16.27817,32398
16.28630,29410
16.29442,32175
16.30255,28641
16.31067,32317
16.31878,28858
16.32692,27834
16.33503,28948
16.34317,30756
16.35128,29521
16.35940,37356
16.36753,48547
16.37565,57059
16.38377,68865
16.39190,76740
16.40002,75371
16.40815,64474
16.41627,52824
16.42438,46156
16.43252,44428
16.44063,37460
16.44877,33964
16.45688,32363
16.46500,35710
16.47313,32397
16.48125,33722
16.48937,34368
16.49750,32087
16.50562,37069
16.51375,31131
16.52187,31020
16.52998,32945
16.53812,31251
16.54623,29632
16.55437,31524
16.56248,31854
16.57060,32182
16.57873,33282
16.58685,31345
16.59498,32747
16.60310,38635
16.61122,38501
16.61935,41025
16.62747,42698
16.63558,41999
16.64372,38151
16.65183,38689
16.65997,35679
16.66808,31297
16.67620,30162
16.68433,29298
16.69245,29477
16.70058,30860
16.70870,29266
16.71682,29053
16.72495,29249
16.73307,29070
16.74120,30695
16.74932,31286
16.75743,28035
16.76557,28909
16.77368,27077
16.78180,28613
16.78993,31033
16.79805,27663
16.80618,28264
16.81430,27830
16.82242,27280
16.83055,28261
16.83867,24872
16.84680,27218
16.85492,25124
16.86303,25660
16.87117,26443
16.87928,29254
16.88740,25693
16.89553,27271
16.90365,27237
16.91178,26473
16.91990,25297
16.92802,30359
16.93615,25797
16.94427,21723
16.95240,23594
16.96052,28817
16.96863,32873
16.97677,26930
16.98488,23086
16.99302,27000
17.00113,26570
17.00925,26389
17.01738,26648
17.02550,24106
17.03362,26571
17.04175,26807
17.04987,27087
17.05800,25306
17.06612,22572
17.07423,27544
17.08237,24498
17.09048,26255
17.09862,28017
17.10673,27056
17.11485,26175
17.12298,29154
17.13110,28277
17.13922,26985
17.14735,27308
17.15547,30570
17.16360,26405
17.17172,25526
17.17983,27505
17.18797,27984
17.19608,27503
17.20422,25157
17.21233,25136
17.22045,24282
17.22858,27429
17.23670,28473
17.24483,26485
17.25295,29515
17.26107,28863
17.26920,27040
17.27732,31582
17.28543,29283
17.29357,28282
17.30168,30964
17.30982,29179
17.31793,27792
17.32605,25198
17.33418,25534
17.34230,27590
17.35043,29419
17.35855,31260
17.36667,31891
17.37480,31745
17.38292,30459
17.39105,30457
17.39917,27669
17.40728,32606
17.41542,29438
17.42353,31529
17.43165,29212
17.43978,33790
17.44790,27615
17.45603,27843
17.46415,28066
17.47227,27727
17.48040,26584
17.48852,31565
17.49665,27596
17.50477,29401
17.51288,31091
17.52102,28978
17.52913,29427
17.53725,28749
17.54538,29827
17.55350,28147
17.56163,30611
17.56975,26748
17.57787,28433
17.58600,24615
17.59412,30248
17.60225,28094
17.61037,28400
17.61848,27927
17.62662,29159
17.63473,31703
17.64287,42360
17.65098,60545
17.65910,86263
17.66723,113793
17.67535,139261
17.68347,153221
17.69160,143642
17.69972,116349
17.70785,97299
17.71597,74012
17.72408,62589
17.73222,54872
17.74033,50520
17.74847,46882
17.75658,45590
17.76470,45085
17.77283,43895
17.78095,43071
17.78908,42359
17.79720,40323
17.80532,41295
17.81345,45328
17.82157,44617
17.82968,48125
17.83782,49219
17.84593,46999
17.85407,49578
17.86218,44348
17.87030,39342
17.87843,40952
17.88655,36207
17.89468,34304
17.90280,33367
17.91092,32249
17.91905,35058
17.92717,31483
17.93528,29439
17.94342,32405
17.95153,31335
17.95967,28542
17.96778,30436
17.97590,29445
17.98403,28963
17.99215,26175
18.00028,29903
18.00840,28947
18.01652,27090
18.02465,29876
18.03277,27436
18.04090,27596
18.04902,27708
18.05713,32211
18.06527,31790
18.07338,33410
18.08150,35100
18.08963,44122
18.09775,47868
18.10588,50187
18.11400,48525
18.12212,47811
18.13025,42935
18.13837,40087
18.14650,38610
18.15462,41398
18.16273,38796
18.17087,40502
18.17898,41230
18.18712,40640
18.19523,46219
18.20335,40351
18.21148,38321
18.21960,36551
18.22772,35104
18.23585,31868
18.24397,34670
18.25210,35033
18.26022,38216
18.26833,34553
18.27647,32287
18.28458,36346
18.29272,32015
18.30083,32343
18.30895,28041
18.31708,29819
18.32520,28089
18.33332,28888
18.34145,29481
18.34957,27492
18.35770,33589
18.36582,26679
18.37393,28495
18.38207,28853
18.39018,29685
18.39832,27441
18.40643,30050
18.41455,30229
18.42268,30216
18.43080,27528
18.43893,27979
18.44705,29106
18.45517,27959
18.46330,26781
18.47142,27706
18.47953,26604
18.48767,29405
18.49578,30895
18.50392,25003
18.51203,31169
18.52015,26251
18.52828,28610
18.53640,28206
18.54453,31991
18.55265,28712
18.56077,28622
18.56890,28647
18.57702,29490
18.58513,30260
18.59327,31035
18.60138,32808
18.60952,36320
18.61763,37816
18.62575,32377
18.63388,34080
18.64200,32247
18.65013,37516
18.65825,34463
18.66637,32753
18.67450,31209
18.68262,31672
18.69075,32592
18.69887,31940
18.70698,30065
18.71512,32289
18.72323,32546
18.73135,32070
18.73948,29082
18.74760,30522
18.75573,33268
18.76385,31339
18.77197,31920
18.78010,32420
18.78822,30635
18.79635,32623
18.80447,33171
18.81258,34679
18.82072,33052
18.82883,34770
18.83697,27875
18.84508,32008
18.85320,33296
18.86133,32140
18.86945,34026
18.87757,31172
18.88570,32419
18.89382,31651
18.90195,33818
18.91007,34462
18.91818,34183
18.92632,30066
18.93443,30866
18.94257,35452
18.95068,32703
18.95880,34773
18.96693,35062
18.97505,29597
18.98317,36371
18.99130,35493
18.99942,35509
19.00755,31979
19.01567,34364
19.02378,30085
19.03192,34950
19.04003,31080
19.04817,32245
19.05628,31288
19.06440,33085
19.07253,35361
19.08065,38282
19.08878,34504
19.09690,43286
19.10502,48637
19.11315,53436
19.12127,52917
19.12938,51462
19.13752,50442
19.14563,51086
19.15377,42870
19.16188,44414
19.17000,52435
19.17813,51887
19.18625,52029
19.19438,54626
19.20250,54657
19.21062,49924
19.21875,47273
19.22687,46165
19.23500,36755
19.24312,36459
19.25123,38316
19.25937,38976
19.26748,39077
19.27560,44644
19.28373,48243
19.29185,47819
19.29998,48400
19.30810,51943
19.31622,50948
19.32435,48879
19.33247,54721
19.34060,55131
19.34872,58890
19.35683,54749
19.36497,50504
19.37308,48828
19.38120,42884
19.38933,40273
19.39745,40467
19.40558,33893
19.41370,36363
19.42182,36848
19.42995,38421
19.43807,36506
19.44620,35152
19.45432,38839
19.46243,33376
19.47057,38439
19.47868,31392
19.48682,34321
19.49493,36998
19.50305,48540
19.51118,57522
19.51930,76572
19.52742,86473
19.53555,92387
19.54367,94726
19.55180,71704
19.55992,56227
19.56803,50065
19.57617,40792
19.58428,36558
19.59242,36928
19.60053,32776
19.60865,34868
19.61678,30001
19.62490,34515
19.63302,41050
19.64115,43588
19.64927,49535
19.65740,66562
19.66552,89323
19.67363,120435
19.68177,138599
19.68988,136934
19.69802,135934
19.70613,120633
19.71425,99581
19.72238,82574
19.73050,68655
19.73863,59517
19.74675,57194
19.75487,51245
19.76300,49498
19.77112,47709
19.77923,41993
19.78737,41551
19.79548,43296
19.80362,42966
19.81173,43040
19.81985,44605
19.82798,38422
19.83610,37940
19.84423,60155
19.85235,155940
19.86047,477490
19.86860,1520983
19.87672,3961809
19.88485,8592353
19.89297,1.46451E+07
19.90108,2.10881E+07
19.90922,2.508748E+07
19.91733,2.515525E+07
19.92545,2.176649E+07
19.93358,1.623409E+07
19.94170,1.122978E+07
19.94983,7459318
19.95795,5305608
19.96607,4168521
19.97420,3451675
19.98232,2963625
19.99045,2643051
19.99857,2384688
20.00668,2165282
20.01482,2026138
20.02293,1897266
20.03107,1748834
20.03918,1565673
20.04730,1368010
20.05543,1162595
20.06355,916506
20.07167,701600
20.07980,539326
20.08792,422687
20.09605,345549
20.10417,305157
20.11228,277738
20.12042,254905
20.12853,242456
20.13667,232286
20.14478,230950
20.15290,215978
20.16103,207345
20.16915,207999
20.17727,197750
20.18540,189409
20.19352,183343
20.20165,189972
20.20977,177387
20.21788,162885
20.22602,158515
20.23413,159930
20.24227,155493
20.25038,156866
20.25850,157036
20.26663,173395
20.27475,196250
20.28288,222054
20.29100,247340
20.29912,268268
20.30725,248805
20.31537,227195
20.32348,193949
20.33162,177594
20.33973,147677
20.34787,134647
20.35598,116769
20.36410,96767
20.37223,83125
20.38035,69872
20.38848,59540
20.39660,54862
20.40472,51577
20.41285,51427
20.42097,54236
20.42908,53290
20.43722,57476
20.44533,65663
20.45347,69494
20.46158,71040
20.46970,72282
20.47783,72474
20.48595,70147
20.49408,67043
20.50220,57056
20.51032,54132
20.51845,49022
20.52657,51145
20.53470,47934
20.54282,43199
20.55093,42931
20.55907,45707
20.56718,39313
20.57530,45980
20.58343,41114
20.59155,37355
20.59968,42409
20.60780,35603
20.61592,40598
20.62405,41139
20.63217,36664
20.64030,42016
20.64842,38421
20.65653,38904
20.66467,39789
20.67278,42524
20.68092,42758
20.68903,45777
20.69715,36772
20.70528,40580
20.71340,37379
20.72152,37540
20.72965,37221
20.73777,39697
20.74590,41144
20.75402,37412
20.76213,35310
20.77027,37804
20.77838,35296
20.78652,42202
20.79463,40984
20.80275,38009
20.81088,39492
20.81900,39792
20.82712,39598
20.83525,43922
20.84337,39872
20.85150,36272
20.85962,39536
20.86773,36774
20.87587,36371
20.88398,40442
20.89212,39430
20.90023,36600
20.90835,35062
20.91648,37678
20.92460,36207
20.93273,38002
20.94085,39164
20.94897,36655
20.95710,37466
20.96522,37695
20.97333,36326
20.98147,37174
20.98958,37021
20.99772,36598
21.00583,36848
21.01395,36799
21.02208,37059
21.03020,35868
21.03833,36493
21.04645,37879
21.05457,36009
21.06270,38082
21.07082,42201
21.07895,36712
21.08707,41617
21.09518,41326
21.10332,37742
21.11143,35824
21.11955,39727
21.12768,33105
21.13580,34823
21.14393,39791
21.15205,34232
21.16017,37521
21.16830,37928
21.17642,36544
21.18455,37417
21.19267,35979
21.20078,34417
21.20892,38479
21.21703,39041
21.22515,36002
21.23328,37485
21.24140,38786
21.24953,35918
21.25765,37529
21.26577,40774
21.27390,39609
21.28202,41032
21.29015,38120
21.29827,37055
21.30638,37749
21.31452,34522
21.32263,36670
21.33077,37218
21.33888,37736
21.34700,32278
21.35513,35767
21.36325,35441
21.37137,36001
21.37950,37049
21.38762,35443
21.39575,35893
21.40387,32514
21.41198,37870
21.42012,35583
21.42823,36861
21.43637,37390
21.44448,35934
21.45260,33567
21.46073,35446
21.46885,33799
21.47697,30845
21.48510,31368
21.49322,34525
21.50135,34626
21.50947,34341
21.51758,33791
21.52572,33798
21.53383,32901
21.54197,36953
21.55008,32219
21.55820,32245
21.56633,33782
21.57445,32740
21.58258,36375
21.59070,33470
21.59882,31667
21.60695,32388
21.61507,32098
21.62318,40321
21.63132,37278
21.63943,45121
21.64757,51748
21.65568,53785
21.66380,55883
21.67193,53185
21.68005,52338
21.68818,46937
21.69630,48277
21.70442,43885
21.71255,35136
21.72067,36514
21.72880,37236
21.73692,31837
21.74503,36596
21.75317,34211
21.76128,35850
21.76940,33857
21.77753,33653
21.78565,33027
21.79378,36662
21.80190,35547
21.81002,36437
21.81815,34673
21.82627,38815
21.83440,44377
21.84252,51547
21.85063,56700
21.85877,60859
21.86688,59084
21.87500,55841
21.88313,54213
21.89125,48872
21.89938,44034
21.90750,39860
21.91562,36378
21.92375,37508
21.93187,34483
21.94000,35002
21.94812,35152
21.95623,31605
21.96437,35577
21.97248,32236
21.98062,33211
21.98873,31466
21.99685,38335
22.00498,30872
22.01310,30567
22.02122,28528
22.02935,31887
22.03747,31588
22.04560,29876
22.05372,31570
22.06183,32742
22.06997,34905
22.07808,25955
22.08622,30308
22.09433,29355
22.10245,29643
22.11058,28809
22.11870,30564
22.12683,37106
22.13495,30837
22.14307,32563
22.15120,32100
22.15932,28147
22.16743,31363
22.17557,31812
22.18368,35040
22.19182,32564
22.19993,31205
22.20805,32016
22.21618,29687
22.22430,29907
22.23243,34967
22.24055,31421
22.24867,32683
22.25680,39092
22.26492,35294
22.27303,33371
22.28117,33489
22.28928,35769
22.29742,34484
22.30553,38128
22.31365,47647
22.32178,62904
22.32990,73603
22.33803,91879
22.34615,101508
22.35427,96697
22.36240,92476
22.37052,82060
22.37865,66424
22.38677,57392
22.39488,51118
22.40302,52299
22.41113,44029
22.41925,45908
22.42738,44851
22.43550,41166
22.44363,37858
22.45175,37752
22.45987,34450
22.46800,36308
22.47612,33342
22.48425,33565
22.49237,30555
22.50048,32986
22.50862,32527
22.51673,32576
22.52487,32956
22.53298,28555
22.54110,29850
22.54923,30570
22.55735,32890
22.56547,32260
22.57360,30967
22.58172,30976
22.58985,33599
22.59797,30874
22.60608,27919
22.61422,28302
22.62233,31757
22.63047,29096
22.63858,28158
22.64670,26582
22.65483,27798
22.66295,35753
22.67107,34469
22.67920,37453
22.68732,34901
22.69545,36487
22.70357,36118
22.71168,36648
22.71982,39487
22.72793,36558
22.73607,34544
22.74418,31354
22.75230,28868
22.76043,30398
22.76855,30556
22.77668,30036
22.78480,29634
22.79292,30163
22.80105,31206
22.80917,29205
22.81728,28574
22.82542,28288
22.83353,28803
22.84167,26624
22.84978,27074
22.85790,29375
22.86603,27851
22.87415,31592
22.88228,32951
22.89040,32671
22.89852,32723
22.90665,36891
22.91477,36691
22.92288,42752
22.93102,50765
22.93913,53012
22.94727,64130
22.95538,63526
22.96350,65403
22.97163,62512
22.97975,59628
22.98788,60241
22.99600,52357
23.00412,49915
23.01225,50921
23.02037,47408
23.02850,43845
23.03662,43765
23.04473,41282
23.05287,35399
23.06098,35888
23.06910,35488
23.07723,33408
23.08535,32989
23.09348,35272
23.10160,35756
23.10972,33247
23.11785,35368
23.12597,32169
23.13410,33305
23.14222,29551
23.15033,32971
23.15847,30382
23.16658,31913
23.17472,29834
23.18283,29912
23.19095,30806
23.19908,31017
23.20720,29988
23.21532,32826
23.22345,28874
23.23157,35609
23.23970,36637
23.24782,38177
23.25593,43008
23.26407,41230
23.27218,45582
23.28032,44653
23.28843,43331
23.29655,36553
23.30468,36400
23.31280,31846
23.32092,33004
23.32905,31254
23.33717,33846
23.34530,32828
23.35342,34024
23.36153,28301
23.36967,29808
23.37778,36063
23.38592,38120
23.39403,39463
23.40215,39034
23.41028,40163
23.41840,41063
23.42653,42158
23.43465,38094
23.44277,37073
23.45090,36558
23.45902,39069
23.46713,40035
23.47527,41894
23.48338,38111
23.49152,44146
23.49963,37836
23.50775,40436
23.51588,33244
23.52400,36253
23.53213,36130
23.54025,40492
23.54837,36181
23.55650,43390
23.56462,45973
23.57275,49220
23.58087,50683
23.58898,56369
23.59712,62337
23.60523,68335
23.61335,75115
23.62148,75026
23.62960,83484
23.63773,93619
23.64585,140349
23.65397,197236
23.66210,278004
23.67022,362935
23.67835,413967
23.68647,411654
23.69458,317537
23.70272,250446
23.71083,193594
23.71895,145130
23.72708,117682
23.73520,106525
23.74333,85803
23.75145,91813
23.75957,129973
23.76770,250029
23.77582,577241
23.78395,1218987
23.79207,2088668
23.80018,2868273
23.80832,3344135
23.81643,3227859
23.82457,2583741
23.83268,1918027
23.84080,1382412
23.84893,992405
23.85705,747166
23.86517,594809
23.87330,476934
23.88142,391188
23.88955,325212
23.89767,303045
23.90578,266150
23.91392,246010
23.92203,217180
23.93017,197120
23.93828,192325
23.94640,182163
23.95453,164415
23.96265,158840
23.97077,151984
23.97890,145912
23.98702,131692
23.99515,124287
24.00327,123867
24.01138,123876
24.01952,121713
24.02763,127756
24.03577,121839
24.04388,131049
24.05200,119494
24.06013,119497
24.06825,111613
24.07638,110478
24.08450,98543
24.09262,99374
24.10075,93683
24.10887,87807
24.11698,85805
24.12512,85103
24.13323,90980
24.14137,84983
24.14948,77415
24.15760,84188
24.16573,81956
24.17385,80825
24.18198,73204
24.19010,72828
24.19822,78223
24.20635,68450
24.21447,70838
24.22260,76639
24.23072,78177
24.23883,78857
24.24697,73087
24.25508,73430
24.26320,66126
24.27133,64007
24.27945,61183
24.28758,59994
24.29570,59035
24.30382,57263
24.31195,60461
24.32007,61050
24.32820,56371
24.33632,57855
24.34443,54830
24.35257,60718
24.36068,54920
24.36880,54545
24.37693,58680
24.38505,57653
24.39318,57365
24.40130,64140
24.40942,77858
24.41755,89441
24.42567,88453
24.43380,91254
24.44192,74756
24.45003,66369
24.45817,62674
24.46628,62916
24.47442,58775
24.48253,61070
24.49065,66258
24.49878,68205
24.50690,72442
24.51502,65955
24.52315,69208
24.53127,68963
24.53940,76963
24.54752,80522
24.55563,80589
24.56377,87825
24.57188,95524
24.58002,88789
24.58813,93162
24.59625,82950
24.60438,76422
24.61250,75419
24.62063,66152
24.62875,63340
24.63687,62762
24.64500,57187
24.65312,56831
24.66123,53153
24.66937,51369
24.67748,51901
24.68562,53233
24.69373,55588
24.70185,45291
24.70998,49892
24.71810,51251
24.72623,44668
24.73435,46011
24.74247,45855
24.75060,44362
24.75872,46008
24.76683,44131
24.77497,44302
24.78308,41543
24.79122,41240
24.79933,41451
24.80745,38625
24.81558,39115
24.82370,41322
24.83183,39248
24.83995,39716
24.84807,43137
24.85620,41822
24.86432,47499
24.87245,48275
24.88057,48720
24.88868,53700
24.89682,51305
24.90493,49847
24.91305,44110
24.92118,46306
24.92930,47967
24.93743,41868
24.94555,41135
24.95367,38000
24.96180,42217
24.96992,36225
24.97805,36264
24.98617,39249
24.99428,40951
25.00242,35976
25.01053,37194
25.01865,38957
25.02678,35483
25.03490,34909
25.04303,38305
25.05115,38409
25.05927,34732
25.06740,36661
25.07552,35948
25.08365,34640
25.09177,40251
25.09988,33582
25.10802,36164
25.11613,38391
25.12427,36117
25.13238,36022
25.14050,38079
25.14863,41462
25.15675,38241
25.16487,42382
25.17300,44377
25.18112,44496
25.18925,38368
25.19737,38497
25.20548,36172
25.21362,38991
25.22173,35220
25.22987,38311
25.23798,32070
25.24610,41438
25.25423,33802
25.26235,33059
25.27048,33819
25.27860,35142
25.28672,37233
25.29485,35502
25.30297,36309
25.31108,38682
25.31922,39867
25.32733,40297
25.33547,42332
25.34358,38930
25.35170,41681
25.35983,42438
25.36795,41463
25.37608,37912
25.38420,34721
25.39232,33980
25.40045,33769
25.40857,33079
25.41670,33670
25.42482,36270
25.43293,33566
25.44107,33965
25.44918,31471
25.45730,35146
25.46543,32838
25.47355,36237
25.48168,31861
25.48980,36470
25.49792,38600
25.50605,36548
25.51417,36965
25.52230,34077
25.53042,36358
25.53853,35923
25.54667,32570
25.55478,32857
25.56290,32539
25.57103,34506
25.57915,35651
25.58728,30538
25.59540,31447
25.60352,31123
25.61165,30478
25.61977,30366
25.62790,31435
25.63602,34208
25.64413,33681
25.65227,36706
25.66038,36383
25.66852,37960
25.67663,33620
25.68475,37494
25.69288,34426
25.70100,32156
25.70912,33599
25.71725,33267
25.72537,30880
25.73350,41700
25.74162,36100
25.74973,37527
25.75787,35588
25.76598,38454
25.77412,36117
25.78223,33803
25.79035,35485
25.79848,33463
25.80660,35202
25.81472,35044
25.82285,39045
25.83097,40656
25.83910,42042
25.84722,43289
25.85533,37565
25.86347,37193
25.87158,40025
25.87972,35620
25.88783,35893
25.89595,29512
25.90408,30154
25.91220,29880
25.92033,28614
25.92845,30612
25.93657,30378
25.94470,29827
25.95282,32866
25.96093,29053
25.96907,29414
25.97718,27921
25.98532,29116
25.99343,31317
26.00155,31652
26.00968,30433
26.01780,29477
26.02593,26619
26.03405,28173
26.04217,31164
26.05030,29913
26.05842,31783
26.06655,28074
26.07467,29122
26.08278,27758
26.09092,29395
26.09903,28012
26.10715,27353
26.11528,30410
26.12340,33848
26.13153,34919
26.13965,36986
26.14777,37132
26.15590,40378
26.16402,36781
26.17215,40425
26.18027,38805
26.18838,38588
26.19652,38602
26.20463,34802
26.21275,38773
26.22088,36584
26.22900,32427
26.23713,34089
26.24525,33155
26.25337,30885
26.26150,27188
26.26962,29928
26.27775,32307
26.28587,29012
26.29398,30199
26.30212,31182
26.31023,28363
26.31837,30746
26.32648,29988
26.33460,30496
26.34273,29718
26.35085,30858
26.35897,30158
26.36710,30127
26.37522,27444
26.38335,29595
26.39147,28853
26.39958,30807
26.40772,30184
26.41583,28375
26.42397,28502
26.43208,30802
26.44020,28442
26.44833,27658
26.45645,30529
26.46458,28764
26.47270,34872
26.48082,27283
26.48895,30630
26.49707,33002
26.50518,28255
26.51332,27023
26.52143,28378
26.52957,28048
26.53768,26024
26.54580,31104
26.55393,29891
26.56205,29129
26.57018,25293
26.57830,28316
26.58642,28870
26.59455,26471
26.60267,27553
26.61078,27151
26.61892,28097
26.62703,28068
26.63517,32295
26.64328,28893
26.65140,31074
26.65953,33776
26.66765,34938
26.67578,34767
26.68390,36889
26.69202,37885
26.70015,32016
26.70827,31516
26.71640,31050
26.72452,31230
26.73263,31503
26.74077,34433
26.74888,29229
26.75700,32805
26.76513,31428
26.77325,33649
26.78138,28606
26.78950,29588
26.79762,32164
26.80575,31008
26.81387,32411
26.82200,36536
26.83012,36835
26.83823,33936
26.84637,32541
26.85448,32204
26.86260,32881
26.87073,34586
26.87885,34370
26.88698,33338
26.89510,31056
26.90322,36633
26.91135,34028
26.91947,33022
26.92760,32198
26.93572,32818
26.94383,34800
26.95197,30737
26.96008,30838
26.96822,37507
26.97633,35731
26.98445,46185
26.99258,69165
27.00070,99674
27.00882,141970
27.01695,214155
27.02507,281795
27.03320,316167
27.04132,353186
27.04943,332857
27.05757,297381
27.06568,256844
27.07382,213253
27.08193,173519
27.09005,142733
27.09818,121266
27.10630,103008
27.11443,96345
27.12255,96572
27.13067,83029
27.13880,73904
27.14692,70322
27.15503,66469
27.16317,67945
27.17128,66025
27.17942,65794
27.18753,61351
27.19565,64343
27.20378,54469
27.21190,57278
27.22003,58278
27.22815,54770
27.23627,51106
27.24440,53168
27.25252,49235
27.26063,44603
27.26877,50077
27.27688,47227
27.28502,47394
27.29313,49106
27.30125,43509
27.30938,46034
27.31750,43671
27.32563,40965
27.33375,40603
27.34187,46565
27.35000,41454
27.35812,40738
27.36625,40400
27.37437,39024
27.38248,42500
27.39062,38802
27.39873,43254
27.40685,42038
27.41498,40768
27.42310,41129
27.43123,39211
27.43935,38176
27.44747,37642
27.45560,41390
27.46372,38650
27.47185,40633
27.47997,40058
27.48808,33784
27.49622,39319
27.50433,39604
27.51247,37646
27.52058,36363
27.52870,36603
27.53683,39994
27.54495,40430
27.55307,36836
27.56120,35790
27.56932,37572
27.57745,37330
27.58557,32997
27.59368,32827
27.60182,34522
27.60993,34630
27.61807,35347
27.62618,36426
27.63430,38448
27.64243,37331
27.65055,34471
27.65867,35632
27.66680,33094
27.67492,33068
27.68305,32480
27.69117,30635
27.69928,30319
27.70742,32576
27.71553,30217
27.72367,30967
27.73178,31620
27.73990,31149
27.74803,34749
27.75615,31621
27.76428,33750
27.77240,35817
27.78052,30906
27.78865,31006
27.79677,31419
27.80488,32757
27.81302,29445
27.82113,31291
27.82927,35198
27.83738,36258
27.84550,33194
27.85363,35563
27.86175,31999
27.86988,33082
27.87800,34679
27.88612,32935
27.89425,33147
27.90237,34814
27.91050,32692
27.91862,31584
27.92673,31060
27.93487,27559
27.94298,32885
27.95110,31970
27.95923,32204
27.96735,32401
27.97548,33451
27.98360,30060
27.99172,32771
27.99985,31984
28.00797,31781
28.01610,33491
28.02422,31263
28.03233,30861
28.04047,35377
28.04858,31789
28.05670,30487
28.06483,35219
28.07295,31579
28.08108,32955
28.08920,30007
28.09732,31348
28.10545,34510
28.11357,34550
28.12170,32398
28.12982,31890
28.13793,32657
28.14607,30267
28.15418,32332
28.16232,35427
28.17043,28627
28.17855,30974
28.18668,32578
28.19480,26897
28.20292,29933
28.21105,37306
28.21917,37652
28.22730,33954
28.23542,35930
28.24353,36680
28.25167,35624
28.25978,32072
28.26792,35291
28.27603,35876
28.28415,33343
28.29228,30958
28.30040,34090
28.30852,34362
28.31665,37403
28.32477,33355
28.33290,38017
28.34102,45275
28.34913,47148
28.35727,51906
28.36538,62946
28.37352,75990
28.38163,82074
28.38975,84077
28.39788,88981
28.40600,93538
28.41413,91643
28.42225,87658
28.43037,84638
28.43850,79934
28.44662,72474
28.45473,72362
28.46287,68591
28.47098,61791
28.47912,57009
28.48723,54160
28.49535,52440
28.50348,54982
28.51160,51016
28.51973,45902
28.52785,43926
28.53597,45231
28.54410,44948
28.55222,41977
28.56035,42731
28.56847,39579
28.57658,39463
28.58472,39578
28.59283,40969
28.60095,45624
28.60908,38419
28.61720,36687
28.62533,39663
28.63345,41818
28.64157,37625
28.64970,41956
28.65782,44089
28.66595,43229
28.67407,46950
28.68218,48880
28.69032,44518
28.69843,45094
28.70655,43654
28.71468,39233
28.72280,37854
28.73093,38658
28.73905,40356
28.74717,34575
28.75530,36445
28.76342,39971
28.77155,39875
28.77967,42506
28.78778,47172
28.79592,51487
28.80403,49239
28.81217,43960
28.82028,40517
28.82840,34615
28.83653,38597
28.84465,35301
28.85277,32834
28.86090,37636
28.86902,36249
28.87715,32788
28.88527,32833
28.89338,30752
28.90152,34951
28.90963,35918
28.91777,36445
28.92588,31617
28.93400,32282
28.94213,37640
28.95025,34450
28.95838,36315
28.96650,40119
28.97462,39108
28.98275,39806
28.99087,37535
28.99898,37073
29.00712,35532
29.01523,34580
29.02337,33083
29.03148,36876
29.03960,33302
29.04773,31514
29.05585,34153
29.06398,33981
29.07210,34892
29.08022,34314
29.08835,31358
29.09647,31306
29.10458,30805
29.11272,32757
29.12083,33300
29.12897,30485
29.13708,35296
29.14520,33183
29.15333,33229
29.16145,34707
29.16958,34931
29.17770,33327
29.18582,30588
29.19395,30679
29.20207,33382
29.21020,33572
29.21832,35673
29.22643,33829
29.23457,34662
29.24268,32908
29.25080,29491
29.25893,29898
29.26705,37956
29.27518,32257
29.28330,31705
29.29142,32258
29.29955,32595
29.30767,33387
29.31580,31262
29.32392,32041
29.33203,28810
29.34017,31423
29.34828,31839
29.35640,29378
29.36453,29053
29.37265,28945
29.38078,31434
29.38890,30739
29.39702,31880
29.40515,30496
29.41327,30593
29.42140,31226
29.42952,34213
29.43763,31493
29.44577,35205
29.45388,35888
29.46202,32710
29.47013,30677
29.47825,29576
29.48638,31640
29.49450,30667
29.50262,35366
29.51075,33592
29.51887,37580
29.52700,37584
29.53512,39232
29.54323,34471
29.55137,30231
29.55948,32077
29.56762,36142
29.57573,32603
29.58385,30821
29.59198,32176
29.60010,33947
29.60823,32727
29.61635,32664
29.62447,29008
29.63260,30715
29.64072,31180
29.64883,29963
29.65697,34508
29.66508,30392
29.67322,31173
29.68133,32408
29.68945,29113
29.69758,25542
29.70570,28789
29.71383,27584
29.72195,29151
29.73007,33624
29.73820,32058
29.74632,27934
29.75445,31445
29.76257,30863
29.77068,35096
29.77882,35897
29.78693,33819
29.79505,30555
29.80318,25980
29.81130,30965
29.81943,31258
29.82755,29378
29.83567,31263
29.84380,28587
29.85192,33542
29.86005,28326
29.86817,34038
29.87628,37991
29.88442,52365
29.89253,72080
29.90065,90132
29.90878,99015
29.91690,105391
29.92503,96531
29.93315,79736
29.94127,62172
29.94940,51595
29.95752,43485
29.96565,38840
29.97377,42691
29.98188,43075
29.99002,43377
29.99813,44701
30.00627,46545
30.01438,51801
30.02250,53203
30.03063,57163
30.03875,56383
30.04687,58556
30.05500,61179
30.06312,62522
30.07125,62704
30.07937,63013
30.08748,58317
30.09562,64169
30.10373,63137
30.11187,64465
30.11998,54898
30.12810,56604
30.13623,56460
30.14435,54004
30.15247,49860
30.16060,49495
30.16872,47466
30.17685,46688
30.18497,48175
30.19308,52875
30.20122,43943
30.20933,44784
30.21747,43009
30.22558,42285
30.23370,43046
30.24183,39884
30.24995,41468
30.25808,39808
30.26620,42788
30.27432,35988
30.28245,35154
30.29057,38483
30.29868,31880
30.30682,42354
30.31493,37486
30.32307,35634
30.33118,35758
30.33930,37694
30.34743,34204
30.35555,34749
30.36368,35414
30.37180,33558
30.37992,35023
30.38805,35141
30.39617,38589
30.40430,33997
30.41242,32326
30.42053,34127
30.42867,32107
30.43678,32927
30.44490,37118
30.45303,32279
30.46115,33319
30.46928,33700
30.47740,34489
30.48552,31700
30.49365,31601
30.50177,31879
30.50990,30385
30.51802,32860
30.52613,31096
30.53427,36964
30.54238,34603
30.55050,35330
30.55863,31966
30.56675,31413
30.57488,33902
30.58300,36101
30.59112,31134
30.59925,31430
30.60737,31982
30.61550,27324
30.62362,31188
30.63173,32369
30.63987,33790
30.64798,30532
30.65612,30787
30.66423,31731
30.67235,29906
30.68048,29398
30.68860,32189
30.69672,29362
30.70485,30764
30.71297,28411
30.72110,29910
30.72922,26288
30.73733,29711
30.74547,29689
30.75358,28690
30.76172,31250
30.76983,31447
30.77795,29438
30.78608,35117
30.79420,36686
30.80233,42199
30.81045,48870
30.81857,54387
30.82670,53997
30.83482,56037
30.84293,53823
30.85107,44226
30.85918,40095
30.86732,35060
30.87543,36826
30.88355,33577
30.89168,29945
30.89980,33933
30.90793,37319
30.91605,30240
30.92417,33286
30.93230,32776
30.94042,32827
30.94853,32800
30.95667,34456
30.96478,32068
30.97292,29879
30.98103,32199
30.98915,34518
30.99728,33831
31.00540,32219
31.01353,32941
31.02165,32042
31.02977,35715
31.03790,35680
31.04602,39472
31.05415,44570
31.06227,40308
31.07038,39449
31.07852,40583
31.08663,52091
31.09475,67434
31.10288,83354
31.11100,114593
31.11913,113704
31.12725,117159
31.13537,104856
31.14350,80653
31.15162,58548
31.15975,50990
31.16787,44441
31.17598,38835
31.18412,40654
31.19223,43135
31.20035,40456
31.20848,51915
31.21660,55894
31.22473,57884
31.23285,65611
31.24097,66455
31.24910,63656
31.25722,54276
31.26535,46141
31.27347,39347
31.28158,38293
31.28972,34677
31.29783,32709
31.30597,32731
31.31408,34492
31.32220,35078
31.33033,34339
31.33845,32152
31.34657,31760
31.35470,30404
31.36282,33507
31.37095,36168
31.37907,41669
31.38718,44771
31.39532,44995
31.40343,48554
31.41157,47698
31.41968,38063
31.42780,40645
31.43593,39442
31.44405,38628
31.45218,37251
31.46030,39015
31.46842,34692
31.47655,31963
31.48467,33282
31.49278,30561
31.50092,32654
31.50903,32202
31.51717,31376
31.52528,33378
31.53340,32639
31.54153,29448
31.54965,33819
31.55778,30089
31.56590,30005
31.57402,31214
31.58215,36043
31.59027,31964
31.59838,31492
31.60652,30086
31.61463,31166
31.62277,27776
31.63088,31447
31.63900,33111
31.64713,30770
31.65525,33802
31.66338,33129
31.67150,35316
31.67962,32359
31.68775,30795
31.69587,35487
31.70400,31956
31.71212,37647
31.72023,32786
31.72837,32802
31.73648,32956
31.74460,32282
31.75273,35562
31.76085,32421
31.76898,32654
31.77710,34477
31.78522,35108
31.79335,35535
31.80147,36358
31.80960,37746
31.81772,34609
31.82583,35357
31.83397,35670
31.84208,36660
31.85022,37575
31.85833,34615
31.86645,41632
31.87458,42193
31.88270,41410
31.89082,43647
31.89895,42772
31.90707,42623
31.91520,46755
31.92332,46169
31.93143,48272
31.93957,50395
31.94768,54602
31.95582,50204
31.96393,51004
31.97205,51890
31.98018,55416
31.98830,57319
31.99642,59065
32.00455,55838
32.01267,52613
32.02080,52605
32.02892,52908
32.03703,49104
32.04517,50762
32.05328,47453
32.06142,41467
32.06953,48023
32.07765,45568
32.08578,44443
32.09390,45052
32.10203,45418
32.11015,43256
32.11827,42728
32.12640,43342
32.13452,39536
32.14263,41211
32.15077,34229
32.15888,40368
32.16702,37498
32.17513,40606
32.18325,36650
32.19138,32789
32.19950,33549
32.20763,32337
32.21575,31939
32.22387,34823
32.23200,35420
32.24012,34192
32.24823,36507
32.25637,39172
32.26448,35611
32.27262,37302
32.28073,36389
32.28885,34973
32.29698,37658
32.30510,35276
32.31323,34315
32.32135,34259
32.32947,34267
32.33760,35169
32.34572,30086
32.35385,36910
32.36197,35551
32.37008,32781
32.37822,35677
32.38633,38455
32.39445,36209
32.40258,35920
32.41070,36308
32.41883,33540
32.42695,35713
32.43507,31801
32.44320,32325
32.45132,33498
32.45945,29597
32.46757,31829
32.47568,34520
32.48382,34187
32.49193,31071
32.50007,30903
32.50818,33761
32.51630,32003
32.52443,30901
32.53255,31857
32.54067,32959
32.54880,32493
32.55692,30607
32.56505,33380
32.57317,34196
32.58128,35889
32.58942,33476
32.59753,30666
32.60567,28224
32.61378,31400
32.62190,30644
32.63003,29487
32.63815,33561
32.64627,32543
32.65440,31882
32.66252,36671
32.67065,36427
32.67877,39308
32.68688,40384
32.69502,43377
32.70313,45855
32.71127,44389
32.71938,41020
32.72750,37625
32.73563,37344
32.74375,35955
32.75188,28978
32.76000,33396
32.76812,29045
32.77625,28248
32.78437,30010
32.79248,29941
32.80062,26799
32.80873,32913
32.81687,31889
32.82498,30890
32.83310,31461
32.84123,32910
32.84935,30577
32.85748,32198
32.86560,30945
32.87372,34928
32.88185,29564
32.88997,32898
32.89810,33927
32.90622,31010
32.91433,33563
32.92247,31171
32.93058,28963
32.93870,30155
32.94683,30796
32.95495,30819
32.96308,27719
32.97120,33458
32.97932,32787
32.98745,27521
32.99557,29369
33.00370,31955
33.01182,31356
33.01993,35996
33.02807,28957
33.03618,28111
33.04430,33324
33.05243,31255
33.06055,29023
33.06868,31416
33.07680,31662
33.08492,33525
33.09305,35894
33.10117,40496
33.10930,50028
33.11742,59417
33.12553,70352
33.13367,67115
33.14178,68246
33.14992,55791
33.15803,47218
33.16615,40330
33.17428,38928
33.18240,35964
33.19052,33061
33.19865,34652
33.20677,31471
33.21490,37155
33.22302,32810
33.23113,35415
33.23927,34578
33.24738,34461
33.25552,32189
33.26363,30354
33.27175,32061
33.27988,32759
33.28800,31401
33.29612,35229
33.30425,37126
33.31237,31892
33.32050,33190
33.32862,32162
33.33673,31912
33.34487,33575
33.35298,32168
33.36112,30924
33.36923,32414
33.37735,34442
33.38548,34542
33.39360,31206
33.40173,33293
33.40985,33066
33.41797,34854
33.42610,31152
33.43422,30403
33.44233,29802
33.45047,31599
33.45858,33630
33.46672,28755
33.47483,30688
33.48295,34837
33.49108,28916
33.49920,32014
33.50733,32415
33.51545,29782
33.52357,29635
33.53170,30230
33.53982,34435
33.54795,34117
33.55607,33823
33.56418,35568
33.57232,35279
33.58043,32691
33.58855,31912
33.59668,31098
33.60480,33248
33.61293,30266
33.62105,32259
33.62917,32450
33.63730,33759
33.64542,29273
33.65355,33804
33.66167,34627
33.66978,34284
33.67792,39154
33.68603,33756
33.69415,33719
33.70228,31629
33.71040,35431
33.71853,31348
33.72665,30626
33.73477,33799
33.74290,31591
33.75102,35714
33.75915,32841
33.76727,31465
33.77538,28299
33.78352,32403
33.79163,29394
33.79977,32398
33.80788,31487
33.81600,31334
33.82413,28864
33.83225,32212
33.84037,33558
33.84850,36392
33.85662,36408
33.86475,40730
33.87287,37392
33.88098,36434
33.88912,37321
33.89723,38633
33.90537,34772
33.91348,35104
33.92160,33716
33.92973,35294
33.93785,32525
33.94598,36333
33.95410,38340
33.96222,33420
33.97035,30984
33.97847,34167
33.98658,32847
33.99472,33879
34.00283,33613
34.01097,32751
34.01908,34840
34.02720,36403
34.03533,32582
34.04345,33641
34.05158,32046
34.05970,32709
34.06782,31091
34.07595,32724
34.08407,38382
34.09218,32423
34.10032,33171
34.10843,35299
34.11657,37936
34.12468,32875
34.13280,34260
34.14093,34360
34.14905,32021
34.15718,32668
34.16530,31447
34.17342,34728
34.18155,31243
34.18967,29219
34.19780,31591
34.20592,34902
34.21403,32515
34.22217,32710
34.23028,35405
34.23840,35770
34.24653,36300
34.25465,33327
34.26278,33782
34.27090,33578
34.27902,36020
34.28715,34395
34.29527,30685
34.30340,31831
34.31152,32921
34.31963,37362
34.32777,32655
34.33588,31612
34.34402,33312
34.35213,32648
34.36025,31811
34.36838,32379
34.37650,33275
34.38462,32241
34.39275,35650
34.40087,29402
34.40900,32078
34.41712,32572
34.42523,33082
34.43337,33886
34.44148,32632
34.44962,33173
34.45773,32829
34.46585,34327
34.47398,33179
34.48210,34666
34.49022,35192
34.49835,31090
34.50647,32744
34.51460,34057
34.52272,35746
34.53083,32357
34.53897,39333
34.54708,43663
34.55522,43451
34.56333,48756
34.57145,50658
34.57958,58957
34.58770,54213
34.59583,49645
34.60395,47370
34.61207,48562
34.62020,45354
34.62832,41932
34.63643,41126
34.64457,36425
34.65268,40158
34.66082,39371
34.66893,40876
34.67705,37121
34.68518,37136
34.69330,36911
34.70143,36690
34.70955,33315
34.71767,34496
34.72580,34958
34.73392,38267
34.74203,39204
34.75017,35507
34.75828,43671
34.76642,43737
34.77453,38384
34.78265,36911
34.79078,33023
34.79890,35433
34.80703,36428
34.81515,33434
34.82327,34850
34.83140,36794
34.83952,33110
34.84765,32785
34.85577,38682
34.86388,36935
34.87202,33182
34.88013,36505
34.88825,34799
34.89638,36615
34.90450,33094
34.91263,35379
34.92075,38196
34.92887,33824
34.93700,40257
34.94512,43997
34.95325,62068
34.96137,89451
34.96948,137418
34.97762,191848
34.98573,241715
34.99387,252593
35.00198,225587
35.01010,166124
35.01823,122056
35.02635,83859
35.03447,64324
35.04260,58355
35.05072,50975
35.05885,53204
35.06697,49893
35.07508,46228
35.08322,48136
35.09133,42170
35.09947,48068
35.10758,45935
35.11570,47249
35.12383,45587
35.13195,42298
35.14007,39704
35.14820,47345
35.15632,42598
35.16445,42536
35.17257,46517
35.18068,35791
35.18882,42267
35.19693,42397
35.20507,41214
35.21318,42654
35.22130,40979
35.22943,38034
35.23755,41113
35.24568,45600
35.25380,42633
35.26192,43030
35.27005,42708
35.27817,43597
35.28628,40753
35.29442,39839
35.30253,39947
35.31067,41828
35.31878,41841
35.32690,40654
35.33503,39798
35.34315,36115
35.35128,39663
35.35940,41072
35.36752,41305
35.37565,34144
35.38377,37548
35.39190,41815
35.40002,39174
35.40813,36860
35.41627,39410
35.42438,36928
35.43250,38685
35.44063,38423
35.44875,41582
35.45688,35081
35.46500,40578
35.47312,37418
35.48125,40400
35.48937,41264
35.49750,41789
35.50562,44939
35.51373,40595
35.52187,42367
35.52998,38635
35.53810,38035
35.54623,41387
35.55435,41013
35.56248,42474
35.57060,43602
35.57872,38792
35.58685,38682
35.59497,42347
35.60310,43198
35.61122,45742
35.61933,42629
35.62747,42500
35.63558,42050
35.64372,38839
35.65183,38755
35.65995,42416
35.66808,37715
35.67620,39810
35.68432,40023
35.69245,39984
35.70057,43464
35.70870,43646
35.71682,43363
35.72493,41839
35.73307,40876
35.74118,38800
35.74932,41932
35.75743,39378
35.76555,37833
35.77368,40076
35.78180,38252
35.78993,40523
35.79805,41114
35.80617,41083
35.81430,38839
35.82242,39656
35.83053,39699
35.83867,39889
35.84678,43220
35.85492,41190
35.86303,38918
35.87115,42885
35.87928,40252
35.88740,42703
35.89553,40598
35.90365,37505
35.91177,41891
35.91990,37459
35.92802,36342
35.93613,40603
35.94427,44674
35.95238,41095
35.96052,39308
35.96863,38254
35.97675,37145
35.98488,41445
35.99300,42554
36.00113,42641
36.00925,43969
36.01737,41903
36.02550,44369
36.03362,41533
36.04175,40275
36.04987,42699
36.05798,44387
36.06612,39891
36.07423,39809
36.08235,39059
36.09048,39218
36.09860,36472
36.10673,40100
36.11485,37314
36.12297,42041
36.13110,41014
36.13922,39091
36.14735,40090
36.15547,42398
36.16358,41226
36.17172,40095
36.17983,40205
36.18797,41115
36.19608,41476
36.20420,37674
36.21233,39107
36.22045,40720
36.22857,38550
36.23670,35910
36.24482,40304
36.25295,40225
36.26107,40362
36.26918,41463
36.27732,40372
36.28543,42129
36.29357,42882
36.30168,40245
36.30980,43513
36.31793,46213
36.32605,48177
36.33417,50102
36.34230,50325
36.35042,47103
36.35855,46484
36.36667,46392
36.37478,43186
36.38292,41084
36.39103,40332
36.39917,39835
36.40728,39575
36.41540,41295
36.42353,42814
36.43165,41536
36.43978,43070
36.44790,44645
36.45602,41092
36.46415,40525
36.47227,40090
36.48038,39061
36.48852,39308
36.49663,41235
36.50477,37803
36.51288,39471
36.52100,41819
36.52913,40618
36.53725,41767
36.54538,40335
36.55350,40718
36.56162,39401
36.56975,42236
36.57787,41929
36.58598,39821
36.59412,38817
36.60223,42061
36.61037,39916
36.61848,41474
36.62660,39794
36.63473,37985
36.64285,37787
36.65098,41215
36.65910,36989
36.66722,42520
36.67535,41101
36.68347,39352
36.69160,39906
36.69972,40309
36.70783,43168
36.71597,40447
36.72408,41313
36.73220,40776
36.74033,43269
36.74845,45524
36.75658,39956
36.76470,42899
36.77282,43677
36.78095,42256
36.78907,45187
36.79720,42653
36.80532,40690
36.81343,41530
36.82157,40961
36.82968,39043
36.83782,40857
36.84593,37993
36.85405,41699
36.86218,44352
36.87030,43275
36.87842,39390
36.88655,45442
36.89467,43258
36.90280,41186
36.91092,45018
36.91903,47503
36.92717,45195
36.93528,39560
36.94342,43322
36.95153,39638
36.95965,43157
36.96778,42104
36.97590,42415
36.98402,41629
36.99215,43415
37.00027,43352
37.00840,43133
37.01652,50216
37.02463,38866
37.03277,39341
37.04088,46697
37.04902,41689
37.05713,42349
37.06525,44636
37.07338,39400
37.08150,39553
37.08963,42733
37.09775,38692
37.10587,39653
37.11400,43667
37.12212,44791
37.13023,43697
37.13837,43157
37.14648,43860
37.15462,41101
37.16273,44567
37.17085,42348
37.17898,45884
37.18710,42802
37.19523,42686
37.20335,45968
37.21147,47295
37.21960,40964
37.22772,46273
37.23585,47167
37.24397,48760
37.25208,43885
37.26022,50573
37.26833,46900
37.27645,45248
37.28458,43884
37.29270,46602
37.30083,43742
37.30895,43945
37.31707,42868
37.32520,49711
37.33332,46979
37.34145,49510
37.34957,46115
37.35768,51960
37.36582,53007
37.37393,51888
37.38205,56029
37.39018,51669
37.39830,52156
37.40643,53297
37.41455,53679
37.42267,52607
37.43080,49934
37.43892,50683
37.44705,50467
37.45517,50413
37.46328,50393
37.47142,48669
37.47953,52731
37.48767,45373
