Z:\data\JTB-E02\BACandBLUE\JTB-E02-197-14.D Thu Feb 21 15:39:08 2019
Start of data points
2.09530	58140
2.10343	59099
2.11155	61874
2.11968	58613
2.12780	57229
2.13592	56123
2.14405	56608
2.15217	55084
2.16030	49999
2.16842	51504
2.17653	52818
2.18467	51595
2.19278	52419
2.20090	44505
2.20903	53582
2.21715	51416
2.22528	48026
2.23340	43943
2.24152	45008
2.24965	49178
2.25777	51606
2.26590	127295
2.27402	875578
2.28213	1867483
2.29027	1212742
2.29838	673415
2.30650	505692
2.31463	430452
2.32275	390831
2.33088	335701
2.33900	311392
2.34712	283409
2.35525	264311
2.36337	237402
2.37150	234419
2.37962	224500
2.38773	217264
2.39587	194235
2.40398	189865
2.41212	190785
2.42023	191086
2.42835	185542
2.43648	172478
2.44460	168763
2.45272	169554
2.46085	168213
2.46897	152814
2.47710	145349
2.48522	153379
2.49333	163777
2.50147	169048
2.50958	160946
2.51772	157472
2.52583	152872
2.53395	145006
2.54208	141980
2.55020	165509
2.55833	335718
2.56645	536189
2.57457	406074
2.58270	272166
2.59082	237713
2.59893	204785
2.60707	201482
2.61518	213817
2.62332	209760
2.63143	188925
2.63955	175627
2.64768	170796
2.65580	167716
2.66393	173327
2.67205	170651
2.68017	169195
2.68830	163771
2.69642	157070
2.70455	145107
2.71267	143979
2.72078	141266
2.72892	147728
2.73703	150182
2.74515	154293
2.75328	137087
2.76140	127682
2.76953	125824
2.77765	126325
2.78577	132216
2.79390	148557
2.80202	225066
2.81015	346035
2.81827	330813
2.82638	244755
2.83452	244802
2.84263	230199
2.85075	208846
2.85888	242460
2.86700	309911
2.87513	289091
2.88325	262734
2.89137	302566
2.89950	302845
2.90762	245812
2.91575	198601
2.92387	172903
2.93198	179022
2.94012	172817
2.94823	155932
2.95637	140524
2.96448	137822
2.97260	130703
2.98073	123775
2.98885	123383
2.99697	170443
3.00510	424867
3.01322	653913
3.02135	495431
3.02947	290868
3.03758	218630
3.04572	200947
3.05383	216406
3.06197	259153
3.07008	245347
3.07820	229424
3.08633	303528
3.09445	435174
3.10257	896080
3.11070	2082571
3.11882	2666839
3.12695	2272897
3.13507	1871430
3.14318	1465766
3.15132	1112727
3.15943	928995
3.16757	795659
3.17568	693482
3.18380	590847
3.19193	538152
3.20005	499433
3.20818	429970
3.21630	389222
3.22442	369192
3.23255	359046
3.24067	333831
3.24878	296331
3.25692	268841
3.26503	247649
3.27317	237259
3.28128	264627
3.28940	487346
3.29753	1674280
3.30565	4518302
3.31378	7339363
3.32190	7381251
3.33002	5472944
3.33815	3746714
3.34627	2749747
3.35438	2155452
3.36252	1801103
3.37063	1596704
3.37877	1544780
3.38688	1592484
3.39500	1613312
3.40313	1588494
3.41125	1531863
3.41938	1447041
3.42750	1305252
3.43562	1178477
3.44375	1059049
3.45187	987621
3.46000	1023584
3.46812	1355003
3.47623	1736095
3.48437	1723712
3.49248	1508864
3.50060	1395360
3.50873	1245671
3.51685	1160279
3.52498	1167775
3.53310	1211517
3.54122	1088380
3.54935	911823
3.55747	767022
3.56560	678290
3.57372	632481
3.58183	590857
3.58997	548957
3.59808	532333
3.60622	511620
3.61433	511663
3.62245	534865
3.63058	515506
3.63870	495556
3.64682	466896
3.65495	464116
3.66307	493875
3.67120	663118
3.67932	866554
3.68743	916863
3.69557	905324
3.70368	953183
3.71182	1000577
3.71993	907467
3.72805	761654
3.73618	682533
3.74430	648740
3.75243	583974
3.76055	539745
3.76867	496550
3.77680	486126
3.78492	579288
3.79303	809814
3.80117	1072394
3.80928	1494123
3.81742	2338280
3.82553	2612607
3.83365	2052823
3.84178	1443443
3.84990	1162975
3.85803	965454
3.86615	857746
3.87427	749365
3.88240	701419
3.89052	658094
3.89863	658438
3.90677	619843
3.91488	591144
3.92302	594526
3.93113	563062
3.93925	525429
3.94738	499745
3.95550	479319
3.96363	458212
3.97175	476308
3.97987	471378
3.98800	444663
3.99612	436554
4.00425	449901
4.01237	509187
4.02048	535695
4.02862	569981
4.03673	607262
4.04485	604129
4.05298	592276
4.06110	568520
4.06923	495245
4.07735	429506
4.08547	375849
4.09360	367641
4.10172	418161
4.10985	500916
4.11797	567047
4.12608	582628
4.13422	578591
4.14233	554285
4.15045	621853
4.15858	761000
4.16670	867711
4.17483	837102
4.18295	706069
4.19107	551418
4.19920	443931
4.20732	390040
4.21545	384259
4.22357	445224
4.23168	567543
4.23982	611621
4.24793	558853
4.25607	480502
4.26418	402516
4.27230	367023
4.28043	330956
4.28855	321525
4.29667	290860
4.30480	283166
4.31292	279782
4.32105	275088
4.32917	263661
4.33728	264876
4.34542	266498
4.35353	264109
4.36167	250607
4.36978	246164
4.37790	249098
4.38603	244858
4.39415	244785
4.40228	251753
4.41040	253740
4.41852	253923
4.42665	253786
4.43477	248847
4.44288	244219
4.45102	240697
4.45913	250182
4.46727	256304
4.47538	270520
4.48350	264611
4.49163	284815
4.49975	323756
4.50788	377542
4.51600	410186
4.52412	406099
4.53225	372824
4.54037	352828
4.54848	354469
4.55662	341609
4.56473	338503
4.57287	347066
4.58098	345118
4.58910	349337
4.59723	329765
4.60535	315859
4.61348	322997
4.62160	328556
4.62972	337775
4.63785	319128
4.64597	313686
4.65410	295557
4.66222	302570
4.67033	326966
4.67847	322882
4.68658	294545
4.69470	256756
4.70283	244534
4.71095	234866
4.71908	220214
4.72720	215501
4.73532	202434
4.74345	200691
4.75157	202715
4.75970	219708
4.76782	219379
4.77593	239076
4.78407	241200
4.79218	233550
4.80032	227825
4.80843	225037
4.81655	227004
4.82468	246694
4.83280	257147
4.84092	285419
4.84905	293737
4.85717	278510
4.86530	266750
4.87342	261995
4.88153	275053
4.88967	294988
4.89778	316843
4.90592	290479
4.91403	254543
4.92215	238436
4.93028	229381
4.93840	298890
4.94652	559573
4.95465	1201947
4.96277	2079289
4.97090	2739887
4.97902	2757652
4.98713	2279762
4.99527	1711048
5.00338	1337322
5.01152	1090926
5.01963	927168
5.02775	844710
5.03588	769209
5.04400	726078
5.05213	685134
5.06025	648598
5.06837	637298
5.07650	603960
5.08462	579926
5.09273	551130
5.10087	535774
5.10898	520572
5.11712	508379
5.12523	505101
5.13335	490609
5.14148	478131
5.14960	483312
5.15773	503085
5.16585	526384
5.17397	551045
5.18210	606662
5.19022	677240
5.19833	729623
5.20647	678434
5.21458	564974
5.22272	472877
5.23083	423448
5.23895	394723
5.24708	392864
5.25520	376218
5.26333	370884
5.27145	353835
5.27957	345834
5.28770	317054
5.29582	317291
5.30395	305146
5.31207	319149
5.32018	334469
5.32832	346909
5.33643	402869
5.34455	419475
5.35268	443279
5.36080	433410
5.36893	412765
5.37705	400186
5.38517	371078
5.39330	346791
5.40142	311649
5.40955	294680
5.41767	287076
5.42578	278744
5.43392	305251
5.44203	329295
5.45017	362611
5.45828	382030
5.46640	383321
5.47453	386960
5.48265	351725
5.49077	331573
5.49890	329923
5.50702	347696
5.51515	382415
5.52327	401903
5.53138	419112
5.53952	384193
5.54763	344148
5.55577	296782
5.56388	280046
5.57200	273467
5.58013	293244
5.58825	326612
5.59637	369461
5.60450	392616
5.61262	383377
5.62075	352746
5.62887	317012
5.63698	320662
5.64512	290901
5.65323	286999
5.66137	278226
5.66948	271264
5.67760	268766
5.68573	284568
5.69385	314811
5.70198	331751
5.71010	321597
5.71822	302320
5.72635	288109
5.73447	274090
5.74258	278242
5.75072	261458
5.75883	247266
5.76697	251732
5.77508	250084
5.78320	262552
5.79133	276899
5.79945	263370
5.80758	258675
5.81570	243535
5.82382	234015
5.83195	227684
5.84007	239115
5.84820	235551
5.85632	234380
5.86443	232306
5.87257	219709
5.88068	208680
5.88880	211676
5.89693	199952
5.90505	200453
5.91318	192808
5.92130	194627
5.92942	192077
5.93755	186551
5.94567	187115
5.95380	193736
5.96192	207222
5.97003	211431
5.97817	230304
5.98628	233976
5.99440	229250
6.00253	217883
6.01065	198319
6.01878	176727
6.02690	174976
6.03502	175229
6.04315	164310
6.05127	166313
6.05940	181225
6.06752	192638
6.07563	192930
6.08377	191033
6.09188	181208
6.10002	170634
6.10813	170285
6.11625	156688
6.12438	159122
6.13250	159843
6.14062	155956
6.14875	164829
6.15687	171970
6.16500	204674
6.17312	210000
6.18123	215936
6.18937	214908
6.19748	201986
6.20562	197192
6.21373	189979
6.22185	194486
6.22998	199565
6.23810	185347
6.24623	204216
6.25435	207512
6.26247	202529
6.27060	206752
6.27872	210592
6.28683	211702
6.29497	196648
6.30308	202008
6.31122	198375
6.31933	189083
6.32745	205780
6.33558	207035
6.34370	205968
6.35183	212214
6.35995	212625
6.36807	216107
6.37620	219722
6.38432	221175
6.39243	221100
6.40057	235339
6.40868	236393
6.41682	239283
6.42493	237244
6.43305	237442
6.44118	236975
6.44930	240927
6.45743	252382
6.46555	254861
6.47367	249760
6.48180	249555
6.48992	255930
6.49805	257987
6.50617	247933
6.51428	246122
6.52242	245436
6.53053	243177
6.53865	255395
6.54678	245717
6.55490	248569
6.56303	256636
6.57115	254393
6.57927	248723
6.58740	236161
6.59552	255898
6.60365	251312
6.61177	258608
6.61988	256133
6.62802	273965
6.63613	292866
6.64425	318923
6.65238	471719
6.66050	942237
6.66863	1759044
6.67675	2477567
6.68487	2525246
6.69300	1911254
6.70112	1288529
6.70925	919862
6.71737	759254
6.72548	637508
6.73362	571752
6.74173	505694
6.74987	465080
6.75798	445742
6.76610	420903
6.77423	400868
6.78235	391099
6.79047	383811
6.79860	368694
6.80672	367186
6.81485	346788
6.82297	338133
6.83108	345088
6.83922	342142
6.84733	344238
6.85547	338920
6.86358	319630
6.87170	310126
6.87983	311567
6.88795	304200
6.89608	302907
6.90420	289973
6.91232	301092
6.92045	298234
6.92857	294900
6.93668	301193
6.94482	299535
6.95293	299263
6.96107	302688
6.96918	311741
6.97730	325945
6.98543	336323
6.99355	326071
7.00168	313993
7.00980	305240
7.01792	307377
7.02605	311650
7.03417	325808
7.04228	353309
7.05042	364812
7.05853	345304
7.06667	327423
7.07478	315966
7.08290	315219
7.09103	314033
7.09915	321641
7.10728	330364
7.11540	323197
7.12352	303043
7.13165	237958
7.13977	209527
7.14790	186318
7.15602	177932
7.16413	182866
7.17227	174420
7.18038	164175
7.18850	156578
7.19663	158667
7.20475	157780
7.21288	151531
7.22100	147619
7.22912	135334
7.23725	129904
7.24537	132834
7.25350	131380
7.26162	131461
7.26973	129985
7.27787	131757
7.28598	137905
7.29412	126991
7.30223	132919
7.31035	136986
7.31848	143330
7.32660	154985
7.33472	162157
7.34285	161782
7.35097	168895
7.35910	162106
7.36722	149391
7.37533	133636
7.38347	127165
7.39158	124703
7.39972	119662
7.40783	116123
7.41595	118423
7.42408	118185
7.43220	122069
7.44032	120626
7.44845	120471
7.45657	115426
7.46470	114150
7.47282	112976
7.48093	115128
7.48907	111359
7.49718	120738
7.50532	114056
7.51343	120907
7.52155	118974
7.52968	118951
7.53780	113475
7.54593	118894
7.55405	115445
7.56217	114571
7.57030	113964
7.57842	116721
7.58653	110527
7.59467	115161
7.60278	106427
7.61092	96723
7.61903	104116
7.62715	104099
7.63528	98878
7.64340	104020
7.65153	103052
7.65965	101794
7.66777	99726
7.67590	99763
7.68402	91861
7.69213	88331
7.70027	91765
7.70838	90677
7.71652	90836
7.72463	100931
7.73275	97597
7.74088	98496
7.74900	100089
7.75713	90455
7.76525	104900
7.77337	103686
7.78150	107897
7.78962	108322
7.79775	107086
7.80587	105158
7.81398	95572
7.82212	103342
7.83023	88127
7.83835	89004
7.84648	96629
7.85460	99420
7.86273	116928
7.87085	140922
7.87897	148705
7.88710	149994
7.89522	147976
7.90335	136037
7.91147	119873
7.91958	116480
7.92772	119069
7.93583	135970
7.94397	169170
7.95208	205332
7.96020	231869
7.96833	230538
7.97645	193105
7.98457	162846
7.99270	148378
8.00082	128846
8.00895	119557
8.01707	110489
8.02518	98957
8.03332	94506
8.04143	96111
8.04957	100173
8.05768	105714
8.06580	122946
8.07393	142737
8.08205	146344
8.09018	144003
8.09830	128613
8.10642	120227
8.11455	99650
8.12267	91275
8.13078	86203
8.13892	94246
8.14703	86220
8.15517	83953
8.16328	86057
8.17140	82714
8.17953	81306
8.18765	78408
8.19578	73961
8.20390	75192
8.21202	76853
8.22015	81954
8.22827	103871
8.23638	135326
8.24452	178133
8.25263	231163
8.26077	239421
8.26888	215319
8.27700	174107
8.28513	134469
8.29325	111127
8.30138	96177
8.30950	91332
8.31762	93138
8.32575	89086
8.33387	89697
8.34200	90769
8.35012	101064
8.35823	102901
8.36637	113044
8.37448	122283
8.38260	116392
8.39073	109003
8.39885	97877
8.40698	89105
8.41510	85109
8.42322	82359
8.43135	80026
8.43947	85930
8.44760	76572
8.45572	75162
8.46383	71829
8.47197	77214
8.48008	72401
8.48820	71396
8.49633	69347
8.50445	68461
8.51258	73743
8.52070	69923
8.52882	75340
8.53695	75631
8.54507	77271
8.55320	84537
8.56132	100229
8.56943	111194
8.57757	107439
8.58568	112619
8.59382	130404
8.60193	220894
8.61005	533085
8.61818	1399199
8.62630	2740035
8.63442	3968204
8.64255	4243827
8.65067	3596671
8.65880	2546501
8.66692	1757601
8.67503	1225840
8.68317	888013
8.69128	602187
8.69942	355403
8.70753	228768
8.71565	185032
8.72378	193450
8.73190	218854
8.74003	340344
8.74815	535280
8.75627	755316
8.76440	902382
8.77252	915923
8.78063	770774
8.78877	623814
8.79688	482656
8.80502	391680
8.81313	333526
8.82125	298596
8.82938	269359
8.83750	244809
8.84563	220333
8.85375	191952
8.86187	169210
8.87000	151741
8.87812	152651
8.88623	165272
8.89437	196874
8.90248	211462
8.91062	228738
8.91873	230348
8.92685	226836
8.93498	227784
8.94310	215303
8.95123	218622
8.95935	210474
8.96747	197997
8.97560	191685
8.98372	184214
8.99185	179415
8.99997	172392
9.00808	170704
9.01622	168079
9.02433	167566
9.03245	163454
9.04058	165948
9.04870	162770
9.05683	170218
9.06495	160553
9.07307	161648
9.08120	150205
9.08932	147494
9.09745	149894
9.10557	152626
9.11368	150424
9.12182	141778
9.12993	135847
9.13807	144152
9.14618	137592
9.15430	137918
9.16243	142809
9.17055	140872
9.17867	135074
9.18680	133784
9.19492	133305
9.20305	131407
9.21117	126367
9.21928	131127
9.22742	119476
9.23553	119748
9.24367	120486
9.25178	116865
9.25990	109557
9.26803	116349
9.27615	118110
9.28427	115179
9.29240	126721
9.30052	122505
9.30865	134392
9.31677	126487
9.32488	126011
9.33302	117027
9.34113	111324
9.34927	114437
9.35738	111603
9.36550	107991
9.37363	105267
9.38175	98379
9.38988	100621
9.39800	100880
9.40612	106927
9.41425	99884
9.42237	103268
9.43048	99366
9.43862	103515
9.44673	103459
9.45487	109147
9.46298	115872
9.47110	136250
9.47923	150225
9.48735	170424
9.49548	169232
9.50360	171048
9.51172	166800
9.51985	157211
9.52797	143290
9.53608	128318
9.54422	114855
9.55233	100298
9.56047	96242
9.56858	91377
9.57670	78661
9.58483	76793
9.59295	81108
9.60108	74225
9.60920	83791
9.61732	77048
9.62545	80660
9.63357	73785
9.64170	67649
9.64982	66162
9.65793	70316
9.66607	68591
9.67418	61947
9.68230	64647
9.69043	64304
9.69855	65453
9.70668	61835
9.71480	59727
9.72292	61555
9.73105	60137
9.73917	58624
9.74730	63491
9.75542	60006
9.76353	58605
9.77167	61157
9.77978	68272
9.78792	62170
9.79603	54662
9.80415	64226
9.81228	64100
9.82040	70014
9.82852	70464
9.83665	70652
9.84477	81505
9.85290	85946
9.86102	89285
9.86913	100720
9.87727	86840
9.88538	75759
9.89352	70735
9.90163	66320
9.90975	60940
9.91788	57247
9.92600	65048
9.93412	63434
9.94225	68961
9.95037	71839
9.95850	81893
9.96662	86839
9.97473	98599
9.98287	102610
9.99098	94777
9.99912	94586
10.00723	85091
10.01535	76607
10.02348	74625
10.03160	65258
10.03973	66514
10.04785	63791
10.05597	62658
10.06410	56180
10.07222	58051
10.08033	54920
10.08847	57356
10.09658	54465
10.10472	56411
10.11283	58934
10.12095	60396
10.12908	64885
10.13720	60358
10.14533	60976
10.15345	57449
10.16157	57757
10.16970	60950
10.17782	59294
10.18595	55056
10.19407	60233
10.20218	63511
10.21032	57434
10.21843	57654
10.22655	58764
10.23468	59021
10.24280	60278
10.25093	61972
10.25905	61610
10.26717	68056
10.27530	74897
10.28342	74284
10.29155	73937
10.29967	75449
10.30778	92028
10.31592	154323
10.32403	270529
10.33215	437044
10.34028	603850
10.34840	804921
10.35653	1145574
10.36465	1681387
10.37277	2363334
10.38090	2653918
10.38902	2319572
10.39715	1628195
10.40527	919183
10.41338	479842
10.42152	257096
10.42963	170774
10.43777	121797
10.44588	110331
10.45400	99673
10.46213	91285
10.47025	94311
10.47837	95702
10.48650	103637
10.49462	106340
10.50275	101046
10.51087	92904
10.51898	87896
10.52712	80689
10.53523	77103
10.54337	70162
10.55148	66279
10.55960	72311
10.56773	73364
10.57585	71582
10.58398	74321
10.59210	74112
10.60022	74856
10.60835	76574
10.61647	72957
10.62458	73151
10.63272	73509
10.64083	78279
10.64897	70150
10.65708	65884
10.66520	62007
10.67333	66184
10.68145	64558
10.68958	65208
10.69770	73573
10.70582	64565
10.71395	68404
10.72207	62933
10.73018	62230
10.73832	62392
10.74643	59442
10.75457	54561
10.76268	58313
10.77080	57330
10.77893	61596
10.78705	61327
10.79518	58922
10.80330	57593
10.81142	52286
10.81955	55800
10.82767	50923
10.83580	54913
10.84392	53219
10.85203	52560
10.86017	58319
10.86828	51202
10.87640	54114
10.88453	52162
10.89265	48089
10.90078	50897
10.90890	54327
10.91702	53262
10.92515	46318
10.93327	52734
10.94140	56140
10.94952	52518
10.95763	49720
10.96577	48707
10.97388	50704
10.98200	51023
10.99013	50575
10.99825	45043
11.00638	47609
11.01450	46295
11.02262	52900
11.03075	48454
11.03887	49025
11.04700	44722
11.05512	52474
11.06323	47594
11.07137	47380
11.07948	47533
11.08762	46973
11.09573	44688
11.10385	42748
11.11198	42607
11.12010	44176
11.12822	44840
11.13635	45235
11.14447	55781
11.15260	53228
11.16072	49806
11.16883	57537
11.17697	56803
11.18508	57518
11.19322	50639
11.20133	49152
11.20945	49027
11.21758	45906
11.22570	43658
11.23383	48810
11.24195	44925
11.25007	49305
11.25820	47672
11.26632	48008
11.27443	47896
11.28257	51296
11.29068	48939
11.29882	46824
11.30693	46938
11.31505	46005
11.32318	45539
11.33130	46661
11.33943	46084
11.34755	46152
11.35567	48931
11.36380	42823
11.37192	42112
11.38003	43439
11.38817	36868
11.39628	41538
11.40442	38728
11.41253	40201
11.42065	39672
11.42878	40235
11.43690	42587
11.44503	42836
11.45315	41302
11.46127	39998
11.46940	39488
11.47752	43602
11.48565	42588
11.49377	46035
11.50188	54994
11.51002	61949
11.51813	62441
11.52625	67300
11.53438	67605
11.54250	62233
11.55063	59843
11.55875	58270
11.56687	52654
11.57500	61613
11.58312	56568
11.59125	58572
11.59937	55193
11.60748	50505
11.61562	48158
11.62373	43019
11.63187	48246
11.63998	43639
11.64810	46984
11.65623	50551
11.66435	61141
11.67247	71419
11.68060	79985
11.68872	102167
11.69685	104386
11.70497	96107
11.71308	84460
11.72122	64607
11.72933	54452
11.73747	57792
11.74558	46107
11.75370	49420
11.76183	44033
11.76995	47005
11.77807	43802
11.78620	46738
11.79432	52137
11.80245	51164
11.81057	49692
11.81868	50864
11.82682	51336
11.83493	51742
11.84307	46051
11.85118	43490
11.85930	46933
11.86743	41920
11.87555	49477
11.88368	44018
11.89180	45176
11.89992	47313
11.90805	39626
11.91617	43059
11.92428	51792
11.93242	45277
11.94053	49345
11.94867	49844
11.95678	47418
11.96490	48550
11.97303	40650
11.98115	45147
11.98928	40931
11.99740	40204
12.00552	48929
12.01365	50583
12.02177	53303
12.02988	59118
12.03802	58546
12.04613	58565
12.05427	53794
12.06238	53330
12.07050	48766
12.07863	49119
12.08675	49225
12.09488	45538
12.10300	52876
12.11112	47705
12.11925	44031
12.12737	44789
12.13550	44672
12.14362	40368
12.15173	43258
12.15987	39734
12.16798	41719
12.17610	44379
12.18423	39263
12.19235	40015
12.20048	40125
12.20860	43077
12.21672	41039
12.22485	44449
12.23297	43842
12.24110	37933
12.24922	44627
12.25733	42977
12.26547	39749
12.27358	42150
12.28172	40482
12.28983	42571
12.29795	37604
12.30608	41361
12.31420	39557
12.32232	42512
12.33045	36901
12.33857	40638
12.34670	41329
12.35482	44249
12.36293	43411
12.37107	43218
12.37918	48314
12.38732	46475
12.39543	56039
12.40355	50209
12.41168	56824
12.41980	53516
12.42792	57372
12.43605	50176
12.44417	50166
12.45230	42412
12.46042	44903
12.46853	42601
12.47667	41082
12.48478	44720
12.49292	42112
12.50103	45823
12.50915	38682
12.51728	39212
12.52540	40581
12.53353	42814
12.54165	43955
12.54977	44299
12.55790	51388
12.56602	48006
12.57413	44870
12.58227	42467
12.59038	46569
12.59852	56006
12.60663	65786
12.61475	71910
12.62288	63377
12.63100	62828
12.63913	56605
12.64725	49871
12.65537	42325
12.66350	42252
12.67162	46323
12.67975	44874
12.68787	43960
12.69598	41577
12.70412	42616
12.71223	46273
12.72035	46351
12.72848	45154
12.73660	42620
12.74473	41284
12.75285	42105
12.76097	45249
12.76910	43574
12.77722	39913
12.78535	38283
12.79347	43005
12.80158	43723
12.80972	44298
12.81783	40492
12.82595	41665
12.83408	40911
12.84220	40728
12.85033	40312
12.85845	41156
12.86657	37599
12.87470	40292
12.88282	35953
12.89095	40459
12.89907	39586
12.90718	47801
12.91532	39893
12.92343	42669
12.93157	40937
12.93968	45306
12.94780	39718
12.95593	38845
12.96405	39139
12.97217	38252
12.98030	38793
12.98842	34167
12.99655	40881
13.00467	40187
13.01278	46812
13.02092	43384
13.02903	48313
13.03717	45215
13.04528	47373
13.05340	42571
13.06153	39259
13.06965	43740
13.07777	41471
13.08590	38616
13.09402	40375
13.10215	38081
13.11027	40057
13.11838	41344
13.12652	40258
13.13463	45354
13.14277	43343
13.15088	38465
13.15900	40348
13.16713	41185
13.17525	41137
13.18338	47039
13.19150	45588
13.19962	44029
13.20775	49781
13.21587	44802
13.22398	47903
13.23212	48268
13.24023	42419
13.24837	44252
13.25648	43204
13.26460	40403
13.27273	40351
13.28085	42114
13.28898	40002
13.29710	41328
13.30522	43696
13.31335	41962
13.32147	40782
13.32960	42748
13.33772	38872
13.34583	41006
13.35397	41375
13.36208	44187
13.37020	37081
13.37833	38159
13.38645	39696
13.39458	37635
13.40270	38237
13.41082	38008
13.41895	39417
13.42707	36772
13.43520	40035
13.44332	40130
13.45143	41951
13.45957	42720
13.46768	41922
13.47582	37973
13.48393	38629
13.49205	40178
13.50018	37892
13.50830	36109
13.51642	36976
13.52455	35359
13.53267	38557
13.54080	38415
13.54892	38018
13.55703	39354
13.56517	38318
13.57328	39694
13.58142	40054
13.58953	38429
13.59765	36697
13.60578	36128
13.61390	40348
13.62202	44109
13.63015	38583
13.63827	36955
13.64640	45448
13.65452	38642
13.66263	41111
13.67077	38716
13.67888	36640
13.68702	38689
13.69513	34961
13.70325	37377
13.71138	45162
13.71950	34305
13.72763	40724
13.73575	35014
13.74387	38914
13.75200	41668
13.76012	42091
13.76823	58951
13.77637	77397
13.78448	100962
13.79262	141692
13.80073	163862
13.80885	161416
13.81698	145042
13.82510	120476
13.83323	96656
13.84135	74984
13.84947	68094
13.85760	59028
13.86572	53475
13.87383	53022
13.88197	51787
13.89008	44822
13.89822	50659
13.90633	53913
13.91445	46969
13.92258	47903
13.93070	48915
13.93883	43320
13.94695	47306
13.95507	51830
13.96320	58588
13.97132	82580
13.97945	107824
13.98757	185694
13.99568	259547
14.00382	302650
14.01193	270672
14.02005	258092
14.02818	189432
14.03630	138440
14.04443	107369
14.05255	81605
14.06067	71404
14.06880	70853
14.07692	70166
14.08505	70816
14.09317	67052
14.10128	66903
14.10942	64968
14.11753	62699
14.12567	55949
14.13378	61474
14.14190	65965
14.15003	56718
14.15815	60777
14.16627	51812
14.17440	59790
14.18252	58792
14.19065	73174
14.19877	100334
14.20688	152508
14.21502	214281
14.22313	267530
14.23127	296046
14.23938	289089
14.24750	265324
14.25563	250727
14.26375	205578
14.27187	186740
14.28000	166321
14.28812	143748
14.29625	137489
14.30437	122443
14.31248	115230
14.32062	109362
14.32873	106067
14.33687	93008
14.34498	99108
14.35310	87462
14.36123	78473
14.36935	82460
14.37748	71974
14.38560	64490
14.39372	57246
14.40185	58460
14.40997	50344
14.41808	47977
14.42622	49442
14.43433	45641
14.44247	46498
14.45058	47391
14.45870	47925
14.46683	47133
14.47495	45032
14.48308	43349
14.49120	42506
14.49932	42938
14.50745	43251
14.51557	43435
14.52370	39810
14.53182	42374
14.53993	42521
14.54807	41482
14.55618	44269
14.56430	43571
14.57243	40589
14.58055	42637
14.58868	43699
14.59680	39178
14.60492	38385
14.61305	38865
14.62117	39552
14.62930	39786
14.63742	38751
14.64553	41738
14.65367	39803
14.66178	38186
14.66990	37719
14.67803	41380
14.68615	41918
14.69428	42434
14.70240	37137
14.71052	40678
14.71865	44135
14.72677	43520
14.73490	36101
14.74302	35667
14.75113	38829
14.75927	45389
14.76738	37437
14.77552	38838
14.78363	41313
14.79175	40474
14.79988	40406
14.80800	40051
14.81612	42064
14.82425	48169
14.83237	49289
14.84050	54531
14.84862	62878
14.85673	62370
14.86487	61764
14.87298	57545
14.88112	54557
14.88923	54301
14.89735	54224
14.90548	49969
14.91360	48267
14.92172	49574
14.92985	49590
14.93797	47233
14.94610	49006
14.95422	47055
14.96233	42149
14.97047	44975
14.97858	43119
14.98672	47109
14.99483	48856
15.00295	47797
15.01108	42184
15.01920	46480
15.02733	46411
15.03545	44273
15.04357	46733
15.05170	43300
15.05982	43165
15.06793	45956
15.07607	42112
15.08418	50498
15.09232	47970
15.10043	46297
15.10855	44322
15.11668	43440
15.12480	43248
15.13293	41686
15.14105	43604
15.14917	45761
15.15730	44329
15.16542	43649
15.17355	44668
15.18167	41797
15.18978	41876
15.19792	45785
15.20603	41151
15.21415	41325
15.22228	43804
15.23040	39534
15.23853	40101
15.24665	39842
15.25477	39116
15.26290	42262
15.27102	38379
15.27915	34107
15.28727	37146
15.29538	36202
15.30352	35689
15.31163	37147
15.31975	37833
15.32788	37532
15.33600	35659
15.34413	36425
15.35225	40987
15.36037	40778
15.36850	42221
15.37662	38111
15.38475	39370
15.39287	34024
15.40098	38337
15.40912	38410
15.41723	43829
15.42537	35995
15.43348	36361
15.44160	37132
15.44973	38723
15.45785	40078
15.46597	40409
15.47410	37138
15.48222	38938
15.49035	38183
15.49847	43644
15.50658	54916
15.51472	68539
15.52283	85050
15.53097	95495
15.53908	108180
15.54720	93953
15.55533	82854
15.56345	63301
15.57158	48441
15.57970	43949
15.58782	47883
15.59595	43536
15.60407	37005
15.61218	39952
15.62032	41417
15.62843	41123
15.63657	41907
15.64468	43172
15.65280	41736
15.66093	37685
15.66905	37834
15.67718	39622
15.68530	39354
15.69342	40581
15.70155	38730
15.70967	39971
15.71778	38473
15.72592	38389
15.73403	38014
15.74217	36919
15.75028	35436
15.75840	38927
15.76653	37707
15.77465	39096
15.78278	36176
15.79090	42563
15.79902	48520
15.80715	49791
15.81527	47540
15.82340	43446
15.83152	42467
15.83963	42114
15.84777	40332
15.85588	43756
15.86400	38609
15.87213	44775
15.88025	45214
15.88838	43249
15.89650	40296
15.90462	43916
15.91275	45752
15.92087	43359
15.92900	43505
15.93712	41640
15.94523	44712
15.95337	43988
15.96148	43447
15.96962	44929
15.97773	47121
15.98585	50133
15.99398	56023
16.00210	55490
16.01022	57943
16.01835	53366
16.02647	50730
16.03460	50217
16.04272	48317
16.05083	44924
16.05897	45205
16.06708	48366
16.07522	45715
16.08333	46291
16.09145	46173
16.09958	47865
16.10770	43144
16.11582	48721
16.12395	46019
16.13207	47066
16.14020	43822
16.14832	43433
16.15643	44209
16.16457	44703
16.17268	42573
16.18082	42820
16.18893	45945
16.19705	46335
16.20518	41828
16.21330	43218
16.22143	42856
16.22955	46631
16.23767	40104
16.24580	37762
16.25392	39923
16.26203	41966
16.27017	37449
16.27828	43732
16.28642	43054
16.29453	39268
16.30265	46453
16.31078	46694
16.31890	40904
16.32703	38340
16.33515	44638
16.34327	42801
16.35140	43599
16.35952	48457
16.36763	49894
16.37577	56345
16.38388	62345
16.39202	70945
16.40013	72646
16.40825	67934
16.41638	63295
16.42450	55944
16.43263	51275
16.44075	46616
16.44887	43967
16.45700	50423
16.46512	46564
16.47325	42151
16.48137	46083
16.48948	40684
16.49762	45452
16.50573	44678
16.51385	44111
16.52198	40976
16.53010	41295
16.53823	45807
16.54635	41673
16.55447	37293
16.56260	40777
16.57072	41917
16.57885	34269
16.58697	41233
16.59508	41934
16.60322	47743
16.61133	44137
16.61947	46185
16.62758	48800
16.63570	42484
16.64383	42961
16.65195	47099
16.66007	44905
16.66820	40655
16.67632	41313
16.68445	43071
16.69257	36650
16.70068	36508
16.70882	39532
16.71693	42471
16.72507	36826
16.73318	43022
16.74130	32904
16.74943	38405
16.75755	36459
16.76567	40480
16.77380	36132
16.78192	36059
16.79005	35133
16.79817	39304
16.80628	37282
16.81442	35509
16.82253	38579
16.83067	34931
16.83878	35673
16.84690	34823
16.85503	35452
16.86315	37007
16.87128	34584
16.87940	35859
16.88752	35424
16.89565	35869
16.90377	34820
16.91188	35630
16.92002	36495
16.92813	38408
16.93627	33232
16.94438	35615
16.95250	34205
16.96063	41041
16.96875	34669
16.97688	35677
16.98500	36540
16.99312	37638
17.00125	36076
17.00937	34442
17.01750	34427
17.02562	33880
17.03373	34849
17.04187	36016
17.04998	37309
17.05810	36596
17.06623	41591
17.07435	43900
17.08248	48920
17.09060	51479
17.09872	53901
17.10685	51875
17.11497	45702
17.12310	47089
17.13122	44515
17.13933	44533
17.14747	41999
17.15558	39237
17.16370	39214
17.17183	38085
17.17995	37876
17.18808	36161
17.19620	37319
17.20432	36748
17.21245	36704
17.22057	42326
17.22870	40868
17.23682	37453
17.24493	32294
17.25307	37181
17.26118	32380
17.26932	35859
17.27743	37384
17.28555	35101
17.29368	41902
17.30180	35406
17.30992	36466
17.31805	32589
17.32617	37909
17.33430	36175
17.34242	40331
17.35053	41639
17.35867	38295
17.36678	41691
17.37492	41627
17.38303	40804
17.39115	39411
17.39928	40705
17.40740	43724
17.41552	41262
17.42365	45177
17.43177	37958
17.43990	40454
17.44802	39788
17.45613	39951
17.46427	38235
17.47238	42417
17.48052	39548
17.48863	39336
17.49675	39295
17.50488	37656
17.51300	41356
17.52113	40648
17.52925	39946
17.53737	45689
17.54550	42908
17.55362	45142
17.56173	47428
17.56987	43074
17.57798	39312
17.58612	40208
17.59423	41010
17.60235	45797
17.61048	39994
17.61860	40174
17.62673	40884
17.63485	43114
17.64297	48989
17.65110	61349
17.65922	75321
17.66735	91473
17.67547	106034
17.68358	117207
17.69172	107728
17.69983	92050
17.70795	77460
17.71608	63422
17.72420	60327
17.73233	56829
17.74045	51341
17.74857	49706
17.75670	49255
17.76482	50920
17.77295	42274
17.78107	42666
17.78918	44117
17.79732	45692
17.80543	46128
17.81357	37694
17.82168	44158
17.82980	51559
17.83793	41404
17.84605	41111
17.85417	40091
17.86230	36847
17.87042	39696
17.87855	43617
17.88667	39499
17.89478	40612
17.90292	39829
17.91103	35968
17.91917	38075
17.92728	39581
17.93540	36133
17.94353	37031
17.95165	37186
17.95977	34570
17.96790	30801
17.97602	38434
17.98415	40006
17.99227	33586
18.00038	33760
18.00852	33997
18.01663	36204
18.02477	35558
18.03288	39337
18.04100	37282
18.04913	43651
18.05725	36916
18.06538	41097
18.07350	41307
18.08162	40852
18.08975	43918
18.09787	47006
18.10598	51107
18.11412	51051
18.12223	58892
18.13037	53235
18.13848	55214
18.14660	55967
18.15473	52704
18.16285	53994
18.17098	51217
18.17910	51576
18.18722	54013
18.19535	53510
18.20347	54917
18.21158	51997
18.21972	52012
18.22783	52912
18.23597	46339
18.24408	48068
18.25220	44474
18.26033	42613
18.26845	48653
18.27658	46896
18.28470	47132
18.29282	45516
18.30095	42195
18.30907	40989
18.31720	43568
18.32532	40781
18.33343	40319
18.34157	38148
18.34968	37495
18.35780	32252
18.36593	37178
18.37405	37491
18.38218	36029
18.39030	37429
18.39842	39466
18.40655	38958
18.41467	32808
18.42280	38044
18.43092	35947
18.43903	36689
18.44717	35113
18.45528	36238
18.46342	36374
18.47153	38036
18.47965	33993
18.48778	36229
18.49590	36981
18.50402	36472
18.51215	34049
18.52027	39346
18.52840	36008
18.53652	33490
18.54463	33797
18.55277	33857
18.56088	37079
18.56902	36637
18.57713	37508
18.58525	38121
18.59338	39268
18.60150	37609
18.60962	36879
18.61775	37379
18.62587	41805
18.63400	34096
18.64212	36579
18.65023	40186
18.65837	35445
18.66648	35501
18.67462	34584
18.68273	33247
18.69085	36756
18.69898	35638
18.70710	37661
18.71523	35071
18.72335	35146
18.73147	33808
18.73960	38640
18.74772	34636
18.75583	34785
18.76397	35789
18.77208	40872
18.78022	32798
18.78833	36047
18.79645	32753
18.80458	35018
18.81270	36263
18.82083	33140
18.82895	30823
18.83707	31329
18.84520	36208
18.85332	33466
18.86145	33394
18.86957	35847
18.87768	34585
18.88582	34857
18.89393	33223
18.90205	38439
18.91018	35864
18.91830	39427
18.92643	33643
18.93455	36745
18.94267	35502
18.95080	36707
18.95892	37439
18.96705	36875
18.97517	36232
18.98328	37919
18.99142	34067
18.99953	34046
19.00765	35938
19.01578	40344
19.02390	34242
19.03203	32615
19.04015	37454
19.04827	32379
19.05640	34324
19.06452	30033
19.07265	38913
19.08077	36197
19.08888	42515
19.09702	44896
19.10513	51772
19.11327	56078
19.12138	58629
19.12950	53474
19.13763	53246
19.14575	41941
19.15387	47670
19.16200	46430
19.17012	49867
19.17825	44164
19.18637	52508
19.19448	49007
19.20262	48963
19.21073	49499
19.21887	47417
19.22698	44799
19.23510	39365
19.24323	41509
19.25135	46473
19.25947	43602
19.26760	44754
19.27572	46773
19.28385	49432
19.29197	51463
19.30008	52879
19.30822	54813
19.31633	48307
19.32447	44851
19.33258	49821
19.34070	47748
19.34883	49059
19.35695	49433
19.36508	50842
19.37320	51207
19.38132	46328
19.38945	54007
19.39757	44727
19.40568	42545
19.41382	43560
19.42193	39978
19.43007	43517
19.43818	43190
19.44630	41458
19.45443	40431
19.46255	43174
19.47068	40810
19.47880	39723
19.48692	44556
19.49505	50802
19.50317	70076
19.51130	99917
19.51942	137067
19.52753	170320
19.53567	189049
19.54378	174394
19.55190	138999
19.56003	102744
19.56815	72675
19.57628	56938
19.58440	52086
19.59252	43388
19.60065	44641
19.60877	51206
19.61690	42160
19.62502	43034
19.63313	46985
19.64127	57642
19.64938	88016
19.65750	133285
19.66563	195260
19.67375	275514
19.68188	350228
19.69000	366898
19.69812	335340
19.70625	278720
19.71437	218232
19.72250	172219
19.73062	144107
19.73873	128893
19.74687	115051
19.75498	102705
19.76312	94763
19.77123	87545
19.77935	78158
19.78748	76813
19.79560	61823
19.80372	60406
19.81185	60515
19.81997	56986
19.82810	58983
19.83622	50578
19.84433	52397
19.85247	52121
19.86058	62899
19.86872	66329
19.87683	99465
19.88495	145044
19.89308	223785
19.90120	283633
19.90933	343140
19.91745	365453
19.92557	345095
19.93370	304344
19.94182	265239
19.94993	243542
19.95807	209938
19.96618	212205
19.97432	189466
19.98243	179545
19.99055	171451
19.99868	169617
20.00680	160741
20.01493	153979
20.02305	157708
20.03117	152472
20.03930	140048
20.04742	128930
20.05553	122044
20.06367	101783
20.07178	87180
20.07992	78417
20.08803	69916
20.09615	68060
20.10428	60801
20.11240	61326
20.12053	58675
20.12865	57597
20.13677	56072
20.14490	60141
20.15302	62183
20.16115	62657
20.16927	60443
20.17738	62745
20.18552	57185
20.19363	55997
20.20175	54207
20.20988	49939
20.21800	57123
20.22613	50477
20.23425	52864
20.24237	55916
20.25050	63464
20.25862	82974
20.26675	119520
20.27487	161809
20.28298	217133
20.29112	265813
20.29923	288538
20.30737	278713
20.31548	240989
20.32360	200080
20.33173	164655
20.33985	131623
20.34797	103966
20.35610	90747
20.36422	73950
20.37235	64742
20.38047	61945
20.38858	62815
20.39672	54190
20.40483	57803
20.41297	59875
20.42108	57319
20.42920	71643
20.43733	78021
20.44545	96433
20.45357	105563
20.46170	116816
20.46982	113062
20.47795	103612
20.48607	97271
20.49418	92170
20.50232	70584
20.51043	64063
20.51857	65449
20.52668	49340
20.53480	53959
20.54293	54224
20.55105	48525
20.55918	49621
20.56730	48226
20.57542	53194
20.58355	47502
20.59167	43858
20.59978	53930
20.60792	49137
20.61603	45988
20.62417	47074
20.63228	47296
20.64040	42261
20.64853	53396
20.65665	47800
20.66478	46804
20.67290	42656
20.68102	43993
20.68915	44917
20.69727	43965
20.70538	43807
20.71352	46264
20.72163	46200
20.72977	42927
20.73788	44233
20.74600	41939
20.75413	42818
20.76225	43098
20.77038	44478
20.77850	41966
20.78662	45753
20.79475	43538
20.80287	46292
20.81100	47066
20.81912	52814
20.82723	42368
20.83537	46464
20.84348	48714
20.85160	47404
20.85973	46576
20.86785	47084
20.87598	44300
20.88410	48521
20.89222	48268
20.90035	45915
20.90847	48058
20.91660	41695
20.92472	47100
20.93283	47916
20.94097	50307
20.94908	45131
20.95722	47547
20.96533	41702
20.97345	46770
20.98158	49843
20.98970	42144
20.99782	48429
21.00595	50261
21.01407	50591
21.02220	48051
21.03032	45454
21.03843	47725
21.04657	45642
21.05468	49750
21.06282	46168
21.07093	46753
21.07905	45887
21.08718	43986
21.09530	46317
21.10342	47992
21.11155	49694
21.11967	46595
21.12780	45586
21.13592	53172
21.14403	52989
21.15217	46223
21.16028	49375
21.16842	47843
21.17653	51111
21.18465	51266
21.19278	52036
21.20090	52047
21.20903	50924
21.21715	48627
21.22527	50893
21.23340	49596
21.24152	47379
21.24963	49144
21.25777	47237
21.26588	48036
21.27402	51232
21.28213	50608
21.29025	49249
21.29838	46519
21.30650	47309
21.31463	47681
21.32275	48438
21.33087	46299
21.33900	46683
21.34712	50508
21.35525	44230
21.36337	44751
21.37148	47981
21.37962	46016
21.38773	43997
21.39585	44589
21.40398	45704
21.41210	42462
21.42023	47955
21.42835	45260
21.43647	44792
21.44460	49069
21.45272	49632
21.46085	50272
21.46897	43430
21.47708	51198
21.48522	49352
21.49333	55580
21.50145	41931
21.50958	44752
21.51770	43552
21.52583	41538
21.53395	41025
21.54207	44950
21.55020	46308
21.55832	50122
21.56645	40335
21.57457	43879
21.58268	48748
21.59082	46937
21.59893	44136
21.60707	44807
21.61518	48866
21.62330	55109
21.63143	63603
21.63955	71671
21.64767	94866
21.65580	104359
21.66392	112015
21.67205	104492
21.68017	92279
21.68828	79464
21.69642	70966
21.70453	60260
21.71267	52167
21.72078	51176
21.72890	52531
21.73703	47991
21.74515	48242
21.75327	55604
21.76140	45789
21.76952	50954
21.77765	47576
21.78577	48263
21.79388	47436
21.80202	41877
21.81013	48386
21.81827	52522
21.82638	58635
21.83450	66943
21.84263	89555
21.85075	106532
21.85888	112935
21.86700	113509
21.87512	103008
21.88325	87759
21.89137	78522
21.89948	66306
21.90762	55679
21.91573	52006
21.92387	51540
21.93198	51714
21.94010	44851
21.94823	45939
21.95635	50674
21.96448	46279
21.97260	47485
21.98072	46608
21.98885	39535
21.99697	39120
22.00510	39944
22.01322	39291
22.02133	46933
22.02947	42937
22.03758	44763
22.04570	38524
22.05383	42440
22.06195	40611
22.07008	40551
22.07820	46783
22.08632	42690
22.09445	42483
22.10257	42425
22.11070	43127
22.11882	40989
22.12693	40681
22.13507	44728
22.14318	40141
22.15130	42785
22.15943	45217
22.16755	43980
22.17568	44195
22.18380	45020
22.19192	48865
22.20005	39656
22.20817	41288
22.21630	43620
22.22442	47840
22.23253	48570
22.24067	60957
22.24878	56475
22.25692	58988
22.26503	57524
22.27315	50461
22.28128	47683
22.28940	43748
22.29752	42836
22.30565	44288
22.31377	54392
22.32190	59301
22.33002	71923
22.33813	78968
22.34627	86021
22.35438	79006
22.36252	74287
22.37063	60539
22.37875	57632
22.38688	49544
22.39500	47565
22.40313	48753
22.41125	49476
22.41937	45820
22.42750	46330
22.43562	45586
22.44373	44028
22.45187	48125
22.45998	40707
22.46812	36808
22.47623	41587
22.48435	43564
22.49248	41225
22.50060	41279
22.50873	40517
22.51685	38810
22.52497	37056
22.53310	37628
22.54122	35947
22.54933	36270
22.55747	40902
22.56558	42533
22.57372	40477
22.58183	40534
22.58995	36700
22.59808	38590
22.60620	37266
22.61433	40194
22.62245	38605
22.63057	38127
22.63870	34541
22.64682	37046
22.65495	38463
22.66307	35888
22.67118	37417
22.67932	39279
22.68743	47479
22.69555	39121
22.70368	46700
22.71180	47606
22.71993	45307
22.72805	42493
22.73617	41495
22.74430	40217
22.75242	41566
22.76055	40019
22.76867	36990
22.77678	46180
22.78492	38300
22.79303	35948
22.80115	40342
22.80928	40504
22.81740	35557
22.82553	37125
22.83365	40485
22.84177	39345
22.84990	37327
22.85802	41848
22.86615	41719
22.87427	40601
22.88238	38794
22.89052	39128
22.89863	42592
22.90677	46689
22.91488	48674
22.92300	51814
22.93113	51319
22.93925	66922
22.94737	73721
22.95550	76574
22.96362	79067
22.97175	77067
22.97987	72130
22.98798	66480
22.99612	64412
23.00423	59555
23.01237	55761
23.02048	56322
23.02860	51795
23.03673	53636
23.04485	49571
23.05298	48049
23.06110	44254
23.06922	45476
23.07735	44591
23.08547	43588
23.09358	42663
23.10172	42724
23.10983	41663
23.11797	44006
23.12608	45786
23.13420	38741
23.14233	41213
23.15045	39589
23.15858	41219
23.16670	40654
23.17482	38928
23.18295	38057
23.19107	37278
23.19920	37352
23.20732	37103
23.21543	39681
23.22357	36206
23.23168	35183
23.23980	39936
23.24793	42522
23.25605	45592
23.26418	47776
23.27230	46004
23.28042	44628
23.28855	43068
23.29667	40674
23.30480	42321
23.31292	41646
23.32103	39663
23.32917	36077
23.33728	41192
23.34540	41050
23.35353	38121
23.36165	38780
23.36978	38891
23.37790	40331
23.38602	39784
23.39415	43639
23.40227	39096
23.41040	41672
23.41852	37903
23.42663	40499
23.43477	40380
23.44288	38155
23.45102	37687
23.45913	41180
23.46725	39927
23.47538	41231
23.48350	39698
23.49162	38525
23.49975	37164
23.50787	39269
23.51600	43375
23.52412	41697
23.53223	41591
23.54037	44232
23.54848	40442
23.55662	42500
23.56473	41975
23.57285	42508
23.58098	47495
23.58910	46560
23.59722	53772
23.60535	56459
23.61347	55828
23.62160	59844
23.62972	60093
23.63783	68134
23.64597	86862
23.65408	119994
23.66222	161929
23.67033	209423
23.67845	241330
23.68658	234287
23.69470	195714
23.70283	152871
23.71095	115013
23.71907	99420
23.72720	81959
23.73532	71568
23.74343	72694
23.75157	87118
23.75968	168150
23.76782	436481
23.77593	1196393
23.78405	2670241
23.79218	4726760
23.80030	6555652
23.80843	7306484
23.81655	6897213
23.82467	5582786
23.83280	3899992
23.84092	2659166
23.84905	1761018
23.85717	1234821
23.86528	905089
23.87342	717329
23.88153	587172
23.88965	503665
23.89778	449107
23.90590	385501
23.91403	346585
23.92215	315596
23.93027	295638
23.93840	273021
23.94652	264660
23.95465	246969
23.96277	229944
23.97088	213191
23.97902	200308
23.98713	189699
23.99525	194114
24.00338	182606
24.01150	175196
24.01963	171851
24.02775	166633
24.03587	164567
24.04400	151265
24.05212	161423
24.06025	161961
24.06837	159467
24.07648	151593
24.08462	142294
24.09273	140525
24.10087	137249
24.10898	125643
24.11710	120754
24.12523	119917
24.13335	129449
24.14147	125116
24.14960	130284
24.15772	132044
24.16585	133097
24.17397	127513
24.18208	121422
24.19022	116180
24.19833	110961
24.20647	109816
24.21458	109143
24.22270	118812
24.23083	119447
24.23895	125667
24.24708	123990
24.25520	121364
24.26332	111144
24.27145	105558
24.27957	96870
24.28768	96487
24.29582	93483
24.30393	91509
24.31207	81889
24.32018	87009
24.32830	84390
24.33643	79520
24.34455	82416
24.35268	82358
24.36080	81916
24.36892	82572
24.37705	84396
24.38517	89265
24.39328	91287
24.40142	112519
24.40953	141092
24.41767	167119
24.42578	180965
24.43390	165530
24.44203	138162
24.45015	106647
24.45828	91894
24.46640	81247
24.47452	71619
24.48265	74270
24.49077	72630
24.49890	79297
24.50702	79321
24.51513	88198
24.52327	96653
24.53138	102223
24.53950	99858
24.54763	95113
24.55575	93116
24.56388	90251
24.57200	76646
24.58012	78548
24.58825	75977
24.59637	72305
24.60450	67067
24.61262	69291
24.62073	69583
24.62887	70906
24.63698	72512
24.64510	72728
24.65323	65517
24.66135	70081
24.66948	65058
24.67760	70594
24.68572	66815
24.69385	66376
24.70197	63944
24.71010	65735
24.71822	62168
24.72633	60066
24.73447	62793
24.74258	56385
24.75072	59123
24.75883	54753
24.76695	56450
24.77508	65127
24.78320	58261
24.79132	61505
24.79945	58755
24.80757	56342
24.81570	56674
24.82382	57199
24.83193	58379
24.84007	55722
24.84818	58277
24.85632	54573
24.86443	54506
24.87255	51700
24.88068	51769
24.88880	51827
24.89693	52435
24.90505	55614
24.91317	49529
24.92130	53466
24.92942	57774
24.93753	51802
24.94567	50822
24.95378	50830
24.96192	51602
24.97003	52326
24.97815	52833
24.98628	48723
24.99440	50830
25.00253	49718
25.01065	51042
25.01877	59012
25.02690	51398
25.03502	51567
25.04313	48249
25.05127	48183
25.05938	52402
25.06752	45761
25.07563	47597
25.08375	51514
25.09188	52395
25.10000	53499
25.10813	50123
25.11625	48480
25.12437	46037
25.13250	49111
25.14062	51353
25.14875	52412
25.15687	58658
25.16498	58433
25.17312	60114
25.18123	59053
25.18935	61148
25.19748	59506
25.20560	57774
25.21373	51266
25.22185	51828
25.22997	51463
25.23810	49138
25.24622	50849
25.25435	51111
25.26247	50442
25.27058	51139
25.27872	50513
25.28683	50096
25.29497	56397
25.30308	55951
25.31120	51002
25.31933	60078
25.32745	56078
25.33557	59858
25.34370	56052
25.35182	53081
25.35995	56881
25.36807	52559
25.37618	49192
25.38432	49736
25.39243	43977
25.40057	49671
25.40868	47978
25.41680	47459
25.42493	46379
25.43305	48347
25.44117	44737
25.44930	46520
25.45742	46977
25.46555	46624
25.47367	47832
25.48178	52252
25.48992	52223
25.49803	58407
25.50617	58045
25.51428	57117
25.52240	52456
25.53053	48633
25.53865	45665
25.54678	50195
25.55490	44359
25.56302	47110
25.57115	44459
25.57927	42323
25.58738	44367
25.59552	43964
25.60363	50428
25.61177	40350
25.61988	41466
25.62800	39074
25.63613	42494
25.64425	43523
25.65238	45828
25.66050	55781
25.66862	48214
25.67675	50870
25.68487	44925
25.69300	47265
25.70112	43298
25.70923	43595
25.71737	41815
25.72548	43993
25.73360	47622
25.74173	44743
25.74985	43415
25.75798	46013
25.76610	45795
25.77422	51099
25.78235	45998
25.79047	42629
25.79860	40502
25.80672	45290
25.81483	46985
25.82297	48283
25.83108	48221
25.83920	47724
25.84733	54333
25.85545	46564
25.86358	40875
25.87170	45114
25.87982	43097
25.88795	38401
25.89607	36965
25.90420	39399
25.91232	42561
25.92043	38652
25.92857	40738
25.93668	41076
25.94482	39499
25.95293	41003
25.96105	38976
25.96918	38946
25.97730	50703
25.98542	39839
25.99355	36045
26.00167	38226
26.00980	42959
26.01792	39173
26.02603	39342
26.03417	39388
26.04228	37658
26.05042	38107
26.05853	40117
26.06665	42849
26.07478	41171
26.08290	41817
26.09102	40349
26.09915	41580
26.10727	43727
26.11540	45669
26.12352	43919
26.13163	48918
26.13977	50506
26.14788	50555
26.15602	51299
26.16413	61831
26.17225	56114
26.18038	60123
26.18850	55039
26.19663	55882
26.20475	51874
26.21287	53337
26.22100	50065
26.22912	55746
26.23723	48353
26.24537	48641
26.25348	46248
26.26162	50229
26.26973	47076
26.27785	44718
26.28598	48408
26.29410	46379
26.30223	44748
26.31035	44255
26.31847	44403
26.32660	44347
26.33472	43040
26.34285	46204
26.35097	42618
26.35908	44856
26.36722	43941
26.37533	44651
26.38345	41605
26.39158	45271
26.39970	41841
26.40783	46130
26.41595	43657
26.42407	46471
26.43220	47166
26.44032	40010
26.44845	42558
26.45657	43012
26.46468	42114
26.47282	41208
26.48093	39338
26.48905	42711
26.49718	40622
26.50530	40731
26.51343	39562
26.52155	42408
26.52967	42516
26.53780	38024
26.54592	37711
26.55405	40582
26.56217	42593
26.57028	39445
26.57842	42062
26.58653	41426
26.59467	40682
26.60278	41345
26.61090	42439
26.61903	42586
26.62715	39092
26.63527	42872
26.64340	45673
26.65152	41497
26.65965	43647
26.66777	44348
26.67588	49457
26.68402	48618
26.69213	47832
26.70027	44701
26.70838	47041
26.71650	48001
26.72463	45610
26.73275	45219
26.74088	47323
26.74900	48344
26.75712	46473
26.76525	44216
26.77337	47102
26.78148	43755
26.78962	45760
26.79773	51964
26.80587	48426
26.81398	47449
26.82210	55201
26.83023	58762
26.83835	56913
26.84648	61170
26.85460	66105
26.86272	60073
26.87085	62928
26.87897	60620
26.88708	57538
26.89522	56485
26.90333	55720
26.91147	54990
26.91958	49721
26.92770	58622
26.93583	61094
26.94395	51660
26.95208	55865
26.96020	59283
26.96832	66168
26.97645	75907
26.98457	118750
26.99270	209369
27.00082	379880
27.00893	677795
27.01707	1140069
27.02518	1628788
27.03330	2027677
27.04143	2049230
27.04955	1806352
27.05768	1431411
27.06580	1052210
27.07392	752789
27.08205	554228
27.09017	438718
27.09830	349372
27.10642	301001
27.11453	270710
27.12267	231136
27.13078	217279
27.13890	197765
27.14703	188790
27.15515	175302
27.16328	158614
27.17140	149850
27.17952	143911
27.18765	144151
27.19577	135876
27.20390	131291
27.21202	127076
27.22013	120950
27.22827	119208
27.23638	114697
27.24452	112095
27.25263	96921
27.26075	103147
27.26888	94415
27.27700	95817
27.28512	92431
27.29325	89569
27.30137	82029
27.30950	79652
27.31762	87809
27.32573	85608
27.33387	87195
27.34198	78003
27.35012	82024
27.35823	74962
27.36635	75765
27.37448	78418
27.38260	76902
27.39073	74893
27.39885	76298
27.40697	75775
27.41510	72683
27.42322	71966
27.43133	69794
27.43947	69840
27.44758	70299
27.45572	67542
27.46383	64861
27.47195	58959
27.48008	65416
27.48820	65347
27.49633	61269
27.50445	63812
27.51257	61555
27.52070	62624
27.52882	59874
27.53693	58443
27.54507	63762
27.55318	63737
27.56132	65290
27.56943	62149
27.57755	64420
27.58568	56975
27.59380	55373
27.60193	53076
27.61005	60326
27.61817	63095
27.62630	63908
27.63442	64024
27.64255	67341
27.65067	57289
27.65878	57722
27.66692	53704
27.67503	53002
27.68315	57231
27.69128	52665
27.69940	54534
27.70753	51106
27.71565	48967
27.72377	48975
27.73190	51192
27.74002	52101
27.74815	47941
27.75627	49947
27.76438	48459
27.77252	48508
27.78063	51421
27.78877	50824
27.79688	50668
27.80500	51477
27.81313	48245
27.82125	46100
27.82937	46759
27.83750	49287
27.84562	49558
27.85375	48317
27.86187	49846
27.86998	53772
27.87812	49269
27.88623	51195
27.89437	48400
27.90248	48842
27.91060	54317
27.91873	46250
27.92685	50650
27.93497	51837
27.94310	45781
27.95122	45170
27.95935	43552
27.96747	48504
27.97558	47574
27.98372	45964
27.99183	48519
27.99997	44852
28.00808	45911
28.01620	47418
28.02433	41769
28.03245	45155
28.04058	43488
28.04870	46773
28.05682	43593
28.06495	47362
28.07307	48977
28.08118	47653
28.08932	43940
28.09743	50133
28.10557	44985
28.11368	45318
28.12180	50096
28.12993	46562
28.13805	45956
28.14618	41962
28.15430	41801
28.16242	42803
28.17055	43181
28.17867	42462
28.18678	44261
28.19492	44494
28.20303	47289
28.21117	47291
28.21928	52984
28.22740	55273
28.23553	53562
28.24365	56674
28.25178	57516
28.25990	49214
28.26802	51372
28.27615	49328
28.28427	47665
28.29240	54642
28.30052	50203
28.30863	51039
28.31677	58531
28.32488	71753
28.33300	92866
28.34113	126876
28.34925	176250
28.35738	210073
28.36550	254641
28.37362	277363
28.38175	300597
28.38987	302606
28.39800	288934
28.40612	269469
28.41423	234780
28.42237	214108
28.43048	186599
28.43862	157340
28.44673	142488
28.45485	135431
28.46298	120762
28.47110	111852
28.47922	108744
28.48735	98393
28.49547	93951
28.50360	89883
28.51172	82749
28.51983	82758
28.52797	80979
28.53608	82475
28.54422	78719
28.55233	74003
28.56045	75545
28.56858	80076
28.57670	69439
28.58483	68219
28.59295	72378
28.60107	67669
28.60920	67130
28.61732	61040
28.62543	65660
28.63357	65169
28.64168	66176
28.64982	61780
28.65793	65805
28.66605	67408
28.67418	66111
28.68230	67236
28.69043	65976
28.69855	66766
28.70667	68605
28.71480	61275
28.72292	55145
28.73103	58759
28.73917	54678
28.74728	54580
28.75542	59660
28.76353	62826
28.77165	68213
28.77978	79819
28.78790	94673
28.79603	92812
28.80415	89648
28.81227	89845
28.82040	75369
28.82852	67666
28.83665	56602
28.84477	49664
28.85288	48479
28.86102	52414
28.86913	49178
28.87725	52029
28.88538	50378
28.89350	53178
28.90163	52918
28.90975	47699
28.91787	47880
28.92600	51129
28.93412	54008
28.94225	49285
28.95037	51023
28.95848	56913
28.96662	55116
28.97473	54211
28.98285	56212
28.99098	53327
28.99910	54588
29.00723	54488
29.01535	51821
29.02347	45286
29.03160	54510
29.03972	48215
29.04785	48683
29.05597	48952
29.06408	49584
29.07222	46435
29.08033	47447
29.08847	49224
29.09658	42807
29.10470	44201
29.11283	51163
29.12095	48295
29.12907	46412
29.13720	48229
29.14532	49040
29.15345	45679
29.16157	47115
29.16968	46418
29.17782	45909
29.18593	46767
29.19407	43655
29.20218	48831
29.21030	48038
29.21843	48417
29.22655	51277
29.23468	48864
29.24280	52854
29.25092	56160
29.25905	58384
29.26717	54441
29.27528	57006
29.28342	57683
29.29153	54474
29.29967	48760
29.30778	57212
29.31590	49008
29.32403	51888
29.33215	46148
29.34028	47979
29.34840	48877
29.35652	45980
29.36465	45891
29.37277	47342
29.38088	42993
29.38902	43562
29.39713	45414
29.40527	50443
29.41338	47337
29.42150	47028
29.42963	44474
29.43775	46381
29.44588	47373
29.45400	47951
29.46212	43404
29.47025	45688
29.47837	44274
29.48650	48552
29.49462	48504
29.50273	50055
29.51087	54791
29.51898	54956
29.52710	50211
29.53523	60691
29.54335	54549
29.55148	45753
29.55960	44892
29.56772	49974
29.57585	44927
29.58397	42669
29.59210	45033
29.60022	51599
29.60833	40071
29.61647	42839
29.62458	44074
29.63272	41059
29.64083	46278
29.64895	45804
29.65708	46979
29.66520	42525
29.67332	44513
29.68145	40118
29.68957	43866
29.69770	40037
29.70582	40793
29.71393	40716
29.72207	44583
29.73018	45786
29.73832	49080
29.74643	45253
29.75455	43115
29.76268	41368
29.77080	42700
29.77892	42550
29.78705	40698
29.79517	42342
29.80330	37668
29.81142	42436
29.81953	37039
29.82767	40850
29.83578	44392
29.84392	42982
29.85203	41316
29.86015	43273
29.86828	50198
29.87640	64383
29.88453	91529
29.89265	137574
29.90077	211720
29.90890	280561
29.91702	295077
29.92513	282927
29.93327	234422
29.94138	163536
29.94952	116710
29.95763	88325
29.96575	73726
29.97388	73875
29.98200	84172
29.99013	93527
29.99825	106885
30.00637	122837
30.01450	138616
30.02262	156691
30.03073	169884
30.03887	181734
30.04698	184692
30.05512	173902
30.06323	170604
30.07135	166755
30.07948	156466
30.08760	150746
30.09573	137826
30.10385	125866
30.11197	115464
30.12010	113544
30.12822	109438
30.13635	98497
30.14447	85525
30.15258	91883
30.16072	88902
30.16883	83544
30.17695	91473
30.18508	76971
30.19320	78287
30.20133	71592
30.20945	74844
30.21757	70699
30.22570	64998
30.23382	64778
30.24195	65297
30.25007	67266
30.25818	62170
30.26632	60349
30.27443	61400
30.28257	56406
30.29068	59523
30.29880	60276
30.30693	65599
30.31505	54246
30.32317	57147
30.33130	57344
30.33942	54391
30.34755	55451
30.35567	52241
30.36378	57465
30.37192	52991
30.38003	49625
30.38817	50831
30.39628	49443
30.40440	49232
30.41253	51368
30.42065	49937
30.42877	55809
30.43690	47603
30.44502	50960
30.45315	48050
30.46127	48494
30.46938	50131
30.47752	49597
30.48563	46322
30.49377	52846
30.50188	48321
30.51000	48755
30.51813	52937
30.52625	57776
30.53438	43383
30.54250	44246
30.55062	43554
30.55875	46413
30.56687	45614
30.57498	46271
30.58312	44162
30.59123	42452
30.59937	47731
30.60748	48615
30.61560	45447
30.62373	54876
30.63185	44471
30.63998	45086
30.64810	43339
30.65622	48341
30.66435	42543
30.67247	47088
30.68060	45439
30.68872	45613
30.69683	44128
30.70497	42598
30.71308	42155
30.72120	41775
30.72933	44080
30.73745	43695
30.74558	41156
30.75370	41899
30.76182	40261
30.76995	42153
30.77807	41502
30.78620	44277
30.79432	46130
30.80243	50809
30.81057	54552
30.81868	57380
30.82680	59398
30.83493	53404
30.84305	52101
30.85118	49690
30.85930	46542
30.86742	43823
30.87555	44595
30.88367	45560
30.89180	43173
30.89992	42547
30.90803	42534
30.91617	45538
30.92428	45297
30.93242	41046
30.94053	40443
30.94865	43160
30.95678	44006
30.96490	43148
30.97302	47047
30.98115	46583
30.98927	51262
30.99740	42346
31.00552	41567
31.01363	40525
31.02177	40417
31.02988	44453
31.03802	43672
31.04613	45619
31.05425	47275
31.06238	48218
31.07050	45043
31.07862	43936
31.08675	53888
31.09487	60809
31.10300	71320
31.11112	96812
31.11923	103687
31.12737	105894
31.13548	98994
31.14362	83396
31.15173	70076
31.15985	57208
31.16798	52823
31.17610	50422
31.18423	52283
31.19235	55782
31.20047	65847
31.20860	82522
31.21672	91316
31.22483	102740
31.23297	116632
31.24108	114320
31.24922	105681
31.25733	87325
31.26545	76827
31.27358	60468
31.28170	51800
31.28983	51885
31.29795	48703
31.30607	49463
31.31420	48581
31.32232	49249
31.33045	42627
31.33857	40505
31.34668	47069
31.35482	45125
31.36293	45108
31.37105	44803
31.37918	47760
31.38730	53838
31.39543	55578
31.40355	56028
31.41167	54431
31.41980	56131
31.42792	64424
31.43605	53089
31.44417	49748
31.45228	53609
31.46042	43581
31.46853	50250
31.47665	43239
31.48478	51609
31.49290	44561
31.50103	38297
31.50915	44606
31.51727	49701
31.52540	39766
31.53352	40702
31.54165	43917
31.54977	42235
31.55788	42825
31.56602	39718
31.57413	39884
31.58227	41536
31.59038	40825
31.59850	38456
31.60663	39371
31.61475	43746
31.62287	42722
31.63100	41084
31.63912	41914
31.64725	40234
31.65537	41802
31.66348	45869
31.67162	40751
31.67973	40883
31.68787	43505
31.69598	40054
31.70410	41758
31.71223	40369
31.72035	42980
31.72848	41884
31.73660	46416
31.74472	45225
31.75285	39880
31.76097	40497
31.76908	41159
31.77722	43726
31.78533	42758
31.79347	40923
31.80158	41986
31.80970	43229
31.81783	46895
31.82595	43160
31.83408	48634
31.84220	47695
31.85032	44187
31.85845	49957
31.86657	49672
31.87468	54555
31.88282	55361
31.89093	54789
31.89907	50471
31.90718	49376
31.91530	57065
31.92343	56897
31.93155	63720
31.93968	73905
31.94780	88628
31.95592	100303
31.96405	114564
31.97217	121201
31.98030	130579
31.98842	143725
31.99653	135513
32.00467	136858
32.01278	132899
32.02090	130020
32.02903	110566
32.03715	102635
32.04528	98940
32.05340	93499
32.06152	82138
32.06965	79592
32.07777	76647
32.08590	78963
32.09402	78550
32.10213	80318
32.11027	74976
32.11838	74467
32.12652	73934
32.13463	64058
32.14275	60391
32.15088	59153
32.15900	56588
32.16712	54434
32.17525	56565
32.18337	53898
32.19150	53055
32.19962	51983
32.20773	53890
32.21587	54261
32.22398	50813
32.23212	55316
32.24023	53113
32.24835	48493
32.25648	54411
32.26460	52326
32.27272	53711
32.28085	52150
32.28897	49610
32.29710	53853
32.30522	49505
32.31333	49014
32.32147	54182
32.32958	46894
32.33772	50057
32.34583	49746
32.35395	51633
32.36208	50749
32.37020	58651
32.37833	55025
32.38645	50112
32.39457	49035
32.40270	48479
32.41082	48263
32.41893	48990
32.42707	46354
32.43518	48093
32.44332	46249
32.45143	51206
32.45955	43427
32.46768	40942
32.47580	44612
32.48393	45789
32.49205	47466
32.50017	49586
32.50830	50163
32.51642	43638
32.52453	43534
32.53267	44151
32.54078	43287
32.54892	45370
32.55703	45541
32.56515	43526
32.57328	45367
32.58140	44101
32.58953	42679
32.59765	45002
32.60577	48563
32.61390	42233
32.62202	43091
32.63015	46750
32.63827	46854
32.64638	41222
32.65452	48299
32.66263	48015
32.67075	55788
32.67888	62140
32.68700	72083
32.69513	76435
32.70325	68015
32.71137	66939
32.71950	55860
32.72762	57406
32.73575	51201
32.74387	47217
32.75198	47442
32.76012	44986
32.76823	43622
32.77637	48857
32.78448	40280
32.79260	43738
32.80073	43693
32.80885	46303
32.81697	45672
32.82510	42777
32.83322	39974
32.84135	44449
32.84947	43823
32.85758	40204
32.86572	40720
32.87383	43938
32.88197	42612
32.89008	45037
32.89820	44370
32.90633	45011
32.91445	46407
32.92257	43860
32.93070	45611
32.93882	41739
32.94695	47088
32.95507	41261
32.96318	42278
32.97132	45194
32.97943	39773
32.98757	42031
32.99568	41772
33.00380	43833
33.01193	40064
33.02005	41004
33.02818	42448
33.03630	45053
33.04442	42983
33.05255	46443
33.06067	40084
33.06878	42296
33.07692	38252
33.08503	43464
33.09317	47747
33.10128	50769
33.10940	49822
33.11753	65837
33.12565	62949
33.13378	68726
33.14190	67118
33.15002	66294
33.15815	58108
33.16627	53389
33.17440	50229
33.18252	45094
33.19063	46051
33.19877	45888
33.20688	42508
33.21500	46636
33.22313	47252
33.23125	53318
33.23938	46954
33.24750	49761
33.25562	45238
33.26375	46369
33.27187	46308
33.28000	43601
33.28812	44443
33.29623	48248
33.30437	41792
33.31248	44706
33.32060	41719
33.32873	41914
33.33685	45163
33.34498	44545
33.35310	44461
33.36122	41425
33.36935	42448
33.37747	41395
33.38560	43518
33.39372	45523
33.40183	46154
33.40997	44066
33.41808	45659
33.42622	43071
33.43433	44917
33.44245	42970
33.45058	41774
33.45870	44497
33.46682	41958
33.47495	40879
33.48307	42695
33.49120	41755
33.49932	45632
33.50743	44382
33.51557	44918
33.52368	41411
33.53182	49986
33.53993	41851
33.54805	46340
33.55618	41867
33.56430	44745
33.57242	39400
33.58055	45178
33.58867	41859
33.59680	47165
33.60492	41376
33.61303	42748
33.62117	42123
33.62928	43198
33.63742	51831
33.64553	45436
33.65365	41682
33.66178	43210
33.66990	45611
33.67803	47785
33.68615	45957
33.69427	44517
33.70240	43407
33.71052	43910
33.71863	45315
33.72677	44059
33.73488	44949
33.74302	47663
33.75113	48907
33.75925	42675
33.76738	41571
33.77550	40143
33.78363	41860
33.79175	47677
33.79987	45426
33.80800	40813
33.81612	50177
33.82425	45343
33.83237	42010
33.84048	47522
33.84862	44538
33.85673	44617
33.86485	50017
33.87298	47702
33.88110	51037
33.88923	45968
33.89735	48105
33.90547	44711
33.91360	44782
33.92172	42522
33.92985	45867
33.93797	48107
33.94608	43238
33.95422	47898
33.96233	46710
33.97047	48044
33.97858	51416
33.98670	47820
33.99483	45880
34.00295	44966
34.01107	42462
34.01920	44035
34.02732	48822
34.03545	44469
34.04357	42158
34.05168	41389
34.05982	44662
34.06793	44152
34.07607	48279
34.08418	44871
34.09230	49283
34.10043	46087
34.10855	48426
34.11667	42623
34.12480	41266
34.13292	41917
34.14105	46457
34.14917	45407
34.15728	44999
34.16542	47334
34.17353	46348
34.18167	45672
34.18978	44693
34.19790	42622
34.20603	46030
34.21415	45651
34.22228	46854
34.23040	48266
34.23852	43781
34.24665	44532
34.25477	48229
34.26288	43496
34.27102	45904
34.27913	43349
34.28727	47314
34.29538	52779
34.30350	47562
34.31163	48728
34.31975	43948
34.32788	45372
34.33600	45594
34.34412	46324
34.35225	54194
34.36037	49019
34.36848	47952
34.37662	46946
34.38473	50175
34.39287	47966
34.40098	46121
34.40910	47626
34.41723	46974
34.42535	46781
34.43348	44637
34.44160	47053
34.44972	47472
34.45785	47105
34.46597	49791
34.47410	44121
34.48222	45930
34.49033	48652
34.49847	45133
34.50658	48043
34.51470	42689
34.52283	54020
34.53095	56705
34.53908	65646
34.54720	76760
34.55532	88340
34.56345	100937
34.57157	112127
34.57970	118325
34.58782	114185
34.59593	112795
34.60407	102835
34.61218	90582
34.62032	83862
34.62843	82677
34.63655	75552
34.64468	71429
34.65280	68918
34.66092	69676
34.66905	66270
34.67717	63442
34.68530	62234
34.69342	60289
34.70153	57130
34.70967	56437
34.71778	57578
34.72592	59470
34.73403	61479
34.74215	61479
34.75028	60531
34.75840	55123
34.76652	58164
34.77465	57669
34.78277	57075
34.79090	55362
34.79902	53062
34.80713	54659
34.81527	54145
34.82338	52999
34.83152	54435
34.83963	56368
34.84775	52726
34.85588	52982
34.86400	51602
34.87213	52090
34.88025	60057
34.88837	55327
34.89650	52527
34.90462	54937
34.91273	53697
34.92087	48863
34.92898	56544
34.93712	60952
34.94523	59545
34.95335	66539
34.96148	82280
34.96960	105329
34.97773	134771
34.98585	160678
34.99397	168101
35.00210	162226
35.01022	137187
35.01835	112303
35.02647	88642
35.03458	74900
35.04272	66189
35.05083	60804
35.05895	60424
35.06708	60945
35.07520	60955
35.08333	60539
35.09145	63314
35.09957	66058
35.10770	62844
35.11582	60200
35.12395	59300
35.13207	62399
35.14018	62253
35.14832	60400
35.15643	59607
35.16455	60980
35.17268	59718
35.18080	67467
35.18893	63871
35.19705	60208
35.20517	60873
35.21330	57469
35.22142	59879
35.22955	56029
35.23767	56633
35.24578	55271
35.25392	50302
35.26203	52528
35.27017	56863
35.27828	57432
35.28640	54407
35.29453	54906
35.30265	55718
35.31077	50603
35.31890	55080
35.32702	61063
35.33515	51136
35.34327	60258
35.35138	50499
35.35952	52494
35.36763	50116
35.37577	51019
35.38388	52819
35.39200	54858
35.40013	53242
35.40825	53772
35.41637	51921
35.42450	49702
35.43262	51659
35.44075	53371
35.44887	57643
35.45698	53707
35.46512	53466
35.47323	55939
35.48137	55560
35.48948	66256
35.49760	56114
35.50573	55151
35.51385	55445
35.52198	55049
35.53010	53396
35.53822	53278
35.54635	53413
35.55447	53189
35.56258	52632
35.57072	49351
35.57883	53593
35.58697	53823
35.59508	58693
35.60320	57170
35.61133	55256
35.61945	59205
35.62758	56395
35.63570	57088
35.64382	60270
35.65195	58146
35.66007	59579
35.66820	54147
35.67632	52920
35.68443	57943
35.69257	59274
35.70068	65307
35.70880	64778
35.71693	61150
35.72505	58430
35.73318	59893
35.74130	58743
35.74942	55093
35.75755	56473
35.76567	56744
35.77380	60193
35.78192	62736
35.79003	59154
35.79817	56469
35.80628	56580
35.81440	56365
35.82253	59259
35.83065	51283
35.83878	58230
35.84690	55610
35.85502	59589
35.86315	58290
35.87127	55012
35.87940	53952
35.88752	54318
35.89563	55666
35.90377	54673
35.91188	59282
35.92002	54981
35.92813	56478
35.93625	51542
35.94438	52391
35.95250	52157
35.96062	56346
35.96875	54816
35.97687	57673
35.98500	56742
35.99312	52213
36.00123	55369
36.00937	56161
36.01748	58611
36.02562	57769
36.03373	61385
36.04185	59704
36.04998	57384
36.05810	58805
36.06623	58374
36.07435	57612
36.08247	56581
36.09060	59224
36.09872	60325
36.10683	59937
36.11497	58444
36.12308	55210
36.13122	59608
36.13933	56155
36.14745	56923
36.15558	54461
36.16370	59896
36.17183	55936
36.17995	59116
36.18807	58197
36.19620	51914
36.20432	55899
36.21243	56283
36.22057	51960
36.22868	55304
36.23682	52776
36.24493	52902
36.25305	53277
36.26118	52533
36.26930	53811
36.27743	55635
36.28555	55229
36.29367	57651
36.30180	59783
36.30992	64960
36.31805	71689
36.32617	75548
36.33428	83701
36.34242	85584
36.35053	81874
36.35865	78961
36.36678	68575
36.37490	65704
36.38303	68244
36.39115	60592
36.39927	63087
36.40740	57874
36.41552	58213
36.42365	55473
36.43177	60897
36.43988	56180
36.44802	52565
36.45613	51320
36.46427	56542
36.47238	58380
36.48050	55907
36.48863	62019
36.49675	57793
36.50487	54899
36.51300	55480
36.52112	54883
36.52925	54938
36.53737	59817
36.54548	53510
36.55362	60466
36.56173	58272
36.56987	56343
36.57798	55278
36.58610	54084
36.59423	60518
36.60235	56330
36.61047	55300
36.61860	54056
36.62672	56963
36.63485	59681
36.64297	52359
36.65108	57017
36.65922	56176
36.66733	59161
36.67547	56284
36.68358	59821
36.69170	63036
36.69983	58471
36.70795	61003
36.71608	59804
36.72420	62237
36.73232	54600
36.74045	57443
36.74857	58141
36.75668	59298
36.76482	58608
36.77293	54345
36.78107	60770
36.78918	59028
36.79730	56119
36.80543	55116
36.81355	53639
36.82168	56594
36.82980	56529
36.83792	58740
36.84605	63142
36.85417	58342
36.86228	55030
36.87042	62075
36.87853	55081
36.88667	62318
36.89478	54998
36.90290	58057
36.91103	62241
36.91915	57721
36.92728	63597
36.93540	64377
36.94352	56259
36.95165	58857
36.95977	61216
36.96790	59727
36.97602	61603
36.98413	60390
36.99227	60045
37.00038	55417
37.00850	62478
37.01663	60970
37.02475	62671
37.03288	58084
37.04100	55874
37.04912	61413
37.05725	62713
37.06537	60346
37.07350	56472
37.08162	59714
37.08973	61785
37.09787	60119
37.10598	60762
37.11412	63593
37.12223	59972
37.13035	58250
37.13848	55551
37.14660	61122
37.15472	61808
37.16285	60898
37.17097	63732
37.17910	65893
37.18722	60184
37.19533	61902
37.20347	61865
37.21158	64179
37.21972	62840
37.22783	62706
37.23595	62472
37.24408	66598
37.25220	65141
37.26032	63134
37.26845	62930
37.27657	65648
37.28470	61593
37.29282	61046
37.30093	62799
37.30907	60720
37.31718	59575
37.32532	67999
37.33343	63535
37.34155	69815
37.34968	76796
37.35780	78098
37.36593	86501
37.37405	90212
37.38217	100608
37.39030	101299
37.39842	99746
37.40653	102694
37.41467	90365
37.42278	90475
37.43092	80970
37.43903	85055
37.44715	82353
37.45528	77401
37.46340	78791
37.47153	80850
37.47965	77266
37.48777	75291
