C:\MassHunter\GCMS\1\data\JTB-E18\JTB-E18-031-09.D Thu Oct 03 14:18:48 2019
Start of data points
2.09520	125989
2.10332	128416
2.11145	124835
2.11957	117343
2.12768	118818
2.13582	119385
2.14393	118151
2.15207	112867
2.16018	117279
2.16830	109341
2.17643	107099
2.18455	105709
2.19267	109121
2.20080	105455
2.20892	104490
2.21705	102745
2.22517	97619
2.23328	101911
2.24142	99572
2.24953	101202
2.25767	146548
2.26578	850908
2.27390	1853326
2.28203	1032324
2.29015	497796
2.29828	367375
2.30640	318510
2.31452	289458
2.32265	250355
2.33077	236629
2.33888	223727
2.34702	203013
2.35513	187911
2.36327	178424
2.37138	197141
2.37950	233904
2.38763	195980
2.39575	174259
2.40388	167446
2.41200	171205
2.42012	171043
2.42825	160844
2.43637	164877
2.44450	163590
2.45262	158115
2.46073	148007
2.46887	142261
2.47698	146352
2.48510	157489
2.49323	159009
2.50135	144512
2.50948	147685
2.51760	138881
2.52572	136671
2.53385	142767
2.54197	155219
2.55010	192868
2.55822	196715
2.56633	156301
2.57447	155457
2.58258	145044
2.59070	145203
2.59883	169652
2.60695	241260
2.61508	223195
2.62320	193483
2.63132	169817
2.63945	156965
2.64757	161055
2.65570	153760
2.66382	158736
2.67193	189926
2.68007	166334
2.68818	152706
2.69632	140772
2.70443	130965
2.71255	135855
2.72068	132340
2.72880	132171
2.73692	123740
2.74505	135363
2.75317	125795
2.76130	129482
2.76942	145034
2.77753	204048
2.78567	211128
2.79378	172721
2.80192	157515
2.81003	182109
2.81815	326715
2.82628	545912
2.83440	427758
2.84252	259446
2.85065	213047
2.85877	217811
2.86690	185440
2.87502	159422
2.88313	152713
2.89127	149209
2.89938	142048
2.90752	138972
2.91563	128372
2.92375	127894
2.93188	130397
2.94000	127384
2.94813	125233
2.95625	116613
2.96437	116363
2.97250	121771
2.98062	125884
2.98873	128253
2.99687	141592
3.00498	143787
3.01312	189903
3.02123	387877
3.02935	703466
3.03748	1010344
3.04560	2990532
3.05373	6490869
3.06185	6150794
3.06997	3199834
3.07810	1674712
3.08622	1517596
3.09435	2104357
3.10247	3468009
3.11058	3332834
3.11872	2145359
3.12683	1504383
3.13495	1212530
3.14308	1018670
3.15120	859584
3.15933	783901
3.16745	748147
3.17557	784185
3.18370	1138181
3.19182	1342678
3.19995	1076025
3.20807	817231
3.21618	705113
3.22432	622768
3.23243	560534
3.24055	500698
3.24868	458488
3.25680	428738
3.26493	401683
3.27305	418938
3.28117	671463
3.28930	1323562
3.29742	2202252
3.30555	2522792
3.31367	2168041
3.32178	1679430
3.32992	1354975
3.33803	1161821
3.34617	1014950
3.35428	907732
3.36240	944960
3.37053	1100723
3.37865	1120909
3.38677	989133
3.39490	1141636
3.40302	2121243
3.41115	3010200
3.41927	2494484
3.42738	1484055
3.43552	938600
3.44363	727379
3.45177	633422
3.45988	593078
3.46800	550191
3.47613	508450
3.48425	474072
3.49238	436680
3.50050	414440
3.50862	395304
3.51675	379528
3.52487	383627
3.53298	378258
3.54112	367447
3.54923	329784
3.55737	329700
3.56548	325023
3.57360	309420
3.58173	306509
3.58985	300065
3.59798	296681
3.60610	361768
3.61422	659988
3.62235	1358150
3.63047	1877281
3.63858	1596745
3.64672	1014603
3.65483	842082
3.66297	1740620
3.67108	3499283
3.67920	3829143
3.68733	2549282
3.69545	1551798
3.70358	1162408
3.71170	966525
3.71982	840963
3.72795	758164
3.73607	695062
3.74420	651513
3.75232	613051
3.76043	597233
3.76857	578574
3.77668	571289
3.78480	539748
3.79293	564427
3.80105	757464
3.80918	1025023
3.81730	1040448
3.82542	799109
3.83355	638185
3.84167	554449
3.84980	514004
3.85792	464654
3.86603	441546
3.87417	425894
3.88228	412925
3.89040	401249
3.89853	395174
3.90665	413944
3.91478	506749
3.92290	603691
3.93102	577347
3.93915	560634
3.94727	789157
3.95540	1278732
3.96352	1484704
3.97163	1165219
3.97977	789375
3.98788	886065
3.99602	1933528
4.00413	3674864
4.01225	4221851
4.02038	3006364
4.02850	1719472
4.03662	1059134
4.04475	797532
4.05287	667664
4.06100	575736
4.06912	521707
4.07723	477473
4.08537	437898
4.09348	405333
4.10162	380200
4.10973	363334
4.11785	349321
4.12598	345900
4.13410	389314
4.14223	458366
4.15035	485627
4.15847	442027
4.16660	390063
4.17472	354766
4.18283	337931
4.19097	311723
4.19908	413474
4.20722	1355352
4.21533	4811402
4.22345	1.103762E+07
4.23158	1.629007E+07
4.23970	1.693818E+07
4.24783	1.243861E+07
4.25595	7978834
4.26407	5568266
4.27220	4186429
4.28032	3211742
4.28843	2563007
4.29657	2050548
4.30468	1728118
4.31282	1468870
4.32093	1292554
4.32905	1143501
4.33718	1053991
4.34530	997289
4.35343	920545
4.36155	879857
4.36967	790277
4.37780	729990
4.38592	683567
4.39405	643968
4.40217	605960
4.41028	586326
4.41842	555436
4.42653	536250
4.43465	515247
4.44278	512517
4.45090	506462
4.45903	499197
4.46715	466296
4.47527	445105
4.48340	426849
4.49152	411105
4.49965	401377
4.50777	387869
4.51588	377155
4.52402	366980
4.53213	371106
4.54027	351203
4.54838	351319
4.55650	343781
4.56463	318343
4.57275	326721
4.58087	320654
4.58900	300928
4.59712	302758
4.60525	300654
4.61337	330168
4.62148	409723
4.62962	526744
4.63773	615824
4.64587	537441
4.65398	440969
4.66210	368128
4.67023	330911
4.67835	314268
4.68647	298961
4.69460	290044
4.70272	273705
4.71085	262476
4.71897	263605
4.72708	250954
4.73522	246803
4.74333	252108
4.75147	245084
4.75958	235164
4.76770	235200
4.77583	230731
4.78395	269700
4.79208	353378
4.80020	436078
4.80832	440014
4.81645	386067
4.82457	332631
4.83268	323664
4.84082	314439
4.84893	300660
4.85707	283723
4.86518	263453
4.87330	243310
4.88143	240709
4.88955	235367
4.89768	243574
4.90580	247414
4.91392	283904
4.92205	397314
4.93017	657559
4.93828	919236
4.94642	1083955
4.95453	1023948
4.96267	854048
4.97078	701366
4.97890	583128
4.98703	512716
4.99515	449533
5.00328	419060
5.01140	418437
5.01952	519313
5.02765	757849
5.03577	976342
5.04390	985128
5.05202	827545
5.06013	665218
5.06827	574354
5.07638	516902
5.08450	478531
5.09263	483485
5.10075	512707
5.10888	527548
5.11700	533456
5.12512	481526
5.13325	438333
5.14137	397936
5.14950	399819
5.15762	420726
5.16573	463246
5.17387	498840
5.18198	513921
5.19012	492922
5.19823	462853
5.20635	416431
5.21448	392765
5.22260	364736
5.23072	357733
5.23885	356754
5.24697	335100
5.25510	310521
5.26322	300026
5.27133	289947
5.27947	280157
5.28758	264138
5.29572	266041
5.30383	255545
5.31195	244733
5.32008	250814
5.32820	260870
5.33633	256651
5.34445	258810
5.35257	243510
5.36070	232596
5.36882	222347
5.37693	226112
5.38507	229208
5.39318	228757
5.40132	220387
5.40943	210023
5.41755	208759
5.42568	201686
5.43380	206852
5.44193	210078
5.45005	207644
5.45817	205548
5.46630	200050
5.47442	195511
5.48253	190856
5.49067	196035
5.49878	197174
5.50692	196341
5.51503	196424
5.52315	196501
5.53128	189452
5.53940	184576
5.54753	186222
5.55565	193168
5.56377	199255
5.57190	204534
5.58002	211706
5.58815	205487
5.59627	203179
5.60438	198833
5.61252	199976
5.62063	208194
5.62875	208427
5.63688	215833
5.64500	209262
5.65313	205681
5.66125	194064
5.66937	197734
5.67750	213590
5.68562	229994
5.69375	246112
5.70187	245785
5.70998	244467
5.71812	257365
5.72623	260256
5.73435	258417
5.74248	239445
5.75060	245842
5.75873	254188
5.76685	260972
5.77497	253293
5.78310	235060
5.79122	252372
5.79935	313555
5.80747	520384
5.81558	835010
5.82372	1211993
5.83183	1347134
5.83997	1156030
5.84808	842757
5.85620	592946
5.86433	409293
5.87245	321190
5.88057	273305
5.88870	258110
5.89682	266917
5.90495	322675
5.91307	424495
5.92118	551690
5.92932	616651
5.93743	590464
5.94557	493415
5.95368	394439
5.96180	339028
5.96993	335002
5.97805	357480
5.98618	360535
5.99430	324630
6.00242	276626
6.01055	236657
6.01867	209876
6.02678	192627
6.03492	173007
6.04303	164690
6.05117	166837
6.05928	151871
6.06740	153604
6.07553	149069
6.08365	141661
6.09178	141912
6.09990	142052
6.10802	136703
6.11615	160790
6.12427	212407
6.13238	311667
6.14052	378991
6.14863	391420
6.15677	320453
6.16488	262737
6.17300	218389
6.18113	207419
6.18925	218451
6.19738	216679
6.20550	214416
6.21362	210375
6.22175	184037
6.22987	188686
6.23800	170119
6.24612	179079
6.25423	178022
6.26237	176235
6.27048	170224
6.27860	174373
6.28673	174480
6.29485	181506
6.30298	183227
6.31110	187209
6.31922	216587
6.32735	252311
6.33547	281878
6.34360	269223
6.35172	255467
6.35983	231206
6.36797	216028
6.37608	207149
6.38422	208699
6.39233	210446
6.40045	207634
6.40858	202226
6.41670	203366
6.42482	206122
6.43295	206454
6.44107	209297
6.44920	209573
6.45732	209075
6.46543	216810
6.47357	217362
6.48168	216160
6.48982	218190
6.49793	223303
6.50605	219548
6.51418	224179
6.52230	228801
6.53042	233381
6.53855	241946
6.54667	243528
6.55480	244926
6.56292	239260
6.57103	247492
6.57917	248344
6.58728	244205
6.59542	249454
6.60353	234104
6.61165	241091
6.61978	236317
6.62790	232584
6.63603	230311
6.64415	234718
6.65227	253194
6.66040	272367
6.66852	294278
6.67663	311056
6.68477	346354
6.69288	387115
6.70102	396988
6.70913	342390
6.71725	296236
6.72538	261421
6.73350	244727
6.74163	194362
6.74975	164909
6.75787	148352
6.76600	154276
6.77412	180267
6.78223	272187
6.79037	440229
6.79848	686698
6.80662	901240
6.81473	904103
6.82285	728288
6.83098	496138
6.83910	330487
6.84723	227643
6.85535	178593
6.86347	156615
6.87160	135599
6.87972	123895
6.88785	115353
6.89597	105183
6.90408	101665
6.91222	109562
6.92033	120621
6.92845	168046
6.93658	232510
6.94470	302984
6.95283	349649
6.96095	360701
6.96907	314816
6.97720	241000
6.98532	188379
6.99345	147795
7.00157	124664
7.00968	107447
7.01782	101709
7.02593	104968
7.03407	102640
7.04218	96773
7.05030	97372
7.05843	95098
7.06655	89646
7.07467	87850
7.08280	76695
7.09092	83028
7.09905	81218
7.10717	84048
7.11528	82694
7.12342	77362
7.13153	77679
7.13967	90293
7.14778	106447
7.15590	124337
7.16403	136543
7.17215	144421
7.18027	153969
7.18840	161686
7.19652	186505
7.20465	276379
7.21277	523469
7.22088	1022168
7.22902	1466321
7.23713	1472700
7.24527	1153576
7.25338	771115
7.26150	487563
7.26963	363325
7.27775	265848
7.28588	202147
7.29400	185555
7.30212	197789
7.31025	243531
7.31837	283081
7.32648	299168
7.33462	285089
7.34273	236823
7.35087	185699
7.35898	143598
7.36710	123467
7.37523	115432
7.38335	117260
7.39148	125765
7.39960	129346
7.40772	141752
7.41585	163861
7.42397	186152
7.43210	202897
7.44022	187507
7.44833	171962
7.45647	146879
7.46458	124727
7.47270	104055
7.48083	94102
7.48895	86264
7.49708	90279
7.50520	92579
7.51332	93040
7.52145	103582
7.52957	119191
7.53770	145530
7.54582	150276
7.55393	156670
7.56207	157326
7.57018	139158
7.57830	120290
7.58643	105555
7.59455	94508
7.60268	88168
7.61080	86336
7.61892	79366
7.62705	85207
7.63517	82670
7.64330	79248
7.65142	77056
7.65953	76055
7.66767	74626
7.67578	72319
7.68392	72512
7.69203	71803
7.70015	74552
7.70828	77162
7.71640	70788
7.72452	72198
7.73265	70957
7.74077	72003
7.74890	73927
7.75702	70962
7.76513	67154
7.77327	71214
7.78138	74680
7.78952	74875
7.79763	78472
7.80575	77876
7.81388	74682
7.82200	75746
7.83012	75081
7.83825	70322
7.84637	69110
7.85450	68490
7.86262	69051
7.87073	68403
7.87887	73222
7.88698	72089
7.89512	66606
7.90323	68845
7.91135	69064
7.91948	76603
7.92760	89067
7.93573	95479
7.94385	110591
7.95197	96505
7.96010	93850
7.96822	83569
7.97633	78013
7.98447	74229
7.99258	64515
8.00072	66974
8.00883	60312
8.01695	59709
8.02508	63733
8.03320	58989
8.04133	59138
8.04945	58141
8.05757	66228
8.06570	62221
8.07382	64711
8.08195	63268
8.09007	60774
8.09818	60456
8.10632	63195
8.11443	57849
8.12255	61212
8.13068	75308
8.13880	83324
8.14693	78661
8.15505	75616
8.16317	79169
8.17130	65356
8.17942	60966
8.18755	60422
8.19567	63850
8.20378	61612
8.21192	59480
8.22003	60609
8.22815	63160
8.23628	60176
8.24440	58600
8.25253	60577
8.26065	55663
8.26877	55014
8.27690	54663
8.28502	57768
8.29315	61012
8.30127	68495
8.30938	76556
8.31752	80639
8.32563	72153
8.33377	69718
8.34188	64820
8.35000	55378
8.35813	57997
8.36625	58035
8.37437	56690
8.38250	56139
8.39062	56890
8.39875	57424
8.40687	55845
8.41498	53667
8.42312	53594
8.43123	53325
8.43937	54824
8.44748	55162
8.45560	53470
8.46373	53701
8.47185	56831
8.47998	56334
8.48810	59914
8.49622	61616
8.50435	58124
8.51247	62113
8.52058	84863
8.52872	110809
8.53683	171095
8.54497	222065
8.55308	217205
8.56120	191639
8.56933	138538
8.57745	106973
8.58558	77734
8.59370	74222
8.60182	70114
8.60995	69230
8.61807	69591
8.62618	62128
8.63432	59611
8.64243	56896
8.65057	58482
8.65868	59541
8.66680	59275
8.67493	60332
8.68305	61703
8.69118	64902
8.69930	66269
8.70742	64689
8.71555	71321
8.72367	95685
8.73180	139374
8.73992	195887
8.74803	241881
8.75617	242717
8.76428	214235
8.77240	168517
8.78053	129641
8.78865	106139
8.79678	89755
8.80490	85781
8.81302	83508
8.82115	90395
8.82927	89882
8.83740	89720
8.84552	89139
8.85363	81840
8.86177	83759
8.86988	80491
8.87802	73144
8.88613	75828
8.89425	79620
8.90238	74074
8.91050	73938
8.91862	71473
8.92675	78990
8.93487	85425
8.94300	93066
8.95112	94756
8.95923	88624
8.96737	80131
8.97548	76462
8.98362	75184
8.99173	73768
8.99985	73225
9.00798	71481
9.01610	65892
9.02422	67194
9.03235	64094
9.04047	63740
9.04860	62953
9.05672	62834
9.06483	59127
9.07297	65803
9.08108	63513
9.08922	65691
9.09733	68584
9.10545	77507
9.11358	75452
9.12170	74306
9.12983	76431
9.13795	69470
9.14607	64739
9.15420	62551
9.16232	59786
9.17043	62973
9.17857	55538
9.18668	54488
9.19482	55753
9.20293	59299
9.21105	55567
9.21918	56212
9.22730	56180
9.23543	55526
9.24355	59082
9.25167	61463
9.25980	63706
9.26792	68896
9.27603	73969
9.28417	74812
9.29228	70205
9.30042	62164
9.30853	60812
9.31665	57468
9.32478	59223
9.33290	63397
9.34103	61929
9.34915	63191
9.35727	59922
9.36540	59132
9.37352	55382
9.38165	55706
9.38977	56888
9.39788	54794
9.40602	63901
9.41413	66405
9.42225	68546
9.43038	71991
9.43850	71262
9.44663	69087
9.45475	61452
9.46287	58451
9.47100	55401
9.47912	54995
9.48725	56912
9.49537	59195
9.50348	63881
9.51162	71299
9.51973	77205
9.52787	74083
9.53598	66032
9.54410	58247
9.55223	51796
9.56035	47142
9.56847	51712
9.57660	44746
9.58472	46539
9.59285	40792
9.60097	42038
9.60908	49009
9.61722	48504
9.62533	43157
9.63347	51750
9.64158	50873
9.64970	49402
9.65783	53427
9.66595	43382
9.67407	43251
9.68220	42470
9.69032	39069
9.69845	39364
9.70657	39116
9.71468	37343
9.72282	38974
9.73093	38885
9.73907	37504
9.74718	38651
9.75530	37206
9.76343	38055
9.77155	36915
9.77968	36272
9.78780	35881
9.79592	38378
9.80405	36997
9.81217	36382
9.82028	32978
9.82842	36890
9.83653	38437
9.84467	39073
9.85278	39206
9.86090	43788
9.86903	42572
9.87715	43068
9.88528	39759
9.89340	35021
9.90152	38930
9.90965	41161
9.91777	48002
9.92590	58872
9.93402	79747
9.94213	98434
9.95027	114325
9.95838	116338
9.96650	104349
9.97463	87265
9.98275	65928
9.99088	59036
9.99900	51815
10.00712	45520
10.01525	44176
10.02337	44174
10.03150	43393
10.03962	44726
10.04773	41190
10.05587	42318
10.06398	45579
10.07210	41192
10.08023	42728
10.08835	42010
10.09648	41973
10.10460	42717
10.11272	41404
10.12085	41629
10.12897	39205
10.13710	40874
10.14522	39805
10.15333	34346
10.16147	37929
10.16958	35672
10.17772	40502
10.18583	36200
10.19395	39716
10.20208	33894
10.21020	38197
10.21832	41019
10.22645	41890
10.23457	44431
10.24270	50256
10.25082	64321
10.25893	111577
10.26707	226307
10.27518	488309
10.28332	965034
10.29143	1497179
10.29955	2264615
10.30768	3297336
10.31580	5055289
10.32392	6873055
10.33205	7836051
10.34017	7097578
10.34830	5045415
10.35642	2971468
10.36453	1583745
10.37267	932973
10.38078	607977
10.38892	447076
10.39703	332524
10.40515	274525
10.41328	240942
10.42140	216133
10.42953	189301
10.43765	170241
10.44577	165652
10.45390	156380
10.46202	143844
10.47013	135917
10.47827	127863
10.48638	131655
10.49452	125913
10.50263	116116
10.51075	116523
10.51888	104619
10.52700	109380
10.53513	100683
10.54325	90827
10.55137	92903
10.55950	94413
10.56762	87285
10.57575	88134
10.58387	89240
10.59198	81431
10.60012	74274
10.60823	78446
10.61635	73843
10.62448	74079
10.63260	71664
10.64073	69959
10.64885	72282
10.65697	73292
10.66510	69589
10.67322	64478
10.68135	69613
10.68947	70712
10.69758	67822
10.70572	66964
10.71383	67892
10.72197	66651
10.73008	67227
10.73820	65259
10.74633	59825
10.75445	65045
10.76257	62359
10.77070	58673
10.77882	58093
10.78695	57102
10.79507	55443
10.80318	55823
10.81132	53550
10.81943	52262
10.82757	50259
10.83568	52514
10.84380	50285
10.85193	53580
10.86005	51784
10.86817	50120
10.87630	49926
10.88442	48383
10.89255	47410
10.90067	48095
10.90878	47780
10.91692	47281
10.92503	42689
10.93317	45724
10.94128	43520
10.94940	46630
10.95753	50641
10.96565	49895
10.97378	48098
10.98190	47357
10.99002	51985
10.99815	45627
11.00627	45305
11.01438	41355
11.02252	45397
11.03063	44379
11.03877	41469
11.04688	41364
11.05500	48124
11.06313	50350
11.07125	53087
11.07938	50885
11.08750	53391
11.09562	54654
11.10375	48611
11.11187	48754
11.11998	50838
11.12812	52183
11.13623	48621
11.14437	53283
11.15248	52252
11.16060	50576
11.16873	51201
11.17685	52177
11.18498	53920
11.19310	51421
11.20122	55493
11.20935	44490
11.21747	47626
11.22560	46751
11.23372	43907
11.24183	50414
11.24997	53007
11.25808	63094
11.26620	84338
11.27433	97992
11.28245	105772
11.29058	115185
11.29870	119368
11.30682	132686
11.31495	152868
11.32307	180229
11.33120	202466
11.33932	210088
11.34743	203412
11.35557	171627
11.36368	140067
11.37182	110237
11.37993	90574
11.38805	82663
11.39618	78382
11.40430	78267
11.41242	73701
11.42055	69170
11.42867	72487
11.43680	63645
11.44492	62045
11.45303	58375
11.46117	58858
11.46928	66542
11.47742	71035
11.48553	85490
11.49365	89737
11.50178	93781
11.50990	93975
11.51802	85352
11.52615	90797
11.53427	82198
11.54240	77854
11.55052	72681
11.55863	68696
11.56677	65717
11.57488	61391
11.58302	64205
11.59113	66204
11.59925	82554
11.60738	98131
11.61550	104301
11.62363	95906
11.63175	87052
11.63987	78529
11.64800	70871
11.65612	65755
11.66423	59971
11.67237	61148
11.68048	65814
11.68862	69684
11.69673	76447
11.70485	78048
11.71298	75686
11.72110	75129
11.72923	73367
11.73735	66224
11.74547	59615
11.75360	58736
11.76172	55640
11.76985	56358
11.77797	50320
11.78608	54364
11.79422	48703
11.80233	48847
11.81045	50410
11.81858	51957
11.82670	50487
11.83483	48015
11.84295	49302
11.85107	45399
11.85920	47393
11.86732	47034
11.87545	41239
11.88357	43460
11.89168	42298
11.89982	45937
11.90793	52806
11.91605	59844
11.92418	66018
11.93230	62519
11.94043	58320
11.94855	54948
11.95667	48767
11.96480	44599
11.97292	46325
11.98105	44291
11.98917	48237
11.99728	50524
12.00542	54227
12.01353	54858
12.02167	52549
12.02978	47270
12.03790	45439
12.04603	43571
12.05415	41601
12.06227	43464
12.07040	39520
12.07852	41538
12.08665	43295
12.09477	44201
12.10288	41455
12.11102	40186
12.11913	42859
12.12727	45233
12.13538	43076
12.14350	41234
12.15163	39430
12.15975	35716
12.16787	37218
12.17600	38358
12.18412	40349
12.19225	36726
12.20037	37455
12.20848	38506
12.21662	39084
12.22473	36895
12.23287	40541
12.24098	39405
12.24910	34205
12.25723	37571
12.26535	36636
12.27348	37023
12.28160	39067
12.28972	39162
12.29785	39614
12.30597	41478
12.31408	39452
12.32222	37980
12.33033	37737
12.33847	36794
12.34658	31519
12.35470	34820
12.36283	35568
12.37095	42113
12.37908	40714
12.38720	43626
12.39532	48097
12.40345	59421
12.41157	66510
12.41970	76825
12.42782	80378
12.43593	76879
12.44407	68254
12.45218	56629
12.46030	47753
12.46843	44888
12.47655	45028
12.48468	42899
12.49280	41064
12.50092	41239
12.50905	40084
12.51717	41304
12.52530	42903
12.53342	46187
12.54153	53627
12.54967	68150
12.55778	88547
12.56590	98296
12.57403	88644
12.58215	75814
12.59028	65160
12.59840	54610
12.60652	49060
12.61465	49763
12.62277	47348
12.63090	46682
12.63902	44984
12.64713	40740
12.65527	41818
12.66338	38238
12.67152	41577
12.67963	37279
12.68775	39653
12.69588	39135
12.70400	40457
12.71212	37767
12.72025	39836
12.72837	48688
12.73650	43831
12.74462	41852
12.75273	38266
12.76087	40331
12.76898	45401
12.77712	39131
12.78523	40423
12.79335	44445
12.80148	43684
12.80960	39481
12.81773	39819
12.82585	38824
12.83397	36960
12.84210	32970
12.85022	35929
12.85833	39715
12.86647	35137
12.87458	36712
12.88272	33083
12.89083	37112
12.89895	35786
12.90708	34923
12.91520	34776
12.92333	39470
12.93145	46339
12.93957	57501
12.94770	71638
12.95582	76575
12.96393	83338
12.97207	87306
12.98018	88571
12.98832	77080
12.99643	68395
13.00455	58532
13.01268	56065
13.02080	53107
13.02893	58083
13.03705	49022
13.04517	47296
13.05330	45200
13.06142	42547
13.06955	42392
13.07767	43304
13.08578	40134
13.09392	41166
13.10203	38863
13.11015	37605
13.11828	36467
13.12640	36436
13.13453	38283
13.14265	35617
13.15077	37956
13.15890	38538
13.16702	34187
13.17515	35322
13.18327	36201
13.19138	37282
13.19952	35162
13.20763	35991
13.21575	35720
13.22388	35595
13.23200	37278
13.24013	43157
13.24825	45135
13.25637	47103
13.26450	49225
13.27262	46931
13.28075	39414
13.28887	40660
13.29698	40486
13.30512	43742
13.31323	43485
13.32137	49577
13.32948	46105
13.33760	40675
13.34573	40534
13.35385	35915
13.36197	38755
13.37010	35527
13.37822	35961
13.38635	36476
13.39447	36868
13.40258	35568
13.41072	36413
13.41883	35762
13.42697	35205
13.43508	31125
13.44320	33018
13.45133	31695
13.45945	36398
13.46758	34159
13.47570	34803
13.48382	34231
13.49195	28515
13.50007	33436
13.50818	33079
13.51632	32148
13.52443	37423
13.53257	35629
13.54068	41505
13.54880	40339
13.55693	44148
13.56505	44880
13.57318	37923
13.58130	45948
13.58942	49467
13.59755	55551
13.60567	77302
13.61378	99491
13.62192	107982
13.63003	114030
13.63817	102204
13.64628	79207
13.65440	65441
13.66253	57034
13.67065	49036
13.67878	47159
13.68690	46169
13.69502	41069
13.70315	41470
13.71127	43676
13.71940	41746
13.72752	40436
13.73563	44360
13.74377	46797
13.75188	55105
13.76000	65110
13.76813	82640
13.77625	93734
13.78438	108020
13.79250	113347
13.80062	117843
13.80875	130950
13.81687	129423
13.82500	132800
13.83312	129935
13.84123	119201
13.84937	105208
13.85748	84362
13.86562	77211
13.87373	65983
13.88185	64131
13.88998	61720
13.89810	58306
13.90622	57911
13.91435	53448
13.92247	51386
13.93060	47863
13.93872	45684
13.94683	46758
13.95497	47189
13.96308	44830
13.97122	44761
13.97933	45977
13.98745	47677
13.99558	49116
14.00370	41357
14.01182	46743
14.01995	43525
14.02807	41282
14.03620	43340
14.04432	40717
14.05243	42129
14.06057	38462
14.06868	43163
14.07682	38177
14.08493	38173
14.09305	40705
14.10118	41151
14.10930	38880
14.11743	41876
14.12555	46872
14.13367	56689
14.14180	65875
14.14992	84720
14.15803	99426
14.16617	107178
14.17428	98900
14.18242	88498
14.19053	81591
14.19865	69160
14.20678	73790
14.21490	61928
14.22303	62292
14.23115	61431
14.23927	62439
14.24740	56300
14.25552	61498
14.26365	54488
14.27177	54032
14.27988	50714
14.28802	43347
14.29613	52503
14.30425	41898
14.31238	41606
14.32050	41479
14.32863	38240
14.33675	34414
14.34487	35118
14.35300	38736
14.36112	38534
14.36925	33863
14.37737	39301
14.38548	47927
14.39362	65996
14.40173	98701
14.40985	138234
14.41798	173260
14.42610	180027
14.43423	169398
14.44235	132082
14.45047	98621
14.45860	73536
14.46672	66657
14.47485	56094
14.48297	53874
14.49108	51477
14.49922	46643
14.50733	47194
14.51547	44815
14.52358	44423
14.53170	41972
14.53983	39633
14.54795	39334
14.55607	42328
14.56420	38179
14.57232	37150
14.58045	39165
14.58857	35213
14.59668	35216
14.60482	35508
14.61293	36728
14.62107	35122
14.62918	37241
14.63730	34553
14.64543	39213
14.65355	36194
14.66167	31411
14.66980	29728
14.67792	32913
14.68605	34035
14.69417	33004
14.70228	33748
14.71042	34750
14.71853	34714
14.72667	34881
14.73478	26689
14.74290	32373
14.75103	33149
14.75915	35238
14.76728	36022
14.77540	42150
14.78352	57668
14.79165	110381
14.79977	249355
14.80788	525596
14.81602	947677
14.82413	1306648
14.83227	1409053
14.84038	1251675
14.84850	882018
14.85663	567033
14.86475	365057
14.87288	246257
14.88100	186909
14.88912	149554
14.89725	127855
14.90537	108034
14.91350	100941
14.92162	102321
14.92973	90681
14.93787	91611
14.94598	82853
14.95410	74310
14.96223	70224
14.97035	69422
14.97848	66335
14.98660	68402
14.99472	65205
15.00285	61498
15.01097	61731
15.01910	59736
15.02722	58454
15.03533	56667
15.04347	57179
15.05158	55610
15.05970	49942
15.06783	50251
15.07595	49398
15.08408	48911
15.09220	48432
15.10032	45657
15.10845	48048
15.11657	50611
15.12470	54380
15.13282	56917
15.14093	51892
15.14907	54518
15.15718	46769
15.16532	46040
15.17343	45471
15.18155	44533
15.18968	43321
15.19780	39724
15.20592	39193
15.21405	36015
15.22217	34971
15.23030	34842
15.23842	34750
15.24653	38153
15.25467	34755
15.26278	33799
15.27092	32505
15.27903	35888
15.28715	31968
15.29528	36468
15.30340	33424
15.31153	33305
15.31965	33493
15.32777	33928
15.33590	32322
15.34402	34189
15.35213	32898
15.36027	32005
15.36838	30953
15.37652	30269
15.38463	31551
15.39275	30490
15.40088	32259
15.40900	30853
15.41713	27734
15.42525	32576
15.43337	29171
15.44150	32454
15.44962	35623
15.45773	37203
15.46587	38592
15.47398	46609
15.48212	52539
15.49023	59572
15.49835	60544
15.50648	59127
15.51460	56095
15.52273	58335
15.53085	48352
15.53897	43452
15.54710	43084
15.55522	43074
15.56335	37293
15.57147	36918
15.57958	34545
15.58772	34220
15.59583	31505
15.60395	32496
15.61208	30229
15.62020	34018
15.62833	33480
15.63645	33268
15.64457	30966
15.65270	35531
15.66082	32657
15.66895	34082
15.67707	35647
15.68518	29863
15.69332	27317
15.70143	26389
15.70955	27393
15.71768	32210
15.72580	31420
15.73393	34075
15.74205	40919
15.75017	50528
15.75830	66664
15.76642	95097
15.77455	125897
15.78267	148165
15.79078	155780
15.79892	133321
15.80703	111552
15.81517	81297
15.82328	63519
15.83140	58033
15.83953	48559
15.84765	48267
15.85577	49175
15.86390	47991
15.87202	47753
15.88015	48252
15.88827	47940
15.89638	45643
15.90452	47428
15.91263	43332
15.92077	36352
15.92888	40826
15.93700	38386
15.94513	36262
15.95325	35999
15.96138	35427
15.96950	39998
15.97762	37670
15.98575	42145
15.99387	45779
16.00198	48835
16.01012	49374
16.01823	49393
16.02637	48107
16.03448	48167
16.04260	45429
16.05073	38908
16.05885	40105
16.06698	36353
16.07510	37488
16.08322	38554
16.09135	32491
16.09947	32838
16.10760	35708
16.11572	34017
16.12383	34374
16.13197	36867
16.14008	38424
16.14820	35749
16.15633	33892
16.16445	34498
16.17258	34201
16.18070	33120
16.18882	32082
16.19695	32844
16.20507	32735
16.21320	31680
16.22132	32320
16.22943	35273
16.23757	32417
16.24568	33894
16.25380	32437
16.26193	35316
16.27005	33078
16.27818	36438
16.28630	34600
16.29442	34004
16.30255	36661
16.31067	33267
16.31880	34456
16.32692	31520
16.33503	35360
16.34317	34295
16.35128	33852
16.35942	35204
16.36753	37262
16.37565	33380
16.38378	33713
16.39190	34282
16.40002	31524
16.40815	35255
16.41627	32574
16.42440	32701
16.43252	36398
16.44063	45990
16.44877	59252
16.45688	82979
16.46502	131505
16.47313	158304
16.48125	167921
16.48938	157982
16.49750	132629
16.50562	92965
16.51375	75171
16.52187	66417
16.53000	51768
16.53812	46484
16.54623	45974
16.55437	42566
16.56248	42308
16.57062	42384
16.57873	42820
16.58685	42600
16.59498	41348
16.60310	36257
16.61123	37391
16.61935	39041
16.62747	33801
16.63560	38641
16.64372	38517
16.65183	35127
16.65997	36323
16.66808	34701
16.67622	33963
16.68433	35709
16.69245	37249
16.70058	35019
16.70870	33541
16.71683	34748
16.72495	39407
16.73307	30966
16.74120	34941
16.74932	35484
16.75745	37217
16.76557	35585
16.77368	31897
16.78182	33257
16.78993	33089
16.79805	35551
16.80618	32305
16.81430	30862
16.82243	31395
16.83055	32225
16.83867	31870
16.84680	30401
16.85492	31377
16.86305	30344
16.87117	33030
16.87928	33220
16.88742	30765
16.89553	33218
16.90365	31159
16.91178	30117
16.91990	30298
16.92803	34115
16.93615	34258
16.94427	30456
16.95240	30636
16.96052	33684
16.96865	29304
16.97677	32075
16.98488	30679
16.99302	33967
17.00113	31363
17.00927	33871
17.01738	31952
17.02550	33502
17.03363	32339
17.04175	33843
17.04987	33427
17.05800	31511
17.06612	34538
17.07425	34225
17.08237	36084
17.09048	36107
17.09862	36187
17.10673	37421
17.11487	37299
17.12298	38510
17.13110	37028
17.13923	35359
17.14735	36008
17.15548	30979
17.16360	30287
17.17172	33421
17.17985	35074
17.18797	30705
17.19608	30068
17.20422	33903
17.21233	30118
17.22047	31300
17.22858	30639
17.23670	31827
17.24483	31134
17.25295	30850
17.26108	30326
17.26920	28501
17.27732	33645
17.28545	29698
17.29357	28545
17.30168	29383
17.30982	29052
17.31793	31457
17.32607	34160
17.33418	37128
17.34230	34636
17.35043	37294
17.35855	35747
17.36668	35105
17.37480	35082
17.38292	34027
17.39105	35386
17.39917	35107
17.40730	35072
17.41542	34043
17.42353	33950
17.43167	35242
17.43978	33705
17.44790	34244
17.45603	29177
17.46415	33438
17.47228	31681
17.48040	30148
17.48852	34024
17.49665	30627
17.50477	30910
17.51290	35920
17.52102	36772
17.52913	41012
17.53727	43590
17.54538	48723
17.55350	51453
17.56163	64259
17.56975	86299
17.57788	113934
17.58600	154213
17.59412	180622
17.60225	196975
17.61037	192317
17.61850	173015
17.62662	129604
17.63473	109712
17.64287	91870
17.65098	79944
17.65912	69405
17.66723	64551
17.67535	63945
17.68348	62145
17.69160	54592
17.69972	54585
17.70785	51238
17.71597	51078
17.72410	48667
17.73222	50574
17.74033	48926
17.74847	44483
17.75658	40722
17.76472	47079
17.77283	43829
17.78095	45305
17.78908	39292
17.79720	43111
17.80533	42686
17.81345	48524
17.82157	51710
17.82970	49305
17.83782	50536
17.84593	52851
17.85407	54048
17.86218	54333
17.87032	52837
17.87843	44098
17.88655	48826
17.89468	39649
17.90280	36548
17.91093	37841
17.91905	40370
17.92717	39935
17.93530	35187
17.94342	34043
17.95153	35429
17.95967	36847
17.96778	35685
17.97592	38428
17.98403	38366
17.99215	36614
18.00028	37563
18.00840	43972
18.01653	44264
18.02465	53222
18.03277	57241
18.04090	58069
18.04902	70655
18.05715	112038
18.06527	210359
18.07338	405321
18.08152	666947
18.08963	889752
18.09775	989094
18.10588	929634
18.11400	791792
18.12213	623224
18.13025	541790
18.13837	480763
18.14650	450233
18.15462	432545
18.16275	409490
18.17087	381030
18.17898	381059
18.18712	373666
18.19523	363299
18.20337	348867
18.21148	331685
18.21960	321669
18.22773	321134
18.23585	308387
18.24397	310732
18.25210	298362
18.26022	280420
18.26835	271639
18.27647	266270
18.28458	253871
18.29272	253992
18.30083	234851
18.30897	235094
18.31708	222850
18.32520	227217
18.33333	218081
18.34145	209685
18.34957	208660
18.35770	200383
18.36582	199499
18.37395	199577
18.38207	188634
18.39018	187416
18.39832	185899
18.40643	180969
18.41457	181285
18.42268	174722
18.43080	181958
18.43893	184537
18.44705	184734
18.45518	205379
18.46330	222063
18.47142	230379
18.47955	225644
18.48767	215732
18.49578	205482
18.50392	190144
18.51203	167584
18.52017	165426
18.52828	158636
18.53640	147392
18.54453	147276
18.55265	143655
18.56078	144011
18.56890	133247
18.57702	130629
18.58515	133150
18.59327	134847
18.60140	130929
18.60952	128836
18.61763	127939
18.62577	127014
18.63388	125557
18.64200	119552
18.65013	121205
18.65825	114709
18.66638	112488
18.67450	103997
18.68262	108678
18.69075	110307
18.69887	104053
18.70700	104087
18.71512	98710
18.72323	97611
18.73137	90946
18.73948	96610
18.74760	91752
18.75573	92076
18.76385	88191
18.77198	87528
18.78010	87957
18.78822	83510
18.79635	83583
18.80447	87203
18.81260	82418
18.82072	83846
18.82883	77832
18.83697	77785
18.84508	76733
18.85322	72743
18.86133	77125
18.86945	79175
18.87758	77871
18.88570	74074
18.89382	72819
18.90195	73362
18.91007	73767
18.91820	73016
18.92632	68868
18.93443	71589
18.94257	79029
18.95068	71802
18.95882	76542
18.96693	68624
18.97505	71499
18.98318	68566
18.99130	62309
18.99942	63464
19.00755	65848
19.01567	69093
19.02380	64086
19.03192	63923
19.04003	60484
19.04817	59139
19.05628	58012
19.06442	64299
19.07253	73971
19.08065	81362
19.08878	93768
19.09690	95856
19.10503	96764
19.11315	93352
19.12127	83535
19.12940	83311
19.13752	76571
19.14563	75133
19.15377	77917
19.16188	70315
19.17002	68503
19.17813	67761
19.18625	63947
19.19438	57583
19.20250	58524
19.21063	61334
19.21875	60261
19.22687	54414
19.23500	55292
19.24312	55999
19.25125	55303
19.25937	56302
19.26748	52553
19.27562	53992
19.28373	56204
19.29185	55797
19.29998	57855
19.30810	54589
19.31623	52998
19.32435	48444
19.33247	51504
19.34060	52653
19.34872	60849
19.35685	60282
19.36497	77169
19.37308	65208
19.38122	69859
19.38933	66157
19.39745	64160
19.40558	55398
19.41370	59966
19.42183	57406
19.42995	67832
19.43807	72719
19.44620	89459
19.45432	102300
19.46245	101838
19.47057	93582
19.47868	84945
19.48682	73399
19.49493	62891
19.50307	61394
19.51118	56373
19.51930	53894
19.52743	54704
19.53555	53248
19.54367	51038
19.55180	49636
19.55992	49377
19.56805	47691
19.57617	48766
19.58428	43264
19.59242	44285
19.60053	44457
19.60867	50364
19.61678	49345
19.62490	57624
19.63303	67130
19.64115	84449
19.64928	97426
19.65740	115929
19.66552	116200
19.67365	119195
19.68177	111745
19.68988	100605
19.69802	90576
19.70613	85557
19.71427	72542
19.72238	66034
19.73050	67575
19.73863	51117
19.74675	56808
19.75488	52319
19.76300	51231
19.77112	54665
19.77925	51892
19.78737	54662
19.79548	55269
19.80362	55833
19.81173	50266
19.81987	50927
19.82798	52186
19.83610	52164
19.84423	57988
19.85235	67526
19.86048	99442
19.86860	163818
19.87672	275716
19.88485	408297
19.89297	528179
19.90110	579137
19.90922	543173
19.91733	443620
19.92547	321904
19.93358	236521
19.94170	182503
19.94983	154568
19.95795	134649
19.96608	127154
19.97420	111683
19.98232	112591
19.99045	103128
19.99857	104754
20.00670	99577
20.01482	95148
20.02293	89697
20.03107	83286
20.03918	80504
20.04730	74165
20.05543	66324
20.06355	63493
20.07168	62954
20.07980	63292
20.08792	56696
20.09605	55907
20.10417	61156
20.11230	56144
20.12042	54339
20.12853	48213
20.13667	48273
20.14478	48887
20.15292	55091
20.16103	63519
20.16915	58628
20.17728	63454
20.18540	66455
20.19352	66141
20.20165	66102
20.20977	62914
20.21790	60605
20.22602	67487
20.23413	77067
20.24227	82159
20.25038	94541
20.25852	102761
20.26663	97186
20.27475	92075
20.28288	84879
20.29100	77891
20.29913	67280
20.30725	61821
20.31537	54313
20.32350	53845
20.33162	46523
20.33973	46524
20.34787	41059
20.35598	38050
20.36412	43661
20.37223	44311
20.38035	40624
20.38848	41667
20.39660	40529
20.40473	45537
20.41285	47384
20.42097	51094
20.42910	49455
20.43722	50464
20.44535	49967
20.45347	45070
20.46158	43995
20.46972	39835
20.47783	43720
20.48595	39369
20.49408	39334
20.50220	37363
20.51033	38441
20.51845	44120
20.52657	40187
20.53470	38432
20.54282	42503
20.55095	38031
20.55907	40492
20.56718	35682
20.57532	39510
20.58343	39830
20.59155	36150
20.59968	36750
20.60780	40084
20.61593	40296
20.62405	39547
20.63217	37153
20.64030	35287
20.64842	36191
20.65655	38563
20.66467	35899
20.67278	35456
20.68092	36002
20.68903	36865
20.69717	34320
20.70528	37777
20.71340	38008
20.72153	37963
20.72965	37598
20.73777	35644
20.74590	39531
20.75402	37084
20.76215	39690
20.77027	45564
20.77838	45174
20.78652	59845
20.79463	77123
20.80277	91160
20.81088	103181
20.81900	102785
20.82713	96175
20.83525	80508
20.84337	64518
20.85150	53383
20.85962	45810
20.86775	43769
20.87587	44885
20.88398	44818
20.89212	43861
20.90023	41091
20.90837	41601
20.91648	42890
20.92460	40379
20.93273	40378
20.94085	40152
20.94898	38410
20.95710	35623
20.96522	36484
20.97335	38731
20.98147	38382
20.98958	38307
20.99772	33948
21.00583	36898
21.01397	37924
21.02208	39694
21.03020	35952
21.03833	36811
21.04645	39420
21.05458	39135
21.06270	37170
21.07082	39592
21.07895	36282
21.08707	36547
21.09520	37460
21.10332	37584
21.11143	35520
21.11957	38608
21.12768	37498
21.13580	48368
21.14393	52226
21.15205	55315
21.16018	59318
21.16830	51094
21.17642	50909
21.18455	52897
21.19267	48676
21.20080	48075
21.20892	45488
21.21703	45171
21.22517	44058
21.23328	46514
21.24140	53160
21.24953	52591
21.25765	52055
21.26578	47714
21.27390	52468
21.28202	49259
21.29015	48080
21.29827	46974
21.30640	47744
21.31452	44950
21.32263	48218
21.33077	47588
21.33888	46726
21.34702	47141
21.35513	47438
21.36325	47528
21.37138	48622
21.37950	42541
21.38762	48051
21.39575	51162
21.40387	57460
21.41200	57973
21.42012	60966
21.42823	52985
21.43637	57474
21.44448	50608
21.45262	49416
21.46073	49659
21.46885	50602
21.47698	49169
21.48510	49881
21.49323	52000
21.50135	49674
21.50947	47165
21.51760	48014
21.52572	51844
21.53383	46964
21.54197	44280
21.55008	46929
21.55822	48753
21.56633	49832
21.57445	55888
21.58258	54877
21.59070	63086
21.59883	61781
21.60695	60752
21.61507	58790
21.62320	58278
21.63132	55585
21.63943	49731
21.64757	51934
21.65568	52722
21.66382	49132
21.67193	51215
21.68005	49024
21.68818	46389
21.69630	46872
21.70443	45429
21.71255	40541
21.72067	40853
21.72880	38480
21.73692	41798
21.74505	40311
21.75317	39467
21.76128	42596
21.76942	42028
21.77753	46085
21.78565	50970
21.79378	52296
21.80190	52811
21.81003	48570
21.81815	46062
21.82627	48147
21.83440	42755
21.84252	40694
21.85065	39737
21.85877	39635
21.86688	38598
21.87502	34867
21.88313	34549
21.89125	40167
21.89938	44457
21.90750	53039
21.91563	72363
21.92375	89341
21.93187	92489
21.94000	101631
21.94812	104191
21.95625	102486
21.96437	104869
21.97248	112271
21.98062	112043
21.98873	110377
21.99687	115210
22.00498	112074
22.01310	112956
22.02123	118691
22.02935	110147
22.03747	115635
22.04560	114084
22.05372	110187
22.06185	108413
22.06997	113910
22.07808	107398
22.08622	104052
22.09433	107106
22.10247	101659
22.11058	98421
22.11870	98596
22.12683	90577
22.13495	93389
22.14308	91207
22.15120	90673
22.15932	84939
22.16745	91477
22.17557	86396
22.18368	82442
22.19182	84542
22.19993	82087
22.20807	80258
22.21618	77670
22.22430	71521
22.23243	73569
22.24055	68475
22.24868	71711
22.25680	64725
22.26492	66043
22.27305	67380
22.28117	67195
22.28928	68364
22.29742	66319
22.30553	66507
22.31367	67061
22.32178	64352
22.32990	65849
22.33803	62578
22.34615	62254
22.35428	60938
22.36240	54254
22.37052	57337
22.37865	59252
22.38677	63467
22.39490	67631
22.40302	72833
22.41113	82310
22.41927	76842
22.42738	78334
22.43550	67513
22.44363	64607
22.45175	55913
22.45988	59871
22.46800	58601
22.47612	60395
22.48425	63379
22.49237	62554
22.50050	64477
22.50862	59565
22.51673	56564
22.52487	56441
22.53298	55882
22.54112	53962
22.54923	51170
22.55735	50608
22.56548	47248
22.57360	48629
22.58172	45212
22.58985	47190
22.59797	44713
22.60610	42527
22.61422	41958
22.62233	47253
22.63047	39584
22.63858	43385
22.64672	43351
22.65483	42927
22.66295	43855
22.67108	42592
22.67920	45593
22.68732	49564
22.69545	54870
22.70357	60888
22.71170	62762
22.71982	59137
22.72793	56684
22.73607	52039
22.74418	47252
22.75232	47968
22.76043	46826
22.76855	49787
22.77668	48844
22.78480	56374
22.79293	60045
22.80105	60119
22.80917	65438
22.81730	63029
22.82542	61763
22.83353	53693
22.84167	50008
22.84978	50870
22.85792	47567
22.86603	49389
22.87415	53352
22.88228	54284
22.89040	59300
22.89853	69008
22.90665	90757
22.91477	102867
22.92290	111213
22.93102	118285
22.93913	115106
22.94727	100471
22.95538	82850
22.96352	70091
22.97163	64455
22.97975	58650
22.98788	57568
22.99600	55049
23.00413	49433
23.01225	46558
23.02037	47255
23.02850	45208
23.03662	42332
23.04475	42050
23.05287	39086
23.06098	42630
23.06912	41441
23.07723	36017
23.08535	42975
23.09348	39353
23.10160	42017
23.10973	39718
23.11785	38504
23.12597	34832
23.13410	38565
23.14222	38032
23.15035	36097
23.15847	37640
23.16658	34493
23.17472	36722
23.18283	36860
23.19097	36540
23.19908	34136
23.20720	34700
23.21533	36110
23.22345	40227
23.23157	38830
23.23970	34898
23.24782	39560
23.25595	42387
23.26407	40333
23.27218	42718
23.28032	41256
23.28843	38874
23.29657	39484
23.30468	38834
23.31280	38014
23.32093	41270
23.32905	39650
23.33717	42809
23.34530	54050
23.35342	59096
23.36155	61605
23.36967	64244
23.37778	66960
23.38592	72408
23.39403	63547
23.40217	64635
23.41028	60768
23.41840	58986
23.42653	61876
23.43465	56514
23.44278	54494
23.45090	54009
23.45902	48845
23.46715	52151
23.47527	47568
23.48338	45930
23.49152	51969
23.49963	49465
23.50777	52594
23.51588	52125
23.52400	50283
23.53213	49829
23.54025	50218
23.54838	47742
23.55650	53098
23.56462	54964
23.57275	57958
23.58087	64888
23.58900	68059
23.59712	75089
23.60523	75663
23.61337	74317
23.62148	69623
23.62960	59597
23.63773	60357
23.64585	59837
23.65398	61424
23.66210	71380
23.67022	84938
23.67835	110420
23.68647	113585
23.69460	121789
23.70272	128429
23.71083	138095
23.71897	143274
23.72708	152591
23.73520	189234
23.74333	279958
23.75145	486830
23.75958	902578
23.76770	1487658
23.77582	2162747
23.78395	2515428
23.79207	2458719
23.80020	2275045
23.80832	1877126
23.81643	1415623
23.82457	1067757
23.83268	789467
23.84082	646980
23.84893	532187
23.85705	453262
23.86518	404955
23.87330	365766
23.88142	331325
23.88955	296744
23.89767	275551
23.90580	262508
23.91392	255638
23.92203	239840
23.93017	224910
23.93828	215181
23.94642	201969
23.95453	203302
23.96265	184320
23.97078	174642
23.97890	174405
23.98703	164323
23.99515	168490
24.00327	159044
24.01140	158393
24.01952	161193
24.02763	164963
24.03577	166482
24.04388	155938
24.05202	141344
24.06013	136738
24.06825	125124
24.07638	125632
24.08450	120053
24.09263	119806
24.10075	113450
24.10887	112762
24.11700	116650
24.12512	104727
24.13323	113877
24.14137	110154
24.14948	112402
24.15762	114399
24.16573	111633
24.17385	110531
24.18198	104116
24.19010	104499
24.19823	108286
24.20635	101552
24.21447	99696
24.22260	99905
24.23072	91070
24.23885	87120
24.24697	86744
24.25508	82801
24.26322	82648
24.27133	78749
24.27945	77837
24.28758	76843
24.29570	79506
24.30383	79972
24.31195	84816
24.32007	87075
24.32820	97996
24.33632	104697
24.34445	112770
24.35257	99876
24.36068	88802
24.36882	79487
24.37693	74226
24.38505	65257
24.39318	65231
24.40130	59983
24.40943	62708
24.41755	67184
24.42567	60000
24.43380	68532
24.44192	66606
24.45005	67845
24.45817	71637
24.46628	68362
24.47442	69384
24.48253	68697
24.49067	63625
24.49878	62160
24.50690	65071
24.51503	61700
24.52315	63959
24.53127	61756
24.53940	65245
24.54752	69726
24.55565	65000
24.56377	65555
24.57188	64002
24.58002	59916
24.58813	57467
24.59627	52959
24.60438	54647
24.61250	50203
24.62063	48031
24.62875	50459
24.63688	51673
24.64500	48910
24.65312	52546
24.66125	49722
24.66937	48416
24.67748	49906
24.68562	51483
24.69373	50787
24.70187	51836
24.70998	51810
24.71810	47779
24.72623	50477
24.73435	46219
24.74248	45356
24.75060	50592
24.75872	47952
24.76685	49196
24.77497	49024
24.78308	49227
24.79122	49214
24.79933	52709
24.80747	51831
24.81558	52607
24.82370	55120
24.83183	60986
24.83995	72646
24.84808	87218
24.85620	101498
24.86432	124351
24.87245	163210
24.88057	186955
24.88870	213386
24.89682	216299
24.90493	200493
24.91307	186668
24.92118	176031
24.92930	159011
24.93743	157409
24.94555	149440
24.95368	153663
24.96180	152298
24.96992	161586
24.97805	152262
24.98617	153694
24.99430	151458
25.00242	156219
25.01053	149225
25.01867	145383
25.02678	145572
25.03492	137799
25.04303	137522
25.05115	138048
25.05928	135845
25.06740	132557
25.07552	135132
25.08365	133845
25.09177	151510
25.09990	189119
25.10802	272576
25.11613	402711
25.12427	619363
25.13238	831666
25.14052	992971
25.14863	992027
25.15675	825740
25.16488	621943
25.17300	427211
25.18112	294839
25.18925	215303
25.19737	171455
25.20550	150108
25.21362	141373
25.22173	140301
25.22987	145457
25.23798	170460
25.24612	200235
25.25423	257563
25.26235	278117
25.27048	297880
25.27860	273661
25.28673	244140
25.29485	192436
25.30297	148804
25.31110	130504
25.31922	112068
25.32733	104828
25.33547	94408
25.34358	93600
25.35172	84150
25.35983	81659
25.36795	76725
25.37608	76221
25.38420	74091
25.39233	73630
25.40045	75404
25.40857	72192
25.41670	73204
25.42482	72474
25.43293	72399
25.44107	69096
25.44918	64965
25.45732	65372
25.46543	65776
25.47355	65827
25.48168	62995
25.48980	65426
25.49793	59209
25.50605	60418
25.51417	56946
25.52230	57992
25.53042	58783
25.53855	58883
25.54667	56316
25.55478	57581
25.56292	53489
25.57103	53354
25.57915	52869
25.58728	53965
25.59540	54411
25.60353	55800
25.61165	53453
25.61977	52081
25.62790	55881
25.63602	56523
25.64415	55395
25.65227	51352
25.66038	51918
25.66852	50959
25.67663	51414
25.68477	50461
25.69288	48120
25.70100	48366
25.70913	47960
25.71725	51371
25.72537	49653
25.73350	48284
25.74162	49023
25.74975	47700
25.75787	45620
25.76598	46100
25.77412	44864
25.78223	42951
25.79037	47042
25.79848	48063
25.80660	46707
25.81473	45416
25.82285	46772
25.83098	51240
25.83910	49592
25.84722	43693
25.85535	45821
25.86347	44819
25.87158	44354
25.87972	42609
25.88783	40370
25.89597	41791
25.90408	45375
25.91220	37383
25.92033	41870
25.92845	42927
25.93658	44649
25.94470	42336
25.95282	41995
25.96095	36731
25.96907	40270
25.97718	40067
25.98532	40921
25.99343	41677
26.00157	40766
26.00968	37553
26.01780	38912
26.02593	38275
26.03405	41505
26.04218	40428
26.05030	40519
26.05842	41761
26.06655	41679
26.07467	41438
26.08280	40544
26.09092	44657
26.09903	43465
26.10717	42844
26.11528	48251
26.12340	42907
26.13153	48872
26.13965	48205
26.14778	46059
26.15590	43930
26.16402	46084
26.17215	46176
26.18027	44494
26.18840	45377
26.19652	51175
26.20463	42383
26.21277	49574
26.22088	41234
26.22900	43146
26.23713	40699
26.24525	41201
26.25338	40015
26.26150	41812
26.26962	37157
26.27775	39569
26.28587	41252
26.29400	40611
26.30212	39086
26.31023	39515
26.31837	40545
26.32648	42149
26.33462	38872
26.34273	40738
26.35085	41642
26.35898	44019
26.36710	46023
26.37522	45150
26.38335	43699
26.39147	46174
26.39960	49858
26.40772	45195
26.41583	48941
26.42397	42757
26.43208	38337
26.44022	35949
26.44833	40577
26.45645	43299
26.46458	41880
26.47270	41476
26.48083	42364
26.48895	38591
26.49707	41635
26.50520	41518
26.51332	40858
26.52143	37816
26.52957	37031
26.53768	40910
26.54582	34587
26.55393	38618
26.56205	35376
26.57018	39686
26.57830	37908
26.58643	36266
26.59455	37206
26.60267	38239
26.61080	38323
26.61892	37986
26.62703	39241
26.63517	37012
26.64328	37632
26.65142	36850
26.65953	38367
26.66765	36724
26.67578	38238
26.68390	37690
26.69203	37399
26.70015	35915
26.70827	38908
26.71640	37370
26.72452	35835
26.73265	36882
26.74077	38828
26.74888	35435
26.75702	35008
26.76513	35900
26.77325	35181
26.78138	41802
26.78950	37400
26.79763	42539
26.80575	39572
26.81387	39621
26.82200	38202
26.83012	37927
26.83825	36379
26.84637	34611
26.85448	35414
26.86262	34775
26.87073	38219
26.87887	35644
26.88698	40683
26.89510	32349
26.90323	32600
26.91135	33899
26.91947	35401
26.92760	34982
26.93572	37883
26.94385	44746
26.95197	61764
26.96008	84971
26.96822	128038
26.97633	197722
26.98447	259977
26.99258	340571
27.00070	385750
27.00883	375434
27.01695	351857
27.02507	327311
27.03320	263940
27.04132	213260
27.04945	173960
27.05757	139258
27.06568	119282
27.07382	99617
27.08193	88281
27.09007	81681
27.09818	81825
27.10630	74946
27.11443	71063
27.12255	68061
27.13068	65925
27.13880	64678
27.14692	65170
27.15505	64154
27.16317	64894
27.17128	65559
27.17942	63797
27.18753	61795
27.19567	60616
27.20378	57211
27.21190	55041
27.22003	53440
27.22815	50773
27.23628	52166
27.24440	50231
27.25252	46023
27.26065	49020
27.26877	45755
27.27688	43113
27.28502	46125
27.29313	44387
27.30127	43053
27.30938	44336
27.31750	44046
27.32563	43020
27.33375	41709
27.34188	38784
27.35000	42469
27.35812	42996
27.36625	41179
27.37437	39282
27.38250	42412
27.39062	41073
27.39873	39956
27.40687	41586
27.41498	40039
27.42310	40833
27.43123	40132
27.43935	44780
27.44748	41199
27.45560	42305
27.46372	39370
27.47185	35798
27.47997	37904
27.48810	38173
27.49622	35933
27.50433	38080
27.51247	39736
27.52058	41211
27.52872	39814
27.53683	39682
27.54495	39993
27.55308	38031
27.56120	39913
27.56932	41239
27.57745	44258
27.58557	43630
27.59370	45282
27.60182	43646
27.60993	39942
27.61807	40574
27.62618	39050
27.63432	35591
27.64243	40896
27.65055	37161
27.65868	33149
27.66680	35749
27.67492	38553
27.68305	34661
27.69117	35105
27.69930	35843
27.70742	40442
27.71553	38324
27.72367	37179
27.73178	34861
27.73992	40607
27.74803	43119
27.75615	45435
27.76428	45743
27.77240	44456
27.78053	41392
27.78865	50403
27.79677	43582
27.80490	41633
27.81302	38936
27.82113	43143
27.82927	36977
27.83738	33773
27.84552	33297
27.85363	37905
27.86175	33683
27.86988	32994
27.87800	34923
27.88613	32406
27.89425	34615
27.90237	34506
27.91050	31924
27.91862	33254
27.92675	32582
27.93487	35294
27.94298	33754
27.95112	35716
27.95923	35309
27.96735	38595
27.97548	35976
27.98360	38085
27.99173	38574
27.99985	38517
28.00797	39575
28.01610	40019
28.02422	39890
28.03235	41213
28.04047	43369
28.04858	41950
28.05672	42481
28.06483	43203
28.07295	38859
28.08108	41267
28.08920	41646
28.09733	44264
28.10545	47391
28.11357	44266
28.12170	45729
28.12982	47901
28.13795	42772
28.14607	38505
28.15418	38653
28.16232	35250
28.17043	38307
28.17857	36807
28.18668	36027
28.19480	40055
28.20293	39468
28.21105	40593
28.21917	42315
28.22730	44005
28.23542	43157
28.24355	40560
28.25167	41520
28.25978	43165
28.26792	59066
28.27603	65351
28.28417	84015
28.29228	105319
28.30040	125921
28.30853	129444
28.31665	145051
28.32477	144149
28.33290	147114
28.34102	146543
28.34915	127155
28.35727	123729
28.36538	115185
28.37352	107045
28.38163	93171
28.38977	81993
28.39788	79037
28.40600	71925
28.41413	64363
28.42225	64621
28.43038	58048
28.43850	58279
28.44662	55708
28.45475	55428
28.46287	47215
28.47098	47110
28.47912	49210
28.48723	47943
28.49537	45244
28.50348	49384
28.51160	46431
28.51973	46552
28.52785	43433
28.53598	43188
28.54410	42197
28.55222	44152
28.56035	41570
28.56847	39005
28.57660	40351
28.58472	41416
28.59283	40460
28.60097	41137
28.60908	40805
28.61720	35622
28.62533	41973
28.63345	37153
28.64158	39102
28.64970	43082
28.65782	44748
28.66595	42174
28.67407	40307
28.68220	39555
28.69032	47787
28.69843	50407
28.70657	54925
28.71468	54147
28.72280	44202
28.73093	45498
28.73905	39444
28.74718	37475
28.75530	37743
28.76342	37620
28.77155	36746
28.77967	37413
28.78780	36240
28.79592	38972
28.80403	36820
28.81217	36059
28.82028	37783
28.82842	40238
28.83653	37377
28.84465	41716
28.85278	34957
28.86090	39179
28.86902	37499
28.87715	41405
28.88527	42034
28.89340	38926
28.90152	37735
28.90963	38114
28.91777	40061
28.92588	34266
28.93402	37486
28.94213	41877
28.95025	36044
28.95838	41282
28.96650	36010
28.97463	35828
28.98275	33725
28.99087	33356
28.99900	33039
29.00712	34406
29.01523	34772
29.02337	34811
29.03148	34870
29.03962	36569
29.04773	35355
29.05585	37283
29.06398	37556
29.07210	36778
29.08023	39361
29.08835	37930
29.09647	36169
29.10460	34986
29.11272	34332
29.12083	33677
29.12897	31340
29.13708	35181
29.14522	32856
29.15333	33823
29.16145	35090
29.16958	33557
29.17770	35066
29.18583	40034
29.19395	43339
29.20207	46783
29.21020	47705
29.21832	47110
29.22645	43155
29.23457	42364
29.24268	45003
29.25082	39709
29.25893	40407
29.26705	37402
29.27518	36405
29.28330	33546
29.29143	33980
29.29955	32625
29.30767	32246
29.31580	31043
29.32392	33745
29.33205	33344
29.34017	30418
29.34828	28809
29.35642	32883
29.36453	33907
29.37267	28543
29.38078	31506
29.38890	29981
29.39703	36593
29.40515	32722
29.41327	33521
29.42140	34965
29.42952	33376
29.43765	29660
29.44577	30360
29.45388	33293
29.46202	28781
29.47013	32393
29.47827	32644
29.48638	31563
29.49450	34318
29.50263	33894
29.51075	37371
29.51887	30702
29.52700	31710
29.53512	28515
29.54325	31933
29.55137	35560
29.55948	33162
29.56762	35049
29.57573	36421
29.58387	36525
29.59198	36587
29.60010	33873
29.60823	33329
29.61635	34600
29.62448	34520
29.63260	30203
29.64072	31259
29.64885	29749
29.65697	33121
29.66508	37837
29.67322	32908
29.68133	34086
29.68947	34556
29.69758	34976
29.70570	32204
29.71383	29399
29.72195	30354
29.73008	31069
29.73820	30658
29.74632	30102
29.75445	31895
29.76257	30041
29.77068	30292
29.77882	29231
29.78693	29494
29.79507	30264
29.80318	27902
29.81130	28751
29.81943	30501
29.82755	28227
29.83568	28938
29.84380	27018
29.85192	33037
29.86005	37149
29.86817	40196
29.87630	40835
29.88442	54236
29.89253	57311
29.90067	65080
29.90878	70844
29.91690	67520
29.92503	72955
29.93315	73469
29.94128	76600
29.94940	72356
29.95752	83685
29.96565	83510
29.97377	80749
29.98190	85821
29.99002	78799
29.99813	75642
30.00627	77608
30.01438	73053
30.02252	70625
30.03063	68662
30.03875	70329
30.04688	61813
30.05500	62390
30.06312	64314
30.07125	61089
30.07937	60046
30.08750	58659
30.09562	55820
30.10373	58554
30.11187	53260
30.11998	49456
30.12812	51604
30.13623	48341
30.14435	50742
30.15248	44474
30.16060	48261
30.16872	48958
30.17685	44902
30.18497	48358
30.19310	45408
30.20122	46085
30.20933	39563
30.21747	45915
30.22558	41736
30.23372	41272
30.24183	42985
30.24995	44810
30.25808	40810
30.26620	39813
30.27433	40356
30.28245	40002
30.29057	37535
30.29870	41777
30.30682	37203
30.31493	40960
30.32307	36906
30.33118	37287
30.33932	37431
30.34743	37596
30.35555	37005
30.36368	35104
30.37180	35911
30.37993	36772
30.38805	33628
30.39617	38896
30.40430	34217
30.41242	37014
30.42055	37673
30.42867	34636
30.43678	36690
30.44492	33783
30.45303	35651
30.46115	34858
30.46928	33847
30.47740	32461
30.48553	33387
30.49365	35474
30.50177	36041
30.50990	33607
30.51802	31102
30.52615	34102
30.53427	33569
30.54238	36310
30.55052	32871
30.55863	31112
30.56675	32628
30.57488	31031
30.58300	33492
30.59113	35057
30.59925	35571
30.60737	35424
30.61550	32997
30.62362	32194
30.63175	34397
30.63987	33567
30.64798	33748
30.65612	30100
30.66423	30312
30.67237	26701
30.68048	31406
30.68860	30400
30.69673	32004
30.70485	28272
30.71297	30853
30.72110	31039
30.72922	33732
30.73735	33048
30.74547	34673
30.75358	35682
30.76172	35762
30.76983	46394
30.77797	57527
30.78608	76081
30.79420	88648
30.80233	92895
30.81045	98689
30.81858	88171
30.82670	75623
30.83482	55862
30.84295	45039
30.85107	41948
30.85918	39382
30.86732	39305
30.87543	39563
30.88357	38509
30.89168	37044
30.89980	33690
30.90793	34471
30.91605	33408
30.92418	34181
30.93230	32499
30.94042	34335
30.94855	36328
30.95667	33284
30.96478	35565
30.97292	32899
30.98103	29808
30.98917	31587
30.99728	35485
31.00540	33447
31.01353	31757
31.02165	32710
31.02978	33798
31.03790	33680
31.04602	33478
31.05415	31150
31.06227	34531
31.07040	35257
31.07852	38131
31.08663	37768
31.09477	38618
31.10288	41429
31.11100	41359
31.11913	36995
31.12725	38812
31.13538	38016
31.14350	39224
31.15162	36959
31.15975	39402
31.16787	45423
31.17600	59174
31.18412	76017
31.19223	99272
31.20037	113829
31.20848	126955
31.21662	128385
31.22473	109228
31.23285	96728
31.24098	72627
31.24910	59109
31.25722	50061
31.26535	41120
31.27347	34268
31.28160	34469
31.28972	33812
31.29783	36511
31.30597	33096
31.31408	33347
31.32222	36751
31.33033	35171
31.33845	34828
31.34658	33632
31.35470	34675
31.36282	34738
31.37095	35413
31.37907	32715
31.38720	33218
31.39532	33789
31.40343	33248
31.41157	33120
31.41968	35458
31.42782	31517
31.43593	34322
31.44405	34065
31.45218	35352
31.46030	34933
31.46843	39478
31.47655	41551
31.48467	39640
31.49280	40846
31.50092	41746
31.50903	33985
31.51717	35488
31.52528	32850
31.53342	36522
31.54153	37403
31.54965	39901
31.55778	43389
31.56590	36808
31.57403	39403
31.58215	40479
31.59027	33901
31.59840	34260
31.60652	32969
31.61463	29969
31.62277	34917
31.63088	31170
31.63902	31734
31.64713	31673
31.65525	34732
31.66338	36238
31.67150	33504
31.67963	34252
31.68775	37288
31.69587	39273
31.70400	35354
31.71212	40458
31.72025	35138
31.72837	33331
31.73648	33049
31.74462	32600
31.75273	33693
31.76085	33004
31.76898	30586
31.77710	34727
31.78523	34155
31.79335	33780
31.80147	33673
31.80960	36116
31.81772	36737
31.82585	35259
31.83397	38633
31.84208	45034
31.85022	45242
31.85833	51311
31.86647	56774
31.87458	60929
31.88270	65475
31.89083	62952
31.89895	60603
31.90707	65142
31.91520	58196
31.92332	60666
31.93145	58000
31.93957	54167
31.94768	53068
31.95582	49488
31.96393	48178
31.97207	48218
31.98018	49151
31.98830	49361
31.99643	44965
32.00455	43373
32.01267	44910
32.02080	47097
32.02892	43117
32.03705	42135
32.04517	39717
32.05328	34807
32.06142	38574
32.06953	36989
32.07767	36495
32.08578	36201
32.09390	36926
32.10203	36589
32.11015	36999
32.11828	35315
32.12640	36128
32.13452	34641
32.14265	34233
32.15077	32405
32.15888	34713
32.16702	31970
32.17513	32602
32.18327	32598
32.19138	34308
32.19950	31834
32.20763	35622
32.21575	32149
32.22388	34274
32.23200	35840
32.24012	37883
32.24825	35194
32.25637	34888
32.26450	32759
32.27262	32835
32.28073	39425
32.28887	35998
32.29698	36049
32.30510	31346
32.31323	33259
32.32135	31482
32.32948	34235
32.33760	34123
32.34572	34079
32.35385	37905
32.36197	38766
32.37010	33109
32.37822	32472
32.38633	32298
32.39447	31625
32.40258	34551
32.41070	29690
32.41883	30497
32.42695	34989
32.43508	31649
32.44320	32787
32.45132	32161
32.45945	31281
32.46757	32072
32.47570	29108
32.48382	33730
32.49193	35398
32.50007	31566
32.50818	30885
32.51632	35177
32.52443	33007
32.53255	31077
32.54068	34823
32.54880	33099
32.55692	32362
32.56505	35111
32.57317	34893
32.58130	37568
32.58942	42788
32.59753	45487
32.60567	44695
32.61378	39104
32.62192	40297
32.63003	38149
32.63815	34828
32.64628	35043
32.65440	31433
32.66252	36122
32.67065	38827
32.67877	38914
32.68690	38796
32.69502	36426
32.70313	34747
32.71127	37012
32.71938	35796
32.72752	36024
32.73563	35548
32.74375	34370
32.75188	36313
32.76000	31329
32.76813	33688
32.77625	31478
32.78437	36875
32.79250	33108
32.80062	31925
32.80873	32209
32.81687	33385
32.82498	33372
32.83312	33053
32.84123	30858
32.84935	34163
32.85748	30633
32.86560	31481
32.87373	31837
32.88185	32363
32.88997	32826
32.89810	33322
32.90622	36114
32.91435	32424
32.92247	30118
32.93058	34114
32.93872	34099
32.94683	37812
32.95495	34910
32.96308	38438
32.97120	47545
32.97933	53636
32.98745	58877
32.99557	63913
33.00370	62353
33.01182	54743
33.01995	50096
33.02807	45725
33.03618	43132
33.04432	44973
33.05243	38676
33.06055	35928
33.06868	39211
33.07680	40847
33.08493	41323
33.09305	46159
33.10117	41229
33.10930	49430
33.11742	52021
33.12555	47989
33.13367	40415
33.14178	42255
33.14992	37945
33.15803	36254
33.16617	36595
33.17428	37358
33.18240	36695
33.19053	35535
33.19865	38136
33.20677	37910
33.21490	33582
33.22302	33832
33.23115	35429
33.23927	34894
33.24738	34508
33.25552	33566
33.26363	31929
33.27177	33480
33.27988	34726
33.28800	33442
33.29613	34974
33.30425	34893
33.31238	31797
33.32050	34757
33.32862	37674
33.33675	33708
33.34487	31246
33.35298	36577
33.36112	33775
33.36923	32405
33.37737	34129
33.38548	32467
33.39360	35877
33.40173	33013
33.40985	33273
33.41798	32309
33.42610	31097
33.43422	33247
33.44235	36085
33.45047	34605
33.45858	36876
33.46672	35895
33.47483	36730
33.48297	32769
33.49108	33866
33.49920	31521
33.50733	33554
33.51545	34802
33.52358	32541
33.53170	36282
33.53982	34528
33.54795	37740
33.55607	39398
33.56420	36906
33.57232	37017
33.58043	36792
33.58857	35394
33.59668	31650
33.60480	35235
33.61293	31390
33.62105	33093
33.62918	36867
33.63730	36473
33.64542	36480
33.65355	37251
33.66167	37663
33.66980	35791
33.67792	36470
33.68603	37361
33.69417	34625
33.70228	34854
33.71042	38186
33.71853	39331
33.72665	38358
33.73478	39397
33.74290	37698
33.75102	40332
33.75915	35144
33.76727	40987
33.77540	40891
33.78352	39074
33.79163	39543
33.79977	34878
33.80788	35696
33.81602	36801
33.82413	39471
33.83225	38126
33.84038	39419
33.84850	37764
33.85662	39994
33.86475	39801
33.87287	38838
33.88100	41969
33.88912	41966
33.89723	41718
33.90537	38957
33.91348	35510
33.92162	37567
33.92973	32882
33.93785	36313
33.94598	35574
33.95410	39608
33.96223	35956
33.97035	37313
33.97847	37081
33.98660	39164
33.99472	37993
34.00283	36060
34.01097	42151
34.01908	33640
34.02722	32994
34.03533	37227
34.04345	39391
34.05158	37868
34.05970	37653
34.06783	36098
34.07595	37801
34.08407	36634
34.09220	37971
34.10032	39830
34.10843	34589
34.11657	35934
34.12468	34395
34.13282	35762
34.14093	37993
34.14905	36075
34.15718	36123
34.16530	30784
34.17343	33985
34.18155	35616
34.18967	32425
34.19780	38836
34.20592	33632
34.21405	35939
34.22217	34990
34.23028	35799
34.23842	32646
34.24653	33582
34.25465	32600
34.26278	33377
34.27090	37305
34.27903	31002
34.28715	33610
34.29527	36385
34.30340	38504
34.31152	38420
34.31965	38203
34.32777	37260
34.33588	36967
34.34402	37641
34.35213	36058
34.36027	38432
34.36838	36823
34.37650	35072
34.38463	35119
34.39275	37155
34.40087	34343
34.40900	36569
34.41712	33157
34.42525	38975
34.43337	39638
34.44148	35824
34.44962	47747
34.45773	48227
34.46587	58160
34.47398	58751
34.48210	63310
34.49023	69795
34.49835	64411
34.50647	66787
34.51460	61322
34.52272	58782
34.53085	55492
34.53897	55507
34.54708	51645
34.55522	49901
34.56333	49057
34.57147	48888
34.57958	46905
34.58770	46623
34.59583	45378
34.60395	45337
34.61208	46057
34.62020	47491
34.62832	46660
34.63645	43345
34.64457	45701
34.65268	44150
34.66082	45889
34.66893	45253
34.67707	47244
34.68518	40836
34.69330	40753
34.70143	38763
34.70955	44815
34.71768	41866
34.72580	40700
34.73392	41255
34.74205	38030
34.75017	39857
34.75830	39337
34.76642	40325
34.77453	38176
34.78267	44469
34.79078	40337
34.79890	40960
34.80703	38810
34.81515	38304
34.82328	39646
34.83140	38597
34.83952	38472
34.84765	41751
34.85577	42335
34.86390	44281
34.87202	38070
34.88013	39572
34.88827	39625
34.89638	37876
34.90450	37814
34.91263	37700
34.92075	38627
34.92888	43120
34.93700	42979
34.94512	41977
34.95325	40247
34.96137	40452
34.96950	41111
34.97762	43030
34.98573	42800
34.99387	39072
35.00198	38759
35.01012	37826
35.01823	39383
35.02635	38357
35.03448	40166
35.04260	39567
35.05072	39497
35.05885	45177
35.06697	40773
35.07510	35072
35.08322	39892
35.09133	40109
35.09947	41418
35.10758	37966
35.11572	38333
35.12383	40231
35.13195	43822
35.14008	38524
35.14820	36541
35.15632	38445
35.16445	41910
35.17257	39347
35.18070	38160
35.18882	38298
35.19693	38677
35.20507	36550
35.21318	41978
35.22132	34880
35.22943	38331
35.23755	39756
35.24568	38966
35.25380	42124
35.26193	39063
35.27005	40283
35.27817	37919
35.28630	40607
35.29442	41142
35.30253	38231
35.31067	38686
35.31878	41504
35.32692	42506
35.33503	39896
35.34315	38749
35.35128	40647
35.35940	40554
35.36753	44409
35.37565	39354
35.38377	40699
35.39190	41178
35.40002	40372
35.40815	37848
35.41627	43001
35.42438	41635
35.43252	42737
35.44063	41109
35.44875	40733
35.45688	43973
35.46500	44623
35.47313	43047
35.48125	45690
35.48937	43005
35.49750	42464
35.50562	45280
35.51375	41930
35.52187	44160
35.52998	45147
35.53812	45425
35.54623	41410
35.55435	42159
35.56248	42603
35.57060	41863
35.57873	45223
35.58685	46589
35.59497	45573
35.60310	45875
35.61122	42795
35.61935	45750
35.62747	43989
35.63558	44713
35.64372	40123
35.65183	43181
35.65997	42995
35.66808	43938
35.67620	41690
35.68433	42329
35.69245	41353
35.70057	39350
35.70870	39795
35.71682	44884
35.72495	40848
35.73307	40129
35.74118	44034
35.74932	46672
35.75743	45098
35.76557	43549
35.77368	45330
35.78180	43126
35.78993	45161
35.79805	42379
35.80618	41907
35.81430	42699
35.82242	38917
35.83055	42364
35.83867	40303
35.84678	40364
35.85492	41753
35.86303	42954
35.87117	40966
35.87928	40415
35.88740	40318
35.89553	40784
35.90365	39586
35.91178	43652
35.91990	41876
35.92802	43052
35.93615	42763
35.94427	43119
35.95238	40036
35.96052	44687
35.96863	43831
35.97677	41964
35.98488	40074
35.99300	40283
36.00113	42583
36.00925	43670
36.01738	44412
36.02550	43603
36.03362	46054
36.04175	43904
36.04987	44431
36.05800	43276
36.06612	45132
36.07423	39777
36.08237	45592
36.09048	45440
36.09860	41356
36.10673	45159
36.11485	44682
36.12298	44013
36.13110	43282
36.13922	47986
36.14735	45009
36.15547	46859
36.16360	44284
36.17172	47532
36.17983	42365
36.18797	48091
36.19608	42085
36.20420	44186
36.21233	45216
36.22045	49517
36.22858	51014
36.23670	52959
36.24482	53553
36.25295	63049
36.26107	52181
36.26920	49321
36.27732	49804
36.28543	45573
36.29357	43870
36.30168	45954
36.30982	44254
36.31793	44916
36.32605	44264
36.33418	48418
36.34230	44218
36.35042	47680
36.35855	47509
36.36667	45138
36.37480	48769
36.38292	47748
36.39103	47308
36.39917	54248
36.40728	48099
36.41542	47528
36.42353	49992
36.43165	45021
36.43978	44524
36.44790	48415
36.45603	47821
36.46415	42724
36.47227	47070
36.48040	48451
36.48852	43463
36.49663	47234
36.50477	43872
36.51288	45822
36.52102	47087
36.52913	46184
36.53725	43535
36.54538	43835
36.55350	46680
36.56163	48004
36.56975	45003
36.57787	48090
36.58600	47737
36.59412	45502
36.60225	50197
36.61037	48954
36.61848	48669
36.62662	46128
36.63473	43409
36.64285	43569
36.65098	44122
36.65910	49510
36.66723	48035
36.67535	48580
36.68347	48976
36.69160	46403
36.69972	48241
36.70785	46253
36.71597	45028
36.72408	44434
36.73222	44779
36.74033	45066
36.74845	48730
36.75658	49550
36.76470	47721
36.77283	45817
36.78095	47415
36.78907	46239
36.79720	49575
36.80532	52095
36.81345	44826
36.82157	48100
36.82968	44843
36.83782	46099
36.84593	48926
36.85407	49556
36.86218	49532
36.87030	48212
36.87843	47428
36.88655	47504
36.89467	50250
36.90280	50927
36.91092	49704
36.91905	45454
36.92717	52113
36.93528	50413
36.94342	53482
36.95153	59583
36.95967	60636
36.96778	57771
36.97590	54431
36.98403	60732
36.99215	60554
37.00027	66081
37.00840	66676
37.01652	71207
37.02465	77772
37.03277	74996
37.04088	73596
37.04902	63411
37.05713	60944
37.06527	54926
37.07338	59583
37.08150	56288
37.08963	51392
37.09775	52803
37.10588	54321
37.11400	55719
37.12212	55346
37.13025	55786
37.13837	56726
37.14648	53926
37.15462	56574
37.16273	55121
37.17087	59108
37.17898	53575
37.18710	53575
37.19523	55639
37.20335	53951
37.21148	51402
37.21960	56384
37.22772	53264
37.23585	56874
37.24397	56734
37.25210	63037
37.26022	68333
37.26833	68225
37.27647	75224
37.28458	76426
37.29270	80331
37.30083	74635
37.30895	67820
37.31708	66399
37.32520	68590
37.33332	67364
37.34145	64543
37.34957	63235
37.35770	64600
37.36582	67151
37.37393	59782
37.38207	63197
37.39018	60729
37.39830	54583
37.40643	57753
37.41455	60107
37.42268	58755
37.43080	59945
37.43892	56230
37.44705	58508
37.45517	64945
37.46330	59926
37.47142	59214
37.47953	60901
37.48767	58103
