C:\MassHunter\GCMS\1\data\JTB-E02\BACandBLUE\JTB-E18-009-04.D Thu May 16 08:53:12 2019
Start of data points
2.09532,29328
2.10343,29309
2.11155,27125
2.11968,29206
2.12780,35653
2.13593,34893
2.14405,39072
2.15217,47600
2.16030,40267
2.16842,43252
2.17655,42885
2.18467,43132
2.19278,42570
2.20092,41899
2.20903,39668
2.21715,41126
2.22528,41021
2.23340,40496
2.24153,40262
2.24965,41501
2.25777,36384
2.26590,73543
2.27402,980047
2.28215,3389463
2.29027,2569812
2.29838,987969
2.30652,536565
2.31463,399800
2.32277,347660
2.33088,297683
2.33900,270557
2.34713,241403
2.35525,209800
2.36337,192730
2.37150,175326
2.37962,170442
2.38775,157965
2.39587,158445
2.40398,144521
2.41212,139660
2.42023,133584
2.42837,139217
2.43648,132046
2.44460,140901
2.45273,140199
2.46085,133762
2.46898,120833
2.47710,111743
2.48522,101855
2.49335,118332
2.50147,129049
2.50958,110820
2.51772,105090
2.52583,96120
2.53397,97507
2.54208,93110
2.55020,94335
2.55833,95194
2.56645,97974
2.57458,92146
2.58270,84694
2.59082,81226
2.59895,88637
2.60707,83783
2.61518,102126
2.62332,100830
2.63143,98161
2.63957,92733
2.64768,83800
2.65580,81075
2.66393,81747
2.67205,77959
2.68018,78973
2.68830,76583
2.69642,75268
2.70455,75907
2.71267,74244
2.72080,73403
2.72892,70992
2.73703,73249
2.74517,72070
2.75328,73120
2.76140,70063
2.76953,66928
2.77765,67601
2.78578,66988
2.79390,73506
2.80202,72000
2.81015,69380
2.81827,72228
2.82640,69946
2.83452,66863
2.84263,62922
2.85077,63656
2.85888,66574
2.86700,66048
2.87513,62822
2.88325,63256
2.89138,64165
2.89950,61894
2.90762,63515
2.91575,64877
2.92387,60598
2.93200,63494
2.94012,59882
2.94823,58792
2.95637,61770
2.96448,59704
2.97262,59559
2.98073,60589
2.98885,62909
2.99698,59892
3.00510,56944
3.01322,61223
3.02135,63217
3.02947,59945
3.03760,59003
3.04572,56476
3.05383,61236
3.06197,56241
3.07008,57566
3.07822,58630
3.08633,59330
3.09445,55955
3.10258,69332
3.11070,93787
3.11883,104494
3.12695,95197
3.13507,79459
3.14320,74288
3.15132,69148
3.15943,69581
3.16757,66947
3.17568,63742
3.18382,60916
3.19193,65822
3.20005,61497
3.20818,57389
3.21630,56750
3.22443,59512
3.23255,61789
3.24067,57134
3.24880,56083
3.25692,53970
3.26503,59668
3.27317,58051
3.28128,69613
3.28942,156608
3.29753,754658
3.30565,2826340
3.31378,6070286
3.32190,7715241
3.33003,6729131
3.33815,5023647
3.34627,3718025
3.35440,2844607
3.36252,2297858
3.37065,1931057
3.37877,1654323
3.38688,1447014
3.39502,1293879
3.40313,1154428
3.41125,1071975
3.41938,980235
3.42750,919644
3.43563,857506
3.44375,802604
3.45187,749673
3.46000,715542
3.46812,683795
3.47625,667162
3.48437,644265
3.49248,620129
3.50062,600768
3.50873,564190
3.51687,556053
3.52498,538128
3.53310,533148
3.54123,499848
3.54935,485770
3.55747,471606
3.56560,458672
3.57372,451774
3.58185,453852
3.58997,439950
3.59808,433090
3.60622,423802
3.61433,408607
3.62247,405469
3.63058,406082
3.63870,403911
3.64683,394044
3.65495,387751
3.66307,371796
3.67120,359720
3.67932,366588
3.68745,360824
3.69557,357408
3.70368,345725
3.71182,347657
3.71993,342925
3.72807,341976
3.73618,327524
3.74430,324626
3.75243,324251
3.76055,324887
3.76868,317574
3.77680,319755
3.78492,310124
3.79305,300759
3.80117,302552
3.80928,301711
3.81742,301582
3.82553,297278
3.83367,291899
3.84178,291878
3.84990,290480
3.85803,280897
3.86615,280368
3.87428,272981
3.88240,273262
3.89052,267739
3.89865,255958
3.90677,262217
3.91488,266816
3.92302,262006
3.93113,255996
3.93927,258248
3.94738,252347
3.95550,258950
3.96363,255417
3.97175,249063
3.97988,242723
3.98800,243234
3.99612,246139
4.00425,241997
4.01237,237976
4.02050,241053
4.02862,249817
4.03673,241265
4.04487,245116
4.05298,243234
4.06110,233213
4.06923,233349
4.07735,229015
4.08548,230811
4.09360,236207
4.10172,223055
4.10985,219594
4.11797,229470
4.12610,220968
4.13422,233555
4.14233,267949
4.15047,324940
4.15858,349049
4.16672,316029
4.17483,278400
4.18295,241688
4.19108,244908
4.19920,225952
4.20732,227994
4.21545,227225
4.22357,220230
4.23170,229647
4.23982,251152
4.24793,237431
4.25607,242366
4.26418,227840
4.27232,226921
4.28043,215041
4.28855,214526
4.29668,205888
4.30480,204629
4.31293,206488
4.32105,205946
4.32917,207229
4.33730,212568
4.34542,203868
4.35353,199841
4.36167,211397
4.36978,206300
4.37792,209207
4.38603,203433
4.39415,201484
4.40228,205089
4.41040,200111
4.41853,195665
4.42665,191655
4.43477,189537
4.44290,202627
4.45102,187368
4.45913,191852
4.46727,188107
4.47538,185183
4.48352,185483
4.49163,181950
4.49975,175205
4.50788,177652
4.51600,187073
4.52413,176752
4.53225,173596
4.54037,172613
4.54850,179027
4.55662,176119
4.56475,170757
4.57287,173966
4.58098,175427
4.58912,170377
4.59723,173216
4.60535,171898
4.61348,171502
4.62160,176220
4.62973,174384
4.63785,170133
4.64597,172232
4.65410,167180
4.66222,169803
4.67035,166546
4.67847,165852
4.68658,165635
4.69472,168022
4.70283,162465
4.71095,167250
4.71908,163287
4.72720,161276
4.73533,158186
4.74345,166125
4.75157,160229
4.75970,165327
4.76782,164188
4.77595,163586
4.78407,153984
4.79218,157663
4.80032,162044
4.80843,159989
4.81657,155826
4.82468,152133
4.83280,156989
4.84093,154146
4.84905,159947
4.85717,155614
4.86530,153286
4.87342,160033
4.88155,158656
4.88967,147339
4.89778,157428
4.90592,156846
4.91403,158292
4.92217,164428
4.93028,171573
4.93840,219385
4.94653,460118
4.95465,1050820
4.96278,2039508
4.97090,2991032
4.97902,3268202
4.98715,2885220
4.99527,2233270
5.00338,1692096
5.01152,1318942
5.01963,1074692
5.02777,948654
5.03588,846393
5.04400,760357
5.05213,699534
5.06025,649469
5.06838,608497
5.07650,570365
5.08462,542156
5.09275,527568
5.10087,496404
5.10898,478343
5.11712,462493
5.12523,452625
5.13337,447520
5.14148,425441
5.14960,417242
5.15773,403426
5.16585,401494
5.17398,396905
5.18210,386535
5.19022,379339
5.19835,383115
5.20647,361561
5.21460,365114
5.22272,365314
5.23083,386496
5.23897,432605
5.24708,477719
5.25520,475008
5.26333,435347
5.27145,388420
5.27958,357913
5.28770,336869
5.29582,328515
5.30395,310003
5.31207,319887
5.32020,310039
5.32832,305697
5.33643,298783
5.34457,290182
5.35268,295100
5.36082,287369
5.36893,297773
5.37705,285833
5.38518,279894
5.39330,275916
5.40142,274777
5.40955,266457
5.41767,269107
5.42580,271066
5.43392,269529
5.44203,267408
5.45017,255151
5.45828,256898
5.46642,253417
5.47453,247301
5.48265,248197
5.49078,246137
5.49890,247278
5.50702,249401
5.51515,250909
5.52327,240341
5.53140,238060
5.53952,239933
5.54763,242967
5.55577,240242
5.56388,233057
5.57202,226228
5.58013,222114
5.58825,231171
5.59638,230242
5.60450,237665
5.61263,229793
5.62075,228819
5.62887,228426
5.63700,233030
5.64512,237252
5.65323,232575
5.66137,227024
5.66948,228468
5.67762,235182
5.68573,253835
5.69385,270414
5.70198,279254
5.71010,270789
5.71823,249230
5.72635,245810
5.73447,228335
5.74260,222583
5.75072,211141
5.75883,212061
5.76697,213249
5.77508,212130
5.78322,198081
5.79133,210228
5.79945,206269
5.80758,204665
5.81570,208309
5.82383,206985
5.83195,196808
5.84007,202819
5.84820,203302
5.85632,199616
5.86445,201395
5.87257,194603
5.88068,202248
5.88882,192607
5.89693,192505
5.90505,190027
5.91318,180667
5.92130,143731
5.92943,130236
5.93755,134390
5.94567,128362
5.95380,133066
5.96192,127408
5.97005,129778
5.97817,135496
5.98628,141559
5.99442,140423
6.00253,137414
6.01067,131076
6.01878,127183
6.02690,129462
6.03503,132400
6.04315,124573
6.05127,128339
6.05940,126947
6.06752,129444
6.07565,128234
6.08377,125840
6.09188,127644
6.10002,114779
6.10813,125902
6.11627,122283
6.12438,128234
6.13250,121024
6.14063,128840
6.14875,124256
6.15687,122534
6.16500,121960
6.17312,127926
6.18125,126195
6.18937,127173
6.19748,129980
6.20562,124472
6.21373,127232
6.22187,127644
6.22998,123484
6.23810,123584
6.24623,125661
6.25435,129231
6.26248,130496
6.27060,125995
6.27872,126525
6.28685,131660
6.29497,124773
6.30308,128228
6.31122,129342
6.31933,129476
6.32747,131943
6.33558,134374
6.34370,133928
6.35183,132502
6.35995,129053
6.36808,134228
6.37620,132018
6.38432,141022
6.39245,144221
6.40057,134327
6.40870,132555
6.41682,141222
6.42493,141573
6.43307,135609
6.44118,137224
6.44930,145180
6.45743,144051
6.46555,147646
6.47368,142608
6.48180,147520
6.48992,145685
6.49805,139658
6.50617,153516
6.51430,137221
6.52242,137115
6.53053,129502
6.53867,128933
6.54678,131398
6.55490,130944
6.56303,124902
6.57115,121616
6.57928,115647
6.58740,122331
6.59552,118674
6.60365,122491
6.61177,119388
6.61990,115276
6.62802,116295
6.63613,116081
6.64427,114979
6.65238,115755
6.66052,117711
6.66863,110928
6.67675,107328
6.68488,116930
6.69300,108831
6.70112,113369
6.70925,111036
6.71737,111689
6.72550,106118
6.73362,107479
6.74173,108334
6.74987,106202
6.75798,109185
6.76612,111737
6.77423,106733
6.78235,105682
6.79048,108504
6.79860,103690
6.80672,102490
6.81485,102839
6.82297,104347
6.83110,97550
6.83922,101341
6.84733,103778
6.85547,93909
6.86358,83276
6.87172,74225
6.87983,63949
6.88795,62533
6.89608,69709
6.90420,61137
6.91233,55561
6.92045,58763
6.92857,61118
6.93670,56211
6.94482,56682
6.95293,54076
6.96107,53187
6.96918,55025
6.97732,52447
6.98543,50726
6.99355,53632
7.00168,51564
7.00980,56500
7.01793,54094
7.02605,50081
7.03417,54341
7.04230,54444
7.05042,53575
7.05855,56210
7.06667,53281
7.07478,55075
7.08292,54038
7.09103,49833
7.09915,53328
7.10728,51373
7.11540,58763
7.12353,51321
7.13165,50007
7.13977,51038
7.14790,50294
7.15602,53932
7.16415,57203
7.17227,56959
7.18038,61727
7.18852,55761
7.19663,57008
7.20475,59248
7.21288,53379
7.22100,55282
7.22913,54178
7.23725,53213
7.24537,56108
7.25350,57488
7.26162,54262
7.26975,54874
7.27787,60486
7.28598,55177
7.29412,61846
7.30223,59709
7.31037,56420
7.31848,53918
7.32660,51940
7.33473,53943
7.34285,55079
7.35097,55923
7.35910,53619
7.36722,58182
7.37535,55130
7.38347,54617
7.39158,55099
7.39972,53965
7.40783,57215
7.41597,56105
7.42408,59551
7.43220,55374
7.44033,60759
7.44845,57734
7.45658,58381
7.46470,55617
7.47282,57594
7.48095,59819
7.48907,57858
7.49718,52917
7.50532,56466
7.51343,54083
7.52157,54581
7.52968,59046
7.53780,59752
7.54593,55353
7.55405,56001
7.56218,56752
7.57030,54668
7.57842,51001
7.58655,56618
7.59467,49867
7.60278,53966
7.61092,53296
7.61903,53749
7.62717,57665
7.63528,52239
7.64340,56896
7.65153,52811
7.65965,54346
7.66778,55789
7.67590,52604
7.68402,56091
7.69215,55066
7.70027,53761
7.70840,52825
7.71652,51878
7.72463,53967
7.73277,54165
7.74088,52895
7.74900,50901
7.75713,53594
7.76525,51305
7.77338,51799
7.78150,52935
7.78962,53783
7.79775,54912
7.80587,52210
7.81400,49781
7.82212,50291
7.83023,50515
7.83837,46090
7.84648,54464
7.85462,46803
7.86273,47516
7.87085,48787
7.87898,44878
7.88710,49961
7.89522,50229
7.90335,47683
7.91147,47845
7.91960,49288
7.92772,48425
7.93583,47078
7.94397,49466
7.95208,48265
7.96022,49431
7.96833,50975
7.97645,47407
7.98458,51136
7.99270,50661
8.00082,54504
8.00895,48520
8.01707,48183
8.02520,46856
8.03332,47524
8.04143,47114
8.04957,49144
8.05768,52657
8.06582,50363
8.07393,47775
8.08205,49922
8.09018,48781
8.09830,49624
8.10643,46064
8.11455,50354
8.12267,51355
8.13080,43215
8.13892,49000
8.14703,54427
8.15517,46695
8.16328,45407
8.17142,51974
8.17953,54064
8.18765,51504
8.19578,48384
8.20390,53942
8.21203,49617
8.22015,47555
8.22827,49046
8.23640,52867
8.24452,47475
8.25263,48121
8.26077,48001
8.26888,46572
8.27702,49153
8.28513,50131
8.29325,45590
8.30138,44338
8.30950,48776
8.31763,44679
8.32575,45600
8.33387,49012
8.34200,49438
8.35012,49447
8.35825,53098
8.36637,49776
8.37448,52522
8.38262,45982
8.39073,49970
8.39885,43258
8.40698,44608
8.41510,47649
8.42323,46719
8.43135,50327
8.43947,50177
8.44760,44636
8.45572,51723
8.46385,44326
8.47197,43132
8.48008,49799
8.48822,47040
8.49633,48104
8.50447,55376
8.51258,50214
8.52070,55496
8.52883,55758
8.53695,56046
8.54507,56163
8.55320,51647
8.56132,46091
8.56945,50495
8.57757,48013
8.58568,47344
8.59382,46125
8.60193,48367
8.61007,49377
8.61818,48713
8.62630,50526
8.63443,51131
8.64255,47798
8.65067,50043
8.65880,47546
8.66692,62813
8.67505,358506
8.68317,664118
8.69128,356516
8.69942,135227
8.70753,100605
8.71567,89818
8.72378,74752
8.73190,69836
8.74003,68109
8.74815,69072
8.75628,68696
8.76440,73642
8.77252,122448
8.78065,214780
8.78877,396196
8.79688,638428
8.80502,811544
8.81313,815159
8.82127,711057
8.82938,577918
8.83750,496434
8.84563,415165
8.85375,357077
8.86188,315114
8.87000,283494
8.87812,265608
8.88625,245107
8.89437,230812
8.90250,214062
8.91062,213934
8.91873,203906
8.92687,190560
8.93498,192703
8.94310,177737
8.95123,176117
8.95935,175875
8.96748,177881
8.97560,168305
8.98372,160591
8.99185,159734
8.99997,159034
9.00810,159127
9.01622,152647
9.02433,155044
9.03247,147813
9.04058,146178
9.04870,140180
9.05683,140714
9.06495,197677
9.07308,875094
9.08120,2184706
9.08932,1798558
9.09745,880660
9.10557,541346
9.11370,401110
9.12182,326410
9.12993,286920
9.13807,256812
9.14618,236257
9.15432,217651
9.16243,205869
9.17055,192851
9.17868,198122
9.18680,186281
9.19492,184689
9.20305,167617
9.21117,166759
9.21930,159441
9.22742,155716
9.23553,152971
9.24367,148286
9.25178,141545
9.25992,141615
9.26803,137303
9.27615,140224
9.28428,137735
9.29240,142158
9.30052,140239
9.30865,125052
9.31677,125736
9.32490,131995
9.33302,123578
9.34113,127754
9.34927,124908
9.35738,121026
9.36552,121303
9.37363,123482
9.38175,116346
9.38988,112120
9.39800,112158
9.40613,107604
9.41425,109049
9.42237,112237
9.43050,111843
9.43862,122201
9.44673,131522
9.45487,126178
9.46298,113622
9.47112,108426
9.47923,111287
9.48735,110351
9.49548,114380
9.50360,113675
9.51173,107169
9.51985,105750
9.52797,99534
9.53610,104526
9.54422,111723
9.55235,209698
9.56047,652565
9.56858,1097495
9.57672,907769
9.58483,492733
9.59295,300745
9.60108,215674
9.60920,185026
9.61733,157649
9.62545,142027
9.63357,128151
9.64170,118932
9.64982,111634
9.65795,101969
9.66607,106323
9.67418,94902
9.68232,90285
9.69043,94769
9.69857,84912
9.70668,86492
9.71480,81874
9.72293,87349
9.73105,86045
9.73917,77599
9.74730,78206
9.75542,80028
9.76355,78293
9.77167,72254
9.77978,73492
9.78792,74040
9.79603,71918
9.80417,72634
9.81228,73574
9.82040,71308
9.82853,71688
9.83665,72890
9.84477,81296
9.85290,75715
9.86102,76504
9.86915,70929
9.87727,70983
9.88538,72519
9.89352,71430
9.90163,68679
9.90977,71405
9.91788,71604
9.92600,69387
9.93413,69853
9.94225,66238
9.95038,71356
9.95850,72071
9.96662,69842
9.97475,66270
9.98287,69958
9.99098,83955
9.99912,97827
10.00723,96911
10.01537,95810
10.02348,90610
10.03160,88558
10.03973,91322
10.04785,91963
10.05598,87414
10.06410,94961
10.07222,92905
10.08035,88829
10.08847,81110
10.09658,75896
10.10472,74991
10.11283,75274
10.12097,70900
10.12908,74677
10.13720,72875
10.14533,70994
10.15345,75060
10.16158,66840
10.16970,72645
10.17782,69398
10.18595,68092
10.19407,66988
10.20220,67863
10.21032,71693
10.21843,74585
10.22657,71894
10.23468,78527
10.24280,86365
10.25093,89873
10.25905,94452
10.26718,91143
10.27530,96258
10.28342,104252
10.29155,101146
10.29967,109165
10.30780,114962
10.31592,108375
10.32403,106506
10.33217,103151
10.34028,103241
10.34842,95290
10.35653,91581
10.36465,90119
10.37278,88558
10.38090,83730
10.38902,82271
10.39715,85147
10.40527,86777
10.41340,79560
10.42152,81287
10.42963,74969
10.43777,78142
10.44588,77919
10.45402,75518
10.46213,75406
10.47025,74044
10.47838,74150
10.48650,77116
10.49462,73964
10.50275,70448
10.51087,72078
10.51900,74300
10.52712,71055
10.53523,68772
10.54337,71211
10.55148,70303
10.55962,72274
10.56773,68592
10.57585,73379
10.58398,69554
10.59210,70473
10.60023,68539
10.60835,70107
10.61647,68770
10.62460,68407
10.63272,67440
10.64083,67119
10.64897,65131
10.65708,71959
10.66522,71125
10.67333,67504
10.68145,69579
10.68958,67524
10.69770,67527
10.70583,69315
10.71395,62270
10.72207,69188
10.73020,65698
10.73832,66219
10.74645,67939
10.75457,66726
10.76268,66090
10.77082,65897
10.77893,71749
10.78705,66655
10.79518,67873
10.80330,63696
10.81143,62254
10.81955,65388
10.82767,62424
10.83580,59937
10.84392,64752
10.85205,64858
10.86017,57138
10.86828,62400
10.87642,62115
10.88453,62715
10.89265,63442
10.90078,59559
10.90890,60749
10.91703,58668
10.92515,59736
10.93327,56615
10.94140,60440
10.94952,61376
10.95765,59075
10.96577,63238
10.97388,66711
10.98202,64506
10.99013,58400
10.99827,63033
11.00638,59748
11.01450,57119
11.02263,63005
11.03075,61359
11.03887,59287
11.04700,59769
11.05512,57760
11.06325,66376
11.07137,56593
11.07948,57817
11.08762,55354
11.09573,58883
11.10387,70839
11.11198,79080
11.12010,136441
11.12823,207296
11.13635,245770
11.14447,228160
11.15260,162627
11.16072,116374
11.16885,95952
11.17697,92531
11.18508,92421
11.19322,100312
11.20133,100586
11.20947,100869
11.21758,101196
11.22570,92311
11.23383,87210
11.24195,80050
11.25008,74118
11.25820,73161
11.26632,66845
11.27445,70564
11.28257,66425
11.29068,65216
11.29882,59580
11.30693,61968
11.31507,61922
11.32318,61041
11.33130,60800
11.33943,65553
11.34755,61590
11.35568,61890
11.36380,63729
11.37192,62857
11.38005,61696
11.38817,58554
11.39630,61869
11.40442,61157
11.41253,63132
11.42067,62315
11.42878,65553
11.43690,57032
11.44503,58986
11.45315,58532
11.46128,56941
11.46940,58890
11.47752,58974
11.48565,59104
11.49377,55925
11.50190,60523
11.51002,56566
11.51813,57567
11.52627,53987
11.53438,56000
11.54250,57316
11.55063,58160
11.55875,58941
11.56688,58707
11.57500,58175
11.58312,54646
11.59125,53876
11.59937,58305
11.60750,60201
11.61562,58574
11.62373,57257
11.63187,55725
11.63998,56816
11.64812,54014
11.65623,58865
11.66435,55515
11.67248,57994
11.68060,54000
11.68872,53578
11.69685,58177
11.70497,54958
11.71310,54792
11.72122,60394
11.72933,62674
11.73747,58231
11.74558,58028
11.75372,63996
11.76183,62991
11.76995,64884
11.77808,59211
11.78620,65051
11.79433,63755
11.80245,61768
11.81057,56958
11.81870,55432
11.82682,62463
11.83493,63299
11.84307,58209
11.85118,58648
11.85932,59322
11.86743,56482
11.87555,56311
11.88368,55256
11.89180,54126
11.89993,57645
11.90805,57188
11.91617,58045
11.92430,60734
11.93242,60352
11.94053,57628
11.94867,59959
11.95678,56436
11.96492,57362
11.97303,57817
11.98115,54086
11.98928,56058
11.99740,58478
12.00553,64559
12.01365,59796
12.02177,61267
12.02990,65389
12.03802,63544
12.04615,59646
12.05427,68605
12.06238,63261
12.07052,63242
12.07863,62559
12.08675,61474
12.09488,64417
12.10300,61175
12.11113,58287
12.11925,59408
12.12737,67713
12.13550,62044
12.14362,63724
12.15175,62302
12.15987,59626
12.16798,60804
12.17612,65544
12.18423,62942
12.19235,63665
12.20048,68049
12.20860,66116
12.21673,67444
12.22485,70308
12.23297,68006
12.24110,63190
12.24922,63691
12.25735,60488
12.26547,69788
12.27358,64423
12.28172,62387
12.28983,65074
12.29797,65057
12.30608,65119
12.31420,66615
12.32233,64197
12.33045,64773
12.33857,67883
12.34670,63781
12.35482,63651
12.36295,67696
12.37107,64034
12.37918,62402
12.38732,61658
12.39543,66232
12.40357,65327
12.41168,67919
12.41980,67757
12.42793,62920
12.43605,64354
12.44418,65282
12.45230,66181
12.46042,67803
12.46855,67091
12.47667,65092
12.48478,64918
12.49292,63858
12.50103,59637
12.50917,59821
12.51728,64195
12.52540,59686
12.53353,66311
12.54165,60148
12.54978,66470
12.55790,62297
12.56602,59306
12.57415,69074
12.58227,65416
12.59038,60008
12.59852,66622
12.60663,63382
12.61477,63419
12.62288,64395
12.63100,58811
12.63913,62496
12.64725,67149
12.65538,59089
12.66350,60307
12.67162,59478
12.67975,60497
12.68787,65153
12.69600,59115
12.70412,60572
12.71223,58591
12.72037,60597
12.72848,62623
12.73660,67179
12.74473,68130
12.75285,69537
12.76098,69389
12.76910,70228
12.77722,65566
12.78535,64739
12.79347,60400
12.80160,65036
12.80972,62873
12.81783,65316
12.82597,59858
12.83408,64856
12.84222,60800
12.85033,65942
12.85845,55278
12.86658,59655
12.87470,55920
12.88282,53699
12.89095,54106
12.89907,50895
12.90720,55042
12.91532,58376
12.92343,52195
12.93157,54424
12.93968,52188
12.94782,59481
12.95593,52369
12.96405,50452
12.97218,50291
12.98030,52605
12.98842,54478
12.99655,50245
13.00467,53793
13.01280,57702
13.02092,54343
13.02903,54618
13.03717,49941
13.04528,53707
13.05342,53590
13.06153,55271
13.06965,56357
13.07778,54130
13.08590,50417
13.09403,53440
13.10215,52886
13.11027,59191
13.11840,56046
13.12652,49407
13.13463,53875
13.14277,52240
13.15088,54461
13.15902,53737
13.16713,53550
13.17525,53660
13.18338,57440
13.19150,51836
13.19963,59036
13.20775,62697
13.21587,71941
13.22400,64151
13.23212,59269
13.24025,58709
13.24837,59962
13.25648,55286
13.26462,59464
13.27273,56321
13.28085,53559
13.28898,52934
13.29710,53807
13.30523,54848
13.31335,55163
13.32147,53398
13.32960,52584
13.33772,53154
13.34585,53458
13.35397,52976
13.36208,53717
13.37022,55058
13.37833,55591
13.38645,49113
13.39458,54187
13.40270,50282
13.41083,51649
13.41895,54380
13.42707,51425
13.43520,54902
13.44332,50267
13.45145,55001
13.45957,53282
13.46768,51422
13.47582,51500
13.48393,54140
13.49207,54149
13.50018,58084
13.50830,49820
13.51643,58072
13.52455,53832
13.53267,50371
13.54080,50066
13.54892,50675
13.55705,54441
13.56517,53475
13.57328,54549
13.58142,55132
13.58953,50824
13.59767,50308
13.60578,51628
13.61390,50306
13.62203,49156
13.63015,51972
13.63827,51626
13.64640,50461
13.65452,50017
13.66265,58491
13.67077,52037
13.67888,51979
13.68702,48996
13.69513,52787
13.70327,51168
13.71138,51618
13.71950,52960
13.72763,58997
13.73575,54740
13.74388,52048
13.75200,52037
13.76012,48798
13.76825,54799
13.77637,60289
13.78448,58520
13.79262,61581
13.80073,66062
13.80887,67614
13.81698,66998
13.82510,68092
13.83323,65645
13.84135,67397
13.84948,69109
13.85760,68195
13.86572,66205
13.87385,68868
13.88197,68670
13.89010,69752
13.89822,64085
13.90633,71197
13.91447,68482
13.92258,72173
13.93070,69519
13.93883,70921
13.94695,70602
13.95508,74564
13.96320,74725
13.97132,73379
13.97945,67650
13.98757,70110
13.99570,68559
14.00382,75558
14.01193,70010
14.02007,71289
14.02818,73393
14.03630,74801
14.04443,74837
14.05255,75865
14.06068,73688
14.06880,73797
14.07692,78745
14.08505,76761
14.09317,78559
14.10130,78479
14.10942,80467
14.11753,69590
14.12567,73221
14.13378,73996
14.14192,67026
14.15003,68555
14.15815,70767
14.16628,75420
14.17440,76666
14.18252,98977
14.19065,119472
14.19877,167720
14.20690,226302
14.21502,288631
14.22313,325571
14.23127,303582
14.23938,277131
14.24752,245406
14.25563,213785
14.26375,195949
14.27188,182975
14.28000,181389
14.28813,160949
14.29625,149097
14.30437,138278
14.31250,140798
14.32062,129178
14.32873,124610
14.33687,116582
14.34498,112546
14.35312,107252
14.36123,99272
14.36935,95470
14.37748,86623
14.38560,80481
14.39373,76197
14.40185,70958
14.40997,69303
14.41810,74097
14.42622,71122
14.43433,66163
14.44247,67967
14.45058,70939
14.45872,64723
14.46683,63687
14.47495,62578
14.48308,67412
14.49120,66015
14.49933,67792
14.50745,65533
14.51557,65735
14.52370,65748
14.53182,66326
14.53995,65824
14.54807,65539
14.55618,60140
14.56432,65095
14.57243,61930
14.58055,60390
14.58868,67807
14.59680,64389
14.60493,65333
14.61305,61382
14.62117,58709
14.62930,62209
14.63742,61625
14.64555,60061
14.65367,54766
14.66178,51432
14.66992,58232
14.67803,60196
14.68615,56239
14.69428,55596
14.70240,55477
14.71053,55248
14.71865,59541
14.72677,53073
14.73490,50057
14.74302,55012
14.75115,57036
14.75927,54341
14.76738,52945
14.77552,51352
14.78363,52646
14.79177,52478
14.79988,58703
14.80800,62256
14.81613,79434
14.82425,92378
14.83237,107630
14.84050,106058
14.84862,100013
14.85675,174119
14.86487,543447
14.87298,469925
14.88112,197318
14.88923,136136
14.89737,108799
14.90548,106095
14.91360,102190
14.92173,103968
14.92985,97749
14.93798,96945
14.94610,92426
14.95422,83458
14.96235,85485
14.97047,86505
14.97858,83323
14.98672,83564
14.99483,80805
15.00297,79225
15.01108,79635
15.01920,78024
15.02733,74132
15.03545,82945
15.04358,348615
15.05170,1833277
15.05982,1592135
15.06795,718855
15.07607,465669
15.08420,353636
15.09232,279822
15.10043,239725
15.10857,208311
15.11668,192574
15.12480,170685
15.13293,156847
15.14105,148644
15.14918,136793
15.15730,129786
15.16542,117080
15.17355,114613
15.18167,114322
15.18980,121849
15.19792,419448
15.20603,1171528
15.21417,890848
15.22228,460690
15.23040,303709
15.23853,225033
15.24665,198666
15.25478,178217
15.26290,161466
15.27102,153815
15.27915,141217
15.28727,127330
15.29540,124718
15.30352,122305
15.31163,118119
15.31977,107305
15.32788,105142
15.33602,104742
15.34413,96047
15.35225,104638
15.36038,99634
15.36850,94498
15.37662,94830
15.38475,94752
15.39287,91497
15.40100,91705
15.40912,88875
15.41723,85872
15.42537,85186
15.43348,84254
15.44162,86399
15.44973,83169
15.45785,80663
15.46598,89903
15.47410,94461
15.48222,89620
15.49035,82474
15.49847,85753
15.50660,99505
15.51472,113315
15.52283,97541
15.53097,90387
15.53908,98565
15.54722,115534
15.55533,114729
15.56345,117813
15.57158,112324
15.57970,103573
15.58783,94015
15.59595,95656
15.60407,87301
15.61220,82309
15.62032,84657
15.62843,86051
15.63657,81021
15.64468,83205
15.65282,79667
15.66093,77817
15.66905,82065
15.67718,74981
15.68530,103210
15.69343,225129
15.70155,342823
15.70967,282037
15.71780,181196
15.72592,134701
15.73405,111345
15.74217,103084
15.75028,98900
15.75842,91357
15.76653,88844
15.77465,89107
15.78278,82747
15.79090,80313
15.79903,75485
15.80715,81195
15.81527,85608
15.82340,84345
15.83152,82196
15.83965,77187
15.84777,76734
15.85588,84266
15.86402,80367
15.87213,80325
15.88025,81554
15.88838,80291
15.89650,77880
15.90463,77659
15.91275,73119
15.92087,76897
15.92900,77792
15.93712,76559
15.94525,74769
15.95337,80919
15.96148,75929
15.96962,79384
15.97773,74494
15.98587,73696
15.99398,76997
16.00210,79536
16.01023,81930
16.01835,86819
16.02647,96461
16.03460,107398
16.04272,108282
16.05085,102756
16.05897,108014
16.06708,98184
16.07522,91396
16.08333,87239
16.09147,81360
16.09958,79038
16.10770,82067
16.11583,77609
16.12395,79487
16.13208,72818
16.14020,75408
16.14832,73763
16.15645,72303
16.16457,77418
16.17268,77238
16.18082,76181
16.18893,73443
16.19707,77925
16.20518,72551
16.21330,74565
16.22143,72826
16.22955,74259
16.23768,77098
16.24580,73888
16.25392,72547
16.26205,69737
16.27017,68306
16.27828,72652
16.28642,68195
16.29453,71110
16.30267,71469
16.31078,70980
16.31890,67814
16.32703,65272
16.33515,63413
16.34328,68326
16.35140,71717
16.35952,71600
16.36765,69355
16.37577,69311
16.38390,67532
16.39202,70335
16.40013,70336
16.40827,64666
16.41638,64373
16.42450,67910
16.43263,66846
16.44075,68629
16.44888,63229
16.45700,70338
16.46512,67102
16.47325,69163
16.48137,69253
16.48950,71905
16.49762,71088
16.50573,71864
16.51387,69745
16.52198,68776
16.53010,72011
16.53823,73601
16.54635,73483
16.55448,70538
16.56260,67512
16.57072,67450
16.57885,70314
16.58697,68285
16.59510,64656
16.60322,59248
16.61133,65812
16.61947,67054
16.62758,66607
16.63572,66578
16.64383,65376
16.65195,69108
16.66008,70183
16.66820,65006
16.67632,67007
16.68445,63282
16.69257,66449
16.70070,63336
16.70882,57259
16.71693,62612
16.72507,64296
16.73318,66726
16.74132,58794
16.74943,60437
16.75755,61487
16.76568,60103
16.77380,58426
16.78193,55381
16.79005,61729
16.79817,61944
16.80630,60759
16.81442,61645
16.82253,60529
16.83067,60260
16.83878,59612
16.84692,58354
16.85503,63241
16.86315,56281
16.87128,62971
16.87940,54455
16.88753,56310
16.89565,61603
16.90377,60467
16.91190,59141
16.92002,59937
16.92813,62099
16.93627,58192
16.94438,62239
16.95252,66530
16.96063,61383
16.96875,62474
16.97688,58958
16.98500,57646
16.99313,63490
17.00125,56653
17.00937,59506
17.01750,63130
17.02562,57099
17.03375,57696
17.04187,57686
17.04998,55846
17.05812,59456
17.06623,59596
17.07435,58258
17.08248,60311
17.09060,59556
17.09873,59752
17.10685,58136
17.11497,58820
17.12310,55609
17.13122,54101
17.13935,54854
17.14747,55037
17.15558,53127
17.16372,55043
17.17183,53946
17.17997,56613
17.18808,55012
17.19620,55551
17.20433,54220
17.21245,58341
17.22057,52083
17.22870,56007
17.23682,61601
17.24495,70209
17.25307,91383
17.26118,101022
17.26932,91355
17.27743,71994
17.28557,63965
17.29368,60582
17.30180,60655
17.30993,56938
17.31805,58013
17.32617,56635
17.33430,54676
17.34242,59353
17.35055,58605
17.35867,66423
17.36678,64191
17.37492,68637
17.38303,73129
17.39117,71990
17.39928,67899
17.40740,68341
17.41553,67825
17.42365,63640
17.43178,66183
17.43990,66832
17.44802,63948
17.45615,60820
17.46427,61892
17.47238,61625
17.48052,61801
17.48863,61252
17.49677,66532
17.50488,60842
17.51300,57595
17.52113,60860
17.52925,57822
17.53738,61834
17.54550,59203
17.55362,60417
17.56175,57796
17.56987,60440
17.57798,58961
17.58612,57866
17.59423,58003
17.60237,57594
17.61048,53232
17.61860,55092
17.62673,56091
17.63485,53672
17.64298,50845
17.65110,54279
17.65922,54593
17.66735,53401
17.67547,56387
17.68360,60795
17.69172,64656
17.69983,63932
17.70797,61072
17.71608,62923
17.72420,57235
17.73233,56726
17.74045,61005
17.74858,58264
17.75670,57726
17.76482,63132
17.77295,60141
17.78107,54828
17.78920,53608
17.79732,52652
17.80543,55485
17.81357,58320
17.82168,56980
17.82982,54790
17.83793,60649
17.84605,56004
17.85418,57358
17.86230,64764
17.87042,56516
17.87855,54527
17.88667,54795
17.89480,51874
17.90292,54641
17.91103,48014
17.91917,52826
17.92728,52397
17.93542,49123
17.94353,49020
17.95165,52803
17.95978,49335
17.96790,47029
17.97602,47055
17.98415,47513
17.99227,46056
18.00040,50904
18.00852,48745
18.01663,47996
18.02477,47436
18.03288,45578
18.04102,48627
18.04913,52488
18.05725,50977
18.06538,48513
18.07350,52607
18.08163,58058
18.08975,59288
18.09787,61556
18.10600,66220
18.11412,64270
18.12223,68022
18.13037,69596
18.13848,69178
18.14662,68076
18.15473,69159
18.16285,65695
18.17098,62640
18.17910,65080
18.18723,63155
18.19535,63612
18.20347,61258
18.21160,60530
18.21972,57092
18.22785,59378
18.23597,63253
18.24408,64274
18.25222,68391
18.26033,67190
18.26845,71650
18.27658,69622
18.28470,66868
18.29283,63804
18.30095,60449
18.30907,58763
18.31720,56613
18.32532,55205
18.33345,51758
18.34157,55278
18.34968,51546
18.35782,53239
18.36593,52392
18.37405,53798
18.38218,47557
18.39030,52159
18.39843,47247
18.40655,51749
18.41467,50216
18.42280,52030
18.43092,49408
18.43905,52944
18.44717,47669
18.45528,51376
18.46342,53051
18.47153,49566
18.47967,54519
18.48778,46768
18.49590,50193
18.50403,53635
18.51215,48438
18.52027,50168
18.52840,49783
18.53652,48974
18.54465,46776
18.55277,50854
18.56088,52499
18.56902,49294
18.57713,47205
18.58527,48998
18.59338,48803
18.60150,48954
18.60963,48863
18.61775,49520
18.62588,47539
18.63400,50778
18.64212,49598
18.65025,48331
18.65837,45450
18.66648,42924
18.67462,44442
18.68273,45573
18.69087,47448
18.69898,46299
18.70710,48018
18.71523,45931
18.72335,43220
18.73148,43804
18.73960,46140
18.74772,45143
18.75585,43095
18.76397,47310
18.77208,46643
18.78022,49061
18.78833,44487
18.79647,46243
18.80458,43708
18.81270,42898
18.82083,46687
18.82895,46785
18.83708,44561
18.84520,45009
18.85332,47221
18.86145,47381
18.86957,44534
18.87770,45716
18.88582,49584
18.89393,50882
18.90207,51092
18.91018,47539
18.91830,46378
18.92643,47597
18.93455,46965
18.94268,46807
18.95080,46422
18.95892,49438
18.96705,49413
18.97517,48776
18.98330,52255
18.99142,50773
18.99953,47932
19.00767,47653
19.01578,48450
19.02390,47743
19.03203,49686
19.04015,45462
19.04828,45748
19.05640,48404
19.06452,45250
19.07265,48817
19.08077,43493
19.08890,46788
19.09702,50332
19.10513,52748
19.11327,51060
19.12138,53286
19.12952,57390
19.13763,56911
19.14575,59744
19.15388,57082
19.16200,56235
19.17012,50128
19.17825,54626
19.18637,52121
19.19450,52970
19.20262,54773
19.21073,50988
19.21887,53446
19.22698,49429
19.23512,52065
19.24323,47266
19.25135,49858
19.25948,47913
19.26760,50878
19.27573,61260
19.28385,63201
19.29197,70487
19.30010,83274
19.30822,84198
19.31633,86378
19.32447,80885
19.33258,71869
19.34072,67449
19.34883,58085
19.35695,61786
19.36508,63388
19.37320,66622
19.38133,73346
19.38945,73132
19.39757,73895
19.40570,72034
19.41382,69764
19.42193,72939
19.43007,77455
19.43818,74921
19.44632,76236
19.45443,72763
19.46255,75139
19.47068,76892
19.47880,80832
19.48693,89378
19.49505,112916
19.50317,144986
19.51130,186636
19.51942,219512
19.52755,233699
19.53567,207519
19.54378,170239
19.55192,138180
19.56003,111189
19.56815,100070
19.57628,92646
19.58440,83738
19.59253,86354
19.60065,83681
19.60877,83981
19.61690,92719
19.62502,105483
19.63315,112300
19.64127,141364
19.64938,188513
19.65752,254944
19.66563,349562
19.67377,428175
19.68188,471852
19.69000,467963
19.69813,384882
19.70625,332882
19.71437,254242
19.72250,210025
19.73062,182359
19.73875,159529
19.74687,136017
19.75498,130821
19.76312,117347
19.77123,116179
19.77937,102469
19.78748,96097
19.79560,96039
19.80373,92310
19.81185,87488
19.81997,91896
19.82810,86946
19.83622,86904
19.84435,82500
19.85247,88150
19.86058,90082
19.86872,83651
19.87683,90389
19.88497,93897
19.89308,102858
19.90120,124893
19.90933,144472
19.91745,173180
19.92558,179713
19.93370,191537
19.94182,201120
19.94995,212392
19.95807,213391
19.96618,210313
19.97432,200347
19.98243,185236
19.99057,166220
19.99868,166098
20.00680,159590
20.01493,151193
20.02305,141602
20.03118,148073
20.03930,132614
20.04742,126005
20.05555,120346
20.06367,113322
20.07178,100851
20.07992,93011
20.08803,92068
20.09617,86502
20.10428,88410
20.11240,88053
20.12053,82685
20.12865,81948
20.13678,83601
20.14490,83700
20.15302,89641
20.16115,82770
20.16927,79252
20.17740,79981
20.18552,84930
20.19363,79447
20.20177,79907
20.20988,80436
20.21800,79045
20.22613,80732
20.23425,80835
20.24238,91457
20.25050,107826
20.25862,142905
20.26675,199348
20.27487,263569
20.28300,322619
20.29112,355009
20.29923,358809
20.30737,331661
20.31548,273399
20.32362,231704
20.33173,185319
20.33985,158518
20.34798,132527
20.35610,108449
20.36422,103646
20.37235,96378
20.38047,95953
20.38860,93293
20.39672,94666
20.40483,89199
20.41297,106733
20.42108,115917
20.42922,126880
20.43733,140872
20.44545,157631
20.45358,169931
20.46170,172006
20.46983,161185
20.47795,147465
20.48607,136980
20.49420,122304
20.50232,115242
20.51043,105951
20.51857,95110
20.52668,88962
20.53482,88814
20.54293,87698
20.55105,81702
20.55918,75066
20.56730,73019
20.57543,78506
20.58355,76336
20.59167,75811
20.59980,74534
20.60792,73738
20.61603,73451
20.62417,83057
20.63228,82557
20.64042,77562
20.64853,76746
20.65665,73713
20.66478,76211
20.67290,80840
20.68103,73206
20.68915,71167
20.69727,69206
20.70540,67393
20.71352,69594
20.72165,70636
20.72977,69289
20.73788,68914
20.74602,65804
20.75413,64306
20.76225,65013
20.77038,65195
20.77850,70259
20.78663,67822
20.79475,68836
20.80287,61840
20.81100,65285
20.81912,65618
20.82725,62318
20.83537,66990
20.84348,62876
20.85162,62616
20.85973,69143
20.86785,66674
20.87598,62473
20.88410,65788
20.89223,59545
20.90035,60548
20.90847,62004
20.91660,61140
20.92472,62778
20.93285,62556
20.94097,61370
20.94908,58058
20.95722,63318
20.96533,59788
20.97347,59454
20.98158,61586
20.98970,57375
20.99783,56224
21.00595,55812
21.01407,54319
21.02220,54461
21.03032,51622
21.03845,50417
21.04657,53629
21.05468,52499
21.06282,54316
21.07093,52244
21.07907,57922
21.08718,67157
21.09530,70881
21.10343,73869
21.11155,76965
21.11968,66001
21.12780,60594
21.13592,57508
21.14405,55366
21.15217,57644
21.16028,54478
21.16842,55760
21.17653,56567
21.18467,59512
21.19278,57872
21.20090,56215
21.20903,59533
21.21715,51140
21.22528,53592
21.23340,52710
21.24152,53694
21.24965,56985
21.25777,53419
21.26588,57408
21.27402,61673
21.28213,52478
21.29027,56413
21.29838,56622
21.30650,53682
21.31463,53801
21.32275,52027
21.33088,51670
21.33900,43971
21.34712,50412
21.35525,51573
21.36337,54386
21.37150,63056
21.37962,64358
21.38773,63976
21.39587,58349
21.40398,58836
21.41210,57230
21.42023,57305
21.42835,55899
21.43648,53423
21.44460,53537
21.45272,53831
21.46085,52608
21.46897,54983
21.47710,50702
21.48522,49903
21.49333,52203
21.50147,54489
21.50958,51071
21.51772,52350
21.52583,54826
21.53395,49756
21.54208,49399
21.55020,50301
21.55832,47531
21.56645,47500
21.57457,46055
21.58270,44712
21.59082,48766
21.59893,50943
21.60707,55516
21.61518,63439
21.62332,78938
21.63143,96244
21.63955,109021
21.64768,129693
21.65580,125354
21.66392,114702
21.67205,105834
21.68017,85749
21.68830,75274
21.69642,66472
21.70453,56902
21.71267,56324
21.72078,56573
21.72892,62574
21.73703,54656
21.74515,59042
21.75328,61753
21.76140,59717
21.76953,59981
21.77765,57940
21.78577,54299
21.79390,57446
21.80202,53275
21.81013,56047
21.81827,65505
21.82638,82223
21.83452,99200
21.84263,100815
21.85075,111610
21.85888,104658
21.86700,90876
21.87513,84331
21.88325,74903
21.89137,68904
21.89950,62323
21.90762,60931
21.91573,61072
21.92387,65275
21.93198,57708
21.94012,61324
21.94823,58201
21.95635,60225
21.96448,60463
21.97260,57953
21.98073,57952
21.98885,53026
21.99697,50276
22.00510,54710
22.01322,51056
22.02135,48193
22.02947,50009
22.03758,51900
22.04572,48652
22.05383,52108
22.06195,55207
22.07008,49170
22.07820,51887
22.08633,49136
22.09445,47466
22.10257,50460
22.11070,50275
22.11882,49833
22.12695,52729
22.13507,51989
22.14318,49174
22.15132,51525
22.15943,51489
22.16757,56823
22.17568,50498
22.18380,52871
22.19193,47595
22.20005,52087
22.20817,55440
22.21630,53236
22.22442,57791
22.23255,59046
22.24067,58843
22.24878,59621
22.25692,53942
22.26503,51809
22.27317,49692
22.28128,45984
22.28940,45422
22.29753,45524
22.30565,45070
22.31377,51148
22.32190,53781
22.33002,52291
22.33815,53612
22.34627,53147
22.35438,53353
22.36252,48742
22.37063,51256
22.37877,50373
22.38688,48833
22.39500,43191
22.40313,44205
22.41125,45171
22.41938,45901
22.42750,48196
22.43562,45728
22.44375,41419
22.45187,47077
22.45998,46974
22.46812,48109
22.47623,42412
22.48437,47002
22.49248,44561
22.50060,47594
22.50873,47902
22.51685,44230
22.52498,45102
22.53310,46000
22.54122,45443
22.54935,44366
22.55747,47968
22.56560,45089
22.57372,44901
22.58183,48924
22.58997,47444
22.59808,47018
22.60620,42429
22.61433,41124
22.62245,40364
22.63058,44048
22.63870,39608
22.64682,39363
22.65495,40487
22.66307,34605
22.67120,40043
22.67932,41687
22.68743,40143
22.69557,39008
22.70368,42155
22.71180,44712
22.71993,42263
22.72805,41426
22.73618,43599
22.74430,41808
22.75242,45013
22.76055,44883
22.76867,38823
22.77680,43465
22.78492,40720
22.79303,40333
22.80117,40513
22.80928,38633
22.81742,40008
22.82553,38387
22.83365,39568
22.84178,42075
22.84990,44248
22.85802,43164
22.86615,45539
22.87427,45378
22.88240,48693
22.89052,48042
22.89863,49611
22.90677,58891
22.91488,60462
22.92302,77707
22.93113,89540
22.93925,98013
22.94738,101952
22.95550,104881
22.96363,108050
22.97175,90829
22.97987,91023
22.98800,81849
22.99612,80297
23.00423,67881
23.01237,71516
23.02048,60923
23.02862,53424
23.03673,49529
23.04485,47609
23.05298,44348
23.06110,47347
23.06923,45135
23.07735,46521
23.08547,42939
23.09360,40758
23.10172,42043
23.10983,40650
23.11797,42411
23.12608,40795
23.13422,38709
23.14233,37358
23.15045,42920
23.15858,41580
23.16670,39773
23.17483,41444
23.18295,40334
23.19107,37723
23.19920,38962
23.20732,41887
23.21545,39977
23.22357,40095
23.23168,38866
23.23982,41737
23.24793,40128
23.25605,38362
23.26418,36914
23.27230,39448
23.28043,40821
23.28855,41769
23.29667,39416
23.30480,39448
23.31292,37716
23.32105,37009
23.32917,37572
23.33728,38305
23.34542,35841
23.35353,39647
23.36165,37717
23.36978,38491
23.37790,41457
23.38603,43539
23.39415,37595
23.40227,43753
23.41040,46386
23.41852,40346
23.42665,41021
23.43477,40891
23.44288,38371
23.45102,36572
23.45913,41599
23.46727,42037
23.47538,43238
23.48350,40041
23.49163,42420
23.49975,38500
23.50787,38307
23.51600,40863
23.52412,37933
23.53225,41002
23.54037,35951
23.54848,42046
23.55662,39433
23.56473,43637
23.57287,43774
23.58098,39964
23.58910,45079
23.59723,47007
23.60535,46744
23.61348,48812
23.62160,52632
23.62972,47295
23.63785,55818
23.64597,45686
23.65408,49626
23.66222,52397
23.67033,57782
23.67847,52958
23.68658,52819
23.69470,54624
23.70283,55508
23.71095,52232
23.71908,48422
23.72720,49972
23.73532,52244
23.74345,83984
23.75157,183934
23.75968,452269
23.76782,1033612
23.77593,2094694
23.78407,3495225
23.79218,4505075
23.80030,4738652
23.80843,4125781
23.81655,3310625
23.82468,2465646
23.83280,1779817
23.84092,1309847
23.84905,950831
23.85717,747744
23.86530,621350
23.87342,572571
23.88153,602553
23.88967,746890
23.89778,863135
23.90590,979547
23.91403,1019475
23.92215,964475
23.93028,837707
23.93840,696609
23.94652,576090
23.95465,450458
23.96277,386451
23.97090,328929
23.97902,294525
23.98713,258968
23.99527,237554
24.00338,223028
24.01152,207295
24.01963,187501
24.02775,182631
24.03588,183844
24.04400,169934
24.05212,165296
24.06025,159422
24.06837,151997
24.07650,144370
24.08462,139480
24.09273,134461
24.10087,133702
24.10898,130920
24.11712,133428
24.12523,128712
24.13335,132992
24.14148,136439
24.14960,140671
24.15772,137994
24.16585,124967
24.17397,124652
24.18210,119025
24.19022,118469
24.19833,119710
24.20647,113336
24.21458,122890
24.22272,128379
24.23083,126975
24.23895,118815
24.24708,116642
24.25520,104813
24.26333,102391
24.27145,94304
24.27957,94495
24.28770,96083
24.29582,90503
24.30393,85671
24.31207,86597
24.32018,87530
24.32832,87390
24.33643,82411
24.34455,79222
24.35268,81999
24.36080,79894
24.36893,80001
24.37705,83419
24.38517,88711
24.39330,116339
24.40142,135855
24.40953,178197
24.41767,226268
24.42578,314811
24.43392,441561
24.44203,631145
24.45015,746009
24.45828,758373
24.46640,676171
24.47453,571483
24.48265,466296
24.49077,379697
24.49890,305159
24.50702,276189
24.51515,254555
24.52327,229685
24.53138,206599
24.53952,188882
24.54763,167660
24.55575,150647
24.56388,147050
24.57200,134491
24.58013,120004
24.58825,119963
24.59637,110816
24.60450,103967
24.61262,105295
24.62075,106701
24.62887,101724
24.63698,100235
24.64512,101498
24.65323,97822
24.66137,97291
24.66948,96528
24.67760,93971
24.68573,93757
24.69385,89208
24.70197,84032
24.71010,76666
24.71822,73909
24.72635,76297
24.73447,70461
24.74258,71932
24.75072,66940
24.75883,71239
24.76697,73732
24.77508,68378
24.78320,63472
24.79133,71214
24.79945,71918
24.80757,67057
24.81570,66551
24.82382,68293
24.83195,67020
24.84007,66033
24.84818,67311
24.85632,61577
24.86443,61360
24.87257,67225
24.88068,65780
24.88880,68028
24.89693,65440
24.90505,66671
24.91318,68427
24.92130,65309
24.92942,64766
24.93755,66142
24.94567,58661
24.95378,58039
24.96192,56868
24.97003,57697
24.97817,55524
24.98628,58045
24.99440,52646
25.00253,55081
25.01065,55439
25.01878,56314
25.02690,54490
25.03502,55836
25.04315,51314
25.05127,55559
25.05940,52890
25.06752,53439
25.07563,53267
25.08377,53791
25.09188,54420
25.10000,53386
25.10813,55197
25.11625,57064
25.12438,63468
25.13250,77378
25.14062,90484
25.14875,111354
25.15687,117142
25.16500,124359
25.17312,126180
25.18123,116166
25.18937,102843
25.19748,94682
25.20560,80686
25.21373,73059
25.22185,69798
25.22998,67552
25.23810,66017
25.24622,64214
25.25435,61080
25.26247,62537
25.27060,62380
25.27872,60288
25.28683,65036
25.29497,69668
25.30308,77279
25.31122,75721
25.31933,78259
25.32745,78939
25.33558,73595
25.34370,71475
25.35182,67151
25.35995,63235
25.36807,60128
25.37620,60741
25.38432,55504
25.39243,51976
25.40057,52103
25.40868,55602
25.41682,56272
25.42493,49920
25.43305,54807
25.44118,53884
25.44930,50286
25.45742,54349
25.46555,59384
25.47367,60794
25.48180,64341
25.48992,66995
25.49803,66212
25.50617,62536
25.51428,62078
25.52242,58193
25.53053,53667
25.53865,56535
25.54678,56177
25.55490,50484
25.56303,50237
25.57115,52230
25.57927,45175
25.58740,48058
25.59552,50389
25.60363,50107
25.61177,51151
25.61988,49152
25.62802,48572
25.63613,49613
25.64425,47836
25.65238,45623
25.66050,45525
25.66863,46767
25.67675,45078
25.68487,46284
25.69300,44731
25.70112,50959
25.70925,50253
25.71737,47235
25.72548,47663
25.73362,48153
25.74173,46819
25.74985,48652
25.75798,44371
25.76610,44242
25.77423,42389
25.78235,45483
25.79047,44938
25.79860,47496
25.80672,44321
25.81485,49469
25.82297,49022
25.83108,47441
25.83922,49133
25.84733,46890
25.85547,51566
25.86358,53434
25.87170,47468
25.87983,47137
25.88795,49047
25.89607,46877
25.90420,46616
25.91232,46355
25.92045,43916
25.92857,42128
25.93668,44370
25.94482,48774
25.95293,47323
25.96107,44581
25.96918,45003
25.97730,45344
25.98543,42508
25.99355,43523
26.00167,42009
26.00980,40740
26.01792,43035
26.02605,45080
26.03417,40868
26.04228,45172
26.05042,43807
26.05853,41905
26.06667,43654
26.07478,44371
26.08290,45741
26.09103,43005
26.09915,45758
26.10728,46742
26.11540,44577
26.12352,50540
26.13165,54505
26.13977,58086
26.14788,65034
26.15602,59657
26.16413,62501
26.17227,55970
26.18038,59170
26.18850,57443
26.19663,53033
26.20475,49591
26.21288,45442
26.22100,46021
26.22912,44588
26.23725,44758
26.24537,44674
26.25348,45566
26.26162,45711
26.26973,46247
26.27787,50761
26.28598,48134
26.29410,49357
26.30223,45005
26.31035,40386
26.31848,45380
26.32660,46374
26.33472,42143
26.34285,44317
26.35097,46649
26.35910,41075
26.36722,42983
26.37533,45998
26.38347,53250
26.39158,58222
26.39970,69216
26.40783,73944
26.41595,81662
26.42408,77954
26.43220,71778
26.44032,70120
26.44845,65099
26.45657,55938
26.46470,53942
26.47282,52081
26.48093,50478
26.48907,52799
26.49718,45778
26.50532,45662
26.51343,43329
26.52155,45311
26.52968,43414
26.53780,41011
26.54592,41242
26.55405,44396
26.56217,41062
26.57030,42725
26.57842,43348
26.58653,42567
26.59467,44878
26.60278,40133
26.61092,41160
26.61903,41476
26.62715,39311
26.63528,40428
26.64340,41098
26.65152,44381
26.65965,39744
26.66777,42332
26.67590,39853
26.68402,41017
26.69213,44488
26.70027,39088
26.70838,44144
26.71652,42995
26.72463,43846
26.73275,43480
26.74088,44626
26.74900,45612
26.75713,42127
26.76525,41672
26.77337,44462
26.78150,41612
26.78962,41860
26.79773,44592
26.80587,44056
26.81398,38386
26.82212,46560
26.83023,44526
26.83835,47425
26.84648,44849
26.85460,47578
26.86273,47892
26.87085,49734
26.87897,51908
26.88710,49338
26.89522,44610
26.90335,47969
26.91147,45270
26.91958,47870
26.92772,46890
26.93583,48464
26.94395,47073
26.95208,56564
26.96020,69424
26.96833,105804
26.97645,200031
26.98457,359972
26.99270,691642
27.00082,1241927
27.00895,2049902
27.01707,2983408
27.02518,3602588
27.03332,3762806
27.04143,3653403
27.04955,3043357
27.05768,2508607
27.06580,2010009
27.07393,1580622
27.08205,1234206
27.09017,999771
27.09830,799168
27.10642,665737
27.11455,546821
27.12267,458137
27.13078,391510
27.13892,356560
27.14703,322694
27.15517,294336
27.16328,278885
27.17140,260061
27.17953,244007
27.18765,235078
27.19577,221621
27.20390,217795
27.21202,209192
27.22015,210837
27.22827,195519
27.23638,201888
27.24452,219144
27.25263,252557
27.26077,294892
27.26888,357425
27.27700,404733
27.28513,419925
27.29325,429524
27.30137,402877
27.30950,369821
27.31762,331413
27.32575,294953
27.33387,258631
27.34198,227158
27.35012,198511
27.35823,190549
27.36637,170943
27.37448,163165
27.38260,145790
27.39073,143192
27.39885,130863
27.40698,127998
27.41510,127589
27.42322,124386
27.43135,115574
27.43947,119003
27.44758,111665
27.45572,116981
27.46383,103878
27.47197,103542
27.48008,98753
27.48820,99347
27.49633,93122
27.50445,95115
27.51258,97682
27.52070,101510
27.52882,96187
27.53695,103547
27.54507,95695
27.55320,96941
27.56132,89373
27.56943,91500
27.57757,91935
27.58568,83605
27.59380,88921
27.60193,86958
27.61005,92137
27.61818,81908
27.62630,84130
27.63442,83805
27.64255,79345
27.65067,76807
27.65880,77229
27.66692,78521
27.67503,75283
27.68317,76293
27.69128,73824
27.69940,76319
27.70753,70719
27.71565,71095
27.72378,67248
27.73190,73813
27.74002,69853
27.74815,73051
27.75627,67931
27.76440,72514
27.77252,65814
27.78063,67027
27.78877,68169
27.79688,65272
27.80502,63942
27.81313,66980
27.82125,68446
27.82938,67880
27.83750,63280
27.84562,67621
27.85375,63775
27.86187,62722
27.87000,61794
27.87812,60634
27.88623,63814
27.89437,58064
27.90248,64229
27.91062,65923
27.91873,63004
27.92685,57597
27.93498,56226
27.94310,57818
27.95123,59682
27.95935,57456
27.96747,60638
27.97560,53158
27.98372,56604
27.99183,58919
27.99997,52216
28.00808,57889
28.01622,54068
28.02433,57633
28.03245,55268
28.04058,57348
28.04870,59416
28.05683,56692
28.06495,60608
28.07307,55738
28.08120,57601
28.08932,55006
28.09743,57790
28.10557,57122
28.11368,51577
28.12182,53666
28.12993,51049
28.13805,53067
28.14618,57863
28.15430,51637
28.16243,53237
28.17055,51739
28.17867,54868
28.18680,59319
28.19492,63347
28.20305,71347
28.21117,78396
28.21928,76794
28.22742,75834
28.23553,69169
28.24365,66868
28.25178,59100
28.25990,58209
28.26803,58020
28.27615,66389
28.28427,70083
28.29240,88071
28.30052,114924
28.30865,167191
28.31677,251820
28.32488,364141
28.33302,498988
28.34113,655081
28.34927,829768
28.35738,973475
28.36550,1098422
28.37363,1161271
28.38175,1230309
28.38987,1225865
28.39800,1128217
28.40612,1028489
28.41425,948476
28.42237,856632
28.43048,761488
28.43862,661852
28.44673,565556
28.45487,503140
28.46298,437269
28.47110,382285
28.47923,346786
28.48735,319629
28.49547,299289
28.50360,289986
28.51172,288682
28.51985,279039
28.52797,279493
28.53608,281472
28.54422,275772
28.55233,265262
28.56047,260435
28.56858,266281
28.57670,252222
28.58483,233654
28.59295,224566
28.60108,208168
28.60920,205564
28.61732,202397
28.62545,183695
28.63357,170172
28.64168,173489
28.64982,167223
28.65793,164699
28.66607,173233
28.67418,156703
28.68230,150252
28.69043,145954
28.69855,133318
28.70668,126364
28.71480,125019
28.72292,115798
28.73105,120512
28.73917,117198
28.74728,122756
28.75542,122830
28.76353,121500
28.77167,128447
28.77978,142937
28.78790,131760
28.79603,131372
28.80415,115764
28.81228,113743
28.82040,110841
28.82852,101654
28.83665,96747
28.84477,93177
28.85290,97362
28.86102,88216
28.86913,87695
28.87727,89849
28.88538,88866
28.89350,84595
28.90163,90811
28.90975,80104
28.91788,80817
28.92600,86979
28.93412,83809
28.94225,83671
28.95037,85097
28.95850,84814
28.96662,84272
28.97473,89550
28.98287,88862
28.99098,81375
28.99912,75814
29.00723,79667
29.01535,80270
29.02348,76292
29.03160,71306
29.03972,76444
29.04785,74939
29.05597,72448
29.06410,75115
29.07222,79196
29.08033,69539
29.08847,70004
29.09658,69355
29.10472,72822
29.11283,76641
29.12095,69435
29.12908,67111
29.13720,68926
29.14532,69447
29.15345,72604
29.16157,68629
29.16970,66738
29.17782,69489
29.18593,64877
29.19407,66836
29.20218,65575
29.21032,72906
29.21843,67219
29.22655,67698
29.23468,68455
29.24280,70238
29.25093,73629
29.25905,80460
29.26717,81719
29.27530,82198
29.28342,84392
29.29153,78993
29.29967,80938
29.30778,72435
29.31592,69611
29.32403,69070
29.33215,69588
29.34028,66001
29.34840,69701
29.35653,65595
29.36465,69126
29.37277,70080
29.38090,70138
29.38902,69608
29.39715,64647
29.40527,59923
29.41338,62533
29.42152,66566
29.42963,67084
29.43775,67932
29.44588,62851
29.45400,66658
29.46213,64703
29.47025,62652
29.47837,66241
29.48650,69686
29.49462,72141
29.50275,75604
29.51087,72665
29.51898,79685
29.52712,68347
29.53523,67643
29.54335,65905
29.55148,61099
29.55960,62781
29.56773,59894
29.57585,59541
29.58397,57761
29.59210,63249
29.60022,56019
29.60835,57457
29.61647,59282
29.62458,59506
29.63272,55704
29.64083,55095
29.64897,59830
29.65708,51716
29.66520,53316
29.67333,52083
29.68145,51541
29.68957,54831
29.69770,57720
29.70582,53244
29.71395,56472
29.72207,54649
29.73018,53672
29.73832,50573
29.74643,58427
29.75457,53503
29.76268,52585
29.77080,57825
29.77893,51315
29.78705,50904
29.79517,47616
29.80330,55253
29.81142,49593
29.81955,46864
29.82767,50024
29.83578,54950
29.84392,46770
29.85203,47276
29.86017,50782
29.86828,50277
29.87640,54149
29.88453,61568
29.89265,55865
29.90078,62976
29.90890,62938
29.91702,65014
29.92515,64370
29.93327,71308
29.94138,82539
29.94952,100412
29.95763,127392
29.96577,149826
29.97388,184456
29.98200,223125
29.99013,258126
29.99825,305357
30.00638,349593
30.01450,385069
30.02262,412571
30.03075,443131
30.03887,446646
30.04700,445064
30.05512,450519
30.06323,449732
30.07137,438090
30.07948,409591
30.08760,407053
30.09573,380022
30.10385,360507
30.11198,333818
30.12010,333627
30.12822,297494
30.13635,283977
30.14447,261480
30.15260,247978
30.16072,235834
30.16883,222203
30.17697,211599
30.18508,201483
30.19322,177575
30.20133,174925
30.20945,167972
30.21758,151277
30.22570,150809
30.23382,140405
30.24195,135039
30.25007,128218
30.25820,119113
30.26632,117353
30.27443,116675
30.28257,110678
30.29068,108701
30.29882,106664
30.30693,99814
30.31505,96498
30.32318,100848
30.33130,95128
30.33942,90545
30.34755,89659
30.35567,87846
30.36380,82444
30.37192,80613
30.38003,82342
30.38817,82749
30.39628,80517
30.40442,78878
30.41253,75381
30.42065,74960
30.42878,73150
30.43690,77296
30.44503,78547
30.45315,74236
30.46127,70965
30.46940,72535
30.47752,68210
30.48563,78178
30.49377,70886
30.50188,69637
30.51002,67825
30.51813,65324
30.52625,66032
30.53438,66687
30.54250,67447
30.55063,66934
30.55875,63086
30.56687,61666
30.57500,65819
30.58312,60807
30.59123,62800
30.59937,62154
30.60748,60565
30.61562,61658
30.62373,61089
30.63185,66247
30.63998,61319
30.64810,54519
30.65623,61032
30.66435,57940
30.67247,57608
30.68060,58349
30.68872,60494
30.69685,54102
30.70497,53330
30.71308,56947
30.72122,59147
30.72933,58874
30.73745,55378
30.74558,57029
30.75370,57597
30.76183,58050
30.76995,60882
30.77807,56161
30.78620,60088
30.79432,59769
30.80245,65332
30.81057,71406
30.81868,73303
30.82682,72926
30.83493,65899
30.84307,62775
30.85118,67542
30.85930,58767
30.86743,60942
30.87555,57111
30.88367,58455
30.89180,53991
30.89992,56965
30.90805,57936
30.91617,53709
30.92428,52838
30.93242,54453
30.94053,51919
30.94867,52604
30.95678,56521
30.96490,50029
30.97303,51135
30.98115,48602
30.98927,52644
30.99740,51564
31.00552,53401
31.01365,53562
31.02177,53340
31.02988,53780
31.03802,59223
31.04613,54340
31.05427,52805
31.06238,54865
31.07050,57670
31.07863,60364
31.08675,65292
31.09488,71085
31.10300,78402
31.11112,76612
31.11925,80474
31.12737,75110
31.13548,69411
31.14362,64311
31.15173,58619
31.15987,60091
31.16798,59697
31.17610,63906
31.18423,65628
31.19235,78972
31.20048,91549
31.20860,100593
31.21672,116302
31.22485,117549
31.23297,121137
31.24110,116747
31.24922,110139
31.25733,88617
31.26547,79866
31.27358,72172
31.28170,65525
31.28983,62100
31.29795,55461
31.30608,55912
31.31420,52878
31.32232,55162
31.33045,58845
31.33857,54684
31.34670,58470
31.35482,58907
31.36293,58736
31.37107,55169
31.37918,61188
31.38730,58543
31.39543,59520
31.40355,60083
31.41168,65751
31.41980,60713
31.42792,63797
31.43605,61517
31.44417,61020
31.45230,59995
31.46042,58361
31.46853,57463
31.47667,54518
31.48478,58375
31.49292,56394
31.50103,52921
31.50915,52542
31.51728,53100
31.52540,52357
31.53352,54104
31.54165,53265
31.54977,54846
31.55790,52043
31.56602,51672
31.57413,48355
31.58227,48537
31.59038,52179
31.59852,52176
31.60663,55712
31.61475,49715
31.62288,54197
31.63100,48611
31.63912,59930
31.64725,50563
31.65537,56410
31.66350,53110
31.67162,55692
31.67973,49871
31.68787,50165
31.69598,49992
31.70412,47815
31.71223,50567
31.72035,46657
31.72848,48941
31.73660,48554
31.74473,45016
31.75285,44674
31.76097,49240
31.76910,42996
31.77722,49447
31.78533,47989
31.79347,51648
31.80158,53596
31.80972,51597
31.81783,53599
31.82595,53987
31.83408,53229
31.84220,53791
31.85033,56943
31.85845,53273
31.86657,61019
31.87470,67537
31.88282,64194
31.89095,68448
31.89907,78765
31.90718,94942
31.91532,108531
31.92343,133210
31.93155,154715
31.93968,180712
31.94780,212381
31.95593,231320
31.96405,252057
31.97217,273161
31.98030,281828
31.98842,288130
31.99655,285098
32.00467,289206
32.01278,281141
32.02092,262201
32.02903,243041
32.03715,225699
32.04528,212711
32.05340,205280
32.06153,196963
32.06965,188789
32.07777,179213
32.08590,170034
32.09402,157227
32.10215,152998
32.11027,139962
32.11838,130223
32.12652,122219
32.13463,112167
32.14277,106400
32.15088,108410
32.15900,100632
32.16713,102950
32.17525,93508
32.18337,89659
32.19150,90033
32.19962,89784
32.20775,83025
32.21587,83066
32.22398,81169
32.23212,82626
32.24023,79519
32.24837,73464
32.25648,74602
32.26460,75126
32.27273,72601
32.28085,71648
32.28898,70104
32.29710,75052
32.30522,72224
32.31335,66629
32.32147,69394
32.32958,63897
32.33772,68389
32.34583,72257
32.35397,73236
32.36208,68007
32.37020,70346
32.37833,68706
32.38645,63529
32.39458,61666
32.40270,60550
32.41082,64628
32.41895,62548
32.42707,59635
32.43518,62824
32.44332,57769
32.45143,57583
32.45957,60614
32.46768,60618
32.47580,59999
32.48393,58954
32.49205,62185
32.50018,58785
32.50830,57179
32.51642,59659
32.52455,56428
32.53267,59880
32.54080,59917
32.54892,55070
32.55703,58140
32.56517,57072
32.57328,54151
32.58140,59320
32.58953,55260
32.59765,58743
32.60578,55997
32.61390,54890
32.62202,53131
32.63015,50330
32.63827,56450
32.64640,60642
32.65452,62294
32.66263,65298
32.67077,78207
32.67888,83899
32.68702,83179
32.69513,80468
32.70325,76686
32.71138,72884
32.71950,69790
32.72762,65848
32.73575,66885
32.74387,62935
32.75200,62283
32.76012,59222
32.76823,56860
32.77637,55364
32.78448,58419
32.79262,49228
32.80073,55261
32.80885,58633
32.81698,52868
32.82510,53853
32.83322,52734
32.84135,51970
32.84947,50318
32.85760,53341
32.86572,52983
32.87383,54969
32.88197,53617
32.89008,53613
32.89822,51465
32.90633,55838
32.91445,52096
32.92258,54615
32.93070,53531
32.93883,53856
32.94695,51624
32.95507,53561
32.96320,49827
32.97132,53047
32.97943,50704
32.98757,53355
32.99568,57206
33.00382,53677
33.01193,57825
33.02005,52770
33.02818,54440
33.03630,56174
33.04443,55309
33.05255,52362
33.06067,54792
33.06880,53174
33.07692,52914
33.08503,53431
33.09317,57437
33.10128,56832
33.10942,55590
33.11753,67974
33.12565,70395
33.13378,69422
33.14190,62696
33.15003,69271
33.15815,66309
33.16627,56679
33.17440,52084
33.18252,54816
33.19065,58135
33.19877,60118
33.20688,53504
33.21502,57688
33.22313,56581
33.23125,60752
33.23938,63137
33.24750,54179
33.25563,54641
33.26375,51952
33.27187,52029
33.28000,52904
33.28812,56521
33.29625,50981
33.30437,54147
33.31248,52933
33.32062,51177
33.32873,60855
33.33687,55062
33.34498,49091
33.35310,46280
33.36123,48997
33.36935,50685
33.37747,51434
33.38560,51141
33.39372,50176
33.40185,50797
33.40997,49981
33.41808,52196
33.42622,54690
33.43433,54555
33.44247,51383
33.45058,51986
33.45870,50888
33.46683,48853
33.47495,50718
33.48307,50899
33.49120,49179
33.49932,54566
33.50745,54922
33.51557,53977
33.52368,53899
33.53182,56194
33.53993,53190
33.54807,51203
33.55618,56535
33.56430,56512
33.57243,49430
33.58055,47779
33.58868,51342
33.59680,49648
33.60492,51534
33.61305,48158
33.62117,51490
33.62928,51995
33.63742,48690
33.64553,50544
33.65367,50517
33.66178,47833
33.66990,49636
33.67803,54400
33.68615,49682
33.69428,51499
33.70240,48662
33.71052,48714
33.71865,46948
33.72677,52573
33.73490,51073
33.74302,48568
33.75113,54615
33.75927,50878
33.76738,48756
33.77550,48159
33.78363,47238
33.79175,50295
33.79988,48735
33.80800,48185
33.81612,47818
33.82425,53235
33.83237,51989
33.84050,48327
33.84862,54971
33.85673,54487
33.86487,53816
33.87298,53161
33.88110,53530
33.88923,55885
33.89735,56047
33.90548,53174
33.91360,54769
33.92172,46534
33.92985,54000
33.93797,55156
33.94610,54004
33.95422,54747
33.96233,55047
33.97047,52427
33.97858,52848
33.98672,51394
33.99483,47233
34.00295,50995
34.01108,46681
34.01920,46485
34.02732,48095
34.03545,49859
34.04357,48568
34.05170,50746
34.05982,48901
34.06793,51211
34.07607,52913
34.08418,53079
34.09232,47867
34.10043,53007
34.10855,52728
34.11668,48624
34.12480,47051
34.13292,50201
34.14105,50472
34.14917,47845
34.15730,52841
34.16542,53994
34.17353,52158
34.18167,49589
34.18978,49436
34.19792,53586
34.20603,50372
34.21415,51153
34.22228,50625
34.23040,52373
34.23853,52144
34.24665,53357
34.25477,50387
34.26290,52349
34.27102,51959
34.27913,53593
34.28727,51000
34.29538,56255
34.30352,52983
34.31163,50574
34.31975,49628
34.32788,55620
34.33600,50637
34.34413,52010
34.35225,50992
34.36037,53149
34.36850,50946
34.37662,49920
34.38475,51876
34.39287,49554
34.40098,55974
34.40912,48225
34.41723,52809
34.42535,53640
34.43348,50769
34.44160,49507
34.44973,48589
34.45785,50025
34.46597,54442
34.47410,55163
34.48222,52971
34.49035,52126
34.49847,59215
34.50658,68577
34.51472,85343
34.52283,109593
34.53097,143721
34.53908,177415
34.54720,214480
34.55533,243904
34.56345,264042
34.57157,246601
34.57970,238005
34.58782,228581
34.59595,206521
34.60407,178975
34.61218,164366
34.62032,143326
34.62843,137515
34.63657,134439
34.64468,123179
34.65280,112004
34.66093,107504
34.66905,102411
34.67717,95732
34.68530,91288
34.69342,92560
34.70155,90531
34.70967,86331
34.71778,78883
34.72592,80420
34.73403,83032
34.74217,79862
34.75028,86981
34.75840,85907
34.76653,77847
34.77465,73601
34.78278,71272
34.79090,71231
34.79902,72668
34.80715,76888
34.81527,67595
34.82338,70264
34.83152,68495
34.83963,71997
34.84777,71247
34.85588,65854
34.86400,71120
34.87213,66499
34.88025,65825
34.88838,68343
34.89650,70848
34.90462,72102
34.91275,68659
34.92087,68059
34.92898,68638
34.93712,70383
34.94523,74342
34.95337,72820
34.96148,69421
34.96960,70272
34.97773,76331
34.98585,68579
34.99398,72559
35.00210,72801
35.01022,69137
35.01835,71184
35.02647,70242
35.03460,65086
35.04272,69124
35.05083,68927
35.05897,69913
35.06708,70477
35.07520,68878
35.08333,63317
35.09145,62121
35.09958,62534
35.10770,64677
35.11582,61471
35.12395,65488
35.13207,64375
35.14020,66064
35.14832,67353
35.15643,69851
35.16457,71405
35.17268,72784
35.18082,73429
35.18893,76803
35.19705,67546
35.20518,66178
35.21330,63823
35.22142,60667
35.22955,64556
35.23767,69928
35.24580,62497
35.25392,65689
35.26203,68283
35.27017,67061
35.27828,65948
35.28642,66019
35.29453,66683
35.30265,66575
35.31078,67397
35.31890,66911
35.32702,63154
35.33515,64302
35.34327,59387
35.35140,62692
35.35952,58727
35.36763,59918
35.37577,61488
35.38388,60927
35.39202,64119
35.40013,62054
35.40825,65995
35.41638,62294
35.42450,68815
35.43263,64794
35.44075,70595
35.44887,65273
35.45700,67697
35.46512,70066
35.47323,71993
35.48137,68792
35.48948,66137
35.49762,65068
35.50573,60015
35.51385,67703
35.52198,66736
35.53010,63074
35.53823,65949
35.54635,65123
35.55447,66106
35.56260,60232
35.57072,67532
35.57885,64524
35.58697,64342
35.59508,63767
35.60322,61656
35.61133,66024
35.61945,64790
35.62758,63223
35.63570,62617
35.64383,62682
35.65195,63388
35.66007,63994
35.66820,69693
35.67632,69491
35.68445,75688
35.69257,77627
35.70068,73042
35.70882,64327
35.71693,69362
35.72505,70001
35.73318,65424
35.74130,64553
35.74943,70188
35.75755,62762
35.76567,66858
35.77380,68062
35.78192,69710
35.79005,63515
35.79817,67829
35.80628,66047
35.81442,62865
35.82253,63087
35.83067,62249
35.83878,65889
35.84690,67021
35.85503,62399
35.86315,62499
35.87127,70981
35.87940,64034
35.88752,63582
35.89565,58788
35.90377,63003
35.91188,67705
35.92002,59030
35.92813,63978
35.93627,65750
35.94438,61063
35.95250,61808
35.96063,60929
35.96875,60496
35.97687,57298
35.98500,61447
35.99312,62820
36.00125,59858
36.00937,67229
36.01748,66951
36.02562,71882
36.03373,68132
36.04187,70364
36.04998,67620
36.05810,66690
36.06623,66197
36.07435,71054
36.08248,64726
36.09060,65735
36.09872,66724
36.10685,62514
36.11497,60612
36.12308,65394
36.13122,65473
36.13933,67183
36.14747,67623
36.15558,64346
36.16370,68964
36.17183,68369
36.17995,62792
36.18808,63523
36.19620,62380
36.20432,66526
36.21245,62746
36.22057,61041
36.22870,66101
36.23682,66959
36.24493,69032
36.25307,65693
36.26118,60113
36.26930,66694
36.27743,62838
36.28555,66163
36.29368,69669
36.30180,72935
36.30992,80859
36.31805,80526
36.32617,89271
36.33430,86196
36.34242,82272
36.35053,80366
36.35867,80732
36.36678,79438
36.37490,71562
36.38303,73711
36.39115,68725
36.39928,73178
36.40740,74769
36.41552,72966
36.42365,73858
36.43177,67976
36.43990,65882
36.44802,68618
36.45613,67854
36.46427,65494
36.47238,66655
36.48052,70704
36.48863,65869
36.49675,67163
36.50488,64836
36.51300,68290
36.52112,68471
36.52925,62763
36.53737,63548
36.54550,62088
36.55362,62817
36.56173,63114
36.56987,61635
36.57798,67766
36.58612,66407
36.59423,66129
36.60235,61639
36.61048,63704
36.61860,66199
36.62673,65612
36.63485,63939
36.64297,71598
36.65110,74838
36.65922,77028
36.66733,74465
36.67547,75109
36.68358,75211
36.69172,79455
36.69983,74570
36.70795,79061
36.71608,86004
36.72420,86508
36.73233,89594
36.74045,91098
36.74857,90777
36.75670,94706
36.76482,103185
36.77293,101316
36.78107,109829
36.78918,104809
36.79732,107748
36.80543,106683
36.81355,104867
36.82168,105002
36.82980,103878
36.83793,104376
36.84605,106317
36.85417,95251
36.86230,93759
36.87042,89087
36.87855,86246
36.88667,76766
36.89478,83190
36.90292,78050
36.91103,72765
36.91915,76627
36.92728,77769
36.93540,70687
36.94353,77461
36.95165,73308
36.95977,69499
36.96790,70252
36.97602,70033
36.98415,72311
36.99227,67411
37.00038,66854
37.00852,71981
37.01663,66989
37.02475,69684
37.03288,69233
37.04100,65447
37.04913,70292
37.05725,68296
37.06537,71230
37.07350,71529
37.08162,71412
37.08975,71629
37.09787,71916
37.10598,67284
37.11412,77315
37.12223,74600
37.13037,72379
37.13848,72907
37.14660,78670
37.15473,78528
37.16285,72076
37.17097,77287
37.17910,72545
37.18722,71868
37.19535,74668
37.20347,71559
37.21158,68012
37.21972,72853
37.22783,72732
37.23597,70818
37.24408,76237
37.25220,74629
37.26033,70722
37.26845,65931
37.27658,71092
37.28470,70307
37.29282,74140
37.30095,73553
37.30907,77795
37.31718,83576
37.32532,99844
37.33343,110829
37.34157,137407
37.34968,165893
37.35780,182374
37.36593,191882
37.37405,189938
37.38218,174843
37.39030,174037
37.39842,157454
37.40655,150392
37.41467,141592
37.42278,126660
37.43092,125246
37.43903,119349
37.44717,111104
37.45528,109324
37.46340,111531
37.47153,113772
37.47965,106222
37.48778,104680
