C:\MassHunter\GCMS\1\data\JTB-E18\JTB-E18-038-05.D Wed Nov 13 13:10:06 2019
Start of data points
2.09515,266079
2.10327,252176
2.11138,257198
2.11952,251722
2.12763,248281
2.13577,235707
2.14388,233378
2.15200,221478
2.16013,222433
2.16825,213939
2.17637,197080
2.18450,200356
2.19262,195346
2.20075,189215
2.20887,180808
2.21698,179517
2.22512,174548
2.23323,172708
2.24137,170537
2.24948,166567
2.25760,164542
2.26573,175676
2.27385,856850
2.28198,3941891
2.29010,4450189
2.29822,1990510
2.30635,1050199
2.31447,808423
2.32258,693107
2.33072,609891
2.33883,536879
2.34697,489007
2.35508,437791
2.36320,400023
2.37133,368975
2.37945,353080
2.38758,329276
2.39570,312709
2.40382,301757
2.41195,300022
2.42007,279826
2.42820,286033
2.43632,268485
2.44443,266411
2.45257,275901
2.46068,258769
2.46880,238511
2.47693,234427
2.48505,222213
2.49318,212873
2.50130,212794
2.50942,205962
2.51755,205718
2.52567,202615
2.53380,203741
2.54192,204385
2.55003,199069
2.55817,204093
2.56628,198643
2.57440,187420
2.58253,189229
2.59065,182285
2.59878,183806
2.60690,182407
2.61502,195489
2.62315,198771
2.63127,190884
2.63940,190923
2.64752,179635
2.65563,176356
2.66377,167635
2.67188,170766
2.68002,168452
2.68813,166297
2.69625,160952
2.70438,160227
2.71250,159699
2.72062,159459
2.72875,147957
2.73687,149605
2.74500,156636
2.75312,146825
2.76123,146855
2.76937,146273
2.77748,144344
2.78562,142885
2.79373,139764
2.80185,143640
2.80998,140495
2.81810,141879
2.82623,133971
2.83435,139411
2.84247,137262
2.85060,134104
2.85872,133576
2.86683,136110
2.87497,135307
2.88308,130604
2.89122,127508
2.89933,131958
2.90745,130413
2.91558,126253
2.92370,129884
2.93183,127431
2.93995,121015
2.94807,125187
2.95620,122777
2.96432,124102
2.97243,124200
2.98057,125066
2.98868,124476
2.99682,114937
3.00493,122735
3.01305,119864
3.02118,120633
3.02930,119164
3.03743,113300
3.04555,118933
3.05367,121773
3.06180,121349
3.06992,132512
3.07805,127037
3.08617,128107
3.09428,123234
3.10242,129550
3.11053,139632
3.11865,155459
3.12678,139736
3.13490,127271
3.14303,125011
3.15115,121632
3.15927,125171
3.16740,116562
3.17552,117172
3.18365,115575
3.19177,114212
3.19988,115718
3.20802,114023
3.21613,113544
3.22425,110414
3.23238,107546
3.24050,107932
3.24863,105059
3.25675,111415
3.26487,106374
3.27300,130131
3.28112,366465
3.28925,1984281
3.29737,7432438
3.30548,1.506348E+07
3.31362,1.660087E+07
3.32173,1.249212E+07
3.32987,7493179
3.33798,4536059
3.34610,3039248
3.35423,2237287
3.36235,1770491
3.37047,1450407
3.37860,1241434
3.38672,1061535
3.39485,950725
3.40297,873978
3.41108,795023
3.41922,731998
3.42733,669106
3.43547,644027
3.44358,595756
3.45170,577813
3.45983,536451
3.46795,518074
3.47608,505699
3.48420,488042
3.49232,464789
3.50045,459031
3.50857,444376
3.51668,422281
3.52482,401367
3.53293,398635
3.54107,392316
3.54918,369582
3.55730,372325
3.56543,360110
3.57355,354961
3.58168,351169
3.58980,345172
3.59792,341029
3.60605,324613
3.61417,323937
3.62228,318320
3.63042,319107
3.63853,306716
3.64667,299973
3.65478,291985
3.66290,287230
3.67103,289721
3.67915,280827
3.68728,276143
3.69540,283392
3.70352,280723
3.71165,275292
3.71977,262600
3.72790,264667
3.73602,260498
3.74413,260693
3.75227,251612
3.76038,250833
3.76850,248424
3.77663,246710
3.78475,248858
3.79288,247957
3.80100,239516
3.80912,236470
3.81725,235977
3.82537,233750
3.83350,233973
3.84162,235182
3.84973,232018
3.85787,226225
3.86598,225829
3.87412,224104
3.88223,223029
3.89035,232011
3.89848,220148
3.90660,220644
3.91472,218209
3.92285,214935
3.93097,213500
3.93910,212972
3.94722,211915
3.95533,212973
3.96347,212989
3.97158,203291
3.97972,207512
3.98783,199893
3.99595,210624
4.00408,195076
4.01220,201563
4.02032,200683
4.02845,200604
4.03657,195199
4.04470,193762
4.05282,196169
4.06093,194443
4.06907,192511
4.07718,185420
4.08532,190042
4.09343,188135
4.10155,177480
4.10968,192627
4.11780,179171
4.12593,178482
4.13405,183770
4.14217,191635
4.15030,191072
4.15842,197860
4.16653,191079
4.17467,187020
4.18278,178179
4.19092,175555
4.19903,179234
4.20715,179692
4.21528,179834
4.22340,195128
4.23153,210674
4.23965,224991
4.24777,214278
4.25590,197037
4.26402,186954
4.27215,187175
4.28027,186851
4.28838,176072
4.29652,177454
4.30463,180738
4.31275,174767
4.32088,174486
4.32900,175815
4.33713,179189
4.34525,175281
4.35337,177177
4.36150,179585
4.36962,177504
4.37775,172905
4.38587,173092
4.39398,164675
4.40212,165889
4.41023,162602
4.41835,166364
4.42648,161404
4.43460,157380
4.44273,158587
4.45085,159650
4.45897,153006
4.46710,155340
4.47522,152208
4.48335,156039
4.49147,150378
4.49958,153936
4.50772,153928
4.51583,152363
4.52397,153722
4.53208,155794
4.54020,159652
4.54833,166173
4.55645,157271
4.56457,157732
4.57270,151866
4.58082,145991
4.58895,145837
4.59707,145147
4.60518,152659
4.61332,146408
4.62143,145538
4.62957,138542
4.63768,146862
4.64580,146591
4.65393,148415
4.66205,139781
4.67017,136612
4.67830,142449
4.68642,144146
4.69455,141842
4.70267,142072
4.71078,137963
4.71892,137265
4.72703,138918
4.73517,135625
4.74328,142037
4.75140,138820
4.75953,139419
4.76765,134833
4.77578,137505
4.78390,137718
4.79202,134530
4.80015,135156
4.80827,127934
4.81638,133653
4.82452,135826
4.83263,136134
4.84077,137149
4.84888,131712
4.85700,128268
4.86513,135337
4.87325,134798
4.88138,134593
4.88950,132321
4.89762,145309
4.90575,227009
4.91387,628002
4.92200,1852498
4.93012,4599238
4.93823,8211756
4.94637,9517475
4.95448,7662867
4.96260,4755835
4.97073,2652879
4.97885,1524962
4.98698,1023025
4.99510,780596
5.00322,662330
5.01135,563343
5.01947,513135
5.02760,471645
5.03572,434737
5.04383,416305
5.05197,389222
5.06008,377118
5.06820,362515
5.07633,341861
5.08445,338706
5.09258,328331
5.10070,316014
5.10882,305029
5.11695,302858
5.12507,293857
5.13320,292957
5.14132,286220
5.14943,284861
5.15757,278848
5.16568,266658
5.17382,272399
5.18193,274126
5.19005,260171
5.19818,255092
5.20630,253571
5.21442,250341
5.22255,271337
5.23067,293893
5.23880,324981
5.24692,316212
5.25503,297699
5.26317,267383
5.27128,239108
5.27942,227441
5.28753,214644
5.29565,212598
5.30378,208397
5.31190,219919
5.32003,209797
5.32815,197665
5.33627,198497
5.34440,204198
5.35252,199847
5.36063,195744
5.36877,192195
5.37688,194564
5.38502,192349
5.39313,197963
5.40125,189777
5.40938,192146
5.41750,183796
5.42563,177677
5.43375,181652
5.44187,186347
5.45000,185043
5.45812,181856
5.46623,183219
5.47437,170536
5.48248,178091
5.49062,164664
5.49873,174199
5.50685,171940
5.51498,171095
5.52310,169142
5.53123,159168
5.53935,167589
5.54747,170981
5.55560,173934
5.56372,168596
5.57185,168528
5.57997,169321
5.58808,162758
5.59622,162565
5.60433,167373
5.61245,157996
5.62058,167044
5.62870,164569
5.63683,164628
5.64495,167034
5.65307,164099
5.66120,171035
5.66932,185160
5.67745,197156
5.68557,210587
5.69368,204121
5.70182,193412
5.70993,180776
5.71805,171922
5.72618,168609
5.73430,166751
5.74243,162759
5.75055,161161
5.75867,155471
5.76680,159992
5.77492,153007
5.78305,152544
5.79117,152157
5.79928,152272
5.80742,153856
5.81553,150082
5.82367,148472
5.83178,149756
5.83990,145125
5.84803,150213
5.85615,153575
5.86427,152379
5.87240,142260
5.88052,148462
5.88865,145090
5.89677,148022
5.90488,137225
5.91302,128573
5.92113,114364
5.92927,107705
5.93738,104710
5.94550,100682
5.95363,109073
5.96175,106703
5.96988,106788
5.97800,111960
5.98612,112240
5.99425,108131
6.00237,113172
6.01048,108390
6.01862,105237
6.02673,105777
6.03487,108755
6.04298,102741
6.05110,108572
6.05923,100520
6.06735,103340
6.07548,99105
6.08360,104521
6.09172,101717
6.09985,110708
6.10797,108419
6.11610,112941
6.12422,119966
6.13233,125880
6.14047,126992
6.14858,127111
6.15670,120291
6.16483,125666
6.17295,131938
6.18108,134271
6.18920,137867
6.19732,138570
6.20545,141808
6.21357,146887
6.22170,145314
6.22982,149463
6.23793,150007
6.24607,148001
6.25418,152456
6.26230,156078
6.27043,157349
6.27855,154913
6.28668,160414
6.29480,168685
6.30292,174529
6.31105,170047
6.31917,174124
6.32730,175200
6.33542,176965
6.34353,180302
6.35167,173372
6.35978,186454
6.36792,184481
6.37603,187870
6.38415,188599
6.39228,191525
6.40040,193807
6.40852,191347
6.41665,198564
6.42477,199216
6.43290,206584
6.44102,213455
6.44913,216483
6.45727,205851
6.46538,193883
6.47352,176352
6.48163,166301
6.48975,163543
6.49788,157115
6.50600,148639
6.51412,147175
6.52225,141842
6.53037,143256
6.53850,134978
6.54662,136401
6.55473,131095
6.56287,134914
6.57098,129625
6.57912,127105
6.58723,124748
6.59535,128105
6.60348,122470
6.61160,125071
6.61973,125806
6.62785,115704
6.63597,116531
6.64410,111426
6.65222,118384
6.66033,115174
6.66847,109363
6.67658,112079
6.68472,113873
6.69283,111447
6.70095,113099
6.70908,115881
6.71720,106722
6.72533,109957
6.73345,103891
6.74157,106679
6.74970,108463
6.75782,104746
6.76595,104315
6.77407,106138
6.78218,103946
6.79032,100868
6.79843,105198
6.80655,102780
6.81468,101168
6.82280,104342
6.83093,102517
6.83905,97633
6.84717,80570
6.85530,73794
6.86342,69317
6.87155,66182
6.87967,64214
6.88778,66516
6.89592,67690
6.90403,67201
6.91215,67775
6.92028,64650
6.92840,64115
6.93653,70448
6.94465,62924
6.95277,64364
6.96090,61715
6.96902,58511
6.97715,61807
6.98527,63995
6.99338,64184
7.00152,62986
7.00963,56048
7.01777,58832
7.02588,58936
7.03400,58076
7.04213,59655
7.05025,61685
7.05837,60670
7.06650,60077
7.07462,57283
7.08275,59009
7.09087,59964
7.09898,57925
7.10712,61421
7.11523,65068
7.12337,58397
7.13148,53128
7.13960,57694
7.14773,56837
7.15585,60078
7.16398,56949
7.17210,56825
7.18022,55536
7.18835,55860
7.19647,57948
7.20458,55441
7.21272,55003
7.22083,55638
7.22897,53830
7.23708,52986
7.24520,58902
7.25333,55242
7.26145,53308
7.26958,54441
7.27770,51379
7.28582,57472
7.29395,55844
7.30207,56717
7.31018,56491
7.31832,54984
7.32643,54207
7.33457,54157
7.34268,53095
7.35080,55649
7.35893,50257
7.36705,54124
7.37518,54870
7.38330,58057
7.39142,58635
7.39955,60454
7.40767,54690
7.41580,52031
7.42392,55794
7.43203,55375
7.44017,57737
7.44828,57657
7.45640,56400
7.46453,57430
7.47265,53561
7.48078,56372
7.48890,56437
7.49702,53085
7.50515,51660
7.51327,53590
7.52140,52789
7.52952,52426
7.53763,53543
7.54577,55151
7.55388,55762
7.56200,51718
7.57013,54561
7.57825,49655
7.58638,52007
7.59450,53389
7.60262,48964
7.61075,51108
7.61887,55346
7.62700,52138
7.63512,51343
7.64323,54264
7.65137,54627
7.65948,50000
7.66762,52008
7.67573,53586
7.68385,51896
7.69198,53028
7.70010,53896
7.70822,51269
7.71635,52480
7.72447,51118
7.73260,49603
7.74072,50737
7.74883,48922
7.75697,48079
7.76508,49962
7.77322,49108
7.78133,52039
7.78945,50733
7.79758,50385
7.80570,47216
7.81383,44949
7.82195,48821
7.83007,44674
7.83820,50541
7.84632,48370
7.85443,44512
7.86257,44117
7.87068,44370
7.87882,42812
7.88693,44744
7.89505,45169
7.90318,42494
7.91130,44890
7.91943,43029
7.92755,44688
7.93567,43500
7.94380,39052
7.95192,41262
7.96003,43131
7.96817,44352
7.97628,46168
7.98442,40714
7.99253,41937
8.00065,44216
8.00878,42105
8.01690,44131
8.02503,47410
8.03315,45517
8.04127,45795
8.04940,41139
8.05752,39434
8.06565,42259
8.07377,42322
8.08188,41838
8.09002,40931
8.09813,41116
8.10625,42370
8.11438,40678
8.12250,41803
8.13063,39913
8.13875,42189
8.14687,39297
8.15500,38861
8.16312,45123
8.17125,41102
8.17937,40185
8.18748,44961
8.19562,42193
8.20373,40636
8.21187,42965
8.21998,40631
8.22810,39637
8.23623,41096
8.24435,40301
8.25247,40133
8.26060,40257
8.26872,46293
8.27685,38121
8.28497,39363
8.29308,38653
8.30122,35758
8.30933,35201
8.31747,39014
8.32558,42479
8.33370,37263
8.34183,38435
8.34995,39482
8.35807,38305
8.36620,36255
8.37432,39762
8.38245,35900
8.39057,42484
8.39868,190993
8.40682,915181
8.41493,1061479
8.42307,415629
8.43118,172254
8.43930,124096
8.44743,101865
8.45555,84206
8.46368,83347
8.47180,71749
8.47992,69632
8.48805,71622
8.49617,69381
8.50428,67908
8.51242,68566
8.52053,64196
8.52867,60213
8.53678,55227
8.54490,54832
8.55303,56387
8.56115,58096
8.56928,53147
8.57740,51990
8.58552,65364
8.59365,60441
8.60177,57630
8.60988,54631
8.61802,53321
8.62613,47761
8.63427,50531
8.64238,47866
8.65050,47095
8.65863,48980
8.66675,45302
8.67488,44744
8.68300,47175
8.69112,44980
8.69925,59165
8.70737,101954
8.71550,233031
8.72362,514500
8.73173,991996
8.73987,1601197
8.74798,1941090
8.75610,1720067
8.76423,1143636
8.77235,677902
8.78048,411029
8.78860,291659
8.79672,225270
8.80485,269497
8.81297,1086997
8.82110,3217626
8.82922,3613086
8.83733,2410953
8.84547,1732405
8.85358,1332342
8.86172,1037930
8.86983,845373
8.87795,707652
8.88608,614282
8.89420,521260
8.90232,461548
8.91045,406441
8.91857,364220
8.92670,329676
8.93482,302941
8.94293,266617
8.95107,258154
8.95918,239971
8.96732,222202
8.97543,214900
8.98355,195937
8.99168,185792
8.99980,189554
9.00792,186539
9.01605,164860
9.02417,169203
9.03230,165063
9.04042,154901
9.04853,154192
9.05667,148110
9.06478,150503
9.07292,143252
9.08103,137863
9.08915,129376
9.09728,136236
9.10540,124168
9.11353,123196
9.12165,122801
9.12977,124360
9.13790,114880
9.14602,118109
9.15413,121798
9.16227,115652
9.17038,112744
9.17852,109328
9.18663,107970
9.19475,106653
9.20288,112387
9.21100,108484
9.21913,103991
9.22725,106803
9.23537,104775
9.24350,119938
9.25162,121663
9.25975,117461
9.26787,113701
9.27598,107869
9.28412,104687
9.29223,100112
9.30035,100213
9.30848,128249
9.31660,342419
9.32473,896117
9.33285,1265233
9.34097,1074975
9.34910,782116
9.35722,582605
9.36535,491520
9.37347,424811
9.38158,358949
9.38972,311776
9.39783,285144
9.40595,255014
9.41408,228683
9.42220,210943
9.43033,195776
9.43845,182273
9.44657,163798
9.45470,156018
9.46282,145659
9.47095,147683
9.47907,132801
9.48718,127219
9.49532,124306
9.50343,123166
9.51157,112000
9.51968,111621
9.52780,101065
9.53593,96330
9.54405,89996
9.55217,91560
9.56030,91310
9.56842,84742
9.57655,84349
9.58467,83522
9.59278,83703
9.60092,80271
9.60903,80759
9.61717,73990
9.62528,79039
9.63340,76155
9.64153,72293
9.64965,75967
9.65778,75376
9.66590,74941
9.67402,69366
9.68215,66325
9.69027,67449
9.69838,67311
9.70652,71884
9.71463,67583
9.72277,64109
9.73088,64800
9.73900,64542
9.74713,65955
9.75525,65641
9.76338,72721
9.77150,72843
9.77962,69617
9.78775,70013
9.79587,64996
9.80398,66848
9.81212,65738
9.82023,68071
9.82837,71558
9.83648,79707
9.84460,89218
9.85273,80981
9.86085,77320
9.86898,71776
9.87710,60839
9.88522,62623
9.89335,64371
9.90147,61541
9.90960,61054
9.91772,60392
9.92583,56239
9.93397,59296
9.94208,58714
9.95020,56891
9.95833,59287
9.96645,64612
9.97458,68793
9.98270,68985
9.99082,61496
9.99895,70982
10.00707,64804
10.01520,62832
10.02332,75384
10.03143,79057
10.03957,82719
10.04768,86617
10.05580,88195
10.06393,99488
10.07205,97079
10.08018,105058
10.08830,106540
10.09642,103354
10.10455,97087
10.11267,95408
10.12080,80534
10.12892,82580
10.13703,81793
10.14517,80294
10.15328,81150
10.16142,76525
10.16953,72825
10.17765,75240
10.18578,78578
10.19390,70198
10.20202,76014
10.21015,74187
10.21827,73454
10.22640,76174
10.23452,72650
10.24263,71903
10.25077,65908
10.25888,64368
10.26702,71456
10.27513,68542
10.28325,70324
10.29138,69446
10.29950,68486
10.30763,77494
10.31575,69279
10.32387,68420
10.33200,66967
10.34012,66463
10.34823,64140
10.35637,63051
10.36448,64397
10.37262,60271
10.38073,59737
10.38885,59695
10.39698,61906
10.40510,61148
10.41323,61643
10.42135,57240
10.42947,62344
10.43760,58881
10.44572,61462
10.45383,56155
10.46197,57071
10.47008,58399
10.47822,54652
10.48633,55789
10.49445,60428
10.50258,58624
10.51070,57216
10.51883,55611
10.52695,56337
10.53507,54992
10.54320,54345
10.55132,56204
10.55945,55851
10.56757,53153
10.57568,54032
10.58382,56368
10.59193,55300
10.60005,55042
10.60818,55607
10.61630,56152
10.62443,53003
10.63255,53655
10.64067,52374
10.64880,54975
10.65692,48553
10.66505,54507
10.67317,50642
10.68128,54315
10.68942,52434
10.69753,49689
10.70567,51092
10.71378,53013
10.72190,50401
10.73003,51386
10.73815,52821
10.74627,51868
10.75440,52844
10.76252,50907
10.77065,51282
10.77877,52472
10.78688,55120
10.79502,51290
10.80313,47912
10.81127,50634
10.81938,53082
10.82750,47995
10.83563,49946
10.84375,51782
10.85187,49441
10.86000,48227
10.86812,47000
10.87625,53845
10.88437,52603
10.89248,47045
10.90062,46064
10.90873,53052
10.91687,49739
10.92498,57469
10.93310,81864
10.94123,136936
10.94935,182390
10.95748,196427
10.96560,172493
10.97372,139920
10.98185,117949
10.98997,102323
10.99808,90726
11.00622,79776
11.01433,77032
11.02247,73264
11.03058,70102
11.03870,66171
11.04683,66333
11.05495,61523
11.06308,56912
11.07120,55086
11.07932,57706
11.08745,59138
11.09557,57631
11.10368,56374
11.11182,57159
11.11993,55039
11.12807,54238
11.13618,59365
11.14430,60531
11.15243,61465
11.16055,56746
11.16868,57659
11.17680,57011
11.18492,54991
11.19305,54582
11.20117,47632
11.20930,49824
11.21742,49768
11.22553,50331
11.23367,49936
11.24178,48150
11.24990,51169
11.25803,46799
11.26615,48928
11.27428,48155
11.28240,53017
11.29052,44717
11.29865,48629
11.30677,47320
11.31490,48690
11.32302,48112
11.33113,49382
11.33927,49755
11.34738,52028
11.35552,46748
11.36363,47607
11.37175,47708
11.37988,48081
11.38800,48650
11.39612,49167
11.40425,46856
11.41237,49128
11.42050,45397
11.42862,47143
11.43673,44502
11.44487,47644
11.45298,51669
11.46112,44752
11.46923,46548
11.47735,47794
11.48548,50216
11.49360,46827
11.50173,48579
11.50985,46016
11.51797,44165
11.52610,45695
11.53422,48584
11.54233,45594
11.55047,47460
11.55858,46629
11.56672,46463
11.57483,47570
11.58295,46172
11.59108,43907
11.59920,45548
11.60733,46291
11.61545,45773
11.62357,46299
11.63170,48262
11.63982,43133
11.64793,40971
11.65607,42452
11.66418,46401
11.67232,43371
11.68043,47685
11.68855,49719
11.69668,45087
11.70480,47750
11.71293,49125
11.72105,47939
11.72917,50399
11.73730,45634
11.74542,44881
11.75355,45828
11.76167,48948
11.76978,47923
11.77792,45924
11.78603,42441
11.79415,48771
11.80228,49210
11.81040,46876
11.81853,50012
11.82665,48734
11.83477,42761
11.84290,47615
11.85102,47155
11.85915,43632
11.86727,45151
11.87538,47072
11.88352,46499
11.89163,47980
11.89975,45551
11.90788,42417
11.91600,42427
11.92413,43802
11.93225,48389
11.94037,45209
11.94850,44053
11.95662,46394
11.96475,44713
11.97287,46340
11.98098,45492
11.98912,42980
11.99723,45838
12.00537,44904
12.01348,43498
12.02160,44529
12.02973,44896
12.03785,45370
12.04597,41123
12.05410,41926
12.06222,42414
12.07035,47492
12.07847,41531
12.08658,40764
12.09472,44820
12.10283,40245
12.11097,48909
12.11908,42603
12.12720,44668
12.13533,46443
12.14345,43375
12.15158,41756
12.15970,42233
12.16782,45560
12.17595,46569
12.18407,45729
12.19218,45977
12.20032,45881
12.20843,41932
12.21657,44337
12.22468,44172
12.23280,45408
12.24093,43314
12.24905,43981
12.25718,41376
12.26530,40018
12.27342,41248
12.28155,40743
12.28967,44029
12.29778,40604
12.30592,41157
12.31403,43020
12.32217,48203
12.33028,42042
12.33840,40560
12.34653,41537
12.35465,40567
12.36278,41287
12.37090,42103
12.37902,39542
12.38715,42252
12.39527,41610
12.40340,42510
12.41152,44109
12.41963,43472
12.42777,40850
12.43588,42681
12.44400,41950
12.45213,43466
12.46025,43270
12.46838,40854
12.47650,40948
12.48462,42918
12.49275,42801
12.50087,41982
12.50900,42627
12.51712,39417
12.52523,42704
12.53337,43738
12.54148,42630
12.54962,42047
12.55773,37990
12.56585,42811
12.57398,39045
12.58210,39030
12.59022,42952
12.59835,45115
12.60647,40319
12.61460,37588
12.62272,42434
12.63083,41906
12.63897,40674
12.64708,39681
12.65522,41608
12.66333,39142
12.67145,44807
12.67958,40387
12.68770,42727
12.69582,41324
12.70395,37947
12.71207,39559
12.72020,40436
12.72832,40114
12.73643,39767
12.74457,40807
12.75268,42475
12.76082,40428
12.76893,37748
12.77705,41535
12.78518,37609
12.79330,36489
12.80143,37724
12.80955,39248
12.81767,36099
12.82580,39960
12.83392,35994
12.84203,35287
12.85017,40265
12.85828,35054
12.86642,39022
12.87453,36969
12.88265,39754
12.89078,34432
12.89890,41365
12.90703,43500
12.91515,36870
12.92327,39916
12.93140,39710
12.93952,38049
12.94763,35674
12.95577,37647
12.96388,38397
12.97202,38674
12.98013,39001
12.98825,37697
12.99638,35767
13.00450,38781
13.01263,41959
13.02075,39294
13.02887,40575
13.03700,40613
13.04512,36354
13.05325,42923
13.06137,34805
13.06948,37286
13.07762,35877
13.08573,40255
13.09385,42609
13.10198,39078
13.11010,37592
13.11823,39399
13.12635,41848
13.13447,44377
13.14260,41009
13.15072,44037
13.15885,38828
13.16697,41215
13.17508,39862
13.18322,41673
13.19133,40050
13.19947,39957
13.20758,38706
13.21570,39817
13.22383,40140
13.23195,40267
13.24007,42714
13.24820,38394
13.25632,36523
13.26445,37626
13.27257,38361
13.28068,37172
13.28882,39196
13.29693,37602
13.30507,40470
13.31318,43274
13.32130,40781
13.32943,41449
13.33755,37694
13.34567,38216
13.35380,45550
13.36192,39872
13.37005,39607
13.37817,39346
13.38628,35907
13.39442,39377
13.40253,40766
13.41067,36475
13.41878,37081
13.42690,38379
13.43503,39562
13.44315,37941
13.45128,37589
13.45940,36821
13.46752,37604
13.47565,35783
13.48377,34896
13.49188,36673
13.50002,37610
13.50813,34896
13.51627,37463
13.52438,39605
13.53250,35730
13.54063,37902
13.54875,34498
13.55688,35125
13.56500,40192
13.57312,39257
13.58125,37101
13.58937,34962
13.59750,40914
13.60562,39579
13.61373,36725
13.62187,34628
13.62998,37872
13.63810,36755
13.64623,37808
13.65435,39331
13.66248,38373
13.67060,42188
13.67872,34373
13.68685,36968
13.69497,39383
13.70310,39160
13.71122,36167
13.71933,36472
13.72747,36888
13.73558,36943
13.74370,40500
13.75183,39865
13.75995,37422
13.76808,37725
13.77620,36938
13.78432,39038
13.79245,35734
13.80057,38569
13.80870,37699
13.81682,38452
13.82493,38786
13.83307,38532
13.84118,36759
13.84932,40125
13.85743,38612
13.86555,42490
13.87368,39174
13.88180,41660
13.88992,40931
13.89805,41939
13.90617,39295
13.91430,40172
13.92242,38959
13.93053,38693
13.93867,38495
13.94678,37517
13.95492,36662
13.96303,38164
13.97115,39032
13.97928,40122
13.98740,39363
13.99553,38818
14.00365,39140
14.01177,39020
14.01990,39189
14.02802,40676
14.03613,38389
14.04427,34902
14.05238,35466
14.06052,37811
14.06863,39016
14.07675,38307
14.08488,37150
14.09300,45511
14.10113,54893
14.10925,98220
14.11737,165153
14.12550,264707
14.13362,363132
14.14173,398297
14.14987,358457
14.15798,281241
14.16612,201372
14.17423,149299
14.18235,119946
14.19048,109728
14.19860,101495
14.20673,93972
14.21485,85685
14.22297,87377
14.23110,79360
14.23922,76357
14.24735,75444
14.25547,74099
14.26358,72211
14.27172,70411
14.27983,67660
14.28795,60888
14.29608,53886
14.30420,53104
14.31233,48552
14.32045,48158
14.32857,42995
14.33670,43665
14.34482,39089
14.35295,42290
14.36107,42198
14.36918,45534
14.37732,38692
14.38543,41492
14.39355,43038
14.40168,40351
14.40980,44378
14.41793,41453
14.42605,42607
14.43417,42498
14.44230,40368
14.45042,40883
14.45855,38469
14.46667,35730
14.47478,36860
14.48292,35705
14.49103,40693
14.49917,37261
14.50728,37540
14.51540,37745
14.52353,39741
14.53165,34930
14.53977,35495
14.54790,34321
14.55602,37431
14.56415,36648
14.57227,40353
14.58038,32656
14.58852,38302
14.59663,36467
14.60477,36686
14.61288,32969
14.62100,37284
14.62913,36482
14.63725,36250
14.64538,31007
14.65350,31353
14.66162,32356
14.66975,33149
14.67787,33368
14.68598,33016
14.69412,39735
14.70223,48055
14.71037,54920
14.71848,59273
14.72660,58347
14.73473,50703
14.74285,45280
14.75098,42140
14.75910,37354
14.76722,35358
14.77535,31841
14.78347,29898
14.79158,33630
14.79972,30295
14.80783,31384
14.81597,32387
14.82408,32282
14.83220,31975
14.84033,33533
14.84845,30364
14.85658,29915
14.86470,32675
14.87282,34613
14.88095,32535
14.88907,31345
14.89720,32270
14.90532,31015
14.91343,31078
14.92157,29425
14.92968,29218
14.93780,31445
14.94593,28192
14.95405,32090
14.96218,30375
14.97030,30875
14.97842,33935
14.98655,27852
14.99467,29171
15.00280,28568
15.01092,26037
15.01903,29384
15.02717,27620
15.03528,27074
15.04342,27693
15.05153,27851
15.05965,27434
15.06778,27061
15.07590,28760
15.08402,24832
15.09215,25819
15.10027,27233
15.10840,27159
15.11652,26777
15.12463,27199
15.13277,26896
15.14088,25120
15.14902,27318
15.15713,25143
15.16525,26248
15.17338,22144
15.18150,25323
15.18962,26453
15.19775,29930
15.20587,23860
15.21400,24232
15.22212,26355
15.23023,23429
15.23837,24385
15.24648,28472
15.25462,24300
15.26273,25599
15.27085,25960
15.27898,20842
15.28710,23664
15.29523,24931
15.30335,23626
15.31147,19749
15.31960,22059
15.32772,20187
15.33583,23021
15.34397,22083
15.35208,22921
15.36022,23829
15.36833,26651
15.37645,22339
15.38458,19280
15.39270,21224
15.40083,21382
15.40895,22939
15.41707,20325
15.42520,21416
15.43332,23759
15.44143,22485
15.44957,21908
15.45768,19539
15.46582,19133
15.47393,21351
15.48205,22966
15.49018,23027
15.49830,21423
15.50643,19264
15.51455,20026
15.52267,21798
15.53080,20699
15.53892,20048
15.54705,19413
15.55517,20399
15.56328,18497
15.57142,21481
15.57953,22736
15.58765,19266
15.59578,19350
15.60390,21564
15.61203,22081
15.62015,20543
15.62827,19946
15.63640,19595
15.64452,22919
15.65265,21506
15.66077,19587
15.66888,18248
15.67702,19943
15.68513,19569
15.69327,19960
15.70138,24525
15.70950,19570
15.71763,17775
15.72575,23342
15.73387,19762
15.74200,21377
15.75012,21757
15.75825,20592
15.76637,21079
15.77448,20316
15.78262,21823
15.79073,25751
15.79887,24430
15.80698,20922
15.81510,23861
15.82323,19714
15.83135,21370
15.83948,22354
15.84760,21056
15.85572,20382
15.86385,22418
15.87197,21270
15.88008,23931
15.88822,19814
15.89633,21197
15.90447,19559
15.91258,19409
15.92070,21896
15.92883,21260
15.93695,19937
15.94508,20145
15.95320,23442
15.96132,18283
15.96945,18228
15.97757,20677
15.98568,20931
15.99382,22884
16.00193,21788
16.01007,21142
16.01818,19478
16.02630,21519
16.03443,20432
16.04255,20454
16.05068,22071
16.05880,21352
16.06692,21979
16.07505,20472
16.08317,21840
16.09130,19900
16.09942,20700
16.10753,21440
16.11567,19188
16.12378,25441
16.13190,22111
16.14003,18993
16.14815,21878
16.15628,19090
16.16440,21017
16.17252,23535
16.18065,20560
16.18877,18509
16.19690,17954
16.20502,19063
16.21313,19206
16.22127,21370
16.22938,18624
16.23750,20484
16.24563,21868
16.25375,21109
16.26188,17729
16.27000,19725
16.27812,20592
16.28625,19980
16.29437,18713
16.30250,21175
16.31062,22218
16.31873,20105
16.32687,22860
16.33498,21724
16.34312,21072
16.35123,22947
16.35935,21040
16.36748,21391
16.37560,21219
16.38372,22042
16.39185,19493
16.39997,22793
16.40810,19526
16.41622,20007
16.42433,19412
16.43247,18161
16.44058,25562
16.44872,21026
16.45683,19773
16.46495,17137
16.47308,22047
16.48120,20661
16.48933,20734
16.49745,20533
16.50557,21665
16.51370,23994
16.52182,18857
16.52993,23805
16.53807,21625
16.54618,20608
16.55432,21733
16.56243,17487
16.57055,20166
16.57868,21035
16.58680,21385
16.59493,21296
16.60305,20047
16.61117,20301
16.61930,20417
16.62742,18797
16.63553,19651
16.64367,21904
16.65178,20216
16.65992,21748
16.66803,18762
16.67615,19915
16.68428,20000
16.69240,21544
16.70053,19643
16.70865,21553
16.71677,20521
16.72490,17709
16.73302,19426
16.74115,18566
16.74927,20392
16.75738,20780
16.76552,18154
16.77363,20153
16.78175,17616
16.78988,18527
16.79800,20732
16.80613,20202
16.81425,20656
16.82237,19323
16.83050,19397
16.83862,18572
16.84675,19630
16.85487,17659
16.86298,19217
16.87112,19831
16.87923,19807
16.88737,18692
16.89548,22092
16.90360,22206
16.91173,18753
16.91985,18750
16.92797,19585
16.93610,21527
16.94422,20493
16.95235,21742
16.96047,20754
16.96858,18192
16.97672,19155
16.98483,20724
16.99297,18267
17.00108,20710
17.00920,19744
17.01733,20321
17.02545,17355
17.03357,20062
17.04170,22093
17.04982,20608
17.05795,20659
17.06607,21402
17.07418,21168
17.08232,20807
17.09043,20220
17.09857,20458
17.10668,21193
17.11480,21289
17.12293,20138
17.13105,20433
17.13918,21142
17.14730,21541
17.15542,22412
17.16355,23675
17.17167,19696
17.17978,23058
17.18792,22058
17.19603,19735
17.20417,20616
17.21228,21189
17.22040,22209
17.22853,20521
17.23665,21039
17.24478,19130
17.25290,23607
17.26102,20019
17.26915,20637
17.27727,24696
17.28538,19817
17.29352,25451
17.30163,24570
17.30977,23442
17.31788,27298
17.32600,25493
17.33413,22229
17.34225,22821
17.35038,25301
17.35850,24882
17.36662,22817
17.37475,24476
17.38287,25308
17.39100,26614
17.39912,28916
17.40723,27481
17.41537,23344
17.42348,23618
17.43160,24110
17.43973,22414
17.44785,23942
17.45598,21480
17.46410,21723
17.47222,25399
17.48035,20389
17.48847,22495
17.49660,22212
17.50472,24874
17.51283,22871
17.52097,25070
17.52908,22054
17.53722,23608
17.54533,24339
17.55345,21443
17.56158,26224
17.56970,26483
17.57782,22569
17.58595,23250
17.59407,22327
17.60220,21982
17.61032,21073
17.61843,22288
17.62657,19681
17.63468,22660
17.64282,21826
17.65093,23367
17.65905,23013
17.66718,27935
17.67530,24468
17.68342,24248
17.69155,21471
17.69967,25170
17.70780,25465
17.71592,21550
17.72403,26503
17.73217,22129
17.74028,24804
17.74842,24074
17.75653,25011
17.76465,19703
17.77278,22326
17.78090,20844
17.78903,23378
17.79715,21500
17.80527,20266
17.81340,22825
17.82152,21658
17.82963,23122
17.83777,21984
17.84588,26537
17.85402,22000
17.86213,22988
17.87025,22916
17.87838,19940
17.88650,23110
17.89463,22219
17.90275,24523
17.91087,19453
17.91900,19126
17.92712,20498
17.93525,19445
17.94337,19226
17.95148,20071
17.95962,20240
17.96773,21027
17.97585,20739
17.98398,19616
17.99210,20546
18.00023,24122
18.00835,24674
18.01647,22225
18.02460,20708
18.03272,22719
18.04085,20935
18.04897,21014
18.05708,20885
18.06522,21428
18.07333,24620
18.08145,20931
18.08958,21660
18.09770,26684
18.10583,23349
18.11395,25842
18.12207,22685
18.13020,23764
18.13832,21806
18.14645,20277
18.15457,23980
18.16268,20897
18.17082,20976
18.17893,20639
18.18707,19677
18.19518,22948
18.20330,22966
18.21143,22659
18.21955,21990
18.22767,22600
18.23580,21719
18.24392,23245
18.25205,24122
18.26017,25390
18.26828,24524
18.27642,21474
18.28453,23685
18.29267,25304
18.30078,19720
18.30890,19303
18.31703,21251
18.32515,17966
18.33327,22858
18.34140,21674
18.34952,22575
18.35765,20749
18.36577,19637
18.37388,20573
18.38202,20651
18.39013,22335
18.39827,23593
18.40638,22438
18.41450,21956
18.42263,21004
18.43075,21545
18.43888,21930
18.44700,22101
18.45512,20452
18.46325,18599
18.47137,19873
18.47948,21032
18.48762,19587
18.49573,20508
18.50387,21003
18.51198,20596
18.52010,19761
18.52823,19369
18.53635,17842
18.54448,21460
18.55260,20444
18.56072,19414
18.56885,20802
18.57697,21469
18.58510,20713
18.59322,23358
18.60133,22004
18.60947,22153
18.61758,28041
18.62570,27425
18.63383,27974
18.64195,29234
18.65008,29480
18.65820,28338
18.66632,28121
18.67445,31812
18.68257,30988
18.69070,31919
18.69882,31751
18.70693,33713
18.71507,32560
18.72318,28699
18.73130,31835
18.73943,29729
18.74755,30080
18.75568,32066
18.76380,33033
18.77192,28828
18.78005,35882
18.78817,31079
18.79630,31927
18.80442,34307
18.81253,32039
18.82067,31318
18.82878,30470
18.83692,30717
18.84503,33312
18.85315,28366
18.86128,28924
18.86940,30514
18.87752,33812
18.88565,26182
18.89377,30849
18.90190,28135
18.91002,30910
18.91813,28523
18.92627,27499
18.93438,29716
18.94252,29499
18.95063,26266
18.95875,27295
18.96688,26950
18.97500,27084
18.98313,26125
18.99125,28808
18.99937,27298
19.00750,26762
19.01562,26491
19.02373,24311
19.03187,28056
19.03998,28293
19.04812,27735
19.05623,29268
19.06435,27851
19.07248,28677
19.08060,28857
19.08873,29648
19.09685,30282
19.10497,33514
19.11310,30841
19.12122,32235
19.12933,32382
19.13747,31637
19.14558,31753
19.15372,28719
19.16183,28764
19.16995,31265
19.17808,30513
19.18620,31109
19.19433,28283
19.20245,29019
19.21057,28783
19.21870,29432
19.22682,29336
19.23495,28604
19.24307,24563
19.25118,27215
19.25932,31006
19.26743,27540
19.27555,29056
19.28368,31598
19.29180,29008
19.29993,30804
19.30805,27010
19.31617,27003
19.32430,29491
19.33242,28657
19.34055,27292
19.34867,27833
19.35678,27224
19.36492,26384
19.37303,27419
19.38117,28060
19.38928,32918
19.39740,39904
19.40553,56510
19.41365,83416
19.42177,128364
19.42990,158560
19.43802,167287
19.44615,150147
19.45427,116342
19.46238,84362
19.47052,55526
19.47863,48335
19.48677,39197
19.49488,36689
19.50300,37159
19.51113,32073
19.51925,33332
19.52737,35104
19.53550,41738
19.54362,43908
19.55175,41020
19.55987,40925
19.56798,37123
19.57612,32341
19.58423,32411
19.59237,31795
19.60048,36133
19.60860,47410
19.61673,73849
19.62485,107651
19.63298,143571
19.64110,185487
19.64922,209989
19.65735,204275
19.66547,170742
19.67358,131534
19.68172,107006
19.68983,81050
19.69797,64106
19.70608,62161
19.71420,49689
19.72233,45971
19.73045,42916
19.73858,43052
19.74670,36761
19.75482,37078
19.76295,35965
19.77107,32604
19.77918,35623
19.78732,31629
19.79543,31212
19.80357,29348
19.81168,28861
19.81980,29422
19.82793,32905
19.83605,29211
19.84418,27978
19.85230,28728
19.86042,32783
19.86855,36326
19.87667,50747
19.88480,53044
19.89292,67099
19.90103,86007
19.90917,85493
19.91728,88438
19.92540,76571
19.93353,75196
19.94165,65116
19.94978,61942
19.95790,61799
19.96602,51397
19.97415,50401
19.98227,48742
19.99040,47340
19.99852,47744
20.00663,45157
20.01477,45528
20.02288,41507
20.03102,44514
20.03913,44564
20.04725,38586
20.05538,33975
20.06350,33542
20.07162,28958
20.07975,31936
20.08787,33076
20.09600,28021
20.10412,29750
20.11223,29227
20.12037,29585
20.12848,32512
20.13662,30130
20.14473,29094
20.15285,28441
20.16098,28748
20.16910,29942
20.17722,28359
20.18535,29576
20.19347,32313
20.20160,35578
20.20972,48394
20.21783,67428
20.22597,84786
20.23408,115952
20.24222,127610
20.25033,125804
20.25845,113791
20.26658,91827
20.27470,87625
20.28283,64849
20.29095,49941
20.29907,44637
20.30720,42965
20.31532,35330
20.32343,31688
20.33157,33294
20.33968,30424
20.34782,33296
20.35593,31254
20.36405,37237
20.37218,37893
20.38030,43636
20.38843,53304
20.39655,64094
20.40467,76732
20.41280,80027
20.42092,76886
20.42905,69753
20.43717,65134
20.44528,49707
20.45342,43565
20.46153,41855
20.46965,41700
20.47778,33932
20.48590,37530
20.49403,34888
20.50215,32405
20.51027,32864
20.51840,28027
20.52652,32162
20.53465,32111
20.54277,30247
20.55088,32245
20.55902,30305
20.56713,33758
20.57525,32767
20.58338,31432
20.59150,31834
20.59963,30945
20.60775,32629
20.61587,29149
20.62400,28031
20.63212,26152
20.64025,31122
20.64837,23866
20.65648,24820
20.66462,26584
20.67273,28015
20.68087,25473
20.68898,27280
20.69710,25793
20.70523,24737
20.71335,25804
20.72147,25083
20.72960,30047
20.73772,24448
20.74585,27563
20.75397,28992
20.76208,27416
20.77022,27229
20.77833,28240
20.78647,23360
20.79458,24582
20.80270,26099
20.81083,24777
20.81895,25357
20.82707,24807
20.83520,22752
20.84332,26171
20.85145,24807
20.85957,23065
20.86768,23996
20.87582,23034
20.88393,24086
20.89207,25623
20.90018,24287
20.90830,24048
20.91643,19904
20.92455,23766
20.93268,26792
20.94080,23961
20.94892,23149
20.95705,24173
20.96517,23001
20.97328,24950
20.98142,21426
20.98953,24677
20.99767,26578
21.00578,24155
21.01390,22808
21.02203,24403
21.03015,21713
21.03828,22583
21.04640,20815
21.05452,20434
21.06265,21203
21.07077,24268
21.07890,21707
21.08702,19482
21.09513,23490
21.10327,23683
21.11138,23482
21.11950,23565
21.12763,22968
21.13575,23480
21.14388,27589
21.15200,27357
21.16012,27305
21.16825,24415
21.17637,25574
21.18450,24902
21.19262,24305
21.20073,23853
21.20887,22720
21.21698,23763
21.22512,25503
21.23323,24192
21.24135,23954
21.24948,25557
21.25760,20180
21.26572,23423
21.27385,23496
21.28197,24689
21.29010,23093
21.29822,24181
21.30633,23230
21.31447,23630
21.32258,23394
21.33072,21705
21.33883,24045
21.34695,23972
21.35508,25154
21.36320,23195
21.37132,22276
21.37945,25763
21.38757,22904
21.39570,20896
21.40382,23871
21.41193,19982
21.42007,23528
21.42818,22055
21.43632,24161
21.44443,24130
21.45255,22757
21.46068,23393
21.46880,23791
21.47693,23336
21.48505,23720
21.49317,23526
21.50130,22688
21.50942,20117
21.51753,25428
21.52567,22707
21.53378,23723
21.54192,28531
21.55003,31062
21.55815,38687
21.56628,47002
21.57440,53980
21.58253,60970
21.59065,62432
21.59877,57769
21.60690,50884
21.61502,46588
21.62313,33323
21.63127,31054
21.63938,31357
21.64752,28792
21.65563,30730
21.66375,35492
21.67188,34261
21.68000,36524
21.68813,33117
21.69625,32071
21.70437,26384
21.71250,28738
21.72062,26616
21.72875,25294
21.73687,26636
21.74498,29502
21.75312,35556
21.76123,40831
21.76935,47697
21.77748,55239
21.78560,51147
21.79373,48385
21.80185,42100
21.80997,38375
21.81810,31798
21.82622,29692
21.83435,25856
21.84247,26109
21.85058,30449
21.85872,29747
21.86683,29009
21.87497,27288
21.88308,27625
21.89120,30582
21.89933,23582
21.90745,23549
21.91557,24606
21.92370,23637
21.93182,24469
21.93995,22586
21.94807,20730
21.95618,21452
21.96432,21052
21.97243,27358
21.98057,22448
21.98868,20056
21.99680,19569
22.00493,21256
22.01305,22463
22.02117,19920
22.02930,21620
22.03742,21590
22.04555,21605
22.05367,23186
22.06178,24152
22.06992,23285
22.07803,25123
22.08617,23745
22.09428,22344
22.10240,21733
22.11053,21289
22.11865,23911
22.12678,24099
22.13490,22298
22.14302,23872
22.15115,25762
22.15927,31507
22.16738,32220
22.17552,27869
22.18363,30631
22.19177,24592
22.19988,22149
22.20800,28592
22.21613,20418
22.22425,19933
22.23238,20213
22.24050,20405
22.24862,21878
22.25675,21661
22.26487,23873
22.27300,21716
22.28112,21113
22.28923,21037
22.29737,21181
22.30548,21569
22.31360,21304
22.32173,21189
22.32985,20331
22.33798,19954
22.34610,23999
22.35422,20433
22.36235,21290
22.37047,20941
22.37860,19253
22.38672,19170
22.39483,23151
22.40297,19577
22.41108,22127
22.41920,18617
22.42733,21010
22.43545,21910
22.44358,19984
22.45170,20476
22.45982,20237
22.46795,19191
22.47607,19942
22.48420,19061
22.49232,24145
22.50043,21222
22.50857,20060
22.51668,19816
22.52482,22259
22.53293,19224
22.54105,20264
22.54918,19422
22.55730,20192
22.56542,18701
22.57355,18049
22.58167,18489
22.58980,17555
22.59792,18678
22.60603,16866
22.61417,17007
22.62228,16366
22.63042,18864
22.63853,17545
22.64665,20007
22.65478,15997
22.66290,18067
22.67102,18919
22.67915,20438
22.68727,21121
22.69540,21372
22.70352,20325
22.71163,19472
22.71977,18901
22.72788,21401
22.73602,19747
22.74413,17930
22.75225,19902
22.76038,20973
22.76850,19056
22.77663,20339
22.78475,19192
22.79287,16737
22.80100,19160
22.80912,18190
22.81723,19677
22.82537,18565
22.83348,18039
22.84162,17234
22.84973,22464
22.85785,22005
22.86598,25357
22.87410,25694
22.88223,29503
22.89035,35385
22.89847,45003
22.90660,62910
22.91472,83400
22.92285,97634
22.93097,105483
22.93908,110981
22.94722,107995
22.95533,99693
22.96345,98354
22.97158,91519
22.97970,79383
22.98783,72801
22.99595,60994
23.00407,55452
23.01220,47214
23.02032,39858
23.02845,36777
23.03657,31665
23.04468,30697
23.05282,30939
23.06093,29080
23.06905,25137
23.07718,28155
23.08530,27048
23.09343,26383
23.10155,27965
23.10967,25305
23.11780,25712
23.12592,27029
23.13405,23023
23.14217,26070
23.15028,25288
23.15842,26524
23.16653,27518
23.17467,29802
23.18278,33714
23.19090,31475
23.19903,35178
23.20715,33493
23.21527,34087
23.22340,34123
23.23152,29491
23.23965,28278
23.24777,30487
23.25588,28741
23.26402,33516
23.27213,30199
23.28027,31881
23.28838,29193
23.29650,28609
23.30463,26351
23.31275,26594
23.32088,26275
23.32900,24067
23.33712,24992
23.34525,23730
23.35337,22998
23.36148,26975
23.36962,25438
23.37773,25123
23.38587,26169
23.39398,27199
23.40210,24307
23.41023,21533
23.41835,24617
23.42648,25543
23.43460,25311
23.44272,21643
23.45085,24048
23.45897,24605
23.46708,26938
23.47522,23289
23.48333,25439
23.49147,24874
23.49958,20879
23.50770,20744
23.51583,22585
23.52395,23625
23.53208,24373
23.54020,22984
23.54832,26904
23.55645,24365
23.56457,26070
23.57270,24950
23.58082,28421
23.58893,27412
23.59707,27239
23.60518,26025
23.61330,31901
23.62143,23547
23.62955,24512
23.63768,28025
23.64580,29363
23.65392,29176
23.66205,27104
23.67017,27231
23.67830,29786
23.68642,28864
23.69453,26441
23.70267,29909
23.71078,34827
23.71892,58853
23.72703,146022
23.73515,374957
23.74328,962596
23.75140,2323711
23.75952,4555150
23.76765,6287063
23.77577,6789338
23.78390,6200830
23.79202,4985139
23.80013,3694773
23.80827,2629690
23.81638,1841253
23.82452,1334729
23.83263,1078465
23.84075,1026826
23.84888,1139323
23.85700,1446781
23.86512,1741859
23.87325,1950439
23.88137,1941214
23.88950,1750817
23.89762,1445671
23.90573,1221798
23.91387,927231
23.92198,704449
23.93012,556285
23.93823,456143
23.94635,373712
23.95448,333649
23.96260,308312
23.97073,278612
23.97885,253438
23.98697,225902
23.99510,211582
24.00322,199801
24.01133,187406
24.01947,185807
24.02758,181759
24.03572,169131
24.04383,166465
24.05195,165039
24.06008,156264
24.06820,158647
24.07633,161320
24.08445,152337
24.09257,139795
24.10070,127835
24.10882,125350
24.11693,126020
24.12507,127401
24.13318,132586
24.14132,132426
24.14943,131377
24.15755,121210
24.16568,111094
24.17380,110336
24.18193,103007
24.19005,103243
24.19817,95323
24.20630,91901
24.21442,88100
24.22255,88815
24.23067,81809
24.23878,83176
24.24692,79145
24.25503,79668
24.26315,78460
24.27128,76755
24.27940,82053
24.28753,97167
24.29565,117564
24.30377,147942
24.31190,183844
24.32002,206276
24.32815,194550
24.33627,164419
24.34438,132821
24.35252,104318
24.36063,87472
24.36877,78361
24.37688,75364
24.38500,71441
24.39313,70342
24.40125,76594
24.40937,84322
24.41750,95417
24.42562,104522
24.43375,105102
24.44187,106325
24.44998,99073
24.45812,90460
24.46623,85463
24.47437,79523
24.48248,75963
24.49060,70518
24.49873,66445
24.50685,63925
24.51497,58019
24.52310,55923
24.53122,60418
24.53935,57833
24.54747,55522
24.55558,55629
24.56372,56175
24.57183,55351
24.57997,57549
24.58808,54791
24.59620,55627
24.60433,54512
24.61245,55882
24.62058,53835
24.62870,54578
24.63682,54650
24.64495,51114
24.65307,58552
24.66118,55746
24.66932,53304
24.67743,51779
24.68557,49695
24.69368,50286
24.70180,44777
24.70993,44724
24.71805,49151
24.72618,46130
24.73430,49352
24.74242,48424
24.75055,44131
24.75867,43177
24.76680,44900
24.77492,41089
24.78303,44916
24.79117,43315
24.79928,40241
24.80740,40969
24.81553,40499
24.82365,44751
24.83178,40425
24.83990,38428
24.84802,43520
24.85615,40396
24.86427,41088
24.87240,38404
24.88052,39653
24.88863,42968
24.89677,38115
24.90488,37543
24.91300,41107
24.92113,40626
24.92925,40438
24.93738,40294
24.94550,40114
24.95362,38883
24.96175,36238
24.96987,36006
24.97800,38045
24.98612,35294
24.99423,38142
25.00237,38753
25.01048,34725
25.01862,35083
25.02673,37412
25.03485,39787
25.04298,35125
25.05110,34245
25.05922,34650
25.06735,33957
25.07547,35011
25.08360,36964
25.09172,35823
25.09983,35815
25.10797,36945
25.11608,38911
25.12422,44039
25.13233,48529
25.14045,53272
25.14858,56852
25.15670,50987
25.16482,47551
25.17295,46930
25.18107,41118
25.18920,44287
25.19732,41136
25.20543,37777
25.21357,36787
25.22168,37324
25.22982,37672
25.23793,36691
25.24605,38094
25.25418,37947
25.26230,37901
25.27043,38810
25.27855,42517
25.28667,44063
25.29480,44989
25.30292,51073
25.31103,48671
25.31917,47447
25.32728,47953
25.33542,46053
25.34353,43522
25.35165,40098
25.35978,39616
25.36790,36072
25.37603,42006
25.38415,40838
25.39227,46599
25.40040,44139
25.40852,46093
25.41665,41368
25.42477,41616
25.43288,39092
25.44102,37756
25.44913,32323
25.45725,34973
25.46538,33799
25.47350,35812
25.48163,33590
25.48975,36761
25.49787,32400
25.50600,33675
25.51412,29621
25.52225,34656
25.53037,32031
25.53848,30610
25.54662,32486
25.55473,32727
25.56285,31008
25.57098,31551
25.57910,33760
25.58723,30496
25.59535,31621
25.60347,29143
25.61160,31574
25.61972,35840
25.62785,31415
25.63597,29764
25.64408,30044
25.65222,29252
25.66033,29222
25.66847,29700
25.67658,35360
25.68470,30238
25.69283,31390
25.70095,35382
25.70907,30047
25.71720,28091
25.72532,30163
25.73345,27837
25.74157,31198
25.74968,27595
25.75782,30501
25.76593,28116
25.77407,27570
25.78218,30736
25.79030,28201
25.79843,35391
25.80655,28460
25.81468,25330
25.82280,30520
25.83092,27322
25.83905,29447
25.84717,29795
25.85528,29236
25.86342,25971
25.87153,26087
25.87967,29801
25.88778,29789
25.89590,26835
25.90403,26910
25.91215,28427
25.92028,32125
25.92840,30501
25.93652,30789
25.94465,29484
25.95277,30186
25.96088,33950
25.96902,30723
25.97713,29199
25.98527,29885
25.99338,26364
26.00150,30363
26.00963,29322
26.01775,31230
26.02588,27651
26.03400,30200
26.04212,25994
26.05025,27617
26.05837,26207
26.06650,27129
26.07462,26272
26.08273,29072
26.09087,26551
26.09898,29932
26.10710,35295
26.11523,32984
26.12335,35121
26.13148,38153
26.13960,35699
26.14772,37077
26.15585,37287
26.16397,37732
26.17210,35652
26.18022,31138
26.18833,33293
26.19647,30817
26.20458,33425
26.21270,29965
26.22083,29838
26.22895,28068
26.23708,30140
26.24520,31381
26.25332,30026
26.26145,32416
26.26957,26232
26.27770,28769
26.28582,28557
26.29393,28273
26.30207,26756
26.31018,31292
26.31832,29256
26.32643,27024
26.33455,29381
26.34268,28114
26.35080,28984
26.35892,28018
26.36705,27192
26.37517,25493
26.38330,27566
26.39142,32689
26.39953,26642
26.40767,29124
26.41578,28301
26.42392,26626
26.43203,25360
26.44015,25723
26.44828,29639
26.45640,28263
26.46453,27887
26.47265,26306
26.48077,26581
26.48890,24944
26.49702,26055
26.50513,25667
26.51327,26725
26.52138,26614
26.52952,27779
26.53763,25852
26.54575,26643
26.55388,29104
26.56200,30865
26.57013,30125
26.57825,29183
26.58637,28553
26.59450,27094
26.60262,29634
26.61075,32604
26.61887,25760
26.62698,27267
26.63512,29334
26.64323,32629
26.65135,31637
26.65948,31899
26.66760,28247
26.67573,29713
26.68385,28004
26.69197,29385
26.70010,26557
26.70822,28659
26.71635,29350
26.72447,29307
26.73258,30326
26.74072,29620
26.74883,31311
26.75695,32088
26.76508,35757
26.77320,34940
26.78133,35387
26.78945,36593
26.79757,33059
26.80570,32419
26.81382,29546
26.82195,29161
26.83007,30908
26.83818,28753
26.84632,30058
26.85443,31527
26.86257,32599
26.87068,30963
26.87880,32468
26.88693,34125
26.89505,32077
26.90317,35851
26.91130,40797
26.91942,48640
26.92755,81282
26.93567,151543
26.94378,299387
26.95192,624148
26.96003,1141251
26.96817,2108399
26.97628,3754934
26.98440,5554583
26.99253,7038118
27.00065,7595456
27.00877,7420800
27.01690,6691776
27.02502,5608612
27.03315,4569932
27.04127,3598724
27.04938,2698739
27.05752,2029232
27.06563,1481722
27.07377,1104212
27.08188,852068
27.09000,664814
27.09813,553106
27.10625,466969
27.11438,418786
27.12250,351268
27.13062,324951
27.13875,285731
27.14687,256891
27.15498,231109
27.16312,219649
27.17123,196991
27.17937,189507
27.18748,182000
27.19560,168534
27.20373,151077
27.21185,143879
27.21998,139477
27.22810,132397
27.23622,126266
27.24435,123266
27.25247,114790
27.26060,109944
27.26872,110805
27.27683,104838
27.28497,98807
27.29308,96409
27.30120,95266
27.30933,92650
27.31745,96462
27.32558,92101
27.33370,90453
27.34182,85428
27.34995,81593
27.35807,81371
27.36620,82576
27.37432,80267
27.38243,79197
27.39057,75717
27.39868,71478
27.40680,77439
27.41493,76293
27.42305,82700
27.43118,82190
27.43930,89299
27.44742,79836
27.45555,77566
27.46367,70023
27.47180,70457
27.47992,68593
27.48803,65694
27.49617,62895
27.50428,62575
27.51242,64458
27.52053,67791
27.52865,67173
27.53678,65910
27.54490,63184
27.55302,57369
27.56115,55951
27.56927,54930
27.57740,52770
27.58552,53601
27.59363,51763
27.60177,50298
27.60988,49168
27.61802,50707
27.62613,47081
27.63425,44561
27.64238,47223
27.65050,49528
27.65863,53490
27.66675,50013
27.67487,50378
27.68300,46636
27.69112,46740
27.69923,47630
27.70737,47523
27.71548,48891
27.72362,44832
27.73173,42697
27.73985,45250
27.74798,44725
27.75610,43764
27.76423,44031
27.77235,47804
27.78047,45164
27.78860,47316
27.79672,44881
27.80483,47783
27.81297,48160
27.82108,44921
27.82922,45640
27.83733,46468
27.84545,43241
27.85358,42458
27.86170,41612
27.86983,39469
27.87795,43967
27.88607,37693
27.89420,37964
27.90232,39612
27.91045,39594
27.91857,40017
27.92668,41735
27.93482,37357
27.94293,37038
27.95105,34761
27.95918,40135
27.96730,39944
27.97543,37942
27.98355,37353
27.99167,36412
27.99980,39752
28.00792,37139
28.01605,36564
28.02417,39406
28.03228,40647
28.04042,41084
28.04853,39045
28.05665,37192
28.06478,38837
28.07290,40994
28.08103,45918
28.08915,48010
28.09727,59644
28.10540,65874
28.11352,65876
28.12165,69090
28.12977,64195
28.13788,55226
28.14602,46271
28.15413,44474
28.16227,48451
28.17038,39922
28.17850,34948
28.18663,38674
28.19475,37141
28.20287,34431
28.21100,37749
28.21912,45375
28.22725,59326
28.23537,76386
28.24348,126364
28.25162,200124
28.25973,287736
28.26787,426244
28.27598,557478
28.28410,719437
28.29223,885033
28.30035,1026091
28.30848,1149707
28.31660,1186982
28.32472,1168467
28.33285,1131387
28.34097,1067692
28.34908,968982
28.35722,852011
28.36533,756064
28.37347,638153
28.38158,558433
28.38970,469475
28.39783,401273
28.40595,351981
28.41408,308004
28.42220,263756
28.43032,240264
28.43845,207647
28.44657,195722
28.45468,172321
28.46282,153004
28.47093,148772
28.47907,129100
28.48718,121738
28.49530,109830
28.50343,114074
28.51155,110379
28.51968,95964
28.52780,95051
28.53592,88216
28.54405,89443
28.55217,83486
28.56030,86808
28.56842,81851
28.57653,80686
28.58467,79568
28.59278,73261
28.60090,72585
28.60903,73095
28.61715,71227
28.62528,77005
28.63340,77120
28.64152,78693
28.64965,87604
28.65777,104447
28.66590,123058
28.67402,145449
28.68213,158429
28.69027,162098
28.69838,147693
28.70652,115459
28.71463,96279
28.72275,81906
28.73088,69912
28.73900,65946
28.74712,65467
28.75525,61722
28.76337,56717
28.77150,59125
28.77962,59127
28.78773,53426
28.79587,56115
28.80398,50653
28.81212,52084
28.82023,52520
28.82835,54782
28.83648,53002
28.84460,52295
28.85272,55223
28.86085,49910
28.86897,53546
28.87710,48857
28.88522,45061
28.89333,47701
28.90147,49581
28.90958,49302
28.91772,48203
28.92583,49348
28.93395,48410
28.94208,52635
28.95020,51571
28.95833,52461
28.96645,53801
28.97457,49301
28.98270,46448
28.99082,47205
28.99893,47711
29.00707,51671
29.01518,44767
29.02332,46249
29.03143,44266
29.03955,42414
29.04768,44284
29.05580,49071
29.06393,42571
29.07205,43235
29.08017,44417
29.08830,42928
29.09642,36946
29.10455,41141
29.11267,44411
29.12078,43624
29.12892,43962
29.13703,43433
29.14515,42567
29.15328,42238
29.16140,44172
29.16953,37405
29.17765,40279
29.18577,39844
29.19390,43149
29.20202,39821
29.21015,39940
29.21827,38393
29.22638,40160
29.23452,36287
29.24263,38912
29.25075,39232
29.25888,40970
29.26700,45296
29.27513,39810
29.28325,40193
29.29137,41858
29.29950,38221
29.30762,41645
29.31575,39583
29.32387,40011
29.33198,39869
29.34012,39180
29.34823,37541
29.35637,40455
29.36448,39446
29.37260,42380
29.38073,46843
29.38885,41851
29.39697,45224
29.40510,47872
29.41322,48833
29.42135,38258
29.42947,39346
29.43758,41049
29.44572,36797
29.45383,40710
29.46197,40181
29.47008,41936
29.47820,42945
29.48633,41481
29.49445,44200
29.50257,39814
29.51070,42073
29.51882,38877
29.52695,38811
29.53507,36714
29.54318,37235
29.55132,34486
29.55943,36679
29.56757,35884
29.57568,34725
29.58380,35168
29.59193,38061
29.60005,36205
29.60818,37681
29.61630,37542
29.62442,37731
29.63255,35489
29.64067,34149
29.64878,33218
29.65692,32005
29.66503,34560
29.67317,31934
29.68128,32629
29.68940,32379
29.69753,34567
29.70565,32356
29.71378,31895
29.72190,34553
29.73002,38283
29.73815,32221
29.74627,31801
29.75440,32024
29.76252,34355
29.77063,33762
29.77877,40494
29.78688,32167
29.79500,31767
29.80313,30418
29.81125,31702
29.81938,29887
29.82750,31607
29.83562,35434
29.84375,38225
29.85187,43974
29.86000,57422
29.86812,81981
29.87623,109604
29.88437,138724
29.89248,186032
29.90060,228643
29.90873,260258
29.91685,293912
29.92498,317138
29.93310,345515
29.94122,358330
29.94935,347057
29.95747,334006
29.96560,331568
29.97372,311788
29.98183,305026
29.98997,285375
29.99808,270051
30.00622,245405
30.01433,230448
30.02245,207385
30.03058,185714
30.03870,177410
30.04682,160818
30.05495,150775
30.06307,143897
30.07120,127924
30.07932,114844
30.08743,106300
30.09557,96748
30.10368,95140
30.11182,89433
30.11993,83209
30.12805,79183
30.13618,71795
30.14430,73022
30.15243,66274
30.16055,69136
30.16867,63977
30.17680,61305
30.18492,62898
30.19303,62753
30.20117,56585
30.20928,53346
30.21742,54070
30.22553,51555
30.23365,49637
30.24178,52091
30.24990,51334
30.25803,50428
30.26615,47712
30.27427,46157
30.28240,49287
30.29052,44979
30.29863,47568
30.30677,47141
30.31488,47003
30.32302,46064
30.33113,44425
30.33925,49188
30.34738,42036
30.35550,42920
30.36363,46793
30.37175,43638
30.37987,41882
30.38800,42402
30.39612,44295
30.40425,40109
30.41237,40082
30.42048,41523
30.42862,41831
30.43673,41616
30.44485,36500
30.45298,35964
30.46110,38863
30.46923,37766
30.47735,39612
30.48547,37881
30.49360,40767
30.50172,38505
30.50985,37332
30.51797,41474
30.52608,37367
30.53422,37333
30.54233,34681
30.55045,39391
30.55858,38565
30.56670,40210
30.57483,38910
30.58295,37365
30.59107,37848
30.59920,37072
30.60732,40439
30.61545,40905
30.62357,34760
30.63168,36114
30.63982,37223
30.64793,34512
30.65607,32382
30.66418,37641
30.67230,33904
30.68043,32894
30.68855,36699
30.69667,36316
30.70480,38525
30.71292,36081
30.72105,37733
30.72917,38628
30.73728,35893
30.74542,34897
30.75353,38284
30.76167,37639
30.76978,40520
30.77790,38401
30.78603,40562
30.79415,38948
30.80228,39967
30.81040,40538
30.81852,40900
30.82665,46257
30.83477,37392
30.84288,37886
30.85102,39204
30.85913,35961
30.86727,42632
30.87538,38699
30.88350,37064
30.89163,40744
30.89975,39003
30.90788,35623
30.91600,36923
30.92412,33967
30.93225,32404
30.94037,33265
30.94848,36266
30.95662,35911
30.96473,34318
30.97287,35401
30.98098,35907
30.98910,36155
30.99723,34593
31.00535,38595
31.01348,34242
31.02160,34277
31.02972,31586
31.03785,33552
31.04597,34105
31.05410,40506
31.06222,39874
31.07033,46571
31.07847,55191
31.08658,61341
31.09470,56309
31.10283,52353
31.11095,52093
31.11908,45649
31.12720,44707
31.13532,43248
31.14345,46268
31.15157,43891
31.15970,48183
31.16782,46527
31.17593,48364
31.18407,51955
31.19218,56563
31.20032,55594
31.20843,52188
31.21655,49428
31.22468,46037
31.23280,41989
31.24092,40542
31.24905,36282
31.25717,34821
31.26530,37225
31.27342,33993
31.28153,35676
31.28967,38581
31.29778,41742
31.30592,44071
31.31403,44314
31.32215,45004
31.33028,44787
31.33840,42382
31.34652,39805
31.35465,37370
31.36277,41561
31.37090,36542
31.37902,37752
31.38713,33897
31.39527,33368
31.40338,37488
31.41152,38863
31.41963,33306
31.42775,34063
31.43588,36693
31.44400,33057
31.45213,32556
31.46025,33241
31.46837,32127
31.47650,33614
31.48462,34709
31.49273,34208
31.50087,33260
31.50898,33505
31.51712,35344
31.52523,33203
31.53335,34753
31.54148,32956
31.54960,30256
31.55773,30668
31.56585,33709
31.57397,33046
31.58210,33393
31.59022,30746
31.59833,31087
31.60647,33835
31.61458,33958
31.62272,34168
31.63083,32446
31.63895,29363
31.64708,32074
31.65520,31082
31.66333,33124
31.67145,33979
31.67957,30888
31.68770,34359
31.69582,29946
31.70395,32084
31.71207,32541
31.72018,30029
31.72832,30502
31.73643,29381
31.74455,31926
31.75268,30922
31.76080,32826
31.76893,32714
31.77705,36642
31.78517,39212
31.79330,42793
31.80142,49216
31.80955,60651
31.81767,83218
31.82578,109241
31.83392,130698
31.84203,167772
31.85017,188013
31.85828,211207
31.86640,223142
31.87453,233760
31.88265,234204
31.89077,224276
31.89890,213807
31.90702,200833
31.91515,187465
31.92327,169797
31.93138,160419
31.93952,153042
31.94763,143900
31.95577,134302
31.96388,141710
31.97200,128896
31.98013,127524
31.98825,113417
31.99638,101533
32.00450,95378
32.01262,76797
32.02075,75137
32.02887,72711
32.03698,64108
32.04512,61570
32.05323,59217
32.06137,56716
32.06948,55638
32.07760,54460
32.08573,54282
32.09385,53504
32.10198,50448
32.11010,49400
32.11822,52613
32.12635,45173
32.13447,45224
32.14258,46118
32.15072,45972
32.15883,45121
32.16697,44756
32.17508,43357
32.18320,42387
32.19133,41856
32.19945,41202
32.20758,39878
32.21570,38720
32.22382,41557
32.23195,42405
32.24007,39055
32.24820,43287
32.25632,39899
32.26443,41118
32.27257,47676
32.28068,40769
32.28880,37551
32.29693,41203
32.30505,38385
32.31318,40222
32.32130,40438
32.32942,40020
32.33755,40671
32.34567,42686
32.35380,42440
32.36192,40021
32.37003,37564
32.37817,37853
32.38628,37935
32.39440,36836
32.40253,36088
32.41065,33922
32.41878,34922
32.42690,39054
32.43502,33761
32.44315,35654
32.45127,36170
32.45940,36011
32.46752,40649
32.47563,36060
32.48377,35326
32.49188,36113
32.50002,37078
32.50813,33836
32.51625,39582
32.52438,35178
32.53250,40823
32.54062,47155
32.54875,58538
32.55687,74810
32.56500,96152
32.57312,106110
32.58123,102545
32.58937,86286
32.59748,73181
32.60562,55258
32.61373,44927
32.62185,47875
32.62998,40797
32.63810,37971
32.64623,39248
32.65435,37678
32.66247,41129
32.67060,42480
32.67872,43397
32.68683,38207
32.69497,41011
32.70308,39469
32.71122,43888
32.71933,41997
32.72745,42417
32.73558,42500
32.74370,39021
32.75183,39237
32.75995,37308
32.76807,36426
32.77620,40709
32.78432,37417
32.79243,35836
32.80057,36116
32.80868,33600
32.81682,34453
32.82493,39498
32.83305,37449
32.84118,37366
32.84930,31958
32.85743,37266
32.86555,36994
32.87367,33999
32.88180,34726
32.88992,35853
32.89805,34631
32.90617,33678
32.91428,35831
32.92242,33868
32.93053,33984
32.93865,35459
32.94678,32876
32.95490,35569
32.96303,35790
32.97115,36338
32.97927,37522
32.98740,37201
32.99552,35578
33.00365,38408
33.01177,36759
33.01988,37031
33.02802,32896
33.03613,36780
33.04427,33037
33.05238,34592
33.06050,38723
33.06863,39100
33.07675,41881
33.08487,50158
33.09300,53771
33.10112,52845
33.10925,54045
33.11737,51899
33.12548,47896
33.13362,44425
33.14173,42925
33.14987,43301
33.15798,43252
33.16610,39106
33.17423,41474
33.18235,37255
33.19047,39015
33.19860,36834
33.20672,39241
33.21485,37649
33.22297,37102
33.23108,33794
33.23922,38038
33.24733,37902
33.25547,35244
33.26358,35307
33.27170,36070
33.27983,35347
33.28795,32104
33.29608,35935
33.30420,39380
33.31232,36573
33.32045,33722
33.32857,34468
33.33668,35193
33.34482,34828
33.35293,35874
33.36107,34776
33.36918,33537
33.37730,36504
33.38543,38344
33.39355,39716
33.40168,35376
33.40980,36706
33.41792,33648
33.42605,40500
33.43417,32884
33.44228,36832
33.45042,38151
33.45853,35176
33.46667,37405
33.47478,38960
33.48290,38302
33.49103,39453
33.49915,39059
33.50728,41132
33.51540,43532
33.52352,42668
33.53165,44109
33.53977,43499
33.54790,43834
33.55602,41148
33.56413,47001
33.57227,51426
33.58038,47827
33.58850,42982
33.59663,41384
33.60475,45466
33.61288,46148
33.62100,41946
33.62912,45934
33.63725,46982
33.64537,45766
33.65350,47360
33.66162,49010
33.66973,47876
33.67787,46731
33.68598,50447
33.69412,48016
33.70223,49231
33.71035,51113
33.71848,52357
33.72660,54031
33.73472,51220
33.74285,53650
33.75097,53540
33.75910,48109
33.76722,46479
33.77533,50485
33.78347,45770
33.79158,44003
33.79972,41934
33.80783,42270
33.81595,48254
33.82408,46682
33.83220,46939
33.84032,48474
33.84845,48824
33.85657,46736
33.86470,46849
33.87282,42140
33.88093,41088
33.88907,42078
33.89718,44614
33.90532,41962
33.91343,40690
33.92155,40752
33.92968,38425
33.93780,38060
33.94593,40315
33.95405,41245
33.96217,36052
33.97030,43396
33.97842,39856
33.98653,38376
33.99467,39197
34.00278,40512
34.01092,40811
34.01903,38919
34.02715,36370
34.03528,41363
34.04340,36174
34.05153,40550
34.05965,39385
34.06777,34672
34.07590,39509
34.08402,37485
34.09215,42640
34.10027,41423
34.10838,38030
34.11652,39094
34.12463,40033
34.13275,39122
34.14088,38310
34.14900,39339
34.15713,38645
34.16525,41380
34.17337,39276
34.18150,40245
34.18962,40380
34.19775,39718
34.20587,37591
34.21398,38638
34.22212,41103
34.23023,39429
34.23835,38597
34.24648,34464
34.25460,41888
34.26273,39001
34.27085,40853
34.27897,42812
34.28710,42857
34.29522,41479
34.30335,40500
34.31147,41778
34.31958,43372
34.32772,47675
34.33583,48273
34.34397,48580
34.35208,51338
34.36020,49562
34.36833,55364
34.37645,57114
34.38457,55319
34.39270,66115
34.40082,62980
34.40895,77878
34.41707,90508
34.42518,117758
34.43332,153777
34.44143,187445
34.44957,226307
34.45768,257969
34.46580,266593
34.47393,263095
34.48205,249999
34.49018,222841
34.49830,197184
34.50642,171390
34.51455,154004
34.52267,137001
34.53078,119615
34.53892,115829
34.54703,96970
34.55517,93173
34.56328,83156
34.57140,81681
34.57953,76824
34.58765,74274
34.59578,68860
34.60390,74886
34.61202,69742
34.62015,70062
34.62827,66251
34.63638,66701
34.64452,60624
34.65263,59799
34.66077,55659
34.66888,56889
34.67700,57587
34.68513,52799
34.69325,53731
34.70138,54024
34.70950,59297
34.71762,51583
34.72575,50233
34.73387,50463
34.74200,50157
34.75012,51524
34.75823,50044
34.76637,51820
34.77448,50673
34.78260,47862
34.79073,48867
34.79885,47622
34.80698,50254
34.81510,45212
34.82322,49021
34.83135,51081
34.83947,50624
34.84760,48296
34.85572,49625
34.86383,49135
34.87197,50909
34.88008,49728
34.88820,50574
34.89633,45459
34.90445,45703
34.91258,47759
34.92070,46844
34.92882,42620
34.93695,45326
34.94507,47430
34.95320,46822
34.96132,46644
34.96943,49324
34.97757,46405
34.98568,45861
34.99382,50249
35.00193,47117
35.01005,46314
35.01818,48712
35.02630,49570
35.03442,53374
35.04255,55730
35.05067,57784
35.05880,58582
35.06692,52980
35.07503,53302
35.08317,52203
35.09128,47762
35.09942,45333
35.10753,45838
35.11565,45055
35.12378,45608
35.13190,49735
35.14003,47060
35.14815,49832
35.15627,47565
35.16440,49687
35.17252,46732
35.18063,48037
35.18877,46859
35.19688,47777
35.20502,50809
35.21313,49574
35.22125,49301
35.22938,47448
35.23750,48366
35.24563,52506
35.25375,47311
35.26187,47977
35.27000,49244
35.27812,52668
35.28623,47680
35.29437,46108
35.30248,43514
35.31062,42396
35.31873,46706
35.32685,45278
35.33498,43625
35.34310,44496
35.35123,43270
35.35935,47882
35.36747,50681
35.37560,42354
35.38372,45169
35.39185,49845
35.39997,42543
35.40808,45012
35.41622,46801
35.42433,49319
35.43245,52797
35.44058,53012
35.44870,60290
35.45683,56428
35.46495,52329
35.47307,54160
35.48120,51993
35.48932,50123
35.49745,52444
35.50557,51848
35.51368,50934
35.52182,50418
35.52993,47430
35.53807,57061
35.54618,60898
35.55430,74812
35.56243,77011
35.57055,80541
35.57867,79711
35.58680,73334
35.59492,64245
35.60305,61306
35.61117,57413
35.61928,51649
35.62742,55560
35.63553,50712
35.64367,55517
35.65178,54380
35.65990,49740
35.66803,47184
35.67615,50968
35.68427,57458
35.69240,51662
35.70052,49261
35.70865,47558
35.71677,50923
35.72488,48357
35.73302,49356
35.74113,51959
35.74927,50601
35.75738,49329
35.76550,53157
35.77363,50567
35.78175,51626
35.78988,52944
35.79800,51552
35.80612,56492
35.81425,54296
35.82237,52544
35.83048,52809
35.83862,51381
35.84673,53271
35.85487,56422
35.86298,50624
35.87110,53274
35.87923,56917
35.88735,58106
35.89548,59826
35.90360,55550
35.91172,52858
35.91985,54558
35.92797,55762
35.93608,57065
35.94422,59952
35.95233,54233
35.96047,57119
35.96858,62357
35.97670,63858
35.98483,63394
35.99295,62586
36.00108,65294
36.00920,67990
36.01732,65662
36.02545,65540
36.03357,60686
36.04170,56514
36.04982,58426
36.05793,55732
36.06607,53850
36.07418,55991
36.08230,52647
36.09043,52991
36.09855,56056
36.10668,50733
36.11480,52622
36.12292,52442
36.13105,54883
36.13917,52625
36.14730,49683
36.15542,54620
36.16353,51562
36.17167,57598
36.17978,62128
36.18792,70739
36.19603,93511
36.20415,111716
36.21228,125837
36.22040,125612
36.22852,115312
36.23665,98906
36.24477,75025
36.25290,67744
36.26102,59381
36.26913,57008
36.27727,53603
36.28538,51683
36.29352,51720
36.30163,54797
36.30975,56790
36.31788,55569
36.32600,57744
36.33412,52387
36.34225,52281
36.35037,53746
36.35850,49957
36.36662,50608
36.37473,54614
36.38287,54100
36.39098,50262
36.39912,52025
36.40723,53335
36.41535,51826
36.42348,53564
36.43160,53246
36.43973,52199
36.44785,53215
36.45597,52494
36.46410,56052
36.47222,52934
36.48033,52349
36.48847,53979
36.49658,51223
36.50472,55513
36.51283,54416
36.52095,47863
36.52908,54931
36.53720,59854
36.54533,63707
36.55345,66463
36.56157,61725
36.56970,61402
36.57782,57131
36.58595,55028
36.59407,53865
36.60218,55708
36.61032,51276
36.61843,55462
36.62655,52095
36.63468,52666
36.64280,50568
36.65093,50223
36.65905,54830
36.66717,54496
36.67530,49659
36.68342,51684
36.69155,53938
36.69967,52895
36.70778,50543
36.71592,53955
36.72403,53737
36.73215,56178
36.74028,54422
36.74840,56582
36.75653,52327
36.76465,52340
36.77277,53819
36.78090,53852
36.78902,52810
36.79715,50670
36.80527,52463
36.81338,50787
36.82152,55747
36.82963,53722
36.83777,56053
36.84588,51373
36.85400,52224
36.86213,52817
36.87025,52415
36.87837,55817
36.88650,49836
36.89462,52213
36.90275,53727
36.91087,51862
36.91898,54118
36.92712,52844
36.93523,55801
36.94337,54905
36.95148,53487
36.95960,55148
36.96773,53404
36.97585,54758
36.98397,50638
36.99210,53528
37.00022,53393
37.00835,57745
37.01647,56789
37.02458,55997
37.03272,56902
37.04083,59087
37.04897,55492
37.05708,58257
37.06520,60900
37.07333,57968
37.08145,63166
37.08958,57784
37.09770,61864
37.10582,63477
37.11395,57261
37.12207,58064
37.13018,55687
37.13832,58478
37.14643,56641
37.15457,58564
37.16268,56126
37.17080,56276
37.17893,57508
37.18705,54368
37.19518,59839
37.20330,64335
37.21142,73181
37.21955,94330
37.22767,123237
37.23580,172598
37.24392,213598
37.25203,241433
37.26017,256571
37.26828,239425
37.27640,216706
37.28453,190603
37.29265,160327
37.30078,145788
37.30890,127373
37.31702,114398
37.32515,111991
37.33327,103849
37.34140,93202
37.34952,89738
37.35763,88634
37.36577,84569
37.37388,85273
37.38202,85347
37.39013,83789
37.39825,83233
37.40638,75677
37.41450,75121
37.42262,77907
37.43075,72121
37.43887,73572
37.44700,66326
37.45512,70996
37.46323,69030
37.47137,71845
37.47948,72294
37.48762,71037
