C:\MassHunter\GCMS\1\data\JTB-E02\BACandBLUE\JTB-E18-009-11.D Thu May 16 13:30:51 2019
Start of data points
2.09537,46013
2.10348,47058
2.11160,44527
2.11973,45362
2.12785,47148
2.13597,48908
2.14410,43054
2.15222,43681
2.16035,46079
2.16847,47578
2.17658,38783
2.18472,39006
2.19283,43268
2.20097,42537
2.20908,42030
2.21720,40459
2.22533,41562
2.23345,41025
2.24158,38959
2.24970,37002
2.25782,38435
2.26595,70700
2.27407,603119
2.28218,1654209
2.29032,1003297
2.29843,406440
2.30657,288216
2.31468,239133
2.32280,209178
2.33093,186554
2.33905,209714
2.34718,169582
2.35530,142766
2.36342,137866
2.37155,125187
2.37967,115640
2.38780,118227
2.39592,111050
2.40403,112086
2.41217,106016
2.42028,109103
2.42840,114254
2.43653,105523
2.44465,98562
2.45278,100804
2.46090,101332
2.46902,94298
2.47715,93678
2.48527,92819
2.49340,121011
2.50152,116315
2.50963,106036
2.51777,92870
2.52588,96551
2.53400,94902
2.54213,92015
2.55025,93653
2.55838,125353
2.56650,164354
2.57462,136657
2.58275,122096
2.59087,105021
2.59900,106050
2.60712,169688
2.61523,394500
2.62337,363669
2.63148,229697
2.63962,161476
2.64773,141116
2.65585,115564
2.66398,105102
2.67210,104270
2.68022,98434
2.68835,98166
2.69647,92275
2.70460,88817
2.71272,88151
2.72083,85598
2.72897,90670
2.73708,87793
2.74522,83437
2.75333,83098
2.76145,78375
2.76958,89406
2.77770,136625
2.78582,469149
2.79395,761253
2.80207,509296
2.81020,293088
2.81832,238985
2.82643,219571
2.83457,189448
2.84268,170157
2.85082,156684
2.85893,135863
2.86705,120163
2.87518,122988
2.88330,115026
2.89143,107838
2.89955,104940
2.90767,101120
2.91580,91993
2.92392,90167
2.93203,94352
2.94017,91639
2.94828,89090
2.95642,87719
2.96453,86266
2.97265,86220
2.98078,82544
2.98890,83185
2.99703,86457
3.00515,89895
3.01327,89504
3.02140,86639
3.02952,80980
3.03765,84348
3.04577,80381
3.05388,80767
3.06202,81788
3.07013,88668
3.07825,99456
3.08638,262331
3.09450,798906
3.10263,1580859
3.11075,2861216
3.11887,3192172
3.12700,2079661
3.13512,1316837
3.14325,1002341
3.15137,794324
3.15948,634416
3.16762,543564
3.17573,494042
3.18385,533000
3.19198,926838
3.20010,1403621
3.20823,1202785
3.21635,844431
3.22447,665055
3.23260,569462
3.24072,481320
3.24885,414309
3.25697,373059
3.26508,336475
3.27322,297231
3.28133,289189
3.28947,437160
3.29758,1304558
3.30570,3453408
3.31383,5462419
3.32195,5264121
3.33007,3571397
3.33820,2207321
3.34632,1484763
3.35445,1107140
3.36257,893998
3.37068,757519
3.37882,660770
3.38693,597876
3.39507,551162
3.40318,518339
3.41130,462431
3.41943,453062
3.42755,429539
3.43568,439563
3.44380,418997
3.45192,405401
3.46005,390624
3.46817,381909
3.47628,391406
3.48442,397511
3.49253,366659
3.50067,355472
3.50878,338104
3.51690,328561
3.52503,327695
3.53315,322990
3.54128,347872
3.54940,348212
3.55752,329828
3.56565,310514
3.57377,301701
3.58188,296218
3.59002,298188
3.59813,297138
3.60627,279683
3.61438,290000
3.62250,289019
3.63063,304717
3.63875,308370
3.64688,306220
3.65500,309189
3.66312,609067
3.67125,2689828
3.67937,7939228
3.68750,1.128546E+07
3.69562,8834161
3.70373,5346930
3.71187,3647738
3.71998,2942137
3.72810,2458809
3.73623,2116470
3.74435,1891366
3.75248,1671735
3.76060,1516973
3.76872,1384119
3.77685,1282862
3.78497,1192595
3.79310,1139119
3.80122,1121951
3.80933,1417801
3.81747,2042686
3.82558,2213738
3.83372,1817615
3.84183,1402369
3.84995,1197106
3.85808,1056927
3.86620,974449
3.87432,885316
3.88245,837638
3.89057,795248
3.89870,764331
3.90682,739910
3.91493,710670
3.92307,790569
3.93118,889307
3.93932,908132
3.94743,835432
3.95555,944652
3.96368,1412801
3.97180,1854997
3.97992,1655451
3.98805,1172458
3.99617,889901
4.00430,1106363
4.01242,1801308
4.02053,2333854
4.02867,2008219
4.03678,1323848
4.04492,878943
4.05303,690047
4.06115,607824
4.06928,537301
4.07740,502673
4.08553,491231
4.09365,473789
4.10177,458766
4.10990,439453
4.11802,421549
4.12613,409837
4.13427,414150
4.14238,449181
4.15052,532913
4.15863,570702
4.16675,535303
4.17488,483433
4.18300,454180
4.19113,423521
4.19925,393052
4.20737,537467
4.21550,1679946
4.22362,5614756
4.23173,1.164543E+07
4.23987,1.523753E+07
4.24798,1.357854E+07
4.25612,8785822
4.26423,5275178
4.27235,3598293
4.28048,2629690
4.28860,2000212
4.29673,1590654
4.30485,1307025
4.31297,1116490
4.32110,989741
4.32922,898380
4.33735,827304
4.34547,769834
4.35358,730445
4.36172,726209
4.36983,747085
4.37795,714267
4.38608,664492
4.39420,602917
4.40233,541052
4.41045,523562
4.41857,496156
4.42670,480702
4.43482,467620
4.44295,441301
4.45107,429848
4.45918,426113
4.46732,414864
4.47543,398087
4.48357,388903
4.49168,393153
4.49980,391695
4.50793,377363
4.51605,363957
4.52417,355542
4.53230,352432
4.54042,351880
4.54855,364195
4.55667,351266
4.56478,350609
4.57292,333386
4.58103,326668
4.58917,321703
4.59728,313051
4.60540,308421
4.61353,311916
4.62165,324579
4.62977,399847
4.63790,556819
4.64602,710105
4.65415,695712
4.66227,574864
4.67038,448612
4.67852,388485
4.68663,373566
4.69477,346454
4.70288,325854
4.71100,306893
4.71913,306701
4.72725,299962
4.73538,304590
4.74350,297648
4.75162,275786
4.75975,269902
4.76787,266278
4.77598,268783
4.78412,288770
4.79223,440635
4.80037,910379
4.80848,1503737
4.81660,1710408
4.82473,1378404
4.83285,992710
4.84098,804025
4.84910,725268
4.85722,660010
4.86535,583835
4.87347,520406
4.88160,452644
4.88972,436620
4.89783,412381
4.90597,390176
4.91408,368694
4.92220,355397
4.93033,380781
4.93845,517300
4.94658,982221
4.95470,1947823
4.96282,3117152
4.97095,3680252
4.97907,3265425
4.98720,2366890
4.99532,1544292
5.00343,1085626
5.01157,835822
5.01968,697898
5.02780,645355
5.03593,675954
5.04405,747079
5.05218,745358
5.06030,668770
5.06842,593265
5.07655,540946
5.08467,511160
5.09280,487717
5.10092,477450
5.10903,444860
5.11717,434090
5.12528,422623
5.13342,413645
5.14153,408891
5.14965,409550
5.15778,449947
5.16590,507695
5.17402,539437
5.18215,530931
5.19027,492290
5.19840,463367
5.20652,488930
5.21463,487573
5.22277,485318
5.23088,449967
5.23902,433146
5.24713,411870
5.25525,388805
5.26338,361844
5.27150,330065
5.27962,322383
5.28775,306121
5.29587,304635
5.30400,305932
5.31212,295124
5.32023,305229
5.32837,308175
5.33648,311264
5.34462,328073
5.35273,316630
5.36085,309064
5.36898,296793
5.37710,287631
5.38523,278940
5.39335,300109
5.40147,314098
5.40960,307270
5.41772,301469
5.42583,289563
5.43397,282380
5.44208,274589
5.45022,280980
5.45833,286690
5.46645,288532
5.47458,279715
5.48270,268370
5.49083,269598
5.49895,257549
5.50707,253692
5.51520,253231
5.52332,265599
5.53145,258586
5.53957,254356
5.54768,250286
5.55582,280204
5.56393,329106
5.57205,404362
5.58018,447191
5.58830,445903
5.59643,386068
5.60455,323295
5.61267,279678
5.62080,274584
5.62892,267202
5.63705,258182
5.64517,256376
5.65328,247249
5.66142,242074
5.66953,241459
5.67765,260700
5.68578,273509
5.69390,305484
5.70203,309377
5.71015,295543
5.71827,266769
5.72640,256669
5.73452,235063
5.74265,239030
5.75077,223611
5.75888,229167
5.76702,222651
5.77513,224248
5.78327,216942
5.79138,215766
5.79950,212604
5.80763,206928
5.81575,217350
5.82387,218767
5.83200,214117
5.84012,214832
5.84825,217720
5.85637,218577
5.86448,209116
5.87262,202347
5.88073,212665
5.88887,202535
5.89698,198857
5.90510,208692
5.91323,184033
5.92135,163086
5.92948,159368
5.93760,160236
5.94572,158883
5.95385,182468
5.96197,202093
5.97008,224667
5.97822,264708
5.98633,315701
5.99447,343444
6.00258,325394
6.01070,278479
6.01883,228786
6.02695,185702
6.03508,182561
6.04320,162597
6.05132,154232
6.05945,150909
6.06757,149149
6.07568,144871
6.08382,145622
6.09193,147352
6.10007,149171
6.10818,165847
6.11630,178580
6.12443,207914
6.13255,265339
6.14068,351800
6.14880,443082
6.15692,472758
6.16505,399079
6.17317,316970
6.18130,257270
6.18942,230184
6.19753,216243
6.20567,213541
6.21378,206165
6.22190,206536
6.23003,197160
6.23815,184395
6.24628,184522
6.25440,180567
6.26252,189053
6.27065,200716
6.27877,188662
6.28690,181818
6.29502,181107
6.30313,175847
6.31127,176929
6.31938,188667
6.32750,209651
6.33563,260145
6.34375,309141
6.35188,311326
6.36000,272641
6.36812,246642
6.37625,208244
6.38437,200113
6.39250,185194
6.40062,193789
6.40873,189866
6.41687,183401
6.42498,183889
6.43312,187036
6.44123,183217
6.44935,178247
6.45748,186272
6.46560,183918
6.47372,184305
6.48185,179371
6.48997,185064
6.49810,189940
6.50622,181876
6.51433,187049
6.52247,187021
6.53058,190665
6.53872,187865
6.54683,189100
6.55495,186075
6.56308,198748
6.57120,228133
6.57933,270123
6.58745,320981
6.59557,315256
6.60370,264866
6.61182,235828
6.61993,214610
6.62807,212494
6.63618,199557
6.64432,202461
6.65243,222728
6.66055,311692
6.66868,441955
6.67680,545572
6.68493,526141
6.69305,431048
6.70117,325463
6.70930,271572
6.71742,244034
6.72555,235799
6.73367,212867
6.74178,195412
6.74992,188840
6.75803,177385
6.76615,174616
6.77428,168584
6.78240,171837
6.79053,170244
6.79865,167848
6.80677,154675
6.81490,154961
6.82302,142645
6.83115,134433
6.83927,149252
6.84738,143202
6.85552,138359
6.86363,140162
6.87175,126539
6.87988,110785
6.88800,97984
6.89613,95874
6.90425,92014
6.91237,85832
6.92050,82770
6.92862,89699
6.93675,85465
6.94487,79297
6.95298,84399
6.96112,86881
6.96923,95209
6.97737,114127
6.98548,118800
6.99360,126390
7.00173,112005
7.00985,98420
7.01797,93812
7.02610,88425
7.03422,84286
7.04235,83606
7.05047,89855
7.05858,96140
7.06672,96847
7.07483,109286
7.08297,103661
7.09108,95298
7.09920,87632
7.10733,84606
7.11545,74070
7.12357,75776
7.13170,74307
7.13982,82205
7.14795,98976
7.15607,135229
7.16418,170445
7.17232,184553
7.18043,163463
7.18857,143248
7.19668,128778
7.20480,197696
7.21293,459361
7.22105,1076273
7.22918,1889980
7.23730,2434977
7.24542,2146986
7.25355,1405369
7.26167,815634
7.26978,470390
7.27792,317445
7.28603,220737
7.29417,142354
7.30228,124536
7.31040,110812
7.31853,109407
7.32665,119540
7.33478,115743
7.34290,118710
7.35102,117264
7.35915,104347
7.36727,100690
7.37540,94972
7.38352,89588
7.39163,92223
7.39977,93807
7.40788,88972
7.41600,86168
7.42413,82008
7.43225,81826
7.44038,83069
7.44850,85694
7.45662,89788
7.46475,82523
7.47287,85241
7.48100,81713
7.48912,74892
7.49723,78050
7.50537,78237
7.51348,85885
7.52160,102310
7.52973,160137
7.53785,267931
7.54598,441073
7.55410,653638
7.56222,841426
7.57035,857947
7.57847,780756
7.58660,604284
7.59472,411940
7.60283,269971
7.61097,184433
7.61908,134303
7.62722,106931
7.63533,98606
7.64345,87136
7.65158,79947
7.65970,76820
7.66782,70227
7.67595,81342
7.68407,73161
7.69220,73576
7.70032,78867
7.70843,76976
7.71657,81681
7.72468,81954
7.73282,79338
7.74093,70111
7.74905,70493
7.75718,75157
7.76530,74626
7.77343,70265
7.78155,78186
7.78967,79786
7.79780,79755
7.80592,90305
7.81403,96615
7.82217,99826
7.83028,94377
7.83842,84205
7.84653,79338
7.85465,82638
7.86278,87074
7.87090,92512
7.87903,112900
7.88715,130343
7.89527,125623
7.90340,120910
7.91152,107406
7.91963,96174
7.92777,100203
7.93588,105033
7.94402,124470
7.95213,135157
7.96025,128174
7.96838,119058
7.97650,102286
7.98463,92061
7.99275,81715
8.00087,71964
8.00900,69692
8.01712,64903
8.02525,63865
8.03337,63944
8.04148,69473
8.04962,66283
8.05773,65440
8.06585,66921
8.07398,68378
8.08210,61899
8.09023,60105
8.09835,61029
8.10647,58684
8.11460,59905
8.12272,60582
8.13085,64237
8.13897,70673
8.14708,84942
8.15522,92886
8.16333,101193
8.17145,93822
8.17958,81334
8.18770,73550
8.19583,69813
8.20395,71975
8.21207,63371
8.22020,68714
8.22832,69341
8.23645,66881
8.24457,62437
8.25268,62286
8.26082,56866
8.26893,58387
8.27707,61514
8.28518,56552
8.29330,60623
8.30143,61567
8.30955,63235
8.31767,62689
8.32580,67692
8.33392,67241
8.34205,63757
8.35017,61052
8.35828,58870
8.36642,56924
8.37453,54681
8.38267,63388
8.39078,61545
8.39890,58796
8.40703,57000
8.41515,54820
8.42328,56425
8.43140,58231
8.43952,57399
8.44765,55164
8.45577,52126
8.46388,54138
8.47202,48356
8.48013,51761
8.48827,52148
8.49638,55516
8.50450,52393
8.51263,64814
8.52075,107400
8.52888,235247
8.53700,515604
8.54512,885085
8.55325,1121783
8.56137,1075502
8.56948,779122
8.57762,464285
8.58573,250481
8.59387,153592
8.60198,127107
8.61010,108023
8.61823,104883
8.62635,97362
8.63448,98191
8.64260,89348
8.65072,86057
8.65885,80359
8.66697,80754
8.67510,74700
8.68322,71565
8.69133,71446
8.69947,73467
8.70758,74920
8.71570,72345
8.72383,70579
8.73195,69314
8.74008,70241
8.74820,72896
8.75632,93478
8.76445,173938
8.77257,348715
8.78070,617325
8.78882,874323
8.79693,963593
8.80507,829834
8.81318,596706
8.82132,374379
8.82943,252085
8.83755,195025
8.84568,170348
8.85380,175745
8.86192,160634
8.87005,163383
8.87817,157114
8.88630,146951
8.89442,153025
8.90253,141982
8.91067,132760
8.91878,136208
8.92692,134000
8.93503,155325
8.94315,166260
8.95128,186398
8.95940,181271
8.96752,161681
8.97565,155077
8.98377,154157
8.99190,150814
9.00002,147203
9.00813,130186
9.01627,131484
9.02438,121631
9.03252,119046
9.04063,108504
9.04875,111632
9.05688,109376
9.06500,98765
9.07313,104946
9.08125,97676
9.08937,103005
9.09750,115673
9.10562,118165
9.11373,142204
9.12187,152231
9.12998,152852
9.13812,142461
9.14623,131563
9.15435,118001
9.16248,112745
9.17060,102346
9.17873,103685
9.18685,96751
9.19497,96828
9.20310,98312
9.21122,99999
9.21935,96634
9.22747,97714
9.23558,92294
9.24372,96195
9.25183,91095
9.25995,95989
9.26808,92623
9.27620,88002
9.28433,82494
9.29245,85278
9.30057,88801
9.30870,86570
9.31682,86000
9.32495,81435
9.33307,84567
9.34118,83887
9.34932,79981
9.35743,78756
9.36555,79621
9.37368,83402
9.38180,80760
9.38993,79596
9.39805,87402
9.40617,90778
9.41430,94150
9.42242,109780
9.43055,127972
9.43867,143195
9.44678,151399
9.45492,144116
9.46303,133081
9.47117,118612
9.47928,105026
9.48740,96527
9.49553,89053
9.50365,91456
9.51177,98415
9.51990,112454
9.52802,119186
9.53615,129030
9.54427,111675
9.55238,100597
9.56052,88372
9.56863,80038
9.57677,76915
9.58488,79657
9.59300,88790
9.60113,80057
9.60925,81590
9.61737,67337
9.62550,59087
9.63362,56133
9.64175,57855
9.64987,56218
9.65798,53264
9.66612,53697
9.67423,50348
9.68237,55135
9.69048,49847
9.69860,47618
9.70673,50025
9.71485,47909
9.72298,46489
9.73110,51073
9.73922,49665
9.74735,47533
9.75547,53243
9.76358,45474
9.77172,45348
9.77983,43534
9.78797,46524
9.79608,43504
9.80420,44517
9.81233,44712
9.82045,43871
9.82858,43380
9.83670,46331
9.84482,43868
9.85295,41050
9.86107,48763
9.86920,50491
9.87732,54413
9.88543,53948
9.89357,50260
9.90168,46949
9.90980,50297
9.91793,54746
9.92605,55307
9.93418,59738
9.94230,76540
9.95042,93928
9.95855,113117
9.96667,122001
9.97480,115080
9.98292,107256
9.99103,88827
9.99917,76951
10.00728,74160
10.01540,68078
10.02353,64886
10.03165,60164
10.03978,55610
10.04790,61547
10.05602,55294
10.06415,60022
10.07227,60644
10.08040,60937
10.08852,58467
10.09663,58746
10.10477,56318
10.11288,56090
10.12102,56662
10.12913,55068
10.13725,51553
10.14538,52910
10.15350,53119
10.16162,50872
10.16975,49482
10.17787,51472
10.18600,47051
10.19412,49019
10.20223,45954
10.21037,51359
10.21848,52183
10.22662,55605
10.23473,56125
10.24285,62192
10.25098,70845
10.25910,105732
10.26723,245165
10.27535,607354
10.28347,1396980
10.29160,2651600
10.29972,4251738
10.30783,6214628
10.31597,9286122
10.32408,1.402679E+07
10.33222,2.035857E+07
10.34033,2.692437E+07
10.34845,3.03696E+07
10.35658,2.793685E+07
10.36470,1.969586E+07
10.37283,9966948
10.38095,4463076
10.38907,2357660
10.39720,1552665
10.40532,1133611
10.41343,903648
10.42157,728966
10.42968,625441
10.43782,572667
10.44593,532602
10.45405,484432
10.46218,469113
10.47030,424213
10.47843,395367
10.48655,364704
10.49467,344713
10.50280,321809
10.51092,300464
10.51905,299524
10.52717,295680
10.53528,295470
10.54342,286983
10.55153,295156
10.55965,275881
10.56778,257368
10.57590,252489
10.58403,237399
10.59215,222840
10.60027,208378
10.60840,197870
10.61652,193707
10.62465,178284
10.63277,179709
10.64088,174607
10.64902,164557
10.65713,161824
10.66525,158739
10.67338,156151
10.68150,152813
10.68963,152123
10.69775,148071
10.70587,146332
10.71400,150024
10.72212,140381
10.73025,141391
10.73837,139794
10.74648,136787
10.75462,134466
10.76273,131566
10.77087,122827
10.77898,118410
10.78710,120938
10.79523,119808
10.80335,116652
10.81147,118839
10.81960,119234
10.82772,111246
10.83585,117923
10.84397,104691
10.85208,100292
10.86022,101393
10.86833,101270
10.87647,94174
10.88458,91358
10.89270,97189
10.90083,93238
10.90895,88826
10.91708,92729
10.92520,93739
10.93332,88318
10.94145,87052
10.94957,89048
10.95768,86105
10.96582,79141
10.97393,82996
10.98207,81733
10.99018,85480
10.99830,84255
11.00643,86756
11.01455,79741
11.02268,81490
11.03080,76877
11.03892,79961
11.04705,78069
11.05517,75827
11.06328,73800
11.07142,75637
11.07953,83932
11.08767,78492
11.09578,80210
11.10390,80159
11.11203,78057
11.12015,73705
11.12828,62522
11.13640,64112
11.14452,56421
11.15265,53634
11.16077,56967
11.16890,54880
11.17702,59335
11.18513,59963
11.19327,63797
11.20138,64620
11.20950,59958
11.21763,62719
11.22575,54082
11.23388,58093
11.24200,48769
11.25012,47253
11.25825,47306
11.26637,43995
11.27450,45652
11.28262,45308
11.29073,47970
11.29887,55444
11.30698,73874
11.31512,120566
11.32323,209017
11.33135,342705
11.33948,507594
11.34760,631849
11.35572,649288
11.36385,558818
11.37197,411527
11.38010,287384
11.38822,210674
11.39633,163771
11.40447,133159
11.41258,119867
11.42072,108851
11.42883,101247
11.43695,87516
11.44508,80180
11.45320,72449
11.46132,69729
11.46945,69499
11.47757,82973
11.48570,104322
11.49382,130546
11.50193,158589
11.51007,170923
11.51818,162083
11.52632,145798
11.53443,135783
11.54255,124023
11.55068,125743
11.55880,113421
11.56693,103504
11.57505,93069
11.58317,86767
11.59130,84584
11.59942,103931
11.60753,132597
11.61567,173202
11.62378,205553
11.63192,192765
11.64003,171146
11.64815,138042
11.65628,102012
11.66440,79375
11.67253,70735
11.68065,70180
11.68877,65332
11.69690,66302
11.70502,64681
11.71313,67118
11.72127,63330
11.72938,63320
11.73752,63369
11.74563,59206
11.75375,55825
11.76188,54617
11.77000,50637
11.77813,49420
11.78625,48493
11.79437,52243
11.80250,48309
11.81062,49927
11.81875,46180
11.82687,50273
11.83498,48111
11.84312,48432
11.85123,47714
11.85935,48163
11.86748,44390
11.87560,46688
11.88373,50972
11.89185,50006
11.89997,46941
11.90810,51324
11.91622,48772
11.92435,56493
11.93247,59685
11.94058,59459
11.94872,56679
11.95683,56031
11.96497,50541
11.97308,48167
11.98120,48467
11.98933,58071
11.99745,69364
12.00557,92232
12.01370,111453
12.02182,108228
12.02995,109621
12.03807,90664
12.04618,71955
12.05432,64603
12.06243,61403
12.07057,56060
12.07868,56376
12.08680,49892
12.09493,55233
12.10305,52975
12.11118,66527
12.11930,81695
12.12742,94006
12.13555,108758
12.14367,116743
12.15178,115498
12.15992,101007
12.16803,84811
12.17617,69393
12.18428,63841
12.19240,56695
12.20053,56423
12.20865,58236
12.21678,58514
12.22490,57365
12.23302,56650
12.24115,53621
12.24927,55406
12.25738,54475
12.26552,55551
12.27363,52064
12.28177,50079
12.28988,51982
12.29800,48511
12.30613,46265
12.31425,51727
12.32238,47245
12.33050,51639
12.33862,46201
12.34675,44901
12.35487,48207
12.36300,49186
12.37112,46019
12.37923,44104
12.38737,46111
12.39548,46381
12.40360,56235
12.41173,63054
12.41985,74741
12.42798,87529
12.43610,87654
12.44422,85503
12.45235,75437
12.46047,69408
12.46860,63799
12.47672,62238
12.48483,58516
12.49297,57581
12.50108,56214
12.50920,53639
12.51733,54324
12.52545,59161
12.53358,75888
12.54170,122837
12.54982,208935
12.55795,356651
12.56607,512059
12.57420,571966
12.58232,516750
12.59043,377777
12.59857,246722
12.60668,168721
12.61482,120076
12.62293,108531
12.63105,99826
12.63918,88036
12.64730,77828
12.65542,78199
12.66355,68267
12.67167,67545
12.67980,63200
12.68792,60682
12.69603,57859
12.70417,54896
12.71228,56714
12.72042,54792
12.72853,58338
12.73665,58843
12.74478,59001
12.75290,61146
12.76103,59023
12.76915,52855
12.77727,52534
12.78540,50078
12.79352,47040
12.80163,48439
12.80977,47481
12.81788,49952
12.82602,44218
12.83413,42930
12.84225,43887
12.85038,45703
12.85850,45485
12.86663,41084
12.87475,41931
12.88287,41849
12.89100,42078
12.89912,39609
12.90723,38480
12.91537,39026
12.92348,39441
12.93162,43396
12.93973,44335
12.94785,38895
12.95598,40081
12.96410,42694
12.97223,49608
12.98035,53787
12.98847,56487
12.99660,55250
13.00472,55288
13.01285,52693
13.02097,43082
13.02908,42944
13.03722,45157
13.04533,42733
13.05345,44241
13.06158,39545
13.06970,42116
13.07783,45925
13.08595,44288
13.09407,43727
13.10220,46284
13.11032,40810
13.11845,43254
13.12657,39826
13.13468,43941
13.14282,38578
13.15093,39924
13.15907,43019
13.16718,44651
13.17530,42570
13.18343,49544
13.19155,52517
13.19967,55814
13.20780,53408
13.21592,54794
13.22405,45963
13.23217,49334
13.24028,52701
13.24842,46278
13.25653,46193
13.26467,47740
13.27278,40610
13.28090,42984
13.28903,41944
13.29715,41956
13.30527,41196
13.31340,39956
13.32152,37231
13.32965,36189
13.33777,39708
13.34588,35378
13.35402,37835
13.36213,36041
13.37027,39253
13.37838,36291
13.38650,37220
13.39463,34307
13.40275,37483
13.41088,39230
13.41900,35763
13.42712,34593
13.43525,34385
13.44337,36635
13.45148,36506
13.45962,35683
13.46773,35233
13.47587,37332
13.48398,34609
13.49210,38335
13.50023,40571
13.50835,35385
13.51648,40893
13.52460,37665
13.53272,40974
13.54085,38885
13.54897,37627
13.55708,36804
13.56522,39287
13.57333,37900
13.58147,40860
13.58958,43382
13.59770,49776
13.60583,55238
13.61395,65775
13.62208,74653
13.63020,71014
13.63832,65141
13.64645,57951
13.65457,46662
13.66270,40934
13.67082,44399
13.67893,33962
13.68707,36594
13.69518,34103
13.70330,35227
13.71143,36554
13.71955,37191
13.72768,38576
13.73580,40695
13.74392,53398
13.75205,92957
13.76017,147992
13.76830,258026
13.77642,380858
13.78453,478979
13.79267,538290
13.80078,525223
13.80892,488710
13.81703,429755
13.82515,398311
13.83328,372025
13.84140,356085
13.84952,324400
13.85765,284187
13.86577,237143
13.87390,185738
13.88202,147824
13.89013,121574
13.89827,105435
13.90638,95390
13.91452,86833
13.92263,73419
13.93075,73182
13.93888,70848
13.94700,70303
13.95512,71687
13.96325,73625
13.97137,76325
13.97950,72012
13.98762,84154
13.99573,88937
14.00387,95012
14.01198,85785
14.02012,83098
14.02823,82467
14.03635,71859
14.04448,69734
14.05260,71251
14.06073,70013
14.06885,65460
14.07697,63911
14.08510,63219
14.09322,63916
14.10133,59016
14.10947,63074
14.11758,59712
14.12572,55973
14.13383,58658
14.14195,58924
14.15008,65106
14.15820,61437
14.16633,64902
14.17445,70964
14.18257,86758
14.19070,106941
14.19882,160762
14.20695,204201
14.21507,248515
14.22318,264843
14.23132,245677
14.23943,237113
14.24755,223594
14.25568,225351
14.26380,219361
14.27193,203522
14.28005,181136
14.28817,147924
14.29630,128534
14.30442,115595
14.31255,107134
14.32067,110115
14.32878,95499
14.33692,98483
14.34503,97730
14.35315,97899
14.36128,102010
14.36940,95349
14.37753,77009
14.38565,69361
14.39377,63323
14.40190,64045
14.41002,67449
14.41815,72700
14.42627,75349
14.43438,71669
14.44252,73067
14.45063,64322
14.45877,63797
14.46688,56572
14.47500,57361
14.48313,57273
14.49125,53404
14.49937,49084
14.50750,50134
14.51562,54137
14.52375,52799
14.53187,56009
14.53998,51035
14.54812,51089
14.55623,48510
14.56437,49534
14.57248,47914
14.58060,47946
14.58873,48831
14.59685,46157
14.60498,43544
14.61310,47324
14.62122,42098
14.62935,43121
14.63747,46530
14.64558,42844
14.65372,41582
14.66183,45098
14.66997,37302
14.67808,41873
14.68620,40711
14.69433,38978
14.70245,42201
14.71058,39833
14.71870,40725
14.72682,39443
14.73495,42144
14.74307,45454
14.75118,50602
14.75932,45397
14.76743,46319
14.77557,48949
14.78368,54507
14.79180,95192
14.79993,230887
14.80805,627102
14.81618,1478645
14.82430,2766476
14.83242,4057456
14.84055,4678394
14.84867,4413943
14.85680,3535590
14.86492,2366647
14.87303,1466755
14.88117,930364
14.88928,634040
14.89740,475705
14.90553,393589
14.91365,322890
14.92178,297001
14.92990,257701
14.93802,239257
14.94615,216490
14.95427,207017
14.96240,183416
14.97052,174446
14.97863,159465
14.98677,160992
14.99488,154628
15.00300,143368
15.01113,132677
15.01925,128149
15.02738,121996
15.03550,124157
15.04362,122333
15.05175,110468
15.05987,111241
15.06800,104698
15.07612,104004
15.08423,102960
15.09237,93819
15.10048,90325
15.10862,90680
15.11673,96914
15.12485,92134
15.13298,101766
15.14110,107363
15.14922,111750
15.15735,113706
15.16547,100807
15.17360,92261
15.18172,77548
15.18983,72700
15.19797,61106
15.20608,58127
15.21422,56278
15.22233,54933
15.23045,51034
15.23858,52573
15.24670,50912
15.25483,50832
15.26295,49040
15.27107,49362
15.27920,49749
15.28732,46318
15.29543,43671
15.30357,44294
15.31168,45431
15.31982,44267
15.32793,41424
15.33605,41840
15.34418,44729
15.35230,43066
15.36043,48706
15.36855,42467
15.37667,44203
15.38480,44297
15.39292,42301
15.40103,41888
15.40917,42775
15.41728,43104
15.42542,44430
15.43353,41482
15.44165,41583
15.44978,43743
15.45790,41869
15.46603,46002
15.47415,55111
15.48227,65973
15.49040,83457
15.49852,105424
15.50665,122634
15.51477,128564
15.52288,129597
15.53102,125167
15.53913,119605
15.54725,110770
15.55538,104696
15.56350,95818
15.57163,82749
15.57975,66908
15.58787,56995
15.59600,55351
15.60412,47971
15.61225,46342
15.62037,42901
15.62848,45158
15.63662,46735
15.64473,44356
15.65287,42079
15.66098,42539
15.66910,39271
15.67723,42484
15.68535,38989
15.69347,34909
15.70160,37150
15.70972,39936
15.71785,35331
15.72597,38457
15.73408,38210
15.74222,42780
15.75033,48759
15.75847,64924
15.76658,107735
15.77470,176553
15.78283,274000
15.79095,371437
15.79907,398842
15.80720,368185
15.81532,293213
15.82345,200415
15.83157,147172
15.83968,110542
15.84782,94812
15.85593,85463
15.86407,83611
15.87218,84431
15.88030,89593
15.88843,96310
15.89655,93793
15.90468,95383
15.91280,88572
15.92092,81252
15.92905,70216
15.93717,65760
15.94528,59210
15.95342,61663
15.96153,61870
15.96967,64370
15.97778,66481
15.98590,65204
15.99403,67713
16.00215,67894
16.01028,66138
16.01840,67845
16.02652,71517
16.03465,67792
16.04277,70414
16.05088,67043
16.05902,60597
16.06713,57019
16.07527,55422
16.08338,51269
16.09150,50138
16.09963,47756
16.10775,48079
16.11588,49039
16.12400,52500
16.13212,53010
16.14025,51911
16.14837,53323
16.15650,60684
16.16462,58758
16.17273,54583
16.18087,49584
16.18898,49326
16.19710,46139
16.20523,42970
16.21335,50020
16.22148,52560
16.22960,42732
16.23772,44532
16.24585,46172
16.25397,43548
16.26210,43945
16.27022,43850
16.27833,41255
16.28647,50891
16.29458,50394
16.30272,51987
16.31083,55381
16.31895,54454
16.32708,52775
16.33520,51825
16.34332,50191
16.35145,54509
16.35957,64092
16.36770,70777
16.37582,78506
16.38393,84095
16.39207,83644
16.40018,75354
16.40832,72417
16.41643,61566
16.42455,56726
16.43268,59743
16.44080,65595
16.44892,80308
16.45705,140250
16.46517,275802
16.47330,488001
16.48142,732262
16.48953,888579
16.49767,896019
16.50578,691703
16.51392,495113
16.52203,333766
16.53015,220561
16.53828,156549
16.54640,124269
16.55453,110535
16.56265,104801
16.57077,92011
16.57890,92649
16.58702,88231
16.59513,80941
16.60327,82470
16.61138,83288
16.61952,79976
16.62763,83407
16.63575,80349
16.64388,72320
16.65200,68783
16.66013,63331
16.66825,62308
16.67637,62840
16.68450,61885
16.69262,62291
16.70075,61246
16.70887,59199
16.71698,59529
16.72512,58731
16.73323,53259
16.74135,53226
16.74948,57950
16.75760,61254
16.76573,65454
16.77385,63044
16.78197,64661
16.79010,59506
16.79822,53913
16.80635,49923
16.81447,48425
16.82258,46545
16.83072,47256
16.83883,44062
16.84695,44795
16.85508,40430
16.86320,41897
16.87133,44767
16.87945,43254
16.88757,41995
16.89570,39703
16.90382,38075
16.91195,39483
16.92007,46344
16.92818,37948
16.93632,43659
16.94443,42069
16.95257,39765
16.96068,40280
16.96880,39780
16.97693,39428
16.98505,39191
16.99317,39955
17.00130,42003
17.00942,41287
17.01755,44239
17.02567,43474
17.03378,46159
17.04192,43016
17.05003,50719
17.05817,49841
17.06628,50750
17.07440,51334
17.08253,51093
17.09065,46581
17.09877,49391
17.10690,50797
17.11502,54251
17.12315,55860
17.13127,53212
17.13938,60378
17.14752,58150
17.15563,55792
17.16377,49031
17.17188,48393
17.18000,46808
17.18813,40960
17.19625,44027
17.20438,42675
17.21250,39698
17.22062,36159
17.22875,39233
17.23687,42109
17.24498,44755
17.25312,40065
17.26123,45142
17.26937,43412
17.27748,40552
17.28560,42359
17.29373,39513
17.30185,39883
17.30998,38491
17.31810,40566
17.32622,46815
17.33435,54012
17.34247,53037
17.35060,65066
17.35872,68041
17.36683,68215
17.37497,68376
17.38308,60210
17.39120,61398
17.39933,61386
17.40745,56223
17.41558,53770
17.42370,56684
17.43182,55018
17.43995,54303
17.44807,49356
17.45620,54252
17.46432,50368
17.47243,47719
17.48057,43370
17.48868,45136
17.49682,43226
17.50493,43582
17.51305,44333
17.52118,45374
17.52930,42903
17.53742,46131
17.54555,44604
17.55367,51325
17.56180,62039
17.56992,86112
17.57803,128316
17.58617,225170
17.59428,362444
17.60242,546173
17.61053,698310
17.61865,741696
17.62678,662163
17.63490,501042
17.64302,353199
17.65115,246419
17.65927,176970
17.66740,136524
17.67552,123697
17.68363,105915
17.69177,99915
17.69988,95879
17.70802,93597
17.71613,88178
17.72425,79380
17.73238,78350
17.74050,73337
17.74863,66462
17.75675,66020
17.76487,62814
17.77300,61257
17.78112,55522
17.78923,56447
17.79737,56466
17.80548,58913
17.81362,54698
17.82173,59420
17.82985,58416
17.83798,64619
17.84610,68848
17.85423,77253
17.86235,86682
17.87047,86682
17.87860,88860
17.88672,88369
17.89483,74244
17.90297,65682
17.91108,61188
17.91922,51518
17.92733,50391
17.93545,51293
17.94358,50135
17.95170,46003
17.95983,45424
17.96795,43310
17.97607,53142
17.98420,45724
17.99232,45478
18.00045,45133
18.00857,52596
18.01668,57472
18.02482,72011
18.03293,92322
18.04105,104354
18.04918,109257
18.05730,106604
18.06543,100110
18.07355,85699
18.08167,81157
18.08980,91633
18.09792,105022
18.10605,106860
18.11417,110578
18.12228,109838
18.13042,111089
18.13853,106304
18.14667,106573
18.15478,101115
18.16290,94003
18.17103,95367
18.17915,89046
18.18727,79249
18.19540,76290
18.20352,75949
18.21165,71039
18.21977,67501
18.22788,68864
18.23602,66528
18.24413,62017
18.25227,60848
18.26038,58074
18.26850,60147
18.27663,58028
18.28475,53882
18.29287,55140
18.30100,49716
18.30912,47522
18.31725,46515
18.32537,45202
18.33348,45415
18.34162,40860
18.34973,44247
18.35787,41789
18.36598,42200
18.37410,39947
18.38223,43766
18.39035,44175
18.39848,41659
18.40660,41707
18.41472,46269
18.42285,45106
18.43097,51992
18.43908,61108
18.44722,74216
18.45533,85608
18.46347,124486
18.47158,170950
18.47970,207257
18.48783,243119
18.49595,241746
18.50408,215853
18.51220,171549
18.52032,128672
18.52845,101437
18.53657,81296
18.54470,69867
18.55282,65989
18.56093,65470
18.56907,80613
18.57718,113090
18.58530,145575
18.59343,161671
18.60155,183564
18.60968,200987
18.61780,206519
18.62592,217054
18.63405,218268
18.64217,225880
18.65030,216667
18.65842,207725
18.66653,216891
18.67467,226146
18.68278,215895
18.69090,213252
18.69903,210164
18.70715,214033
18.71528,208083
18.72340,214070
18.73152,212238
18.73965,201617
18.74777,200061
18.75590,198236
18.76402,194459
18.77213,201116
18.78027,202424
18.78838,191460
18.79652,196827
18.80463,190585
18.81275,192680
18.82088,193485
18.82900,187415
18.83712,184986
18.84525,183132
18.85337,184519
18.86150,182572
18.86962,180131
18.87773,177835
18.88587,180849
18.89398,174819
18.90212,177504
18.91023,173930
18.91835,181653
18.92648,178691
18.93460,178427
18.94272,190418
18.95085,202782
18.95897,199719
18.96710,198249
18.97522,192690
18.98333,191363
18.99147,187202
18.99958,180370
19.00772,180811
19.01583,171332
19.02395,162651
19.03208,169524
19.04020,158374
19.04833,160104
19.05645,169700
19.06457,189912
19.07270,253526
19.08082,396237
19.08893,649703
19.09707,1039715
19.10518,1389526
19.11332,1572892
19.12143,1522577
19.12955,1246524
19.13768,887986
19.14580,603871
19.15393,415679
19.16205,311654
19.17017,249174
19.17830,217910
19.18642,199106
19.19455,189812
19.20267,178684
19.21078,174188
19.21892,167331
19.22703,159804
19.23515,162212
19.24328,159989
19.25140,153408
19.25953,150023
19.26765,145921
19.27577,143184
19.28390,154819
19.29202,164289
19.30015,167365
19.30827,168949
19.31638,167784
19.32452,157405
19.33263,150108
19.34075,146129
19.34888,148357
19.35700,161632
19.36513,175992
19.37325,195793
19.38137,201677
19.38950,204092
19.39762,189191
19.40575,170499
19.41387,158161
19.42198,137897
19.43012,132619
19.43823,132078
19.44637,130968
19.45448,127709
19.46260,122023
19.47073,130688
19.47885,121472
19.48697,133242
19.49510,154560
19.50322,185077
19.51135,216036
19.51947,252907
19.52758,252498
19.53572,241041
19.54383,203692
19.55197,170991
19.56008,146365
19.56820,136890
19.57633,125006
19.58445,120119
19.59258,109014
19.60070,107687
19.60882,106640
19.61695,105070
19.62507,103987
19.63318,107858
19.64132,127185
19.64943,153062
19.65757,203149
19.66568,265106
19.67380,319039
19.68193,373432
19.69005,375490
19.69818,362251
19.70630,320834
19.71442,294139
19.72255,272385
19.73067,229554
19.73878,193232
19.74692,177502
19.75503,163019
19.76317,145277
19.77128,145266
19.77940,140451
19.78753,138890
19.79565,143452
19.80378,154212
19.81190,151176
19.82002,147816
19.82815,137880
19.83627,127392
19.84440,118766
19.85252,118510
19.86063,114748
19.86877,105637
19.87688,114558
19.88500,127243
19.89313,151296
19.90125,190932
19.90938,225797
19.91750,251773
19.92562,286960
19.93375,291938
19.94187,281815
19.95000,279275
19.95812,266583
19.96623,250816
19.97437,249141
19.98248,244966
19.99062,241951
19.99873,227498
20.00685,229250
20.01498,215533
20.02310,216536
20.03122,209709
20.03935,199537
20.04747,189298
20.05560,177988
20.06372,152417
20.07183,152080
20.07997,142068
20.08808,141728
20.09622,139905
20.10433,137723
20.11245,127847
20.12058,118261
20.12870,111397
20.13682,109226
20.14495,101363
20.15307,106246
20.16120,120350
20.16932,138315
20.17743,154373
20.18557,181542
20.19368,201169
20.20182,215115
20.20993,202349
20.21805,190142
20.22618,168774
20.23430,152612
20.24243,137749
20.25055,160064
20.25867,198679
20.26680,270928
20.27492,340065
20.28303,425687
20.29117,459558
20.29928,459917
20.30742,414344
20.31553,338892
20.32365,267320
20.33178,211866
20.33990,172613
20.34803,144889
20.35615,127017
20.36427,112230
20.37240,106829
20.38052,94112
20.38863,96712
20.39677,88371
20.40488,92221
20.41302,88590
20.42113,88584
20.42925,97368
20.43738,105402
20.44550,108788
20.45363,113558
20.46175,112642
20.46987,118639
20.47800,109621
20.48612,97778
20.49425,94177
20.50237,85681
20.51048,86590
20.51862,92719
20.52673,81861
20.53485,77681
20.54298,80263
20.55110,72954
20.55923,76754
20.56735,73514
20.57547,73167
20.58360,70728
20.59172,73953
20.59985,64481
20.60797,66727
20.61608,62645
20.62422,68013
20.63233,66541
20.64047,71875
20.64858,66875
20.65670,67811
20.66483,67949
20.67295,68333
20.68107,66145
20.68920,64759
20.69732,63233
20.70545,65814
20.71357,65296
20.72168,67161
20.72982,62936
20.73793,64423
20.74607,62623
20.75418,67797
20.76230,68932
20.77043,76850
20.77855,82039
20.78667,89196
20.79480,116412
20.80292,169654
20.81105,229768
20.81917,281857
20.82728,305604
20.83542,303282
20.84353,246840
20.85167,183776
20.85978,131680
20.86790,109772
20.87603,93025
20.88415,84154
20.89228,81609
20.90040,80404
20.90852,81231
20.91665,77493
20.92477,79348
20.93288,80948
20.94102,74825
20.94913,74883
20.95727,71057
20.96538,76428
20.97350,77006
20.98163,66555
20.98975,72839
20.99788,71276
21.00600,70351
21.01412,70419
21.02225,68716
21.03037,68959
21.03850,70339
21.04662,68271
21.05473,75660
21.06287,71516
21.07098,73308
21.07910,76968
21.08723,76740
21.09535,75719
21.10348,66980
21.11160,69308
21.11972,64178
21.12785,69426
21.13597,81555
21.14410,100757
21.15222,130476
21.16033,161586
21.16847,181856
21.17658,186858
21.18470,176322
21.19283,146435
21.20095,125582
21.20908,104796
21.21720,89893
21.22532,84235
21.23345,73047
21.24157,72783
21.24970,68891
21.25782,65068
21.26593,61726
21.27407,65533
21.28218,57716
21.29032,61004
21.29843,58318
21.30655,55908
21.31468,56257
21.32280,55918
21.33092,53952
21.33905,51906
21.34717,48469
21.35530,49546
21.36342,56501
21.37153,55841
21.37967,54281
21.38778,58122
21.39592,59261
21.40403,59011
21.41215,68068
21.42028,64609
21.42840,63545
21.43652,67489
21.44465,65351
21.45277,63374
21.46090,59186
21.46902,54648
21.47713,56654
21.48527,52120
21.49338,57511
21.50152,54734
21.50963,52239
21.51775,55167
21.52588,52279
21.53400,49693
21.54213,54073
21.55025,45051
21.55837,49744
21.56650,50530
21.57462,56893
21.58273,58329
21.59087,62877
21.59898,67365
21.60712,66307
21.61523,70946
21.62335,72856
21.63148,81796
21.63960,91450
21.64773,99943
21.65585,102004
21.66397,101733
21.67210,103743
21.68022,100047
21.68835,97967
21.69647,90378
21.70458,86808
21.71272,75088
21.72083,69377
21.72895,65327
21.73708,59659
21.74520,63999
21.75333,58043
21.76145,60653
21.76957,55355
21.77770,57018
21.78582,58421
21.79395,57787
21.80207,59061
21.81018,64252
21.81832,60478
21.82643,69404
21.83455,80610
21.84268,84462
21.85080,91307
21.85893,89166
21.86705,83280
21.87517,74793
21.88330,69685
21.89142,65106
21.89955,61241
21.90767,54725
21.91578,59902
21.92392,59368
21.93203,58013
21.94017,58000
21.94828,52221
21.95640,49801
21.96453,49809
21.97265,50233
21.98077,46633
21.98890,48610
21.99702,47134
22.00515,51887
22.01327,63929
22.02138,71143
22.02952,76555
22.03763,89696
22.04577,89299
22.05388,93240
22.06200,97912
22.07013,98617
22.07825,96959
22.08638,96248
22.09450,97871
22.10262,96507
22.11075,96964
22.11887,101823
22.12698,93663
22.13512,104849
22.14323,93092
22.15137,95468
22.15948,101789
22.16760,94474
22.17573,102036
22.18385,92911
22.19198,96348
22.20010,91694
22.20822,95123
22.21635,96427
22.22447,96339
22.23258,87389
22.24072,79366
22.24883,79614
22.25697,76444
22.26508,74059
22.27320,70228
22.28133,69404
22.28945,72045
22.29758,71186
22.30570,76218
22.31382,74833
22.32195,71097
22.33007,73412
22.33820,71487
22.34632,71146
22.35443,68201
22.36257,67236
22.37068,62890
22.37880,62252
22.38693,65987
22.39505,77348
22.40318,101329
22.41130,115739
22.41942,134317
22.42755,147485
22.43567,142642
22.44380,131957
22.45192,112476
22.46003,97665
22.46817,77013
22.47628,70944
22.48440,75593
22.49253,71717
22.50065,85493
22.50878,85085
22.51690,87147
22.52502,92865
22.53315,91702
22.54127,112809
22.54940,122926
22.55752,132536
22.56563,144774
22.57377,151119
22.58188,152933
22.59002,151216
22.59813,157158
22.60625,161155
22.61438,155953
22.62250,165824
22.63062,161497
22.63875,166749
22.64687,165020
22.65500,166359
22.66312,170685
22.67123,173457
22.67937,172169
22.68748,172214
22.69562,167360
22.70373,198692
22.71185,208558
22.71998,210912
22.72810,212414
22.73623,204808
22.74435,209802
22.75247,188274
22.76060,190577
22.76872,183157
22.77683,181523
22.78497,189884
22.79308,187249
22.80122,196577
22.80933,206169
22.81745,216279
22.82558,214208
22.83370,208583
22.84183,192449
22.84995,178207
22.85807,179358
22.86620,180872
22.87432,184136
22.88245,177235
22.89057,185718
22.89868,195488
22.90682,210226
22.91493,216740
22.92305,234280
22.93118,249594
22.93930,239544
22.94743,236169
22.95555,225344
22.96367,206863
22.97180,192898
22.97992,172802
22.98805,176474
22.99617,161365
23.00428,157699
23.01242,156013
23.02053,146616
23.02865,140739
23.03678,141255
23.04490,138269
23.05303,135883
23.06115,135836
23.06927,133987
23.07740,133819
23.08552,133203
23.09365,132061
23.10177,136938
23.10988,131302
23.11802,132780
23.12613,124509
23.13427,123385
23.14238,116521
23.15050,114415
23.15863,115815
23.16675,119110
23.17487,118853
23.18300,118907
23.19112,114333
23.19925,109940
23.20737,106768
23.21548,107382
23.22362,108774
23.23173,106072
23.23987,106940
23.24798,109114
23.25610,110547
23.26423,113277
23.27235,120225
23.28047,120708
23.28860,116532
23.29672,110653
23.30485,110069
23.31297,104703
23.32108,110920
23.32922,105170
23.33733,115500
23.34547,124727
23.35358,143481
23.36170,158926
23.36983,161784
23.37795,167257
23.38608,167055
23.39420,165115
23.40232,162171
23.41045,149972
23.41857,152292
23.42668,148928
23.43482,143576
23.44293,143608
23.45107,152239
23.45918,150359
23.46730,142567
23.47543,140309
23.48355,139662
23.49168,138938
23.49980,138212
23.50792,132304
23.51605,126339
23.52417,130656
23.53230,122427
23.54042,124786
23.54853,121101
23.55667,126309
23.56478,127406
23.57290,139834
23.58103,168901
23.58915,201352
23.59728,240379
23.60540,266073
23.61352,279097
23.62165,272583
23.62977,240321
23.63790,201542
23.64602,175323
23.65413,162606
23.66227,153443
23.67038,153358
23.67850,151720
23.68663,140536
23.69475,128569
23.70288,120800
23.71100,97131
23.71912,88540
23.72725,86409
23.73537,81851
23.74350,87021
23.75162,116481
23.75973,190636
23.76787,369383
23.77598,727048
23.78412,1287804
23.79223,1848101
23.80035,2249751
23.80848,2284115
23.81660,2063819
23.82472,1709035
23.83285,1323629
23.84097,1036668
23.84910,783119
23.85722,629947
23.86533,506441
23.87347,437754
23.88158,368511
23.88972,337236
23.89783,303177
23.90595,284092
23.91408,267054
23.92220,266911
23.93033,236959
23.93845,230226
23.94657,214421
23.95470,199679
23.96282,196549
23.97093,180606
23.97907,162357
23.98718,155448
23.99532,145923
24.00343,153346
24.01155,176573
24.01968,225217
24.02780,295048
24.03593,354514
24.04405,399605
24.05217,366930
24.06030,298821
24.06842,229856
24.07653,175064
24.08467,140730
24.09278,119546
24.10092,119774
24.10903,105116
24.11715,103989
24.12528,109012
24.13340,117209
24.14153,131765
24.14965,147991
24.15777,158422
24.16590,151555
24.17402,152906
24.18215,138092
24.19027,125407
24.19838,121172
24.20652,114644
24.21463,115107
24.22275,109830
24.23088,107036
24.23900,102117
24.24713,96245
24.25525,97654
24.26337,107236
24.27150,125740
24.27962,166146
24.28775,186833
24.29587,195423
24.30398,215601
24.31212,219439
24.32023,234633
24.32835,231970
24.33648,242612
24.34460,247342
24.35273,242495
24.36085,242184
24.36897,243227
24.37710,247612
24.38522,248157
24.39335,269515
24.40147,276876
24.40958,288031
24.41772,288224
24.42583,291094
24.43397,278670
24.44208,248876
24.45020,244507
24.45833,239258
24.46645,243243
24.47457,236970
24.48270,234952
24.49082,232632
24.49895,240237
24.50707,246827
24.51518,247577
24.52332,257069
24.53143,254897
24.53957,250787
24.54768,247416
24.55580,250585
24.56393,251371
24.57205,248008
24.58018,238074
24.58830,234769
24.59642,222392
24.60455,220636
24.61267,220750
24.62078,212337
24.62892,199709
24.63703,204245
24.64517,204382
24.65328,194388
24.66140,200578
24.66953,191804
24.67765,201679
24.68578,207601
24.69390,196963
24.70202,209625
24.71015,205554
24.71827,214999
24.72638,214955
24.73452,222168
24.74263,223851
24.75077,226452
24.75888,225431
24.76700,240919
24.77513,224687
24.78325,237680
24.79138,236504
24.79950,235827
24.80762,239168
24.81575,242808
24.82387,243829
24.83200,246798
24.84012,261306
24.84823,283961
24.85637,321545
24.86448,379961
24.87260,440138
24.88073,546045
24.88885,673681
24.89698,741050
24.90510,723678
24.91322,627360
24.92135,514430
24.92947,405559
24.93760,318204
24.94572,261188
24.95383,226286
24.96197,208803
24.97008,195357
24.97822,191388
24.98633,184267
24.99445,184645
25.00258,179416
25.01070,178442
25.01882,172066
25.02695,172157
25.03507,175070
25.04320,162307
25.05132,158662
25.05943,156517
25.06757,161496
25.07568,155741
25.08382,160433
25.09193,168445
25.10005,195924
25.10818,294044
25.11630,508579
25.12442,964742
25.13255,1692124
25.14067,2548456
25.14880,3164064
25.15692,3271085
25.16503,2901880
25.17317,2144593
25.18128,1393622
25.18942,864771
25.19753,496294
25.20565,313146
25.21378,213288
25.22190,170304
25.23003,151366
25.23815,162524
25.24627,207249
25.25440,291674
25.26252,420184
25.27063,544616
25.27877,616820
25.28688,633231
25.29502,564374
25.30313,441028
25.31125,315070
25.31938,225109
25.32750,169006
25.33563,137860
25.34375,110535
25.35187,101787
25.36000,87119
25.36812,84453
25.37625,83353
25.38437,81303
25.39248,74529
25.40062,72292
25.40873,75949
25.41685,72388
25.42498,72819
25.43310,71128
25.44123,72133
25.44935,68636
25.45747,67815
25.46560,66631
25.47372,65366
25.48185,69286
25.48997,68138
25.49808,71955
25.50622,68623
25.51433,69390
25.52245,67778
25.53058,68611
25.53870,66346
25.54683,64872
25.55495,68454
25.56307,77400
25.57120,101334
25.57932,133249
25.58745,155588
25.59557,182795
25.60368,205111
25.61182,212613
25.61993,222213
25.62807,244732
25.63618,249678
25.64430,266643
25.65243,278678
25.66055,284196
25.66867,267473
25.67680,257503
25.68492,249270
25.69305,247407
25.70117,247661
25.70928,237602
25.71742,241286
25.72553,237730
25.73367,231769
25.74178,230218
25.74990,232966
25.75803,225616
25.76615,231996
25.77427,240020
25.78240,229109
25.79052,231906
25.79865,238757
25.80677,227472
25.81488,228790
25.82302,222221
25.83113,218608
25.83927,219120
25.84738,215357
25.85550,221417
25.86363,217683
25.87175,219162
25.87988,210545
25.88800,213130
25.89612,196583
25.90425,195366
25.91237,187882
25.92048,191602
25.92862,199223
25.93673,193653
25.94487,187307
25.95298,186605
25.96110,180975
25.96923,189641
25.97735,188430
25.98548,178597
25.99360,169037
26.00172,171555
26.00985,178838
26.01797,175421
26.02610,170512
26.03422,161741
26.04233,162390
26.05047,169679
26.05858,161997
26.06670,158077
26.07483,158135
26.08295,164238
26.09108,160510
26.09920,162041
26.10732,162459
26.11545,159739
26.12357,156844
26.13170,163200
26.13982,160570
26.14793,158470
26.15607,159698
26.16418,160180
26.17230,160188
26.18043,159050
26.18855,155961
26.19668,144516
26.20480,142638
26.21292,143811
26.22105,138951
26.22917,139348
26.23730,135104
26.24542,134827
26.25353,130731
26.26167,131980
26.26978,125657
26.27792,134858
26.28603,132144
26.29415,132111
26.30228,130045
26.31040,129580
26.31852,120606
26.32665,123068
26.33477,121804
26.34290,125915
26.35102,117367
26.35913,125087
26.36727,126660
26.37538,140637
26.38352,141459
26.39163,150264
26.39975,160810
26.40788,161969
26.41600,162855
26.42413,153934
26.43225,143515
26.44037,132433
26.44850,122820
26.45662,119309
26.46473,117469
26.47287,115813
26.48098,114089
26.48912,115530
26.49723,111871
26.50535,112029
26.51348,109214
26.52160,107328
26.52973,111419
26.53785,106665
26.54597,98168
26.55410,104682
26.56222,95983
26.57033,101405
26.57847,100426
26.58658,99188
26.59472,94250
26.60283,89689
26.61095,90503
26.61908,88084
26.62720,90775
26.63533,88035
26.64345,88834
26.65157,88715
26.65970,93430
26.66782,92418
26.67595,97401
26.68407,95724
26.69218,95539
26.70032,85209
26.70843,87699
26.71655,81974
26.72468,82777
26.73280,80548
26.74093,76158
26.74905,80803
26.75717,78651
26.76530,78972
26.77342,75670
26.78155,78397
26.78967,78512
26.79778,79998
26.80592,78825
26.81403,78343
26.82215,79099
26.83028,79264
26.83840,73113
26.84653,72164
26.85465,73819
26.86277,70184
26.87090,71924
26.87902,72621
26.88715,69696
26.89527,71511
26.90338,71102
26.91152,66172
26.91963,65900
26.92777,64968
26.93588,65948
26.94400,64306
26.95213,64585
26.96025,68373
26.96837,70673
26.97650,77966
26.98462,101705
26.99275,140755
27.00087,207795
27.00898,288283
27.01712,372256
27.02523,453296
27.03337,511888
27.04148,500428
27.04960,476089
27.05773,418015
27.06585,361693
27.07398,292477
27.08210,252777
27.09022,223031
27.09835,198030
27.10647,179669
27.11458,158032
27.12272,152799
27.13083,141512
27.13897,131649
27.14708,127347
27.15520,125383
27.16333,126040
27.17145,125032
27.17958,134216
27.18770,135505
27.19582,132041
27.20395,131027
27.21207,129013
27.22020,124299
27.22832,115900
27.23643,109001
27.24457,103453
27.25268,99168
27.26080,95433
27.26893,87514
27.27705,84167
27.28518,80585
27.29330,77997
27.30142,86324
27.30955,79433
27.31767,78634
27.32580,77284
27.33392,77378
27.34203,75732
27.35017,74891
27.35828,76660
27.36640,76229
27.37453,76036
27.38265,79527
27.39078,83722
27.39890,70060
27.40702,74433
27.41515,64286
27.42327,71163
27.43140,67635
27.43952,66104
27.44763,62832
27.45577,69834
27.46388,66286
27.47202,63241
27.48013,59674
27.48825,61776
27.49638,61420
27.50450,60759
27.51262,59848
27.52075,64170
27.52887,62688
27.53700,64920
27.54512,61394
27.55323,58512
27.56137,62867
27.56948,67979
27.57762,69486
27.58573,78050
27.59385,84579
27.60198,94778
27.61010,92635
27.61822,88461
27.62635,84900
27.63447,81168
27.64260,72499
27.65072,60872
27.65883,66847
27.66697,61850
27.67508,63532
27.68322,60356
27.69133,65180
27.69945,65914
27.70758,59292
27.71570,61108
27.72383,57384
27.73195,57118
27.74007,57411
27.74820,55385
27.75632,61077
27.76443,64752
27.77257,75764
27.78068,88590
27.78882,100250
27.79693,109236
27.80505,99206
27.81318,94766
27.82130,79948
27.82943,71921
27.83755,67965
27.84567,63775
27.85380,59917
27.86192,58258
27.87005,53825
27.87817,57618
27.88628,57065
27.89442,58135
27.90253,54356
27.91065,60863
27.91878,51285
27.92690,53993
27.93503,54252
27.94315,49363
27.95127,53317
27.95940,50348
27.96752,50375
27.97565,48863
27.98377,51860
27.99188,50944
28.00002,56386
28.00813,59326
28.01625,61564
28.02438,61011
28.03250,64150
28.04063,68411
28.04875,66825
28.05687,67412
28.06500,61825
28.07312,62666
28.08125,64252
28.08937,56514
28.09748,53885
28.10562,53905
28.11373,53587
28.12187,52709
28.12998,51661
28.13810,50538
28.14623,48544
28.15435,49068
28.16247,46677
28.17060,53120
28.17872,53005
28.18685,55480
28.19497,60975
28.20308,70769
28.21122,81385
28.21933,85195
28.22747,92644
28.23558,85368
28.24370,87795
28.25183,77354
28.25995,68371
28.26808,57803
28.27620,57712
28.28432,53673
28.29245,53734
28.30057,56029
28.30868,57891
28.31682,58667
28.32493,68307
28.33307,75951
28.34118,85837
28.34930,98500
28.35743,114674
28.36555,132300
28.37368,143069
28.38180,153709
28.38992,165775
28.39805,171293
28.40617,176608
28.41428,166840
28.42242,165885
28.43053,156237
28.43867,145248
28.44678,135438
28.45490,132787
28.46303,120244
28.47115,113765
28.47928,104622
28.48740,95038
28.49552,99936
28.50365,98854
28.51177,92771
28.51990,91335
28.52802,91125
28.53613,80028
28.54427,81629
28.55238,73892
28.56050,77392
28.56863,71200
28.57675,72852
28.58488,66381
28.59300,69973
28.60112,66898
28.60925,70879
28.61737,73067
28.62550,72697
28.63362,72941
28.64173,72669
28.64987,79459
28.65798,75717
28.66610,78815
28.67423,81467
28.68235,80262
28.69048,74508
28.69860,71219
28.70672,67935
28.71485,70062
28.72297,60927
28.73110,59581
28.73922,63894
28.74733,66375
28.75547,66743
28.76358,67612
28.77172,75414
28.77983,78735
28.78795,83116
28.79608,85911
28.80420,78156
28.81232,79148
28.82045,70640
28.82857,73808
28.83670,70444
28.84482,65365
28.85293,63232
28.86107,65329
28.86918,65239
28.87732,64629
28.88543,69439
28.89355,73663
28.90168,73682
28.90980,78905
28.91793,68453
28.92605,66706
28.93417,67057
28.94230,64409
28.95042,70615
28.95853,72075
28.96667,69571
28.97478,66561
28.98292,63273
28.99103,63511
28.99915,56827
29.00728,58516
29.01540,59891
29.02353,53535
29.03165,54126
29.03977,52429
29.04790,53600
29.05602,53368
29.06413,62263
29.07227,66893
29.08038,70743
29.08852,73933
29.09663,70005
29.10475,68718
29.11288,66993
29.12100,59700
29.12913,57291
29.13725,57531
29.14537,54105
29.15350,54807
29.16162,57029
29.16975,53584
29.17787,59789
29.18598,63326
29.19412,70912
29.20223,76354
29.21035,89923
29.21848,102620
29.22660,101401
29.23473,101292
29.24285,98273
29.25097,90257
29.25910,91333
29.26722,100814
29.27535,93473
29.28347,92247
29.29158,85882
29.29972,80794
29.30783,70917
29.31597,63857
29.32408,56906
29.33220,58746
29.34033,52370
29.34845,49579
29.35657,50542
29.36470,54250
29.37282,51598
29.38095,52019
29.38907,52541
29.39718,53980
29.40532,51174
29.41343,58085
29.42157,64643
29.42968,62726
29.43780,63184
29.44593,64112
29.45405,61471
29.46217,56227
29.47030,54807
29.47842,51751
29.48655,58101
29.49467,57426
29.50278,58791
29.51092,55921
29.51903,60840
29.52717,62095
29.53528,55638
29.54340,55460
29.55153,54024
29.55965,55856
29.56778,49487
29.57590,48602
29.58402,49297
29.59215,47181
29.60027,48814
29.60838,53175
29.61652,45981
29.62463,52618
29.63277,47722
29.64088,51330
29.64900,47158
29.65713,51191
29.66525,47718
29.67338,46407
29.68150,45934
29.68962,49671
29.69775,54585
29.70587,56998
29.71400,53927
29.72212,55858
29.73023,55007
29.73837,50765
29.74648,48087
29.75460,46434
29.76273,45294
29.77085,40977
29.77898,46127
29.78710,46718
29.79522,43247
29.80335,48170
29.81147,46117
29.81960,42517
29.82772,45096
29.83583,46352
29.84397,45475
29.85208,46956
29.86020,50092
29.86833,62449
29.87645,76129
29.88458,105461
29.89270,133573
29.90082,173878
29.90895,182452
29.91707,178044
29.92520,143880
29.93332,114736
29.94143,90148
29.94957,72176
29.95768,67288
29.96582,66672
29.97393,61974
29.98205,63406
29.99018,73270
29.99830,76724
30.00642,85524
30.01455,86518
30.02267,98903
30.03080,98837
30.03892,103987
30.04703,103879
30.05517,100377
30.06328,106002
30.07142,102226
30.07953,105631
30.08765,102365
30.09578,102724
30.10390,102319
30.11202,100333
30.12015,91949
30.12827,90092
30.13640,91146
30.14452,85806
30.15263,82492
30.16077,82670
30.16888,76252
30.17702,74106
30.18513,78000
30.19325,76846
30.20138,73632
30.20950,75548
30.21763,71777
30.22575,70896
30.23387,61830
30.24200,67076
30.25012,60055
30.25823,56697
30.26637,60587
30.27448,62347
30.28262,52086
30.29073,56051
30.29885,62016
30.30698,53720
30.31510,55241
30.32323,49660
30.33135,57628
30.33947,57872
30.34760,53486
30.35572,53190
30.36385,52510
30.37197,57994
30.38008,57585
30.38822,53656
30.39633,52158
30.40445,48813
30.41258,46068
30.42070,47705
30.42883,50681
30.43695,51755
30.44507,48773
30.45320,50360
30.46132,50885
30.46945,50790
30.47757,50143
30.48568,52121
30.49382,52271
30.50193,51019
30.51005,49661
30.51818,51453
30.52630,53223
30.53443,49070
30.54255,53603
30.55067,49843
30.55880,47660
30.56692,47856
30.57505,46869
30.58317,48987
30.59128,53355
30.59942,48746
30.60753,46074
30.61567,44923
30.62378,42155
30.63190,44400
30.64003,45800
30.64815,45184
30.65627,46514
30.66440,44533
30.67252,47538
30.68065,43721
30.68877,45830
30.69688,43427
30.70502,43948
30.71313,43893
30.72127,44194
30.72938,49827
30.73750,45390
30.74563,48375
30.75375,48201
30.76188,45391
30.77000,58470
30.77812,78851
30.78625,116208
30.79437,174321
30.80248,242345
30.81062,311598
30.81873,347343
30.82687,319701
30.83498,257581
30.84310,192776
30.85123,128546
30.85935,95669
30.86748,81073
30.87560,67630
30.88372,62097
30.89185,57660
30.89997,56898
30.90808,48894
30.91622,50352
30.92433,53347
30.93247,50201
30.94058,48965
30.94870,53234
30.95683,50527
30.96495,47884
30.97308,48960
30.98120,47301
30.98932,47296
30.99745,45565
31.00557,56933
31.01370,52030
31.02182,60181
31.02993,64145
31.03807,65223
31.04618,68796
31.05430,65932
31.06243,76341
31.07055,73361
31.07868,76515
31.08680,83594
31.09492,89621
31.10305,98400
31.11117,98682
31.11930,96938
31.12742,91955
31.13553,87647
31.14367,84931
31.15178,83632
31.15990,80892
31.16803,83029
31.17615,86969
31.18428,85727
31.19240,90792
31.20052,102472
31.20865,121850
31.21677,137634
31.22490,143952
31.23302,155990
31.24113,145852
31.24927,125833
31.25738,105381
31.26552,98542
31.27363,87898
31.28175,73993
31.28988,71975
31.29800,73157
31.30612,71707
31.31425,71470
31.32237,72866
31.33050,69391
31.33862,77930
31.34673,68630
31.35487,74856
31.36298,70705
31.37112,69770
31.37923,70112
31.38735,69240
31.39548,75768
31.40360,70913
31.41173,73539
31.41985,70841
31.42797,64159
31.43610,70760
31.44422,67790
31.45233,70562
31.46047,70383
31.46858,74319
31.47672,76701
31.48483,92157
31.49295,97051
31.50108,90023
31.50920,99851
31.51733,81201
31.52545,79383
31.53357,78990
31.54170,71986
31.54982,75948
31.55795,79013
31.56607,79030
31.57418,92165
31.58232,87067
31.59043,85515
31.59855,79461
31.60668,76554
31.61480,69364
31.62293,67903
31.63105,64668
31.63917,64645
31.64730,63034
31.65542,65082
31.66355,67750
31.67167,64537
31.67978,65907
31.68792,68515
31.69603,64693
31.70415,64104
31.71228,58290
31.72040,54660
31.72853,58111
31.73665,54682
31.74477,54453
31.75290,56409
31.76102,55661
31.76915,58882
31.77727,55951
31.78538,62055
31.79352,55725
31.80163,57185
31.80977,59672
31.81788,60419
31.82600,60863
31.83413,54367
31.84225,55607
31.85037,58782
31.85850,56665
31.86662,55548
31.87475,63554
31.88287,65692
31.89098,62723
31.89912,65126
31.90723,69528
31.91537,66647
31.92348,78627
31.93160,81300
31.93973,79081
31.94785,87432
31.95597,93084
31.96410,93501
31.97222,101885
31.98035,101889
31.98847,105334
31.99658,106673
32.00472,108662
32.01283,103158
32.02097,106787
32.02908,105181
32.03720,99300
32.04533,101835
32.05345,94879
32.06158,89681
32.06970,86348
32.07782,83874
32.08595,87666
32.09407,83282
32.10218,82588
32.11032,79154
32.11843,73511
32.12657,73078
32.13468,70910
32.14280,66877
32.15093,66691
32.15905,67246
32.16718,63547
32.17530,65135
32.18342,64546
32.19155,64796
32.19967,67352
32.20780,58648
32.21592,59457
32.22403,60472
32.23217,59627
32.24028,57329
32.24840,65560
32.25653,63551
32.26465,68916
32.27278,65774
32.28090,64675
32.28902,65641
32.29715,65165
32.30527,59991
32.31340,58489
32.32152,56401
32.32963,61402
32.33777,56680
32.34588,51889
32.35400,58283
32.36213,59839
32.37025,58742
32.37838,54736
32.38650,56781
32.39462,55612
32.40275,51697
32.41087,53307
32.41900,51367
32.42712,56167
32.43523,53730
32.44337,51465
32.45148,54123
32.45962,49534
32.46773,55742
32.47585,50056
32.48398,51673
32.49210,54750
32.50022,53475
32.50835,49856
32.51647,53129
32.52460,52841
32.53272,52772
32.54083,55529
32.54897,53882
32.55708,52892
32.56522,49760
32.57333,51386
32.58145,52526
32.58958,55158
32.59770,50202
32.60583,48870
32.61395,51973
32.62207,47768
32.63020,45131
32.63832,51406
32.64643,51566
32.65457,53876
32.66268,57102
32.67082,64244
32.67893,64336
32.68705,64977
32.69518,68549
32.70330,61140
32.71143,65859
32.71955,57068
32.72767,54931
32.73580,59545
32.74392,53853
32.75203,54306
32.76017,53698
32.76828,53189
32.77642,51672
32.78453,48699
32.79265,47605
32.80078,44904
32.80890,45841
32.81703,52160
32.82515,47467
32.83327,51021
32.84140,47450
32.84952,51221
32.85765,48639
32.86577,47315
32.87388,48563
32.88202,46180
32.89013,46674
32.89825,52921
32.90638,48554
32.91450,49440
32.92263,49012
32.93075,49537
32.93887,48194
32.94700,52999
32.95512,52329
32.96325,50715
32.97137,59469
32.97948,67310
32.98762,92940
32.99573,106335
33.00385,129548
33.01198,139305
33.02010,141290
33.02823,126086
33.03635,98826
33.04447,82331
33.05260,69621
33.06072,64330
33.06885,69699
33.07697,64995
33.08508,72053
33.09322,74752
33.10133,79955
33.10947,86702
33.11758,93026
33.12570,98540
33.13383,94613
33.14195,86286
33.15007,79598
33.15820,73564
33.16632,65183
33.17445,63610
33.18257,59643
33.19068,58463
33.19882,59015
33.20693,59223
33.21507,61263
33.22318,59025
33.23130,57270
33.23943,57783
33.24755,53689
33.25568,52961
33.26380,51195
33.27192,50989
33.28005,47602
33.28817,49576
33.29628,52222
33.30442,58095
33.31253,49695
33.32067,52871
33.32878,54639
33.33690,55697
33.34503,54541
33.35315,57465
33.36128,60298
33.36940,55159
33.37752,54819
33.38565,54697
33.39377,56362
33.40188,52388
33.41002,53376
33.41813,49861
33.42627,52338
33.43438,49579
33.44250,50802
33.45063,46032
33.45875,49687
33.46688,52383
33.47500,55144
33.48312,47836
33.49125,51904
33.49937,51595
33.50750,52612
33.51562,53442
33.52373,56698
33.53187,55492
33.53998,63453
33.54810,58257
33.55623,57443
33.56435,58358
33.57248,60874
33.58060,56673
33.58872,52449
33.59685,50545
33.60497,50425
33.61310,46869
33.62122,48869
33.62933,51570
33.63747,51449
33.64558,53063
33.65372,49187
33.66183,49370
33.66995,51922
33.67808,53754
33.68620,51144
33.69432,53492
33.70245,51414
33.71057,56979
33.71870,51682
33.72682,48064
33.73493,53044
33.74307,50955
33.75118,50827
33.75932,48675
33.76743,53059
33.77555,50343
33.78368,48055
33.79180,49605
33.79992,49298
33.80805,53220
33.81617,52874
33.82430,52456
33.83242,51703
33.84053,50141
33.84867,53035
33.85678,54087
33.86492,50265
33.87303,50259
33.88115,54335
33.88928,56485
33.89740,49277
33.90553,54530
33.91365,54011
33.92177,51029
33.92990,50737
33.93802,51909
33.94613,51098
33.95427,51623
33.96238,49053
33.97052,50649
33.97863,54651
33.98675,53563
33.99488,47634
34.00300,53031
34.01113,49117
34.01925,52206
34.02737,46384
34.03550,48974
34.04362,52067
34.05173,49189
34.05987,52303
34.06798,48631
34.07612,49732
34.08423,53859
34.09235,50506
34.10048,49892
34.10860,50528
34.11673,49450
34.12485,50192
34.13297,51510
34.14110,54075
34.14922,48549
34.15735,47932
34.16547,51847
34.17358,54296
34.18172,48022
34.18983,51922
34.19795,48013
34.20608,46769
34.21420,51463
34.22233,52227
34.23045,50272
34.23857,52482
34.24670,54598
34.25482,49620
34.26295,52241
34.27107,53474
34.27918,52613
34.28732,53132
34.29543,47841
34.30357,52624
34.31168,50877
34.31980,55402
34.32793,55281
34.33605,57016
34.34417,49986
34.35230,58764
34.36042,53226
34.36855,56264
34.37667,52409
34.38478,47563
34.39292,53402
34.40103,50978
34.40917,53083
34.41728,53049
34.42540,53403
34.43353,53357
34.44165,50159
34.44977,49626
34.45790,48949
34.46602,54583
34.47415,51956
34.48227,52074
34.49038,51619
34.49852,50949
34.50663,51938
34.51477,62665
34.52288,60608
34.53100,71009
34.53913,76808
34.54725,85394
34.55538,90645
34.56350,93871
34.57162,94075
34.57975,96494
34.58787,97754
34.59598,91402
34.60412,86269
34.61223,77801
34.62037,71082
34.62848,73247
34.63660,69775
34.64473,71307
34.65285,72206
34.66098,61038
34.66910,63124
34.67722,65335
34.68535,61869
34.69347,64178
34.70160,63072
34.70972,62936
34.71783,61754
34.72597,59737
34.73408,62757
34.74220,63465
34.75033,58578
34.75845,55895
34.76658,56746
34.77470,62090
34.78282,61795
34.79095,57020
34.79907,61694
34.80720,61684
34.81532,61766
34.82343,56930
34.83157,58242
34.83968,57288
34.84780,56442
34.85593,55169
34.86405,55836
34.87218,59168
34.88030,61512
34.88842,57561
34.89655,52670
34.90467,60705
34.91280,59814
34.92092,53601
34.92903,61707
34.93717,63206
34.94528,61108
34.95342,62956
34.96153,61997
34.96965,64474
34.97778,64243
34.98590,66705
34.99402,70634
35.00215,61897
35.01027,65233
35.01840,61363
35.02652,59708
35.03463,60771
35.04277,60236
35.05088,56136
35.05902,61874
35.06713,59215
35.07525,60427
35.08338,58602
35.09150,53681
35.09963,56303
35.10775,53658
35.11587,54686
35.12400,57333
35.13212,51324
35.14023,55578
35.14837,59764
35.15648,60290
35.16462,56402
35.17273,56090
35.18085,61207
35.18898,61935
35.19710,60475
35.20523,54741
35.21335,55865
35.22147,56116
35.22960,57266
35.23772,55645
35.24583,56454
35.25397,61498
35.26208,56734
35.27022,60007
35.27833,60871
35.28645,64041
35.29458,62039
35.30270,60977
35.31083,53683
35.31895,58251
35.32707,56738
35.33520,55047
35.34332,54017
35.35145,52848
35.35957,54848
35.36768,54559
35.37582,54521
35.38393,54068
35.39205,55834
35.40018,58816
35.40830,55735
35.41643,55750
35.42455,57350
35.43267,59078
35.44080,57989
35.44892,63909
35.45705,62860
35.46517,66531
35.47328,64538
35.48142,64542
35.48953,64539
35.49765,60685
35.50578,64028
35.51390,62357
35.52203,58583
35.53015,62784
35.53827,61821
35.54640,57400
35.55452,59164
35.56265,59819
35.57077,59647
35.57888,55979
35.58702,61414
35.59513,63920
35.60327,55306
35.61138,61329
35.61950,61287
35.62763,56608
35.63575,55980
35.64387,57419
35.65200,59024
35.66012,56615
35.66825,58385
35.67637,58841
35.68448,57268
35.69262,61595
35.70073,61134
35.70887,64336
35.71698,58344
35.72510,63626
35.73323,60888
35.74135,67220
35.74948,64161
35.75760,70362
35.76572,68178
35.77385,66680
35.78197,74762
35.79008,66019
35.79822,67386
35.80633,62451
35.81447,60920
35.82258,62474
35.83070,59562
35.83883,60066
35.84695,59458
35.85508,60938
35.86320,59589
35.87132,59206
35.87945,57730
35.88757,64706
35.89568,59740
35.90382,56686
35.91193,57805
35.92007,56054
35.92818,57552
35.93630,61451
35.94443,57924
35.95255,60214
35.96068,56136
35.96880,60917
35.97692,53830
35.98505,60998
35.99317,57213
36.00130,57313
36.00942,60600
36.01753,66239
36.02567,67607
36.03378,63426
36.04190,66527
36.05003,62555
36.05815,68864
36.06628,59972
36.07440,64048
36.08252,60814
36.09065,57317
36.09877,56734
36.10690,59215
36.11502,59263
36.12313,61814
36.13127,62248
36.13938,61086
36.14752,65501
36.15563,64957
36.16375,64222
36.17188,65459
36.18000,64304
36.18812,68739
36.19625,57189
36.20437,63702
36.21250,59834
36.22062,57736
36.22873,56039
36.23687,62713
36.24498,56754
36.25312,59584
36.26123,62209
36.26935,56729
36.27748,56442
36.28560,64664
36.29372,63975
36.30185,61248
36.30997,72757
36.31810,69400
36.32622,72982
36.33433,71839
36.34247,71234
36.35058,67481
36.35872,66650
36.36683,66169
36.37495,62556
36.38308,61486
36.39120,66269
36.39933,62354
36.40745,65336
36.41557,60481
36.42370,64423
36.43182,60288
36.43993,59186
36.44807,61034
36.45618,61499
36.46432,58478
36.47243,59158
36.48055,62423
36.48868,64956
36.49680,60025
36.50493,63832
36.51305,60162
36.52117,59162
36.52930,64801
36.53742,58981
36.54553,60754
36.55367,61422
36.56178,57237
36.56992,62423
36.57803,57425
36.58615,55094
36.59428,61920
36.60240,58969
36.61053,56123
36.61865,62092
36.62677,64497
36.63490,62438
36.64302,63177
36.65115,60578
36.65927,67415
36.66738,67048
36.67552,68516
36.68363,64615
36.69175,70417
36.69988,70561
36.70800,66492
36.71613,71140
36.72425,67632
36.73237,69345
36.74050,71282
36.74862,70355
36.75675,64626
36.76487,69581
36.77298,69267
36.78112,67030
36.78923,67016
36.79737,69175
36.80548,65197
36.81360,68778
36.82173,71381
36.82985,67958
36.83797,67306
36.84610,70141
36.85422,66879
36.86235,67658
36.87047,64022
36.87858,64710
36.88672,63039
36.89483,69550
36.90297,67021
36.91108,70656
36.91920,67642
36.92733,68541
36.93545,69673
36.94357,74044
36.95170,81796
36.95982,90618
36.96795,94179
36.97607,102505
36.98418,95540
36.99232,92542
37.00043,81756
37.00857,77524
37.01668,72955
37.02480,70176
37.03293,72094
37.04105,71327
37.04918,73666
37.05730,72566
37.06542,70908
37.07355,74499
37.08167,72008
37.08978,70854
37.09792,77394
37.10603,72573
37.11417,66990
37.12228,64828
37.13040,73768
37.13853,71939
37.14665,65971
37.15478,69626
37.16290,73682
37.17102,67890
37.17915,68585
37.18727,72121
37.19540,70464
37.20352,71592
37.21163,73118
37.21977,70497
37.22788,68358
37.23600,66858
37.24413,67786
37.25225,71614
37.26038,64843
37.26850,69187
37.27662,68073
37.28475,70372
37.29287,66123
37.30100,70862
37.30912,74849
37.31723,75363
37.32537,74556
37.33348,77804
37.34160,81811
37.34973,92501
37.35785,98417
37.36598,97742
37.37410,104836
37.38222,102386
37.39035,103388
37.39847,99145
37.40660,88268
37.41472,90740
37.42283,87067
37.43097,86982
37.43908,86597
37.44722,88079
37.45533,84887
37.46345,87748
37.47158,85207
37.47970,86262
37.48782,83877
