Z:\data\JTB-E02\BACandBLUE\JTB-E02-192-13.D Tue Dec 18 13:05:17 2018
Start of data points
2.09527	113121
2.10338	99765
2.11150	103219
2.11963	100177
2.12775	101194
2.13588	96435
2.14400	99525
2.15212	100462
2.16025	101054
2.16837	90701
2.17648	94650
2.18462	93715
2.19273	88374
2.20087	88918
2.20898	87364
2.21710	85063
2.22523	85471
2.23335	88591
2.24148	85569
2.24960	83146
2.25772	103291
2.26585	557948
2.27397	2140447
2.28208	2913375
2.29022	1673042
2.29833	919426
2.30647	667439
2.31458	564877
2.32270	475210
2.33083	423198
2.33895	400624
2.34708	350418
2.35520	324148
2.36332	304710
2.37145	286310
2.37957	285215
2.38770	272723
2.39582	262620
2.40393	251805
2.41207	253317
2.42018	265703
2.42830	236443
2.43643	218243
2.44455	216866
2.45268	206619
2.46080	203114
2.46892	199413
2.47705	194109
2.48517	202035
2.49330	216275
2.50142	211836
2.50953	204563
2.51767	198303
2.52578	194851
2.53392	196664
2.54203	190265
2.55015	194851
2.55828	200246
2.56640	198498
2.57452	180257
2.58265	170462
2.59077	164692
2.59890	192924
2.60702	333355
2.61513	459465
2.62327	413644
2.63138	307031
2.63952	238365
2.64763	219194
2.65575	200021
2.66388	184888
2.67200	176978
2.68012	173158
2.68825	169991
2.69637	163842
2.70450	162778
2.71262	163799
2.72073	158330
2.72887	156277
2.73698	153424
2.74512	148939
2.75323	148244
2.76135	152883
2.76948	622167
2.77760	4192220
2.78573	9377432
2.79385	8771581
2.80197	4962828
2.81010	2914605
2.81822	2152504
2.82633	1686538
2.83447	1292438
2.84258	1048736
2.85072	864315
2.85883	725902
2.86695	632092
2.87508	542296
2.88320	493058
2.89133	456250
2.89945	413246
2.90757	367417
2.91570	348488
2.92382	325023
2.93193	304083
2.94007	295753
2.94818	268276
2.95632	267762
2.96443	270503
2.97255	266762
2.98068	248038
2.98880	252991
2.99693	262903
3.00505	273047
3.01317	272069
3.02130	260853
3.02942	231162
3.03755	214814
3.04567	205026
3.05378	195951
3.06192	190981
3.07003	197945
3.07815	226980
3.08628	404141
3.09440	891310
3.10253	2322262
3.11065	4037126
3.11877	3826768
3.12690	2493941
3.13502	1620369
3.14315	1192104
3.15127	928064
3.15938	830009
3.16752	952341
3.17563	1328736
3.18377	3211616
3.19188	7448528
3.20000	9446475
3.20813	7376296
3.21625	4890763
3.22437	3569716
3.23250	2790141
3.24062	2248430
3.24875	1868590
3.25687	1582411
3.26498	1324575
3.27312	1165491
3.28123	1087792
3.28937	1541554
3.29748	3645819
3.30560	7800798
3.31373	1.113606E+07
3.32185	1.095492E+07
3.32997	8387059
3.33810	5981434
3.34622	4380425
3.35435	3490473
3.36247	2846518
3.37058	2423938
3.37872	2107973
3.38683	1890379
3.39497	1687062
3.40308	1522055
3.41120	1400253
3.41933	1316023
3.42745	1275124
3.43558	1273731
3.44370	1260153
3.45182	1159345
3.45995	1168253
3.46807	1364796
3.47618	1510065
3.48432	1366820
3.49243	1120075
3.50057	924747
3.50868	823242
3.51680	765428
3.52493	744032
3.53305	804365
3.54118	864137
3.54930	865715
3.55742	758911
3.56555	672179
3.57367	625274
3.58180	621056
3.58992	563729
3.59803	551048
3.60617	531758
3.61428	520211
3.62240	521247
3.63053	539790
3.63865	557332
3.64678	567979
3.65490	1170197
3.66302	7580674
3.67115	2.897764E+07
3.67927	5.418702E+07
3.68740	6.421202E+07
3.69552	5.947224E+07
3.70363	4.42597E+07
3.71177	3.152595E+07
3.71988	2.481645E+07
3.72800	2.056041E+07
3.73613	1.745809E+07
3.74425	1.501644E+07
3.75238	1.326843E+07
3.76050	1.160871E+07
3.76862	1.022102E+07
3.77675	9075272
3.78487	8217254
3.79300	7583852
3.80112	7133551
3.80923	7113358
3.81737	7461505
3.82548	7344524
3.83362	6559796
3.84173	5724724
3.84985	5228543
3.85798	4809041
3.86610	4472824
3.87422	4175913
3.88235	3954471
3.89047	3736860
3.89860	3535246
3.90672	3388647
3.91483	3492827
3.92297	4079280
3.93108	4807981
3.93922	4791158
3.94733	4062325
3.95545	3350146
3.96358	3076076
3.97170	3011793
3.97983	2772657
3.98795	2483900
3.99607	2297404
4.00420	2264537
4.01232	2362887
4.02043	2443667
4.02857	2285337
4.03668	2076498
4.04482	1896749
4.05293	1804976
4.06105	1711868
4.06918	1615903
4.07730	1599407
4.08543	1595910
4.09355	1575238
4.10167	1559126
4.10980	1499835
4.11792	1427145
4.12603	1384425
4.13417	1333669
4.14228	1315385
4.15042	1299283
4.15853	1314879
4.16665	1287207
4.17478	1304942
4.18290	1293033
4.19103	1251004
4.19915	1233223
4.20727	1587132
4.21540	3914870
4.22352	1.044094E+07
4.23165	2.023882E+07
4.23977	2.818398E+07
4.24788	3.380685E+07
4.25602	3.743141E+07
4.26413	3.858258E+07
4.27225	3.186166E+07
4.28038	1.674191E+07
4.28850	1.000259E+07
4.29663	7454846
4.30475	5864572
4.31287	4777197
4.32100	4002376
4.32912	3489588
4.33725	3036065
4.34537	2730575
4.35348	2592911
4.36162	2774127
4.36973	3337640
4.37785	3607761
4.38598	3257316
4.39410	2486271
4.40223	1991909
4.41035	1715231
4.41847	1549550
4.42660	1425728
4.43472	1353350
4.44285	1288476
4.45097	1224021
4.45908	1173688
4.46722	1118034
4.47533	1082460
4.48347	1057811
4.49158	1023796
4.49970	991573
4.50783	974725
4.51595	972182
4.52407	957693
4.53220	947083
4.54032	979337
4.54845	1057815
4.55657	1145212
4.56468	1114100
4.57282	997498
4.58093	890950
4.58907	849854
4.59718	821208
4.60530	806958
4.61343	815017
4.62155	959350
4.62968	1582350
4.63780	2953538
4.64592	4568016
4.65405	4802353
4.66217	3812708
4.67028	2640542
4.67842	2010677
4.68653	1739581
4.69467	1511952
4.70278	1262913
4.71090	1039245
4.71903	882518
4.72715	816123
4.73528	756732
4.74340	725601
4.75152	695285
4.75965	675662
4.76777	653127
4.77588	641047
4.78402	629308
4.79213	683270
4.80027	844503
4.80838	1033735
4.81650	1100944
4.82463	995233
4.83275	865563
4.84088	906847
4.84900	1043673
4.85712	1186000
4.86525	1121752
4.87337	961849
4.88150	811456
4.88962	719423
4.89773	684114
4.90587	633171
4.91398	606760
4.92210	586173
4.93023	580291
4.93835	617280
4.94648	796697
4.95460	1320315
4.96272	2222762
4.97085	3091502
4.97897	3427273
4.98710	3200033
4.99522	2669372
5.00333	2174178
5.01147	1877825
5.01958	1713715
5.02772	1774500
5.03583	2292351
5.04395	2995605
5.05208	3325092
5.06020	3007569
5.06832	2466731
5.07645	2052491
5.08457	1789912
5.09270	1588264
5.10082	1461243
5.10893	1361471
5.11707	1275529
5.12518	1186498
5.13332	1116609
5.14143	1076863
5.14955	1145234
5.15768	1437620
5.16580	1989225
5.17392	2430159
5.18205	2401113
5.19017	2077273
5.19830	1863341
5.20642	2003967
5.21453	2294640
5.22267	2281377
5.23078	1974252
5.23892	1567396
5.24703	1270425
5.25515	1059766
5.26328	899515
5.27140	798132
5.27953	720067
5.28765	700940
5.29577	669644
5.30390	640795
5.31202	624703
5.32013	625688
5.32827	614111
5.33638	657641
5.34452	686383
5.35263	714635
5.36075	686876
5.36888	637024
5.37700	591007
5.38513	616987
5.39325	719611
5.40137	906058
5.40950	1024280
5.41762	989323
5.42573	844817
5.43387	704430
5.44198	672190
5.45012	775800
5.45823	983362
5.46635	1139728
5.47448	1109949
5.48260	937155
5.49073	709525
5.49885	581401
5.50697	511762
5.51510	498068
5.52322	491192
5.53135	488227
5.53947	478885
5.54758	540050
5.55572	823895
5.56383	1617645
5.57195	2993322
5.58008	4223288
5.58820	4495669
5.59633	3672113
5.60445	2438198
5.61257	1529939
5.62070	1027962
5.62882	799674
5.63695	696896
5.64507	622977
5.65318	578520
5.66132	517944
5.66943	508716
5.67757	498498
5.68568	546130
5.69380	621729
5.70193	715579
5.71005	771020
5.71817	749100
5.72630	671966
5.73442	591221
5.74255	515635
5.75067	482084
5.75878	446542
5.76692	421624
5.77503	410870
5.78317	409698
5.79128	391275
5.79940	384512
5.80753	378700
5.81565	382969
5.82378	379559
5.83190	374145
5.84002	382137
5.84815	374281
5.85627	356174
5.86438	355440
5.87252	353816
5.88063	356023
5.88877	348057
5.89688	356241
5.90500	379970
5.91313	434708
5.92125	538308
5.92938	626983
5.93750	598563
5.94562	537222
5.95375	493359
5.96187	543384
5.96998	647171
5.97812	833033
5.98623	1075014
5.99437	1319552
6.00248	1380279
6.01060	1274312
6.01873	1012532
6.02685	747017
6.03498	563562
6.04310	456290
6.05122	400804
6.05935	363228
6.06747	353036
6.07560	367742
6.08372	361968
6.09183	360580
6.09997	334503
6.10808	318449
6.11620	317370
6.12433	389743
6.13245	727427
6.14058	1422962
6.14870	2393122
6.15682	2948865
6.16495	2732866
6.17307	2066793
6.18120	1432307
6.18932	1085062
6.19743	898970
6.20557	764449
6.21368	666426
6.22180	608031
6.22993	565013
6.23805	558973
6.24618	576261
6.25430	691778
6.26242	892588
6.27055	1049345
6.27867	1031134
6.28680	859608
6.29492	664038
6.30303	572114
6.31117	512662
6.31928	492386
6.32742	488021
6.33553	474043
6.34365	453386
6.35178	426968
6.35990	403739
6.36802	397819
6.37615	402174
6.38427	415390
6.39240	431628
6.40052	428152
6.40863	398846
6.41677	385976
6.42488	358872
6.43302	357397
6.44113	359978
6.44925	389483
6.45738	426389
6.46550	467472
6.47363	459884
6.48175	426490
6.48987	394656
6.49800	378645
6.50612	388435
6.51423	379337
6.52237	391838
6.53048	401829
6.53862	416346
6.54673	396348
6.55485	412140
6.56298	587173
6.57110	1217680
6.57923	2529859
6.58735	4061064
6.59547	4724274
6.60360	3926241
6.61172	2524824
6.61983	1485938
6.62797	951404
6.63608	733509
6.64422	612049
6.65233	529551
6.66045	485626
6.66858	441543
6.67670	425754
6.68483	409370
6.69295	373479
6.70107	335325
6.70920	314503
6.71732	303891
6.72545	296054
6.73357	301534
6.74168	297484
6.74982	282640
6.75793	273867
6.76605	278146
6.77418	276158
6.78230	274024
6.79043	271611
6.79855	260171
6.80667	238749
6.81480	230635
6.82292	212704
6.83105	215391
6.83917	205045
6.84728	213160
6.85542	220544
6.86353	247391
6.87167	270422
6.87978	309294
6.88790	315500
6.89603	275015
6.90415	246335
6.91227	230896
6.92040	198371
6.92852	199511
6.93665	192822
6.94477	189203
6.95288	181248
6.96102	177866
6.96913	201793
6.97727	219768
6.98538	251314
6.99350	281151
7.00163	276424
7.00975	249074
7.01787	222164
7.02600	221616
7.03412	221042
7.04225	221030
7.05037	241957
7.05848	301949
7.06662	478398
7.07473	775676
7.08287	1085528
7.09098	1318342
7.09910	1270124
7.10723	1034680
7.11535	758815
7.12348	523634
7.13160	415009
7.13972	383632
7.14785	375923
7.15597	399447
7.16408	407962
7.17222	455186
7.18033	484659
7.18847	650416
7.19658	1475226
7.20470	3622361
7.21283	7111933
7.22095	1.03638E+07
7.22908	1.124265E+07
7.23720	8857425
7.24532	5021463
7.25345	2246270
7.26157	940460
7.26968	443507
7.27782	285407
7.28593	243465
7.29407	247516
7.30218	247474
7.31030	256403
7.31843	255048
7.32655	284634
7.33468	340424
7.34280	437032
7.35092	534950
7.35905	596129
7.36717	561467
7.37530	509225
7.38342	416317
7.39153	344899
7.39967	294799
7.40778	260055
7.41590	235698
7.42403	211075
7.43215	200512
7.44028	189009
7.44840	179650
7.45652	181683
7.46465	195328
7.47277	225933
7.48090	224771
7.48902	228461
7.49713	213879
7.50527	201565
7.51338	197596
7.52152	208814
7.52963	350763
7.53775	786061
7.54588	1961120
7.55400	4497958
7.56212	8943996
7.57025	1.491986E+07
7.57837	2.083487E+07
7.58650	2.461954E+07
7.59462	2.428516E+07
7.60273	1.999876E+07
7.61087	1.397555E+07
7.61898	8297213
7.62712	4463470
7.63523	2359696
7.64335	1340944
7.65148	869410
7.65960	620865
7.66772	472321
7.67585	377615
7.68397	295268
7.69210	247631
7.70022	214442
7.70833	207357
7.71647	237114
7.72458	289419
7.73272	382894
7.74083	473500
7.74895	502644
7.75708	511000
7.76520	455806
7.77333	398063
7.78145	343598
7.78957	311450
7.79770	306416
7.80582	342429
7.81393	415621
7.82207	513761
7.83018	547499
7.83832	495690
7.84643	413322
7.85455	361029
7.86268	342528
7.87080	396819
7.87893	501470
7.88705	647957
7.89517	890370
7.90330	1083719
7.91142	1177634
7.91955	1034755
7.92767	792058
7.93578	576629
7.94392	474935
7.95203	470626
7.96015	506320
7.96828	472606
7.97640	413954
7.98453	349478
7.99265	282242
8.00077	239695
8.00890	212066
8.01702	190873
8.02515	188795
8.03327	181711
8.04138	182431
8.04952	177473
8.05763	170139
8.06575	180368
8.07388	178784
8.08200	185654
8.09013	193486
8.09825	179356
8.10637	169060
8.11450	168835
8.12262	159852
8.13075	170603
8.13887	215167
8.14698	307314
8.15512	436934
8.16323	568007
8.17137	595539
8.17948	512746
8.18760	398466
8.19573	325364
8.20385	263202
8.21197	238256
8.22010	210106
8.22822	184813
8.23635	181309
8.24447	163755
8.25258	155553
8.26072	144090
8.26883	143045
8.27697	141174
8.28508	139422
8.29320	142813
8.30133	145460
8.30945	146474
8.31758	175406
8.32570	218513
8.33382	280493
8.34195	329576
8.35007	322867
8.35818	278107
8.36632	221980
8.37443	174214
8.38257	154127
8.39068	141759
8.39880	125400
8.40693	124305
8.41505	122409
8.42318	116323
8.43130	120438
8.43942	122246
8.44755	126929
8.45567	137740
8.46378	134000
8.47192	118830
8.48003	128552
8.48817	119519
8.49628	109713
8.50440	112793
8.51253	116139
8.52065	128073
8.52878	176635
8.53690	249753
8.54502	334655
8.55315	379785
8.56127	324284
8.56940	248272
8.57752	181984
8.58563	152487
8.59377	131305
8.60188	133132
8.61000	149288
8.61813	171178
8.62625	212172
8.63438	234648
8.64250	238029
8.65062	215073
8.65875	185844
8.66687	157215
8.67500	132234
8.68312	124844
8.69123	112067
8.69937	112633
8.70748	120941
8.71560	117718
8.72373	120250
8.73185	118278
8.73998	116616
8.74810	111265
8.75622	112773
8.76435	112313
8.77247	134885
8.78060	202039
8.78872	336589
8.79683	552220
8.80497	777636
8.81308	903978
8.82122	871048
8.82933	714509
8.83745	560978
8.84558	472938
8.85370	416381
8.86182	378933
8.86995	357086
8.87807	343837
8.88620	328687
8.89432	311368
8.90243	300739
8.91057	293416
8.91868	281743
8.92682	320244
8.93493	409764
8.94305	536447
8.95118	594919
8.95930	597480
8.96743	507138
8.97555	445608
8.98367	457593
8.99180	548659
8.99992	607834
9.00803	612459
9.01617	552190
9.02428	463567
9.03242	373731
9.04053	305290
9.04865	273090
9.05678	240545
9.06490	230091
9.07303	208119
9.08115	216146
9.08927	228351
9.09740	264907
9.10552	362732
9.11363	537328
9.12177	789093
9.12988	989556
9.13802	1047761
9.14613	901344
9.15425	678451
9.16238	504705
9.17050	387309
9.17863	321189
9.18675	303792
9.19487	278739
9.20300	266621
9.21112	255747
9.21925	246396
9.22737	233931
9.23548	252027
9.24362	263414
9.25173	283834
9.25985	299533
9.26798	289621
9.27610	273995
9.28423	254290
9.29235	238375
9.30047	217781
9.30860	207102
9.31672	201591
9.32485	208456
9.33297	200709
9.34108	200904
9.34922	190054
9.35733	180183
9.36547	185388
9.37358	178896
9.38170	200397
9.38983	274056
9.39795	426846
9.40607	662000
9.41420	985632
9.42232	1289928
9.43045	1501680
9.43857	1649215
9.44668	1833166
9.45482	1920242
9.46293	1791597
9.47107	1537338
9.47918	1160815
9.48730	787097
9.49543	511325
9.50355	365171
9.51167	320693
9.51980	348462
9.52792	442248
9.53605	538184
9.54417	603973
9.55228	610508
9.56042	532349
9.56853	423972
9.57667	329881
9.58478	261998
9.59290	206741
9.60103	183402
9.60915	180774
9.61728	176007
9.62540	164547
9.63352	167102
9.64165	162102
9.64977	159099
9.65788	152326
9.66602	161897
9.67413	159086
9.68227	161675
9.69038	173153
9.69850	166077
9.70663	151558
9.71475	143473
9.72288	147164
9.73100	146461
9.73912	150914
9.74725	146317
9.75537	138465
9.76348	136518
9.77162	117071
9.77973	119750
9.78787	121974
9.79598	113838
9.80410	124505
9.81223	115261
9.82035	116016
9.82848	123386
9.83660	117381
9.84472	112839
9.85285	116185
9.86097	115997
9.86910	119106
9.87722	120560
9.88533	121480
9.89347	112292
9.90158	114099
9.90970	107088
9.91783	117459
9.92595	133446
9.93408	175549
9.94220	296043
9.95032	570755
9.95845	1039979
9.96657	1686052
9.97470	2186401
9.98282	2306317
9.99093	2040433
9.99907	1454988
10.00718	915867
10.01532	555549
10.02343	348486
10.03155	256545
10.03968	246572
10.04780	262754
10.05592	307434
10.06405	360729
10.07217	383138
10.08030	397718
10.08842	401312
10.09653	376716
10.10467	348032
10.11278	338544
10.12092	312954
10.12903	292816
10.13715	277881
10.14528	264709
10.15340	245551
10.16152	238761
10.16965	234664
10.17777	227126
10.18590	230581
10.19402	206476
10.20213	209844
10.21027	193154
10.21838	190852
10.22652	191415
10.23463	196154
10.24275	190868
10.25088	209886
10.25900	245325
10.26713	387361
10.27525	822952
10.28337	1957334
10.29150	4195828
10.29962	7488575
10.30773	1.151293E+07
10.31587	1.583273E+07
10.32398	2.017728E+07
10.33212	2.525488E+07
10.34023	3.145177E+07
10.34835	3.962193E+07
10.35648	4.91744E+07
10.36460	5.842995E+07
10.37273	6.295941E+07
10.38085	5.75878E+07
10.38897	4.069389E+07
10.39710	2.760269E+07
10.40522	2.000157E+07
10.41335	1.388775E+07
10.42147	8369200
10.42958	4807010
10.43772	3021211
10.44583	2430455
10.45395	2415445
10.46208	2547637
10.47020	2681123
10.47833	2670091
10.48645	2389365
10.49457	1963530
10.50270	1535800
10.51082	1187553
10.51895	1009384
10.52707	882051
10.53518	801200
10.54332	734821
10.55143	707171
10.55955	663687
10.56768	655023
10.57580	620968
10.58393	601695
10.59205	613498
10.60017	559396
10.60830	547515
10.61642	499244
10.62455	485703
10.63267	476336
10.64078	455466
10.64892	440851
10.65703	417027
10.66517	396840
10.67328	377274
10.68140	364852
10.68953	384149
10.69765	413866
10.70577	456843
10.71390	524376
10.72202	550865
10.73015	557341
10.73827	515797
10.74638	466195
10.75452	395119
10.76263	356890
10.77077	339261
10.77888	310241
10.78700	309943
10.79513	291826
10.80325	314211
10.81137	357109
10.81950	425597
10.82762	504172
10.83575	539399
10.84387	509921
10.85198	429471
10.86012	341673
10.86823	292065
10.87637	249276
10.88448	249722
10.89260	229789
10.90073	229391
10.90885	223020
10.91698	230655
10.92510	225261
10.93322	225610
10.94135	223605
10.94947	205275
10.95758	205936
10.96572	206115
10.97383	203872
10.98197	197699
10.99008	215689
10.99820	245485
11.00633	284377
11.01445	356299
11.02258	430145
11.03070	468055
11.03882	474558
11.04695	414301
11.05507	347258
11.06320	310761
11.07132	298790
11.07943	369613
11.08757	460746
11.09568	561030
11.10380	638962
11.11193	670411
11.12005	627249
11.12818	559889
11.13630	468757
11.14442	384307
11.15255	317551
11.16067	278914
11.16880	268096
11.17692	255876
11.18503	248978
11.19317	238274
11.20128	218363
11.20942	202163
11.21753	180944
11.22565	160314
11.23378	154453
11.24190	147820
11.25002	145595
11.25815	133041
11.26627	125473
11.27440	119282
11.28252	116825
11.29063	115443
11.29877	142118
11.30688	229425
11.31502	543937
11.32313	1455303
11.33125	3521512
11.33938	7276565
11.34750	1.207067E+07
11.35562	1.710231E+07
11.36375	1.988318E+07
11.37187	1.974382E+07
11.38000	1.665564E+07
11.38812	1.222138E+07
11.39623	8276817
11.40437	5591985
11.41248	4091294
11.42062	3212948
11.42873	2526062
11.43685	1994465
11.44498	1579341
11.45310	1250644
11.46123	1056879
11.46935	872768
11.47747	751576
11.48560	681489
11.49372	668875
11.50183	733813
11.50997	849964
11.51808	968664
11.52622	1095337
11.53433	1071808
11.54245	999812
11.55058	853529
11.55870	751398
11.56683	700343
11.57495	693816
11.58307	679913
11.59120	683053
11.59932	683268
11.60743	709045
11.61557	840805
11.62368	977576
11.63182	1087992
11.63993	1054081
11.64805	898480
11.65618	678169
11.66430	498713
11.67243	381314
11.68055	321223
11.68867	308104
11.69680	295736
11.70492	310625
11.71305	326093
11.72117	353036
11.72928	383864
11.73742	418337
11.74553	417108
11.75365	373158
11.76178	314297
11.76990	255301
11.77803	224844
11.78615	191034
11.79427	179927
11.80240	165286
11.81052	157930
11.81865	154984
11.82677	147303
11.83488	144245
11.84302	145837
11.85113	136701
11.85927	137098
11.86738	133218
11.87550	125879
11.88363	126709
11.89175	119473
11.89987	121586
11.90800	115272
11.91612	124713
11.92425	121696
11.93237	124134
11.94048	133295
11.94862	133026
11.95673	132103
11.96487	119217
11.97298	119070
11.98110	109968
11.98923	110947
11.99735	106190
12.00547	100316
12.01360	99752
12.02172	103254
12.02985	100228
12.03797	96131
12.04608	100095
12.05422	100286
12.06233	106359
12.07047	112057
12.07858	136303
12.08670	172137
12.09483	227900
12.10295	363907
12.11108	658277
12.11920	1365163
12.12732	2798764
12.13545	4973181
12.14357	7401016
12.15168	9134629
12.15982	9480385
12.16793	8052878
12.17607	5877998
12.18418	3868206
12.19230	2579421
12.20043	1980601
12.20855	1749615
12.21668	1630350
12.22480	1464693
12.23292	1301744
12.24105	1158934
12.24917	1027655
12.25730	951796
12.26542	885530
12.27353	857020
12.28167	833465
12.28978	794798
12.29790	726509
12.30603	674204
12.31415	615002
12.32228	562670
12.33040	514969
12.33852	510554
12.34665	496015
12.35477	459393
12.36290	425430
12.37102	436030
12.37913	416241
12.38727	423725
12.39538	434813
12.40350	490570
12.41163	690819
12.41975	1113548
12.42788	1701908
12.43600	2235575
12.44412	2378117
12.45225	2121690
12.46037	1625199
12.46850	1177122
12.47662	881890
12.48473	689237
12.49287	569687
12.50098	534545
12.50912	475826
12.51723	453834
12.52535	433278
12.53348	452327
12.54160	548308
12.54972	689589
12.55785	838413
12.56597	956071
12.57410	968774
12.58222	864317
12.59033	721069
12.59847	587419
12.60658	486224
12.61472	424038
12.62283	387904
12.63095	358950
12.63908	332921
12.64720	304699
12.65532	293694
12.66345	273996
12.67157	256348
12.67970	245634
12.68782	249884
12.69593	245364
12.70407	244726
12.71218	247159
12.72032	239651
12.72843	233861
12.73655	233828
12.74468	242430
12.75280	232148
12.76093	226380
12.76905	216038
12.77717	207141
12.78530	201011
12.79342	192689
12.80153	188250
12.80967	177322
12.81778	167938
12.82592	155080
12.83403	136351
12.84215	128549
12.85028	112372
12.85840	109927
12.86653	103818
12.87465	101095
12.88277	103387
12.89090	102682
12.89902	102255
12.90715	103284
12.91527	106906
12.92338	93444
12.93152	102134
12.93963	92897
12.94775	94248
12.95588	98672
12.96400	102038
12.97213	110938
12.98025	119720
12.98837	132003
12.99650	139142
13.00462	139284
13.01275	130142
13.02087	112306
13.02898	102416
13.03712	98737
13.04523	94587
13.05335	97689
13.06148	95876
13.06960	94086
13.07773	96280
13.08585	103114
13.09397	105173
13.10210	110573
13.11022	106284
13.11835	105455
13.12647	96162
13.13458	98186
13.14272	100717
13.15083	97846
13.15897	92825
13.16708	102604
13.17520	114144
13.18333	111626
13.19145	116426
13.19957	115702
13.20770	118328
13.21582	128650
13.22395	138672
13.23207	147142
13.24018	164034
13.24832	163338
13.25643	164318
13.26457	152810
13.27268	157544
13.28080	146547
13.28893	142932
13.29705	129141
13.30518	112705
13.31330	103056
13.32142	95658
13.32955	92831
13.33767	84335
13.34578	83027
13.35392	86268
13.36203	83527
13.37017	86828
13.37828	87439
13.38640	79097
13.39453	80548
13.40265	84055
13.41078	83674
13.41890	87253
13.42702	88792
13.43515	83870
13.44327	91856
13.45138	88987
13.45952	105046
13.46763	117760
13.47577	135372
13.48388	158115
13.49200	161559
13.50013	155478
13.50825	137102
13.51638	131451
13.52450	127917
13.53262	123479
13.54075	127269
13.54887	121477
13.55700	111585
13.56512	104915
13.57323	101957
13.58137	119470
13.58948	142077
13.59760	186231
13.60573	220666
13.61385	260331
13.62198	273994
13.63010	279564
13.63822	266654
13.64635	250441
13.65447	201711
13.66260	170635
13.67072	142245
13.67883	117703
13.68697	101547
13.69508	92260
13.70322	79754
13.71133	78368
13.71945	73769
13.72758	69909
13.73570	78209
13.74382	78109
13.75195	87377
13.76007	100937
13.76820	125586
13.77632	192479
13.78443	279995
13.79257	421228
13.80068	614360
13.80882	887126
13.81693	1181024
13.82505	1590720
13.83318	2137816
13.84130	2822011
13.84942	3367655
13.85755	3656477
13.86567	3394765
13.87380	2762808
13.88192	1995743
13.89003	1314171
13.89817	818273
13.90628	526897
13.91442	366637
13.92253	268859
13.93065	208337
13.93878	182154
13.94690	171298
13.95503	153159
13.96315	146239
13.97127	134122
13.97940	124115
13.98752	117762
13.99563	120862
14.00377	115096
14.01188	124773
14.02002	132913
14.02813	132813
14.03625	128636
14.04438	118830
14.05250	118531
14.06063	106456
14.06875	103006
14.07687	106468
14.08500	122608
14.09312	117682
14.10123	110836
14.10937	116774
14.11748	109979
14.12562	100674
14.13373	105064
14.14185	115685
14.14998	130440
14.15810	166829
14.16623	225001
14.17435	273651
14.18247	308729
14.19060	314965
14.19872	305703
14.20685	303939
14.21497	323360
14.22308	368261
14.23122	422878
14.23933	479234
14.24745	517207
14.25558	560786
14.26370	603650
14.27183	651357
14.27995	630675
14.28807	558251
14.29620	446175
14.30432	334632
14.31245	277746
14.32057	231462
14.32868	210516
14.33682	190048
14.34493	189121
14.35307	184582
14.36118	176292
14.36930	167235
14.37743	162507
14.38555	149371
14.39367	140225
14.40180	135620
14.40992	149610
14.41805	184193
14.42617	253184
14.43428	305906
14.44242	338774
14.45053	319274
14.45867	284584
14.46678	248864
14.47490	236511
14.48303	254593
14.49115	284677
14.49927	310234
14.50740	316864
14.51552	285362
14.52365	264621
14.53177	219866
14.53988	199029
14.54802	188346
14.55613	167952
14.56427	165034
14.57238	147377
14.58050	139434
14.58863	123401
14.59675	115882
14.60488	103055
14.61300	98330
14.62112	101171
14.62925	93020
14.63737	88677
14.64548	86470
14.65362	84452
14.66173	85451
14.66987	87218
14.67798	89274
14.68610	78902
14.69423	85690
14.70235	78825
14.71048	82348
14.71860	83504
14.72672	94772
14.73485	100904
14.74297	108104
14.75110	120465
14.75922	128434
14.76733	136294
14.77547	141280
14.78358	157471
14.79170	175722
14.79983	254512
14.80795	582472
14.81608	1558799
14.82420	3905125
14.83232	7961705
14.84045	1.385009E+07
14.84857	2.060674E+07
14.85670	2.716469E+07
14.86482	2.964511E+07
14.87293	2.715616E+07
14.88107	1.993938E+07
14.88918	1.144127E+07
14.89730	5833081
14.90543	3245954
14.91355	2282433
14.92168	1821791
14.92980	1593527
14.93792	1419532
14.94605	1269692
14.95417	1169575
14.96230	1064623
14.97042	951127
14.97853	872758
14.98667	790792
14.99478	740093
15.00292	683103
15.01103	639067
15.01915	619923
15.02728	609413
15.03540	601724
15.04352	599715
15.05165	575413
15.05977	560559
15.06790	522051
15.07602	481375
15.08413	445415
15.09227	417529
15.10038	386476
15.10852	366348
15.11663	341950
15.12475	332695
15.13288	335574
15.14100	377808
15.14912	440325
15.15725	515105
15.16537	548923
15.17350	511162
15.18162	435426
15.18973	328567
15.19787	245719
15.20598	201141
15.21412	179324
15.22223	170487
15.23035	158636
15.23848	159002
15.24660	155524
15.25473	155730
15.26285	152807
15.27097	154426
15.27910	145395
15.28722	138306
15.29533	136920
15.30347	128028
15.31158	117342
15.31972	112693
15.32783	114179
15.33595	116317
15.34408	108808
15.35220	114317
15.36033	107710
15.36845	115496
15.37657	109534
15.38470	114393
15.39282	123257
15.40095	139186
15.40907	131232
15.41718	131173
15.42532	125423
15.43343	121677
15.44155	118938
15.44968	120469
15.45780	122742
15.46593	146213
15.47405	219338
15.48217	394795
15.49030	807782
15.49842	1469567
15.50655	2305355
15.51467	3088137
15.52278	3557530
15.53092	3555520
15.53903	3118294
15.54715	2466411
15.55528	1806218
15.56340	1304368
15.57153	915960
15.57965	644501
15.58777	491113
15.59590	383731
15.60402	330292
15.61215	295770
15.62027	273288
15.62838	252239
15.63652	241326
15.64463	220528
15.65277	208520
15.66088	198745
15.66900	183875
15.67713	165506
15.68525	156967
15.69337	144395
15.70150	137630
15.70962	128693
15.71775	120756
15.72587	123044
15.73398	114501
15.74212	113682
15.75023	128963
15.75837	142508
15.76648	213878
15.77460	395343
15.78273	759416
15.79085	1346665
15.79898	1923952
15.80710	2286794
15.81522	2240604
15.82335	1798247
15.83147	1229924
15.83958	786525
15.84772	528405
15.85583	382102
15.86397	308723
15.87208	269402
15.88020	253766
15.88833	243253
15.89645	228740
15.90458	222576
15.91270	214837
15.92082	206728
15.92895	195426
15.93707	182991
15.94518	185876
15.95332	176704
15.96143	172924
15.96957	175919
15.97768	159289
15.98580	157279
15.99393	161414
16.00205	166746
16.01018	195415
16.01830	227979
16.02642	270705
16.03455	313593
16.04267	334326
16.05080	313671
16.05892	278502
16.06703	244464
16.07517	197313
16.08328	167229
16.09140	146565
16.09953	138224
16.10765	132491
16.11578	126819
16.12390	138266
16.13202	158503
16.14015	206131
16.14827	238304
16.15640	277118
16.16452	318114
16.17263	337829
16.18077	313751
16.18888	263698
16.19700	234001
16.20513	185923
16.21325	170593
16.22138	167280
16.22950	171888
16.23762	162667
16.24575	160680
16.25387	148452
16.26200	136642
16.27012	130872
16.27823	125863
16.28637	134341
16.29448	166503
16.30262	205359
16.31073	255719
16.31885	293970
16.32698	320078
16.33510	327798
16.34322	293751
16.35135	289441
16.35947	271811
16.36760	264848
16.37572	244475
16.38383	217966
16.39197	198683
16.40008	171389
16.40822	158994
16.41633	149769
16.42445	150051
16.43258	139529
16.44070	142430
16.44883	154616
16.45695	266343
16.46507	566426
16.47320	1315607
16.48132	2715123
16.48943	4686057
16.49757	6464115
16.50568	7132916
16.51382	6282795
16.52193	4549530
16.53005	2870138
16.53818	1651394
16.54630	994090
16.55443	673732
16.56255	529258
16.57067	435603
16.57880	380962
16.58692	371332
16.59505	339466
16.60317	320918
16.61128	326388
16.61942	308202
16.62753	296897
16.63565	269232
16.64378	260280
16.65190	243900
16.66003	226148
16.66815	208676
16.67627	199404
16.68440	189810
16.69252	182591
16.70065	180950
16.70877	169244
16.71688	160004
16.72502	143940
16.73313	151779
16.74125	133882
16.74938	136492
16.75750	139774
16.76563	170578
16.77375	210572
16.78187	229030
16.79000	231378
16.79812	210484
16.80625	170499
16.81437	146148
16.82248	126022
16.83062	108851
16.83873	108776
16.84687	93732
16.85498	97990
16.86310	100575
16.87123	96679
16.87935	93252
16.88747	92200
16.89560	91743
16.90372	93911
16.91185	92090
16.91997	93418
16.92808	95474
16.93622	96783
16.94433	99755
16.95247	100196
16.96058	95821
16.96870	98894
16.97683	95031
16.98495	93319
16.99307	98706
17.00120	102545
17.00932	108281
17.01745	118842
17.02557	128645
17.03368	126701
17.04182	133497
17.04993	154268
17.05807	178505
17.06618	221763
17.07430	241386
17.08243	226478
17.09055	211151
17.09868	172681
17.10680	144392
17.11492	125442
17.12305	115271
17.13117	135060
17.13928	136252
17.14742	167828
17.15553	172839
17.16367	184249
17.17178	179453
17.17990	159394
17.18803	154733
17.19615	141567
17.20428	127426
17.21240	120070
17.22052	113293
17.22865	105037
17.23677	99474
17.24490	100527
17.25302	108794
17.26113	107229
17.26927	116968
17.27738	117675
17.28550	110710
17.29363	111564
17.30175	105056
17.30988	97297
17.31800	114987
17.32612	128871
17.33425	167608
17.34237	221338
17.35050	298032
17.35862	349157
17.36673	375923
17.37487	381163
17.38298	358413
17.39110	327030
17.39923	301804
17.40735	308483
17.41548	289910
17.42360	312619
17.43172	323317
17.43985	329587
17.44797	315652
17.45610	314470
17.46422	277735
17.47233	246774
17.48047	198956
17.48858	173658
17.49672	159274
17.50483	141559
17.51295	132422
17.52108	124090
17.52920	131509
17.53732	139147
17.54545	130015
17.55357	134028
17.56170	150724
17.56982	187484
17.57793	345351
17.58607	723229
17.59418	1595405
17.60232	3076894
17.61043	4776025
17.61855	6184331
17.62668	6802963
17.63480	6351237
17.64293	4956341
17.65105	3348881
17.65917	1953458
17.66730	1114819
17.67542	652976
17.68353	409581
17.69167	316353
17.69978	284876
17.70792	267664
17.71603	283573
17.72415	287243
17.73228	303544
17.74040	316100
17.74853	329722
17.75665	333715
17.76477	336675
17.77290	319589
17.78102	286902
17.78913	252407
17.79727	209761
17.80538	183836
17.81352	163824
17.82163	156960
17.82975	163722
17.83788	175931
17.84600	201009
17.85413	256650
17.86225	337403
17.87037	435099
17.87850	533901
17.88662	567751
17.89475	565525
17.90287	450906
17.91098	328322
17.91912	245626
17.92723	188440
17.93535	160582
17.94348	147182
17.95160	136823
17.95973	133591
17.96785	125080
17.97597	118050
17.98410	120359
17.99222	117408
18.00035	108184
18.00847	115800
18.01658	134613
18.02472	173284
18.03283	256451
18.04095	394033
18.04908	563504
18.05720	723567
18.06533	861706
18.07345	1175487
18.08157	2054399
18.08970	3746917
18.09782	6211278
18.10595	8829167
18.11407	1.039529E+07
18.12218	1.001842E+07
18.13032	8506142
18.13843	6475441
18.14657	4723968
18.15468	3489498
18.16280	2711976
18.17093	2234375
18.17905	1925087
18.18717	1628605
18.19530	1433157
18.20342	1260433
18.21155	1073406
18.21967	973153
18.22778	882006
18.23592	808713
18.24403	765651
18.25217	705112
18.26028	636229
18.26840	595231
18.27653	556731
18.28465	496299
18.29278	432730
18.30090	342062
18.30902	269824
18.31715	220266
18.32527	192208
18.33338	170113
18.34152	158528
18.34963	151822
18.35777	142471
18.36588	143674
18.37400	142198
18.38213	135821
18.39025	134357
18.39838	140656
18.40650	142778
18.41462	167064
18.42275	215891
18.43087	313816
18.43898	456562
18.44712	655791
18.45523	882640
18.46337	1132515
18.47148	1373676
18.47960	1743469
18.48773	2176140
18.49585	2455817
18.50398	2558666
18.51210	2315936
18.52022	1788755
18.52835	1222628
18.53647	774305
18.54460	501210
18.55272	326360
18.56083	255850
18.56897	207895
18.57708	196228
18.58520	180508
18.59333	175475
18.60145	189855
18.60958	227218
18.61770	270157
18.62582	336514
18.63395	388076
18.64207	429305
18.65020	435150
18.65832	399565
18.66643	344986
18.67457	293941
18.68268	233898
18.69082	192820
18.69893	168245
18.70705	165125
18.71518	167635
18.72330	169930
18.73142	177864
18.73955	176927
18.74767	166360
18.75580	157982
18.76392	150471
18.77203	142983
18.78017	128282
18.78828	123521
18.79642	125759
18.80453	124000
18.81265	129290
18.82078	137490
18.82890	134365
18.83702	127672
18.84515	126608
18.85327	128794
18.86140	148020
18.86952	159688
18.87763	205470
18.88577	260257
18.89388	305149
18.90202	311827
18.91013	298221
18.91825	280508
18.92638	248395
18.93450	234687
18.94263	241863
18.95075	270678
18.95887	326136
18.96700	396613
18.97512	490673
18.98323	513508
18.99137	495436
18.99948	444902
19.00762	355964
19.01573	281900
19.02385	235758
19.03198	198274
19.04010	185810
19.04823	173346
19.05635	164917
19.06447	155321
19.07260	146167
19.08072	133932
19.08883	142351
19.09697	169424
19.10508	215686
19.11322	272712
19.12133	337777
19.12945	345011
19.13758	320543
19.14570	273364
19.15383	217799
19.16195	181035
19.17007	154780
19.17820	140660
19.18632	123194
19.19445	116996
19.20257	109502
19.21068	102027
19.21882	107287
19.22693	108565
19.23505	108430
19.24318	111646
19.25130	118594
19.25943	110872
19.26755	113621
19.27567	112491
19.28380	125256
19.29192	144437
19.30005	162778
19.30817	192508
19.31628	207830
19.32442	219510
19.33253	203068
19.34067	187195
19.34878	164799
19.35690	158902
19.36503	181285
19.37315	249984
19.38127	342658
19.38940	423334
19.39752	468217
19.40565	463833
19.41377	408037
19.42188	344451
19.43002	310220
19.43813	309076
19.44627	296027
19.45438	276188
19.46250	274502
19.47063	270301
19.47875	269420
19.48687	266090
19.49500	287544
19.50312	305802
19.51125	332149
19.51937	393437
19.52748	467651
19.53562	525069
19.54373	591196
19.55187	616814
19.55998	610388
19.56810	575380
19.57623	522082
19.58435	438180
19.59248	377981
19.60060	326781
19.60872	292072
19.61685	264658
19.62497	250905
19.63308	253632
19.64122	269857
19.64933	359975
19.65747	544984
19.66558	902436
19.67370	1397521
19.68183	1993588
19.68995	2502959
19.69808	2698121
19.70620	2498108
19.71432	2078894
19.72245	1619278
19.73057	1245631
19.73870	987582
19.74682	796208
19.75493	680322
19.76307	594789
19.77118	527681
19.77930	521829
19.78743	580529
19.79555	695878
19.80368	922403
19.81180	1125488
19.81992	1283383
19.82805	1303894
19.83617	1165672
19.84430	1005332
19.85242	759894
19.86053	594689
19.86867	483103
19.87678	443659
19.88490	456586
19.89303	539567
19.90115	693156
19.90928	862979
19.91740	948226
19.92552	981354
19.93365	892717
19.94177	772338
19.94990	636941
19.95802	512127
19.96613	464209
19.97427	405301
19.98238	377227
19.99052	354173
19.99863	346340
20.00675	340643
20.01488	333876
20.02300	357084
20.03112	356080
20.03925	380635
20.04737	395373
20.05550	409653
20.06362	469679
20.07173	633397
20.07987	894957
20.08798	1260098
20.09612	1630247
20.10423	1848251
20.11235	1893781
20.12048	1717920
20.12860	1405158
20.13673	1091610
20.14485	895120
20.15297	932973
20.16110	1354573
20.16922	2407971
20.17733	4299101
20.18547	7135645
20.19358	1.034936E+07
20.20172	1.321495E+07
20.20983	1.546282E+07
20.21795	1.575918E+07
20.22608	1.42745E+07
20.23420	1.147937E+07
20.24233	8698249
20.25045	6526660
20.25857	5667322
20.26670	6152992
20.27482	7619400
20.28293	9185710
20.29107	1.047784E+07
20.29918	1.066847E+07
20.30732	9940990
20.31543	7929303
20.32355	5741155
20.33168	3825673
20.33980	2391785
20.34793	1559217
20.35605	1028966
20.36417	726590
20.37230	560500
20.38042	461494
20.38855	403511
20.39667	354574
20.40478	329334
20.41292	311103
20.42103	299489
20.42915	298989
20.43728	335584
20.44540	363309
20.45353	433555
20.46165	492216
20.46977	545339
20.47790	570867
20.48602	544534
20.49415	474561
20.50227	397240
20.51038	349371
20.51852	297184
20.52663	268068
20.53475	258851
20.54288	253777
20.55100	253538
20.55913	262869
20.56725	274623
20.57537	276326
20.58350	265216
20.59162	243726
20.59975	239346
20.60787	233202
20.61598	219241
20.62412	225927
20.63223	232118
20.64037	244203
20.64848	276845
20.65660	311294
20.66473	342620
20.67285	355692
20.68097	346110
20.68910	315786
20.69722	274760
20.70535	247404
20.71347	225534
20.72158	212941
20.72972	193054
20.73783	197587
20.74597	198626
20.75408	215762
20.76220	240510
20.77033	282132
20.77845	316971
20.78658	387155
20.79470	531149
20.80282	869921
20.81095	1590518
20.81907	2741293
20.82718	4027372
20.83532	4898939
20.84343	5026072
20.85157	4301721
20.85968	3014377
20.86780	1858308
20.87593	1057615
20.88405	615438
20.89218	415842
20.90030	343090
20.90842	338700
20.91655	377511
20.92467	452638
20.93278	572081
20.94092	679195
20.94903	782282
20.95717	803215
20.96528	746282
20.97340	678500
20.98153	560741
20.98965	435953
20.99778	358797
21.00590	290790
21.01402	265370
21.02215	242339
21.03027	242648
21.03840	260903
21.04652	270796
21.05463	272375
21.06277	274357
21.07088	270876
21.07900	244143
21.08713	215517
21.09525	207712
21.10338	195571
21.11150	195769
21.11962	188984
21.12775	195574
21.13587	216255
21.14400	287778
21.15212	444739
21.16023	694399
21.16837	1079645
21.17648	1371616
21.18462	1498127
21.19273	1414322
21.20085	1150200
21.20898	838328
21.21710	607219
21.22522	439409
21.23335	358126
21.24147	297448
21.24960	269266
21.25772	238269
21.26583	231294
21.27397	213884
21.28208	200669
21.29022	195268
21.29833	188017
21.30645	188972
21.31458	183270
21.32270	174121
21.33082	171977
21.33895	176160
21.34707	180725
21.35520	181865
21.36332	192645
21.37143	202005
21.37957	211318
21.38768	236508
21.39582	251314
21.40393	297792
21.41205	362693
21.42018	449785
21.42830	580206
21.43643	698259
21.44455	797673
21.45267	829285
21.46080	806241
21.46892	712112
21.47703	565464
21.48517	452938
21.49328	359789
21.50142	287905
21.50953	259024
21.51765	233143
21.52578	214596
21.53390	205570
21.54203	192593
21.55015	198436
21.55827	187986
21.56640	185188
21.57452	190569
21.58263	198794
21.59077	211510
21.59888	236524
21.60702	251666
21.61513	281104
21.62325	273922
21.63138	269366
21.63950	264024
21.64763	303751
21.65575	343418
21.66387	413848
21.67200	484838
21.68012	542740
21.68825	574614
21.69637	590171
21.70448	571605
21.71262	507687
21.72073	426499
21.72885	336793
21.73698	274423
21.74510	219929
21.75323	207426
21.76135	191927
21.76947	189989
21.77760	187421
21.78572	185071
21.79385	181544
21.80197	190362
21.81008	197518
21.81822	213696
21.82633	232217
21.83447	241098
21.84258	270199
21.85070	310661
21.85883	371443
21.86695	409014
21.87507	417204
21.88320	393183
21.89132	350697
21.89945	292133
21.90757	259191
21.91568	236871
21.92382	221461
21.93193	206233
21.94007	195791
21.94818	192580
21.95630	179077
21.96443	160472
21.97255	146115
21.98068	140751
21.98880	132492
21.99692	129024
22.00505	136174
22.01317	136662
22.02128	139832
22.02942	154424
22.03753	163960
22.04567	182751
22.05378	195117
22.06190	199046
22.07003	198332
22.07815	196293
22.08628	193066
22.09440	195894
22.10252	178228
22.11065	169726
22.11877	176252
22.12688	158830
22.13502	151716
22.14313	149194
22.15127	143278
22.15938	131893
22.16750	128827
22.17563	132500
22.18375	132308
22.19188	130164
22.20000	123256
22.20812	125727
22.21625	132370
22.22437	131695
22.23250	139569
22.24062	151938
22.24873	174963
22.25687	184113
22.26498	192300
22.27310	195840
22.28123	201677
22.28935	213070
22.29748	237035
22.30560	270247
22.31372	279190
22.32185	279427
22.32997	255540
22.33810	230028
22.34622	204637
22.35433	187306
22.36247	167569
22.37058	150204
22.37870	144789
22.38683	157076
22.39495	185364
22.40308	276138
22.41120	432665
22.41932	641673
22.42745	907277
22.43557	1161973
22.44370	1211471
22.45182	1117840
22.45993	897733
22.46807	660420
22.47618	468510
22.48432	344851
22.49243	300961
22.50055	311902
22.50868	385121
22.51680	480800
22.52492	596124
22.53305	682500
22.54117	719536
22.54930	687340
22.55742	602201
22.56553	483073
22.57367	392049
22.58178	322789
22.58992	272359
22.59803	225432
22.60615	212953
22.61428	200394
22.62240	174027
22.63053	156924
22.63865	151932
22.64677	148111
22.65490	156229
22.66302	171928
22.67113	174039
22.67927	182177
22.68738	194094
22.69552	208499
22.70363	242855
22.71175	298705
22.71988	372874
22.72800	462801
22.73613	489044
22.74425	503544
22.75237	444433
22.76050	369780
22.76862	300647
22.77673	262614
22.78487	259263
22.79298	270563
22.80112	328414
22.80923	405961
22.81735	502038
22.82548	594778
22.83360	620397
22.84173	561194
22.84985	489123
22.85797	417455
22.86610	379379
22.87422	382339
22.88235	451505
22.89047	570204
22.89858	734642
22.90672	904779
22.91483	957598
22.92295	960139
22.93108	932095
22.93920	887139
22.94733	849064
22.95545	756019
22.96357	636341
22.97170	489401
22.97982	378483
22.98795	298893
22.99607	226038
23.00418	201860
23.01232	176142
23.02043	164241
23.02857	161594
23.03668	148394
23.04480	145670
23.05293	146688
23.06105	149679
23.06917	168230
23.07730	184979
23.08542	209261
23.09355	220546
23.10167	228451
23.10978	216855
23.11792	197785
23.12603	189008
23.13417	176642
23.14228	191644
23.15040	202166
23.15853	209899
23.16665	212564
23.17477	199776
23.18290	185276
23.19102	169447
23.19915	147355
23.20727	137771
23.21538	124076
23.22352	127391
23.23163	118880
23.23977	120988
23.24788	126737
23.25600	139029
23.26413	181457
23.27225	228488
23.28038	283922
23.28850	300977
23.29662	295662
23.30475	253988
23.31287	214590
23.32098	180119
23.32912	165659
23.33723	174856
23.34537	220176
23.35348	301814
23.36160	432381
23.36973	589652
23.37785	746518
23.38598	830740
23.39410	788620
23.40222	697809
23.41035	541696
23.41847	387878
23.42658	267601
23.43472	206557
23.44283	152720
23.45097	132375
23.45908	124242
23.46720	116606
23.47533	118396
23.48345	110364
23.49158	113086
23.49970	108211
23.50782	100436
23.51595	108160
23.52407	109739
23.53220	118488
23.54032	119965
23.54843	129411
23.55657	156343
23.56468	188001
23.57280	249193
23.58093	352316
23.58905	531107
23.59718	812120
23.60530	1183380
23.61342	1496056
23.62155	1622239
23.62967	1516843
23.63780	1238511
23.64592	934560
23.65403	629814
23.66217	413347
23.67028	285193
23.67842	214768
23.68653	198027
23.69465	181867
23.70278	163138
23.71090	149947
23.71902	142789
23.72715	134235
23.73527	138716
23.74340	143808
23.75152	158173
23.75963	268742
23.76777	641319
23.77588	1688284
23.78402	3735525
23.79213	6694538
23.80025	9256947
23.80838	1.071322E+07
23.81650	1.027118E+07
23.82462	9070648
23.83275	7016410
23.84087	4703845
23.84900	3156809
23.85712	2227797
23.86523	1636612
23.87337	1288953
23.88148	1062049
23.88962	936919
23.89773	858819
23.90585	826862
23.91398	839794
23.92210	921011
23.93023	1005498
23.93835	1064992
23.94647	1000977
23.95460	877097
23.96272	745156
23.97083	626584
23.97897	524882
23.98708	466058
23.99522	427493
24.00333	422909
24.01145	413618
24.01958	412278
24.02770	387350
24.03583	397132
24.04395	383874
24.05207	388704
24.06020	365374
24.06832	358277
24.07645	328349
24.08457	317765
24.09268	313447
24.10082	288327
24.10893	284026
24.11705	275415
24.12518	272804
24.13330	287638
24.14143	306873
24.14955	373453
24.15767	460123
24.16580	565458
24.17392	634889
24.18205	655903
24.19017	654343
24.19828	602718
24.20642	598658
24.21453	581610
24.22265	550909
24.23078	495434
24.23890	454360
24.24703	424849
24.25515	380818
24.26327	351431
24.27140	314635
24.27952	287891
24.28765	271548
24.29577	245620
24.30388	251142
24.31202	256555
24.32013	255919
24.32827	269830
24.33638	272039
24.34450	276408
24.35263	283284
24.36075	261130
24.36887	250753
24.37700	236969
24.38512	227249
24.39325	225122
24.40137	237976
24.40948	248188
24.41762	272909
24.42573	304774
24.43387	319874
24.44198	320600
24.45010	311856
24.45823	271181
24.46635	255011
24.47448	250376
24.48260	245057
24.49072	241157
24.49885	244391
24.50697	244219
24.51508	248262
24.52322	266743
24.53133	279865
24.53947	313802
24.54758	378623
24.55570	454666
24.56383	555876
24.57195	634866
24.58008	664063
24.58820	654800
24.59632	575446
24.60445	487077
24.61257	418905
24.62068	352319
24.62882	305652
24.63693	280830
24.64507	251014
24.65318	239078
24.66130	247337
24.66943	242799
24.67755	255156
24.68568	253333
24.69380	246935
24.70192	251991
24.71005	240614
24.71817	219955
24.72630	215893
24.73442	215899
24.74253	222156
24.75067	210811
24.75878	202516
24.76690	206011
24.77503	213027
24.78315	225776
24.79128	249519
24.79940	268214
24.80752	288397
24.81565	298445
24.82377	299169
24.83190	310512
24.84002	328924
24.84813	424840
24.85627	542268
24.86438	727695
24.87250	1019833
24.88063	1478847
24.88875	2082627
24.89688	2775741
24.90500	3534707
24.91312	4046440
24.92125	3807173
24.92937	3069254
24.93750	2183364
24.94562	1439552
24.95373	878344
24.96187	539114
24.96998	365005
24.97812	294355
24.98623	232163
24.99435	220296
25.00248	211486
25.01060	209070
25.01872	202232
25.02685	200826
25.03497	214648
25.04310	214268
25.05122	209616
25.05933	205928
25.06747	214091
25.07558	201997
25.08372	208991
25.09183	203457
25.09995	235592
25.10808	300859
25.11620	525538
25.12433	1242433
25.13245	2988445
25.14057	6179639
25.14870	1.062299E+07
25.15682	1.585467E+07
25.16493	1.985409E+07
25.17307	2.139736E+07
25.18118	1.94724E+07
25.18932	1.474956E+07
25.19743	9418430
25.20555	5313941
25.21368	2791420
25.22180	1443919
25.22993	795605
25.23805	511922
25.24617	422323
25.25430	457304
25.26242	593425
25.27053	778604
25.27867	1001832
25.28678	1148537
25.29492	1203604
25.30303	1100514
25.31115	902906
25.31928	673207
25.32740	476484
25.33553	360292
25.34365	293894
25.35177	256723
25.35990	231945
25.36802	225696
25.37615	205980
25.38427	194537
25.39238	185617
25.40052	173578
25.40863	176509
25.41675	164040
25.42488	167951
25.43300	171327
25.44113	164946
25.44925	170274
25.45737	173636
25.46550	177871
25.47362	179975
25.48175	185223
25.48987	183920
25.49798	189600
25.50612	199529
25.51423	184936
25.52237	183679
25.53048	178993
25.53860	161795
25.54673	156615
25.55485	155589
25.56297	142473
25.57110	153089
25.57922	142543
25.58735	150231
25.59547	156857
25.60358	148392
25.61172	159335
25.61983	150131
25.62797	146844
25.63608	138223
25.64420	133169
25.65233	131864
25.66045	135001
25.66857	141770
25.67670	141851
25.68482	161845
25.69295	186372
25.70107	216596
25.70918	242666
25.71732	252318
25.72543	249018
25.73357	234807
25.74168	213090
25.74980	190291
25.75793	173142
25.76605	156515
25.77418	150887
25.78230	145670
25.79042	133190
25.79855	136011
25.80667	136811
25.81478	131513
25.82292	130163
25.83103	134470
25.83917	140328
25.84728	145553
25.85540	147858
25.86353	139451
25.87165	145998
25.87978	154121
25.88790	160076
25.89602	175111
25.90415	171186
25.91227	171949
25.92038	167977
25.92852	177574
25.93663	167502
25.94477	161066
25.95288	158173
25.96100	165829
25.96913	173439
25.97725	178791
25.98538	180025
25.99350	179974
26.00162	170260
26.00975	167279
26.01787	167265
26.02600	173534
26.03412	174748
26.04223	165897
26.05037	159114
26.05848	161084
26.06660	162504
26.07473	163533
26.08285	174287
26.09098	199561
26.09910	207050
26.10722	207948
26.11535	217082
26.12347	209672
26.13160	201195
26.13972	185414
26.14783	191486
26.15597	190160
26.16408	202073
26.17222	214613
26.18033	222615
26.18845	236955
26.19658	246472
26.20470	243164
26.21282	231048
26.22095	217333
26.22907	211345
26.23720	179051
26.24532	180454
26.25343	175867
26.26157	171909
26.26968	158425
26.27782	159542
26.28593	142040
26.29405	141155
26.30218	135857
26.31030	129451
26.31843	128118
26.32655	127372
26.33467	132778
26.34280	136403
26.35092	168176
26.35903	271286
26.36717	505251
26.37528	1027283
26.38342	1970933
26.39153	3423369
26.39965	5139165
26.40778	6680567
26.41590	7659541
26.42403	7614245
26.43215	6631589
26.44027	5101525
26.44840	3547471
26.45652	2329955
26.46463	1477083
26.47277	1005691
26.48088	731488
26.48902	600873
26.49713	508570
26.50525	480002
26.51338	443870
26.52150	398151
26.52963	387608
26.53775	375137
26.54587	356439
26.55400	351131
26.56212	354033
26.57025	351332
26.57837	347769
26.58648	346027
26.59462	360858
26.60273	345540
26.61085	358245
26.61898	354494
26.62710	364761
26.63523	355694
26.64335	349261
26.65147	353388
26.65960	359404
26.66772	356187
26.67585	342377
26.68397	342185
26.69208	338035
26.70022	336330
26.70833	340791
26.71645	339959
26.72458	332600
26.73270	332512
26.74083	332287
26.74895	341162
26.75707	345321
26.76520	347347
26.77332	343889
26.78145	358393
26.78957	353473
26.79768	362808
26.80582	361411
26.81393	353145
26.82207	367427
26.83018	362963
26.83830	357544
26.84643	369611
26.85455	366337
26.86267	362286
26.87080	357068
26.87892	352017
26.88705	343247
26.89517	352133
26.90328	352463
26.91142	349493
26.91953	343590
26.92767	354885
26.93578	335293
26.94390	336260
26.95203	329480
26.96015	345091
26.96828	384557
26.97640	476530
26.98452	713411
26.99265	1256502
27.00077	2453981
27.00888	4349694
27.01702	6795558
27.02513	8436587
27.03327	9179136
27.04138	8774971
27.04950	7276408
27.05763	5652313
27.06575	4028587
27.07388	2906267
27.08200	2058429
27.09012	1605946
27.09825	1330603
27.10637	1113080
27.11448	995230
27.12262	908532
27.13073	819365
27.13887	750733
27.14698	728624
27.15510	698095
27.16323	678107
27.17135	663492
27.17948	691847
27.18760	739440
27.19572	851206
27.20385	921701
27.21197	946065
27.22010	893073
27.22822	834992
27.23633	747807
27.24447	658209
27.25258	578134
27.26070	521281
27.26883	491369
27.27695	444904
27.28508	424078
27.29320	409385
27.30132	401002
27.30945	392297
27.31757	390267
27.32570	405978
27.33382	402956
27.34193	395354
27.35007	407822
27.35818	412630
27.36632	406808
27.37443	406529
27.38255	401467
27.39068	394937
27.39880	388384
27.40692	373001
27.41505	366507
27.42317	356479
27.43130	361072
27.43942	362564
27.44753	360338
27.45567	365575
27.46378	346967
27.47192	334102
27.48003	307641
27.48815	306332
27.49628	301444
27.50440	297593
27.51252	292842
27.52065	280127
27.52877	278601
27.53690	283400
27.54502	285081
27.55313	283157
27.56127	285621
27.56938	286615
27.57752	299471
27.58563	321757
27.59375	360720
27.60188	425064
27.61000	481761
27.61813	534457
27.62625	530922
27.63437	493021
27.64250	443910
27.65062	401158
27.65873	366883
27.66687	338104
27.67498	331715
27.68312	323465
27.69123	329108
27.69935	339533
27.70748	360824
27.71560	370010
27.72373	356414
27.73185	332756
27.73997	288445
27.74810	272372
27.75622	247965
27.76433	232875
27.77247	228435
27.78058	242116
27.78872	243160
27.79683	242412
27.80495	261017
27.81308	262945
27.82120	260775
27.82933	255920
27.83745	240064
27.84557	228116
27.85370	226084
27.86182	219124
27.86995	206560
27.87807	210158
27.88618	200982
27.89432	202923
27.90243	204243
27.91055	198558
27.91868	198350
27.92680	209161
27.93493	206947
27.94305	197281
27.95117	197754
27.95930	195732
27.96742	206889
27.97555	191668
27.98367	185393
27.99178	189497
27.99992	198776
28.00803	206494
28.01617	223574
28.02428	246674
28.03240	299031
28.04053	357479
28.04865	470029
28.05677	597683
28.06490	681213
28.07302	713742
28.08115	656741
28.08927	538212
28.09738	409924
28.10552	305704
28.11363	245851
28.12177	214532
28.12988	194140
28.13800	184684
28.14613	182156
28.15425	173299
28.16237	176396
28.17050	177861
28.17862	173979
28.18675	182564
28.19487	189325
28.20298	210511
28.21112	253294
28.21923	298175
28.22737	359275
28.23548	420591
28.24360	448184
28.25173	453299
28.25985	406453
28.26798	333801
28.27610	280120
28.28422	222895
28.29235	204899
28.30047	193877
28.30858	212355
28.31672	257257
28.32483	313319
28.33297	394320
28.34108	485472
28.34920	578519
28.35733	676689
28.36545	776101
28.37358	867871
28.38170	932822
28.38982	985242
28.39795	983609
28.40607	966512
28.41420	904359
28.42232	809497
28.43043	736325
28.43857	645413
28.44668	560213
28.45480	487054
28.46293	444836
28.47105	387137
28.47918	377303
28.48730	367174
28.49542	381307
28.50355	404239
28.51167	449653
28.51980	495949
28.52792	500413
28.53603	486712
28.54417	437125
28.55228	380338
28.56040	311280
28.56853	260593
28.57665	225933
28.58478	210109
28.59290	207079
28.60102	202012
28.60915	203281
28.61727	199692
28.62540	208210
28.63352	230092
28.64163	259115
28.64977	288515
28.65788	301228
28.66602	301822
28.67413	283515
28.68225	255615
28.69038	241901
28.69850	220782
28.70662	201018
28.71475	187420
28.72287	180600
28.73100	166586
28.73912	165847
28.74723	155427
28.75537	165604
28.76348	165145
28.77162	171638
28.77973	173664
28.78785	181808
28.79598	205515
28.80410	218870
28.81222	236590
28.82035	248017
28.82847	267007
28.83660	244431
28.84472	239902
28.85283	219598
28.86097	200877
28.86908	191665
28.87722	194033
28.88533	198320
28.89345	211522
28.90158	242994
28.90970	270033
28.91783	299859
28.92595	312339
28.93407	290894
28.94220	265297
28.95032	246312
28.95843	230414
28.96657	211757
28.97468	208924
28.98282	186293
28.99093	169875
28.99905	161017
29.00718	160481
29.01530	155609
29.02343	153942
29.03155	157039
29.03967	155782
29.04780	153771
29.05592	148628
29.06405	143165
29.07217	149832
29.08028	150558
29.08842	151424
29.09653	154655
29.10465	170590
29.11278	164323
29.12090	161485
29.12903	164158
29.13715	148699
29.14527	136437
29.15340	128610
29.16152	126887
29.16965	131759
29.17777	128864
29.18588	136881
29.19402	147294
29.20213	179828
29.21025	218869
29.21838	297784
29.22650	360542
29.23463	408772
29.24275	420784
29.25087	413302
29.25900	380850
29.26712	350277
29.27525	344044
29.28337	317193
29.29148	281780
29.29962	247471
29.30773	217778
29.31587	176975
29.32398	153504
29.33210	147800
29.34023	134851
29.34835	133527
29.35647	138452
29.36460	129985
29.37272	128120
29.38085	122960
29.38897	134309
29.39708	122556
29.40522	137147
29.41333	143070
29.42147	153763
29.42958	158120
29.43770	155862
29.44583	160392
29.45395	155681
29.46208	149558
29.47020	139623
29.47832	135710
29.48645	128394
29.49457	126650
29.50268	124819
29.51082	141039
29.51893	142605
29.52707	145241
29.53518	148927
29.54330	147430
29.55143	147667
29.55955	137610
29.56768	136646
29.57580	131855
29.58392	129290
29.59205	121533
29.60017	117124
29.60828	111564
29.61642	115067
29.62453	115364
29.63267	116724
29.64078	117758
29.64890	119091
29.65703	114833
29.66515	116279
29.67328	108229
29.68140	114371
29.68952	122587
29.69765	134063
29.70577	156525
29.71390	163281
29.72202	166005
29.73013	175532
29.73827	154334
29.74638	144526
29.75450	134289
29.76263	123946
29.77075	122864
29.77888	115152
29.78700	113199
29.79512	109867
29.80325	105319
29.81137	107019
29.81950	107588
29.82762	107997
29.83573	106470
29.84387	108450
29.85198	107932
29.86012	105930
29.86823	111128
29.87635	115956
29.88448	130062
29.89260	147807
29.90072	181217
29.90885	238670
29.91697	270872
29.92510	284034
29.93322	259340
29.94133	225090
29.94947	177964
29.95758	158455
29.96572	149454
29.97383	142233
29.98195	159171
29.99008	171696
29.99820	194269
30.00632	225006
30.01445	260784
30.02257	292424
30.03070	330893
30.03882	343785
30.04693	359410
30.05507	375813
30.06318	363769
30.07132	373205
30.07943	349143
30.08755	334947
30.09568	320651
30.10380	315793
30.11193	286098
30.12005	271446
30.12817	251719
30.13630	238192
30.14442	222288
30.15253	218818
30.16067	202338
30.16878	193037
30.17692	197448
30.18503	200070
30.19315	211888
30.20128	229858
30.20940	238975
30.21753	249756
30.22565	256138
30.23377	256291
30.24190	238300
30.25002	214561
30.25813	179812
30.26627	159177
30.27438	151527
30.28252	139660
30.29063	129411
30.29875	135060
30.30688	126678
30.31500	131471
30.32313	137676
30.33125	121925
30.33937	128154
30.34750	127837
30.35562	129197
30.36375	132223
30.37187	132594
30.37998	133797
30.38812	132887
30.39623	123617
30.40435	123037
30.41248	119957
30.42060	115910
30.42873	121045
30.43685	115239
30.44497	117864
30.45310	116608
30.46122	117224
30.46935	117866
30.47747	114949
30.48558	117632
30.49372	121826
30.50183	124776
30.50997	130078
30.51808	130404
30.52620	134655
30.53433	128584
30.54245	123179
30.55057	125121
30.55870	127427
30.56682	133632
30.57495	132404
30.58307	140371
30.59118	139501
30.59932	138918
30.60743	136839
30.61557	142346
30.62368	142103
30.63180	141968
30.63993	148127
30.64805	140267
30.65617	135050
30.66430	131913
30.67242	133025
30.68055	122361
30.68867	111405
30.69678	112696
30.70492	108618
30.71303	111083
30.72117	106242
30.72928	108106
30.73740	105895
30.74553	106393
30.75365	118269
30.76178	112612
30.76990	114119
30.77802	114504
30.78615	121259
30.79427	135600
30.80238	181111
30.81052	230076
30.81863	296976
30.82677	357736
30.83488	384721
30.84300	350682
30.85113	298116
30.85925	232761
30.86738	201186
30.87550	196596
30.88362	203812
30.89175	213712
30.89987	250066
30.90800	248502
30.91612	230093
30.92423	219191
30.93237	187361
30.94048	170424
30.94860	156793
30.95673	153177
30.96485	170765
30.97298	175835
30.98110	186467
30.98922	186023
30.99735	185326
31.00547	164705
31.01360	152841
31.02172	138791
31.02983	119523
31.03797	121555
31.04608	119026
31.05420	119173
31.06233	124289
31.07045	119153
31.07858	116981
31.08670	116585
31.09482	130421
31.10295	146332
31.11107	172709
31.11920	214705
31.12732	227346
31.13543	221997
31.14357	217487
31.15168	196100
31.15982	175901
31.16793	166423
31.17605	174389
31.18418	177965
31.19230	188338
31.20042	209052
31.20855	250618
31.21667	315906
31.22480	401304
31.23292	475052
31.24103	541229
31.24917	537178
31.25728	471114
31.26542	368158
31.27353	284121
31.28165	216295
31.28978	160344
31.29790	135242
31.30602	128976
31.31415	125467
31.32227	124636
31.33040	128008
31.33852	137194
31.34663	149399
31.35477	154164
31.36288	155594
31.37102	158881
31.37913	143854
31.38725	126438
31.39538	122742
31.40350	118673
31.41163	114664
31.41975	108947
31.42787	107975
31.43600	106438
31.44412	106617
31.45223	110248
31.46037	105811
31.46848	114192
31.47662	112261
31.48473	117027
31.49285	112881
31.50098	126568
31.50910	132820
31.51723	145560
31.52535	166484
31.53347	188188
31.54160	203313
31.54972	215531
31.55785	205888
31.56597	203438
31.57408	185213
31.58222	162535
31.59033	144412
31.59845	139208
31.60658	125583
31.61470	112268
31.62283	114618
31.63095	108964
31.63907	110665
31.64720	114325
31.65532	116842
31.66345	130410
31.67157	135612
31.67968	149395
31.68782	163851
31.69593	166262
31.70407	166029
31.71218	158947
31.72030	152708
31.72843	132138
31.73655	115527
31.74467	113841
31.75280	99779
31.76092	105866
31.76905	104173
31.77717	104429
31.78528	98220
31.79342	112033
31.80153	104312
31.80967	103990
31.81778	102936
31.82590	112416
31.83403	110466
31.84215	105213
31.85027	109583
31.85840	118864
31.86652	109766
31.87465	117501
31.88277	121405
31.89088	124397
31.89902	126032
31.90713	114133
31.91527	112948
31.92338	112271
31.93150	115223
31.93963	119999
31.94775	134497
31.95588	153563
31.96400	167735
31.97212	189972
31.98025	199458
31.98837	226344
31.99648	242330
32.00462	261788
32.01273	277018
32.02087	291655
32.02898	300759
32.03710	297627
32.04523	275428
32.05335	248486
32.06148	227458
32.06960	198432
32.07772	176319
32.08585	164045
32.09397	153000
32.10208	152655
32.11022	152066
32.11833	144929
32.12647	147390
32.13458	146773
32.14270	132962
32.15083	129766
32.15895	130740
32.16708	117470
32.17520	122298
32.18332	125482
32.19145	116137
32.19957	112245
32.20770	121870
32.21582	118518
32.22393	111838
32.23207	113128
32.24018	115792
32.24830	113565
32.25643	109255
32.26455	104366
32.27268	106291
32.28080	111356
32.28892	111436
32.29705	116241
32.30517	112722
32.31330	117005
32.32142	114442
32.32953	111037
32.33767	113571
32.34578	109519
32.35392	112886
32.36203	113503
32.37015	120729
32.37828	122762
32.38640	119740
32.39452	113201
32.40265	109882
32.41077	112193
32.41890	110175
32.42702	109583
32.43513	109220
32.44327	113670
32.45138	108445
32.45952	103782
32.46763	109679
32.47575	110117
32.48388	106477
32.49200	106366
32.50012	115320
32.50825	107459
32.51637	110097
32.52450	111474
32.53262	120131
32.54073	121347
32.54887	120963
32.55698	117165
32.56512	118941
32.57323	113316
32.58135	117456
32.58948	117171
32.59760	109054
32.60573	116862
32.61385	109980
32.62197	108570
32.63010	111455
32.63822	113783
32.64633	113085
32.65447	110568
32.66258	106726
32.67072	106486
32.67883	108699
32.68695	114525
32.69508	124989
32.70320	132338
32.71133	135851
32.71945	130256
32.72757	124070
32.73570	125741
32.74382	127777
32.75195	113870
32.76007	112679
32.76818	112879
32.77632	103593
32.78443	110310
32.79255	106685
32.80068	103896
32.80880	101671
32.81693	105695
32.82505	108363
32.83317	117877
32.84130	119332
32.84942	119409
32.85755	112440
32.86567	120887
32.87378	115850
32.88192	113414
32.89003	121168
32.89815	119157
32.90628	132841
32.91440	140332
32.92253	139106
32.93065	137579
32.93877	131700
32.94690	124712
32.95502	117082
32.96315	116245
32.97127	110685
32.97938	108845
32.98752	128433
32.99563	156080
33.00377	201518
33.01188	244104
33.02000	288562
33.02813	309500
33.03625	291678
33.04437	247993
33.05250	200338
33.06062	182315
33.06875	177192
33.07687	190897
33.08498	222891
33.09312	271626
33.10123	336173
33.10937	416514
33.11748	489599
33.12560	523836
33.13373	513174
33.14185	455824
33.14997	381637
33.15810	301691
33.16622	249059
33.17435	218391
33.18247	193029
33.19058	176348
33.19872	153856
33.20683	140551
33.21497	125978
33.22308	133517
33.23120	139234
33.23933	143392
33.24745	148509
33.25558	149908
33.26370	151742
33.27182	143459
33.27995	124984
33.28807	136036
33.29618	125882
33.30432	131403
33.31243	131374
33.32057	131029
33.32868	131632
33.33680	130251
33.34493	142250
33.35305	139889
33.36118	148338
33.36930	163024
33.37742	174278
33.38555	172344
33.39367	182659
33.40180	158518
33.40992	142805
33.41803	120352
33.42617	112596
33.43428	108742
33.44240	101377
33.45053	101845
33.45865	95662
33.46678	95919
33.47490	97850
33.48302	99968
33.49115	98768
33.49927	98026
33.50740	103063
33.51552	111903
33.52363	120539
33.53177	119646
33.53988	123655
33.54800	128156
33.55613	133630
33.56425	142323
33.57238	159477
33.58050	172303
33.58862	161945
33.59675	149243
33.60487	129817
33.61300	123815
33.62112	107439
33.62923	108183
33.63737	111664
33.64548	116218
33.65362	126102
33.66173	128887
33.66985	140015
33.67798	144320
33.68610	141617
33.69422	127691
33.70235	120996
33.71047	109974
33.71860	105653
33.72672	99032
33.73483	95024
33.74297	88801
33.75108	99684
33.75922	99700
33.76733	92903
33.77545	96173
33.78358	93301
33.79170	95482
33.79983	89280
33.80795	91675
33.81607	92785
33.82420	94433
33.83232	89411
33.84043	92057
33.84857	92843
33.85668	95059
33.86482	93100
33.87293	102560
33.88105	106069
33.88918	106602
33.89730	106020
33.90543	114351
33.91355	107594
33.92167	109485
33.92980	106055
33.93792	97961
33.94603	103378
33.95417	96547
33.96228	91620
33.97042	91261
33.97853	95602
33.98665	96602
33.99478	92869
34.00290	95018
34.01103	87482
34.01915	91556
34.02727	90404
34.03540	89743
34.04352	87306
34.05165	92648
34.05977	89997
34.06788	93782
34.07602	93237
34.08413	100317
34.09225	95488
34.10038	91201
34.10850	90452
34.11663	97580
34.12475	91011
34.13287	96085
34.14100	96269
34.14912	95637
34.15725	94548
34.16537	92590
34.17348	94441
34.18162	93021
34.18973	90516
34.19787	93116
34.20598	100502
34.21410	98429
34.22223	102363
34.23035	100930
34.23847	105122
34.24660	99921
34.25472	99924
34.26285	89632
34.27097	93620
34.27908	89006
34.28722	93946
34.29533	90671
34.30347	88461
34.31158	86064
34.31970	85872
34.32783	81840
34.33595	83227
34.34407	90181
34.35220	88871
34.36032	91196
34.36845	88727
34.37657	91680
34.38468	96303
34.39282	90343
34.40093	90620
34.40907	88550
34.41718	93533
34.42530	86038
34.43343	84650
34.44155	89973
34.44968	92324
34.45780	96619
34.46592	98097
34.47405	89915
34.48217	93188
34.49028	84258
34.49842	84096
34.50653	88884
34.51467	93269
34.52278	94210
34.53090	102720
34.53903	116083
34.54715	122220
34.55528	141682
34.56340	168346
34.57152	205723
34.57965	231701
34.58777	249021
34.59588	239355
34.60402	228666
34.61213	204098
34.62027	171437
34.62838	146811
34.63650	132550
34.64463	123193
34.65275	117295
34.66088	120649
34.66900	113223
34.67712	109886
34.68525	110174
34.69337	107785
34.70150	111461
34.70962	96586
34.71773	102794
34.72587	103671
34.73398	103501
34.74210	100187
34.75023	96783
34.75835	100360
34.76648	108042
34.77460	110867
34.78272	118411
34.79085	121072
34.79897	130020
34.80710	116497
34.81522	117792
34.82333	113654
34.83147	113613
34.83958	104237
34.84772	100717
34.85583	102188
34.86395	98529
34.87208	104391
34.88020	97737
34.88832	96803
34.89645	97076
34.90457	102496
34.91270	98830
34.92082	102701
34.92893	94848
34.93707	98706
34.94518	100028
34.95332	102517
34.96143	100967
34.96955	108291
34.97768	115925
34.98580	118126
34.99392	117893
35.00205	124685
35.01017	117958
35.01830	117184
35.02642	111666
35.03453	106382
35.04267	106655
35.05078	105280
35.05892	103246
35.06703	102310
35.07515	103007
35.08328	104394
35.09140	99160
35.09953	96646
35.10765	93666
35.11577	102308
35.12390	93807
35.13202	97552
35.14013	96987
35.14827	101788
35.15638	103516
35.16452	105787
35.17263	109050
35.18075	105999
35.18888	106975
35.19700	108129
35.20513	106264
35.21325	102314
35.22137	101238
35.22950	94059
35.23762	96720
35.24575	99191
35.25387	97150
35.26198	99672
35.27012	102383
35.27823	101925
35.28635	108378
35.29448	98278
35.30260	99063
35.31073	109730
35.31885	99948
35.32697	99465
35.33510	100968
35.34322	97124
35.35135	99695
35.35947	96733
35.36758	99192
35.37572	93346
35.38383	94207
35.39195	98848
35.40008	98902
35.40820	115020
35.41633	120928
35.42445	139139
35.43257	156577
35.44070	175376
35.44882	174930
35.45695	177925
35.46507	174524
35.47318	160174
35.48132	140745
35.48943	125885
35.49757	127273
35.50568	117970
35.51380	114412
35.52193	111159
35.53005	108587
35.53817	111372
35.54630	109211
35.55442	108043
35.56255	102495
35.57067	101099
35.57878	96364
35.58692	102438
35.59503	100534
35.60317	104203
35.61128	95718
35.61940	99826
35.62753	96286
35.63565	98544
35.64377	98149
35.65190	98489
35.66002	93660
35.66815	94666
35.67627	102074
35.68438	95754
35.69252	102217
35.70063	101304
35.70877	104880
35.71688	107295
35.72500	108743
35.73313	110872
35.74125	108957
35.74938	117651
35.75750	126928
35.76562	140850
35.77375	165712
35.78187	182168
35.78998	206007
35.79812	195879
35.80623	177899
35.81437	160657
35.82248	139253
35.83060	126277
35.83873	113267
35.84685	110305
35.85498	109594
35.86310	107749
35.87122	109921
35.87935	118195
35.88747	104113
35.89560	106038
35.90372	101563
35.91183	102259
35.91997	103280
35.92808	102759
35.93620	100001
35.94433	99653
35.95245	104369
35.96058	99525
35.96870	97012
35.97682	99897
35.98495	97108
35.99307	105935
36.00120	101163
36.00932	99309
36.01743	105050
36.02557	108664
36.03368	105689
36.04182	116757
36.04993	114505
36.05805	112922
36.06618	109846
36.07430	102649
36.08242	104938
36.09055	104376
36.09867	106664
36.10680	100405
36.11492	105188
36.12303	105307
36.13117	109956
36.13928	121631
36.14742	123491
36.15553	127909
36.16365	141843
36.17178	139998
36.17990	142991
36.18802	133662
36.19615	128077
36.20427	120714
36.21240	111698
36.22052	106486
36.22863	103470
36.23677	102405
36.24488	100360
36.25302	106704
36.26113	100336
36.26925	109455
36.27738	102783
36.28550	100896
36.29363	103043
36.30175	100231
36.30987	99922
36.31800	104939
36.32612	108643
36.33423	118004
36.34237	112746
36.35048	113002
36.35862	117529
36.36673	119778
36.37485	109593
36.38298	112903
36.39110	108694
36.39923	111892
36.40735	111009
36.41547	105492
36.42360	111049
36.43172	113869
36.43983	114867
36.44797	113303
36.45608	113096
36.46422	107465
36.47233	105448
36.48045	109237
36.48858	99301
36.49670	98802
36.50483	95945
36.51295	90668
36.52107	102752
36.52920	96466
36.53732	96991
36.54545	103027
36.55357	101313
36.56168	105783
36.56982	99760
36.57793	97998
36.58605	104446
36.59418	100882
36.60230	103243
36.61043	97734
36.61855	97965
36.62667	100491
36.63480	100835
36.64292	106355
36.65105	102881
36.65917	95491
36.66728	99462
36.67542	97808
36.68353	103387
36.69167	99613
36.69978	95006
36.70790	105208
36.71603	100845
36.72415	105104
36.73227	99628
36.74040	103605
36.74852	102739
36.75665	108035
36.76477	101850
36.77288	98080
36.78102	100587
36.78913	101212
36.79727	101064
36.80538	100602
36.81350	101020
36.82163	105456
36.82975	103574
36.83787	103211
36.84600	102069
36.85412	100928
36.86225	95069
36.87037	94749
36.87848	97014
36.88662	98517
36.89473	94028
36.90287	94367
36.91098	101069
36.91910	92605
36.92723	98549
36.93535	100454
36.94348	102816
36.95160	119994
36.95972	136585
36.96785	166559
36.97597	197996
36.98408	241288
36.99222	269099
37.00033	266753
37.00847	235732
37.01658	197184
37.02470	154058
37.03283	137500
37.04095	127792
37.04908	114750
37.05720	111013
37.06532	115838
37.07345	117370
37.08157	115156
37.08970	121839
37.09782	128064
37.10593	129465
37.11407	132349
37.12218	133467
37.13030	125109
37.13843	129233
37.14655	122945
37.15468	110636
37.16280	113060
37.17092	111773
37.17905	107091
37.18717	114321
37.19530	102564
37.20342	101210
37.21153	106551
37.21967	107961
37.22778	118334
37.23590	113700
37.24403	111027
37.25215	109135
37.26028	111856
37.26840	111262
37.27652	107108
37.28465	112207
37.29277	109856
37.30090	109244
37.30902	104188
37.31713	102179
37.32527	112592
37.33338	110889
37.34152	114187
37.34963	111023
37.35775	114012
37.36588	116040
37.37400	123645
37.38212	129430
37.39025	134452
37.39837	141107
37.40650	137255
37.41462	135805
37.42273	142780
37.43087	138107
37.43898	143545
37.44712	144780
37.45523	139866
37.46335	148096
37.47148	139563
37.47960	139366
37.48772	131292
