C:\MassHunter\GCMS\1\data\JTB-E02\BACandBLUE\JTB-E18-017-13.D Wed Jul 03 17:28:43 2019
Start of data points
2.09540,77337
2.10353,78242
2.11165,78756
2.11977,77929
2.12790,78349
2.13602,82330
2.14413,77440
2.15227,77226
2.16038,77005
2.16852,74778
2.17663,73809
2.18475,72557
2.19288,70996
2.20100,73497
2.20913,71236
2.21725,71636
2.22537,65525
2.23350,69851
2.24162,72373
2.24975,71373
2.25787,72641
2.26598,70371
2.27412,176564
2.28223,1007879
2.29035,1496574
2.29848,694016
2.30660,343143
2.31473,267933
2.32285,225757
2.33097,211095
2.33910,191783
2.34722,194620
2.35535,168177
2.36347,153256
2.37158,143779
2.37972,137513
2.38783,139846
2.39597,132563
2.40408,129290
2.41220,130742
2.42033,123676
2.42845,126143
2.43657,123245
2.44470,116434
2.45282,117067
2.46095,120339
2.46907,115406
2.47718,110113
2.48532,111082
2.49343,141220
2.50157,232337
2.50968,193512
2.51780,146086
2.52593,130915
2.53405,130127
2.54217,127036
2.55030,120766
2.55842,146724
2.56655,231949
2.57467,237939
2.58278,171659
2.59092,147863
2.59903,137548
2.60717,147563
2.61528,297588
2.62340,471742
2.63153,386057
2.63965,253158
2.64778,196959
2.65590,156528
2.66402,148325
2.67215,133122
2.68027,130453
2.68838,122799
2.69652,121406
2.70463,119257
2.71277,116315
2.72088,109992
2.72900,115020
2.73713,109024
2.74525,110193
2.75338,107278
2.76150,104410
2.76962,104133
2.77775,102364
2.78587,132969
2.79398,183524
2.80212,179100
2.81023,140355
2.81837,139604
2.82648,159712
2.83460,170812
2.84273,183781
2.85085,161742
2.85898,130518
2.86710,121594
2.87522,121284
2.88335,111200
2.89147,110678
2.89960,112640
2.90772,106674
2.91583,102765
2.92397,103679
2.93208,101066
2.94020,96402
2.94833,101532
2.95645,100967
2.96458,100692
2.97270,101912
2.98082,103577
2.98895,107053
2.99707,97174
3.00520,101045
3.01332,101971
3.02143,108615
3.02957,102502
3.03768,97257
3.04582,93286
3.05393,98128
3.06205,102444
3.07018,105892
3.07830,113246
3.08642,144808
3.09455,399792
3.10267,1010444
3.11080,2444365
3.11892,3989255
3.12703,3158291
3.13517,1881536
3.14328,1337503
3.15142,1075499
3.15953,869122
3.16765,729761
3.17578,687374
3.18390,681380
3.19203,922674
3.20015,1632827
3.20827,1750932
3.21640,1200525
3.22452,869560
3.23263,729516
3.24077,630731
3.24888,544299
3.25702,482554
3.26513,420644
3.27325,394883
3.28138,366070
3.28950,381875
3.29763,642494
3.30575,1604588
3.31387,3064966
3.32200,3759770
3.33012,3222290
3.33823,2416184
3.34637,1902061
3.35448,1559098
3.36262,1325440
3.37073,1159574
3.37885,1035706
3.38698,911219
3.39510,838491
3.40323,781503
3.41135,725086
3.41947,672572
3.42760,634275
3.43572,609002
3.44385,584756
3.45197,566873
3.46008,527886
3.46822,529860
3.47633,532051
3.48445,541736
3.49258,529830
3.50070,487962
3.50883,467852
3.51695,451682
3.52507,423270
3.53320,425161
3.54132,425582
3.54945,442940
3.55757,416777
3.56568,396272
3.57382,377160
3.58193,396600
3.59005,390203
3.59818,365753
3.60630,355963
3.61443,358726
3.62255,355910
3.63067,375523
3.63880,416662
3.64692,445123
3.65505,434590
3.66317,453315
3.67128,1137681
3.67942,3848727
3.68753,6985361
3.69567,6449439
3.70378,3936621
3.71190,2413832
3.72003,1840575
3.72815,1543500
3.73627,1321804
3.74440,1173792
3.75252,1079889
3.76065,980072
3.76877,908172
3.77688,866894
3.78502,808797
3.79313,778538
3.80127,763143
3.80938,955630
3.81750,1573160
3.82563,2050642
3.83375,1757390
3.84188,1291850
3.85000,1020324
3.85812,883191
3.86625,798804
3.87437,731597
3.88248,687908
3.89062,663933
3.89873,615384
3.90687,597604
3.91498,600748
3.92310,668031
3.93123,845675
3.93935,932802
3.94748,871474
3.95560,906864
3.96372,1398998
3.97185,2110711
3.97997,2155323
3.98808,1593948
3.99622,1271548
4.00433,2314870
4.01247,5958388
4.02058,1.010984E+07
4.02870,1.022807E+07
4.03683,6787149
4.04495,3781352
4.05308,2317169
4.06120,1697900
4.06932,1355967
4.07745,1133608
4.08557,976630
4.09370,875070
4.10182,806981
4.10993,740110
4.11807,678826
4.12618,629367
4.13430,610233
4.14243,684720
4.15055,930619
4.15868,1174032
4.16680,1139880
4.17492,948926
4.18305,796792
4.19117,688602
4.19930,611921
4.20742,651552
4.21553,1392883
4.22367,4598520
4.23178,1.076106E+07
4.23992,1.61557E+07
4.24803,1.665463E+07
4.25615,1.222195E+07
4.26428,7392943
4.27240,4897974
4.28052,3613294
4.28865,2764424
4.29677,2225505
4.30490,1858193
4.31302,1604181
4.32113,1409477
4.32927,1247060
4.33738,1142220
4.34552,1066583
4.35363,1027775
4.36175,1009795
4.36988,1003095
4.37800,945607
4.38612,864484
4.39425,814610
4.40237,757760
4.41050,694904
4.41862,668185
4.42673,648686
4.43487,616275
4.44298,592869
4.45112,582106
4.45923,548363
4.46735,535369
4.47548,523700
4.48360,502534
4.49173,501603
4.49985,488244
4.50797,481435
4.51610,474853
4.52422,450738
4.53233,446551
4.54047,442271
4.54858,434381
4.55672,431531
4.56483,422381
4.57295,414383
4.58108,397113
4.58920,383939
4.59733,383595
4.60545,385725
4.61357,377857
4.62170,382094
4.62982,482512
4.63793,713552
4.64607,1002786
4.65418,1088784
4.66232,895765
4.67043,680149
4.67855,542608
4.68668,492832
4.69480,447095
4.70293,412425
4.71105,393103
4.71917,375921
4.72730,372579
4.73542,358897
4.74355,344347
4.75167,326820
4.75978,318482
4.76792,309820
4.77603,314232
4.78415,314083
4.79228,345463
4.80040,452842
4.80853,640822
4.81665,743632
4.82477,655579
4.83290,538791
4.84102,488671
4.84915,473488
4.85727,466631
4.86538,432672
4.87352,396807
4.88163,366749
4.88977,354791
4.89788,343375
4.90600,326204
4.91413,318972
4.92225,305123
4.93037,326108
4.93850,393191
4.94662,584270
4.95475,987295
4.96287,1528312
4.97098,1822335
4.97912,1767492
4.98723,1493991
4.99537,1191271
5.00348,1005999
5.01160,862812
5.01973,779661
5.02785,815289
5.03597,1036175
5.04410,1368077
5.05222,1519194
5.06035,1336294
5.06847,1083295
5.07658,887555
5.08472,795761
5.09283,709998
5.10097,676595
5.10908,631227
5.11720,598665
5.12533,585427
5.13345,564388
5.14158,535952
5.14970,529570
5.15782,543556
5.16595,591842
5.17407,634866
5.18218,636513
5.19032,590581
5.19843,571769
5.20657,588749
5.21468,620787
5.22280,630290
5.23093,571257
5.23905,531784
5.24718,500351
5.25530,470316
5.26342,443271
5.27155,407446
5.27967,394919
5.28780,381220
5.29592,373251
5.30403,364762
5.31217,352743
5.32028,353679
5.32840,373644
5.33653,393434
5.34465,430174
5.35278,430087
5.36090,420429
5.36902,387199
5.37715,366340
5.38527,362247
5.39340,366827
5.40152,400774
5.40963,390602
5.41777,385539
5.42588,368978
5.43400,344703
5.44213,342733
5.45025,355232
5.45838,352714
5.46650,355848
5.47462,345692
5.48275,326120
5.49087,308379
5.49900,304097
5.50712,295851
5.51523,297341
5.52337,302026
5.53148,300438
5.53962,300876
5.54773,296751
5.55585,291556
5.56398,316756
5.57210,378017
5.58022,419390
5.58835,407778
5.59647,376506
5.60460,330039
5.61272,308826
5.62083,299499
5.62897,294541
5.63708,302663
5.64522,318639
5.65333,313705
5.66145,309754
5.66958,292177
5.67770,297068
5.68583,321849
5.69395,371022
5.70207,369227
5.71020,359885
5.71832,330095
5.72643,299151
5.73457,293733
5.74268,281811
5.75082,269009
5.75893,267266
5.76705,257305
5.77518,250326
5.78330,246954
5.79143,246425
5.79955,253006
5.80767,240738
5.81580,238986
5.82392,245151
5.83203,246154
5.84017,243943
5.84828,246750
5.85642,253390
5.86453,250042
5.87265,248336
5.88078,233942
5.88890,242918
5.89703,230649
5.90515,219399
5.91327,200304
5.92140,180832
5.92952,167418
5.93765,179560
5.94577,181995
5.95388,191684
5.96202,215495
5.97013,245699
5.97825,279071
5.98638,318093
5.99450,347953
6.00263,343633
6.01075,293683
6.01887,254736
6.02700,232548
6.03512,212210
6.04325,194954
6.05137,189127
6.05948,178003
6.06762,174202
6.07573,166429
6.08385,171328
6.09198,161091
6.10010,166258
6.10823,174582
6.11635,190688
6.12447,206390
6.13260,273763
6.14072,402914
6.14885,547000
6.15697,617692
6.16508,539682
6.17322,402668
6.18133,330044
6.18947,268487
6.19758,246236
6.20570,242262
6.21383,238583
6.22195,236707
6.23007,229288
6.23820,218202
6.24632,225008
6.25445,225187
6.26257,230763
6.27068,244606
6.27882,224824
6.28693,224702
6.29507,209122
6.30318,208580
6.31130,206303
6.31943,207426
6.32755,223546
6.33568,230657
6.34380,237720
6.35192,244790
6.36005,239686
6.36817,225260
6.37628,210863
6.38442,209906
6.39253,212162
6.40067,222471
6.40878,205638
6.41690,206533
6.42503,208684
6.43315,209443
6.44128,206041
6.44940,204289
6.45752,208421
6.46565,203942
6.47377,213425
6.48188,203837
6.49002,214527
6.49813,214541
6.50627,216927
6.51438,216733
6.52250,223765
6.53063,224093
6.53875,224973
6.54688,217521
6.55500,227869
6.56312,231299
6.57125,266432
6.57937,313073
6.58750,347592
6.59562,343499
6.60373,321639
6.61187,273972
6.61998,247537
6.62810,249689
6.63623,246970
6.64435,250666
6.65248,293906
6.66060,466658
6.66872,763712
6.67685,1040506
6.68497,1044009
6.69310,823571
6.70122,562814
6.70933,418754
6.71747,362925
6.72558,328955
6.73372,311433
6.74183,301910
6.74995,292505
6.75808,286519
6.76620,283087
6.77432,267488
6.78245,245815
6.79057,219592
6.79870,212787
6.80682,206240
6.81493,196772
6.82307,193029
6.83118,190320
6.83932,179106
6.84743,188986
6.85555,196144
6.86368,195168
6.87180,180533
6.87992,163253
6.88805,141496
6.89617,132749
6.90430,122528
6.91242,115237
6.92053,109193
6.92867,109167
6.93678,106714
6.94492,104190
6.95303,103830
6.96115,110115
6.96928,122090
6.97740,144924
6.98553,152269
6.99365,152372
7.00177,143410
7.00990,121348
7.01802,109685
7.02613,104642
7.03427,106433
7.04238,109841
7.05052,115387
7.05863,119089
7.06675,119434
7.07488,120078
7.08300,113674
7.09113,113985
7.09925,105889
7.10737,101393
7.11550,103787
7.12362,101474
7.13173,99270
7.13987,106727
7.14798,138373
7.15612,181414
7.16423,244900
7.17235,275578
7.18048,255576
7.18860,198634
7.19673,159255
7.20485,136615
7.21297,135320
7.22110,194166
7.22922,397482
7.23735,851505
7.24547,1358108
7.25358,1576940
7.26172,1338122
7.26983,904049
7.27795,548929
7.28608,376491
7.29420,308508
7.30233,250457
7.31045,198808
7.31857,161155
7.32670,135111
7.33482,132014
7.34295,122428
7.35107,127120
7.35918,114943
7.36732,109572
7.37543,115535
7.38357,112013
7.39168,116971
7.39980,115936
7.40793,109788
7.41605,111228
7.42417,105844
7.43230,108726
7.44042,108306
7.44855,106285
7.45667,111597
7.46478,103399
7.47292,104175
7.48103,99277
7.48917,96722
7.49728,91663
7.50540,99527
7.51353,131008
7.52165,206208
7.52977,346005
7.53790,564961
7.54602,834756
7.55415,1014816
7.56227,1070621
7.57038,952964
7.57852,748594
7.58663,524213
7.59477,348529
7.60288,248256
7.61100,194170
7.61913,169022
7.62725,147170
7.63538,131366
7.64350,122769
7.65162,116017
7.65975,102695
7.66787,103464
7.67598,101110
7.68412,99846
7.69223,94728
7.70037,97249
7.70848,96862
7.71660,95828
7.72473,97946
7.73285,88145
7.74098,98050
7.74910,98317
7.75722,95949
7.76535,94903
7.77347,100837
7.78160,102587
7.78972,113112
7.79783,126392
7.80597,138441
7.81408,137033
7.82220,133583
7.83033,122565
7.83845,106674
7.84658,108301
7.85470,107043
7.86282,112234
7.87095,122556
7.87907,134487
7.88720,142728
7.89532,139749
7.90343,127399
7.91157,118408
7.91968,106883
7.92780,111350
7.93593,131197
7.94405,148451
7.95218,158456
7.96030,162697
7.96842,141389
7.97655,120745
7.98467,111485
7.99280,97951
8.00092,92742
8.00903,83560
8.01717,86632
8.02528,85373
8.03342,85081
8.04153,79814
8.04965,84091
8.05778,88765
8.06590,84958
8.07402,85926
8.08215,84745
8.09027,79950
8.09840,77586
8.10652,78891
8.11463,81904
8.12277,87486
8.13088,100590
8.13902,119099
8.14713,141137
8.15525,143174
8.16338,145585
8.17150,133605
8.17962,109095
8.18775,96662
8.19587,91016
8.20400,86289
8.21212,87651
8.22023,92269
8.22837,91994
8.23648,90228
8.24462,87273
8.25273,82160
8.26085,82423
8.26898,77854
8.27710,76461
8.28523,76753
8.29335,71739
8.30147,80848
8.30960,86504
8.31772,85728
8.32583,88543
8.33397,87015
8.34208,85177
8.35022,76363
8.35833,76187
8.36645,80994
8.37458,83141
8.38270,88973
8.39083,91225
8.39895,88642
8.40707,83693
8.41520,79333
8.42332,80196
8.43145,71382
8.43957,70941
8.44768,73216
8.45582,72123
8.46393,68521
8.47205,72400
8.48018,77085
8.48830,82054
8.49643,78777
8.50455,73276
8.51267,69904
8.52080,81234
8.52892,93958
8.53705,151775
8.54517,254679
8.55328,378558
8.56142,450360
8.56953,435632
8.57767,330050
8.58578,231255
8.59390,177685
8.60203,170624
8.61015,161153
8.61827,159535
8.62640,146579
8.63452,127407
8.64265,114638
8.65077,99424
8.65888,89141
8.66702,88269
8.67513,86393
8.68327,95178
8.69138,101711
8.69950,107879
8.70763,113594
8.71575,115111
8.72387,95172
8.73200,93694
8.74012,91146
8.74825,117316
8.75637,198122
8.76448,372040
8.77262,618856
8.78073,840819
8.78887,891414
8.79698,776566
8.80510,569800
8.81323,401923
8.82135,296052
8.82948,226194
8.83760,201055
8.84572,205980
8.85385,207945
8.86197,217605
8.87008,210181
8.87822,194561
8.88633,195466
8.89447,178288
8.90258,170740
8.91070,165122
8.91883,168556
8.92695,164427
8.93508,166860
8.94320,170852
8.95132,186091
8.95945,190925
8.96757,194784
8.97568,192586
8.98382,187284
8.99193,192328
9.00007,190244
9.00818,174934
9.01630,160414
9.02443,150508
9.03255,136230
9.04068,134067
9.04880,133397
9.05692,128352
9.06505,128462
9.07317,126177
9.08130,129406
9.08942,131994
9.09753,143575
9.10567,170183
9.11378,192250
9.12190,207665
9.13003,201764
9.13815,190694
9.14628,163504
9.15440,145294
9.16252,137739
9.17065,129603
9.17877,126034
9.18690,121918
9.19502,112562
9.20313,113637
9.21127,112659
9.21938,110809
9.22752,111483
9.23563,112818
9.24375,111270
9.25188,109276
9.26000,111260
9.26812,114003
9.27625,107521
9.28437,114328
9.29250,106699
9.30062,109247
9.30873,103582
9.31687,107770
9.32498,99990
9.33312,105474
9.34123,98606
9.34935,103531
9.35748,102373
9.36560,101507
9.37372,92040
9.38185,100301
9.38997,102018
9.39810,115138
9.40622,123693
9.41433,146486
9.42247,185074
9.43058,223904
9.43872,251704
9.44683,253170
9.45495,227023
9.46308,192056
9.47120,159611
9.47933,139829
9.48745,119000
9.49557,115758
9.50370,121987
9.51182,135376
9.51993,148393
9.52807,161464
9.53618,167771
9.54432,141488
9.55243,131593
9.56055,98474
9.56868,95571
9.57680,87411
9.58493,81550
9.59305,81031
9.60117,81926
9.60930,77508
9.61742,71099
9.62555,66722
9.63367,70249
9.64178,69686
9.64992,70757
9.65803,63925
9.66615,68004
9.67428,70464
9.68240,68617
9.69053,71653
9.69865,68137
9.70677,65641
9.71490,60314
9.72302,62253
9.73115,58729
9.73927,62887
9.74738,61746
9.75552,57065
9.76363,59614
9.77175,59988
9.77988,60730
9.78800,59546
9.79613,62200
9.80425,63629
9.81237,62219
9.82050,66684
9.82862,62310
9.83675,65775
9.84487,64767
9.85298,64313
9.86112,62494
9.86923,64868
9.87737,62525
9.88548,69953
9.89360,63721
9.90173,73610
9.90985,66856
9.91797,78571
9.92610,93880
9.93422,120361
9.94235,157204
9.95047,200713
9.95858,256991
9.96672,281155
9.97483,283929
9.98297,239944
9.99108,196715
9.99920,151609
10.00733,116003
10.01545,102368
10.02357,90216
10.03170,82253
10.03982,81905
10.04795,80798
10.05607,78584
10.06418,75939
10.07232,78678
10.08043,77452
10.08857,79312
10.09668,83594
10.10480,84555
10.11293,92126
10.12105,91474
10.12918,92450
10.13730,89936
10.14542,87698
10.15355,82940
10.16167,81899
10.16978,80886
10.17792,82557
10.18603,73995
10.19417,72462
10.20228,77982
10.21040,70302
10.21853,75997
10.22665,79890
10.23478,86113
10.24290,102284
10.25102,100944
10.25915,120916
10.26727,174101
10.27540,333482
10.28352,697185
10.29163,1287628
10.29977,2000127
10.30788,2786054
10.31600,3836571
10.32413,5477371
10.33225,7561403
10.34038,9116238
10.34850,9128050
10.35662,7837616
10.36475,6153190
10.37287,4802865
10.38100,3806623
10.38912,2823292
10.39723,1954852
10.40537,1311817
10.41348,903635
10.42160,662183
10.42973,548148
10.43785,491503
10.44598,465044
10.45410,466794
10.46222,454078
10.47035,420774
10.47847,408413
10.48660,372557
10.49472,348373
10.50283,322855
10.51097,298562
10.51908,297445
10.52722,286991
10.53533,266663
10.54345,247881
10.55158,245483
10.55970,234645
10.56782,236831
10.57595,225546
10.58407,227256
10.59220,214875
10.60032,213688
10.60843,201056
10.61657,194541
10.62468,184723
10.63282,186006
10.64093,174937
10.64905,174213
10.65718,170154
10.66530,168109
10.67343,163984
10.68155,170253
10.68967,170128
10.69780,167652
10.70592,165113
10.71403,154210
10.72217,154671
10.73028,151365
10.73842,151139
10.74653,152792
10.75465,152936
10.76278,142264
10.77090,140492
10.77903,133406
10.78715,135833
10.79527,135356
10.80340,131136
10.81152,139951
10.81963,137197
10.82777,133097
10.83588,129289
10.84402,122154
10.85213,113260
10.86025,106766
10.86838,107551
10.87650,107283
10.88463,113341
10.89275,112074
10.90087,108493
10.90900,105301
10.91712,106105
10.92525,105369
10.93337,105350
10.94148,95328
10.94962,95209
10.95773,94190
10.96585,98979
10.97398,104062
10.98210,112308
10.99023,110587
10.99835,113067
11.00647,114111
11.01460,108820
11.02272,106264
11.03085,100836
11.03897,90138
11.04708,89083
11.05522,90391
11.06333,98571
11.07147,96053
11.07958,106307
11.08770,109528
11.09583,110469
11.10395,112942
11.11207,109664
11.12020,102158
11.12832,92326
11.13645,91190
11.14457,85075
11.15268,85566
11.16082,83845
11.16893,96865
11.17707,90015
11.18518,92960
11.19330,93581
11.20143,97146
11.20955,90688
11.21767,93523
11.22580,90684
11.23392,96250
11.24205,96074
11.25017,89323
11.25828,86808
11.26642,74556
11.27453,77057
11.28267,78851
11.29078,90488
11.29890,125482
11.30703,218162
11.31515,425935
11.32328,815248
11.33140,1312471
11.33952,1767062
11.34765,1985264
11.35577,1891582
11.36388,1486684
11.37202,1073077
11.38013,675510
11.38827,457424
11.39638,343981
11.40450,299940
11.41263,278460
11.42075,278376
11.42888,284953
11.43700,273558
11.44512,258374
11.45325,237851
11.46137,211212
11.46948,198628
11.47762,183383
11.48573,187211
11.49387,201052
11.50198,216833
11.51010,226167
11.51823,207941
11.52635,199008
11.53448,179796
11.54260,167361
11.55072,154064
11.55885,152385
11.56697,152984
11.57510,149418
11.58322,151010
11.59133,144571
11.59947,157885
11.60758,176079
11.61570,197550
11.62383,216172
11.63195,206121
11.64008,185524
11.64820,158822
11.65632,145576
11.66445,136767
11.67257,125249
11.68070,137394
11.68882,147545
11.69693,161933
11.70507,174052
11.71318,184449
11.72132,172908
11.72943,154334
11.73755,138752
11.74568,120839
11.75380,106826
11.76192,100500
11.77005,101216
11.77817,95677
11.78630,98159
11.79442,99939
11.80253,102078
11.81067,105581
11.81878,101987
11.82692,97372
11.83503,94793
11.84315,99409
11.85128,102247
11.85940,102108
11.86752,92392
11.87565,92388
11.88377,87333
11.89190,87528
11.90002,88640
11.90813,85404
11.91627,91162
11.92438,96407
11.93252,102242
11.94063,103257
11.94875,102159
11.95688,96899
11.96500,98146
11.97313,108244
11.98125,156622
11.98937,273610
11.99750,486673
12.00562,749977
12.01373,954585
12.02187,1021174
12.02998,889496
12.03812,668686
12.04623,446185
12.05435,308962
12.06248,234919
12.07060,201349
12.07873,187175
12.08685,184464
12.09497,186417
12.10310,179193
12.11122,171794
12.11935,167674
12.12747,175873
12.13558,178201
12.14372,171690
12.15183,159420
12.15995,151460
12.16808,129455
12.17620,129484
12.18433,116131
12.19245,117212
12.20057,126441
12.20870,123475
12.21682,122011
12.22495,116354
12.23307,119673
12.24118,122010
12.24932,122697
12.25743,110556
12.26555,113223
12.27368,112372
12.28180,101711
12.28993,100933
12.29805,100418
12.30617,95853
12.31430,99133
12.32242,96023
12.33055,95092
12.33867,94790
12.34678,98093
12.35492,91236
12.36303,93438
12.37117,94179
12.37928,87202
12.38740,93525
12.39553,97252
12.40365,104162
12.41177,113751
12.41990,124693
12.42802,137940
12.43615,146061
12.44427,143182
12.45238,142021
12.46052,131776
12.46863,118103
12.47677,112843
12.48488,101464
12.49300,95799
12.50113,93923
12.50925,94273
12.51737,90616
12.52550,92078
12.53362,116193
12.54175,172336
12.54987,275520
12.55798,457619
12.56612,644686
12.57423,766188
12.58237,692981
12.59048,543409
12.59860,368495
12.60673,250828
12.61485,191612
12.62298,171574
12.63110,155633
12.63922,146693
12.64735,137400
12.65547,131905
12.66358,122759
12.67172,124416
12.67983,111665
12.68797,102680
12.69608,101861
12.70420,97543
12.71233,98446
12.72045,102851
12.72858,109483
12.73670,105961
12.74482,110629
12.75295,106960
12.76107,110346
12.76920,106657
12.77732,102313
12.78543,95172
12.79357,96200
12.80168,88933
12.80980,82698
12.81793,86403
12.82605,87226
12.83418,76556
12.84230,80839
12.85042,79344
12.85855,79543
12.86667,79410
12.87480,83428
12.88292,89028
12.89103,81707
12.89917,86563
12.90728,82474
12.91540,79786
12.92353,82452
12.93165,80495
12.93978,74746
12.94790,81198
12.95602,99740
12.96415,142280
12.97227,222820
12.98040,314753
12.98852,388896
12.99663,385220
13.00477,328962
13.01288,249396
13.02102,185498
13.02913,155451
13.03725,145318
13.04538,148381
13.05350,174812
13.06162,200492
13.06975,217042
13.07787,224602
13.08600,208920
13.09412,172103
13.10223,148261
13.11037,125329
13.11848,113278
13.12662,105179
13.13473,107641
13.14285,102812
13.15098,101633
13.15910,106835
13.16723,104107
13.17535,101744
13.18347,104269
13.19160,95487
13.19972,97235
13.20783,100972
13.21597,101976
13.22408,105112
13.23222,102307
13.24033,99372
13.24845,97786
13.25658,92362
13.26470,84963
13.27283,86227
13.28095,83141
13.28907,76661
13.29720,80418
13.30532,75937
13.31343,77336
13.32157,71316
13.32968,74090
13.33782,73874
13.34593,71530
13.35405,77071
13.36218,82085
13.37030,77475
13.37843,82717
13.38655,73365
13.39467,76781
13.40280,66886
13.41092,71045
13.41905,64979
13.42717,60306
13.43528,62056
13.44342,65287
13.45153,72344
13.45965,75377
13.46778,78404
13.47590,77302
13.48403,80821
13.49215,84849
13.50027,87553
13.50840,78048
13.51652,82726
13.52465,79036
13.53277,82010
13.54088,80396
13.54902,82717
13.55713,82727
13.56525,79099
13.57338,80925
13.58150,79638
13.58963,88890
13.59775,89639
13.60587,112183
13.61400,142093
13.62212,168863
13.63025,176777
13.63837,178976
13.64648,151732
13.65462,121375
13.66273,98457
13.67087,90849
13.67898,87916
13.68710,87387
13.69523,89554
13.70335,83396
13.71147,84970
13.71960,81107
13.72772,89450
13.73585,129295
13.74397,285899
13.75208,690224
13.76022,1503372
13.76833,2665960
13.77647,3829785
13.78458,4445336
13.79270,4176188
13.80083,3268861
13.80895,2258331
13.81708,1564082
13.82520,1289945
13.83332,1140410
13.84145,1056532
13.84957,967321
13.85768,839853
13.86582,706077
13.87393,582281
13.88207,501463
13.89018,448115
13.89830,391506
13.90643,362670
13.91455,323885
13.92268,314154
13.93080,282875
13.93892,279082
13.94705,277008
13.95517,286763
13.96330,307165
13.97142,334205
13.97953,370349
13.98767,396782
13.99578,389808
14.00390,368855
14.01203,308576
14.02015,287362
14.02828,240924
14.03640,228535
14.04452,219207
14.05265,215322
14.06077,211519
14.06890,226817
14.07702,206692
14.08513,207835
14.09327,199994
14.10138,203690
14.10950,188556
14.11763,185217
14.12575,191699
14.13388,205451
14.14200,227289
14.15012,258109
14.15825,269414
14.16637,282148
14.17450,292612
14.18262,295330
14.19073,329682
14.19887,375504
14.20698,406881
14.21512,395367
14.22323,368099
14.23135,331287
14.23948,306068
14.24760,290807
14.25572,268102
14.26385,247724
14.27197,229740
14.28010,206366
14.28822,197337
14.29633,183710
14.30447,165306
14.31258,163268
14.32072,158727
14.32883,154456
14.33695,159207
14.34508,147260
14.35320,135168
14.36132,125109
14.36945,117280
14.37757,106853
14.38570,112403
14.39382,131507
14.40193,176011
14.41007,254660
14.41818,353611
14.42632,434302
14.43443,431920
14.44255,370943
14.45068,295124
14.45880,219395
14.46693,170898
14.47505,150274
14.48317,143592
14.49130,136029
14.49942,128771
14.50753,131419
14.51567,128645
14.52378,135231
14.53192,142046
14.54003,133009
14.54815,131703
14.55628,120355
14.56440,111624
14.57253,103438
14.58065,98474
14.58877,91705
14.59690,91107
14.60502,87655
14.61315,89946
14.62127,85955
14.62938,92618
14.63752,93289
14.64563,90368
14.65375,89939
14.66188,85874
14.67000,81232
14.67813,80653
14.68625,76696
14.69437,76053
14.70250,78209
14.71062,87750
14.71875,84983
14.72687,86533
14.73498,88723
14.74312,97365
14.75123,99182
14.75935,101812
14.76748,97281
14.77560,99844
14.78373,103562
14.79185,135801
14.79997,240370
14.80810,503554
14.81622,1064714
14.82435,1800824
14.83247,2469913
14.84058,2698561
14.84872,2397540
14.85683,1783085
14.86497,1168440
14.87308,750192
14.88120,503548
14.88933,368759
14.89745,292833
14.90557,271576
14.91370,242197
14.92182,215697
14.92995,204536
14.93807,187568
14.94618,184631
14.95432,183329
14.96243,178657
14.97057,177588
14.97868,175089
14.98680,165250
14.99493,160799
15.00305,152305
15.01118,142891
15.01930,138808
15.02742,139654
15.03555,133062
15.04367,132732
15.05178,129196
15.05992,121165
15.06803,120119
15.07617,116666
15.08428,114517
15.09240,107158
15.10053,102010
15.10865,101664
15.11678,99893
15.12490,101236
15.13302,107761
15.14115,109334
15.14927,121099
15.15738,115280
15.16552,111849
15.17363,103487
15.18177,92856
15.18988,91209
15.19800,85420
15.20613,82699
15.21425,81006
15.22238,81019
15.23050,78397
15.23862,81342
15.24675,84844
15.25487,82124
15.26300,79250
15.27112,77084
15.27923,74334
15.28737,74408
15.29548,70531
15.30360,70536
15.31173,72044
15.31985,70896
15.32798,71404
15.33610,61948
15.34422,64913
15.35235,66766
15.36047,63208
15.36860,66992
15.37672,68918
15.38483,68657
15.39297,80229
15.40108,85416
15.40920,96135
15.41733,102521
15.42545,116833
15.43358,109061
15.44170,103554
15.44982,94141
15.45795,99555
15.46607,107253
15.47420,150768
15.48232,212897
15.49043,298180
15.49857,386814
15.50668,450314
15.51482,439751
15.52293,384497
15.53105,320313
15.53918,258558
15.54730,211971
15.55542,171971
15.56355,150526
15.57167,139711
15.57980,121239
15.58792,104468
15.59603,96048
15.60417,95730
15.61228,86613
15.62042,83280
15.62853,83655
15.63665,75962
15.64478,84600
15.65290,72543
15.66103,76472
15.66915,72280
15.67727,79693
15.68540,73555
15.69352,73760
15.70163,68431
15.70977,70884
15.71788,69685
15.72602,71838
15.73413,73340
15.74225,74915
15.75038,81757
15.75850,99221
15.76663,124080
15.77475,176946
15.78287,244561
15.79100,294372
15.79912,308522
15.80723,270529
15.81537,224265
15.82348,165343
15.83162,125325
15.83973,113568
15.84785,100282
15.85598,94071
15.86410,93747
15.87223,92897
15.88035,92110
15.88847,99214
15.89660,91977
15.90472,94519
15.91285,92293
15.92097,86765
15.92908,87739
15.93722,83771
15.94533,94925
15.95345,126843
15.96158,164042
15.96970,219256
15.97783,262192
15.98595,306870
15.99407,276275
16.00220,232541
16.01032,187907
16.01845,159131
16.02657,140382
16.03468,125844
16.04282,118447
16.05093,108184
16.05907,99918
16.06718,103213
16.07530,93872
16.08343,89775
16.09155,83064
16.09967,81198
16.10780,83549
16.11592,84632
16.12405,86647
16.13217,86659
16.14028,92947
16.14842,99524
16.15653,95446
16.16467,101341
16.17278,93241
16.18090,85119
16.18903,79136
16.19715,81463
16.20527,81901
16.21340,84082
16.22152,84444
16.22965,82995
16.23777,88607
16.24588,83230
16.25402,83970
16.26213,77680
16.27027,82687
16.27838,82189
16.28650,86765
16.29463,86907
16.30275,95806
16.31088,91715
16.31900,92764
16.32712,82967
16.33525,86112
16.34337,95460
16.35148,106895
16.35962,139979
16.36773,183901
16.37587,236572
16.38398,259925
16.39210,245846
16.40023,217819
16.40835,166133
16.41648,135829
16.42460,105905
16.43272,95705
16.44085,96916
16.44897,106515
16.45710,138568
16.46522,194353
16.47333,294126
16.48147,368295
16.48958,410175
16.49770,380070
16.50583,310014
16.51395,221261
16.52208,163624
16.53020,130572
16.53832,108535
16.54645,97840
16.55457,91328
16.56270,89585
16.57082,91547
16.57893,95315
16.58707,102943
16.59518,117665
16.60330,145507
16.61143,157980
16.61955,171334
16.62768,168582
16.63580,153204
16.64392,140213
16.65205,116448
16.66017,103323
16.66830,91859
16.67642,87822
16.68453,85038
16.69267,77745
16.70078,79251
16.70892,77118
16.71703,75019
16.72515,76010
16.73328,69011
16.74140,66407
16.74952,71011
16.75765,66951
16.76577,67709
16.77390,64799
16.78202,63004
16.79013,65766
16.79827,66357
16.80638,63713
16.81452,62592
16.82263,64092
16.83075,61449
16.83888,60487
16.84700,57795
16.85512,62852
16.86325,59169
16.87137,59653
16.87950,56042
16.88762,55657
16.89573,57958
16.90387,54861
16.91198,60492
16.92012,55057
16.92823,53154
16.93635,56445
16.94448,55844
16.95260,59875
16.96073,57004
16.96885,59202
16.97697,56898
16.98510,61563
16.99322,58557
17.00133,60690
17.00947,57104
17.01758,61396
17.02572,61479
17.03383,68482
17.04195,63749
17.05008,70831
17.05820,78779
17.06633,78769
17.07445,86107
17.08257,97570
17.09070,114094
17.09882,143081
17.10695,178715
17.11507,205642
17.12318,206808
17.13132,211422
17.13943,190416
17.14755,175869
17.15568,156256
17.16380,139323
17.17193,120796
17.18005,111593
17.18817,91335
17.19630,83843
17.20442,85421
17.21255,72166
17.22067,73052
17.22878,70995
17.23692,68900
17.24503,71663
17.25315,69280
17.26128,63028
17.26940,61959
17.27753,60996
17.28565,59406
17.29377,62238
17.30190,66713
17.31002,66216
17.31815,72680
17.32627,80302
17.33438,86079
17.34252,96236
17.35063,103868
17.35877,109876
17.36688,105916
17.37500,106419
17.38313,97192
17.39125,88466
17.39937,82979
17.40750,89145
17.41562,89248
17.42375,82120
17.43187,87521
17.43998,87075
17.44812,86146
17.45623,81275
17.46437,76423
17.47248,69056
17.48060,67272
17.48873,66602
17.49685,64572
17.50498,62677
17.51310,63762
17.52122,70027
17.52935,61786
17.53747,63158
17.54558,61128
17.55372,73491
17.56183,84794
17.56997,119727
17.57808,195376
17.58620,303157
17.59433,490732
17.60245,706619
17.61058,874411
17.61870,901822
17.62682,803807
17.63495,626538
17.64307,481393
17.65118,402965
17.65932,367253
17.66743,354928
17.67557,345612
17.68368,317539
17.69180,263791
17.69993,217666
17.70805,186513
17.71618,150506
17.72430,146381
17.73242,131773
17.74055,118013
17.74867,116872
17.75680,115264
17.76492,104092
17.77303,103288
17.78117,100311
17.78928,96561
17.79740,91935
17.80553,97441
17.81365,119427
17.82178,132158
17.82990,147659
17.83802,157583
17.84615,153062
17.85427,148666
17.86240,140620
17.87052,132616
17.87863,129483
17.88677,105695
17.89488,101450
17.90300,87322
17.91113,79144
17.91925,76341
17.92738,73714
17.93550,69421
17.94362,67229
17.95175,69590
17.95987,64037
17.96800,66278
17.97612,64788
17.98423,59371
17.99237,61510
18.00048,63792
18.00862,64677
18.01673,71907
18.02485,86743
18.03298,95558
18.04110,109837
18.04922,120413
18.05735,154839
18.06547,252806
18.07360,436267
18.08172,758606
18.08983,1099653
18.09797,1320051
18.10608,1326891
18.11422,1158958
18.12233,874030
18.13045,627450
18.13858,459771
18.14670,381686
18.15483,331579
18.16295,287025
18.17107,269714
18.17920,242365
18.18732,220724
18.19543,214269
18.20357,197992
18.21168,178957
18.21982,172469
18.22793,155584
18.23605,151737
18.24418,146689
18.25230,139514
18.26043,140030
18.26855,149624
18.27667,202643
18.28480,262139
18.29292,321132
18.30105,354567
18.30917,373938
18.31728,385642
18.32542,388442
18.33353,390850
18.34165,406138
18.34978,391614
18.35790,396039
18.36603,387445
18.37415,399336
18.38227,412253
18.39040,431275
18.39852,488358
18.40665,559606
18.41477,654561
18.42288,737241
18.43102,781956
18.43913,763602
18.44725,709361
18.45538,680197
18.46350,640946
18.47163,674546
18.47975,704679
18.48787,704389
18.49600,679656
18.50412,609667
18.51225,543311
18.52037,475824
18.52848,442798
18.53662,397023
18.54473,383810
18.55287,362636
18.56098,348677
18.56910,344549
18.57723,341280
18.58535,339370
18.59347,337667
18.60160,328554
18.60972,339336
18.61785,341535
18.62597,350510
18.63408,347719
18.64222,336260
18.65033,335806
18.65847,316505
18.66658,298770
18.67470,294902
18.68283,286396
18.69095,286826
18.69907,286851
18.70720,284111
18.71532,274002
18.72345,281385
18.73157,264852
18.73968,259844
18.74782,251118
18.75593,251656
18.76407,248229
18.77218,253956
18.78030,237676
18.78843,245633
18.79655,236405
18.80468,235209
18.81280,239212
18.82092,227926
18.82905,225961
18.83717,226791
18.84528,220016
18.85342,217604
18.86153,221857
18.86967,222857
18.87778,222683
18.88590,211702
18.89403,215642
18.90215,218431
18.91028,218056
18.91840,214751
18.92652,209473
18.93465,209418
18.94277,211895
18.95090,219086
18.95902,209275
18.96713,216625
18.97527,206799
18.98338,214920
18.99150,201635
18.99963,200187
19.00775,192959
19.01588,196622
19.02400,190711
19.03212,186717
19.04025,183813
19.04837,175820
19.05650,184529
19.06462,191654
19.07273,203015
19.08087,246214
19.08898,301458
19.09710,374904
19.10523,444086
19.11335,471817
19.12148,433865
19.12960,372262
19.13772,325852
19.14585,283046
19.15397,238857
19.16210,232589
19.17022,214064
19.17833,192812
19.18647,192714
19.19458,195418
19.20272,184353
19.21083,177641
19.21895,177475
19.22708,169397
19.23520,162828
19.24332,163241
19.25145,164108
19.25957,148633
19.26770,152757
19.27582,153047
19.28393,164095
19.29207,166637
19.30018,173178
19.30832,161816
19.31643,165200
19.32455,163149
19.33268,161457
19.34080,164705
19.34893,173696
19.35705,186955
19.36517,212784
19.37330,236948
19.38142,247097
19.38953,240835
19.39767,220924
19.40578,204703
19.41392,173298
19.42203,160279
19.43015,151433
19.43828,145421
19.44640,139735
19.45453,145855
19.46265,139890
19.47077,147982
19.47890,171745
19.48702,205047
19.49513,251663
19.50327,294012
19.51138,318001
19.51952,294649
19.52763,270218
19.53575,225085
19.54388,198206
19.55200,171582
19.56013,157991
19.56825,152130
19.57637,143986
19.58450,143821
19.59262,130044
19.60075,134140
19.60887,123610
19.61698,120785
19.62512,127908
19.63323,126865
19.64135,150174
19.64948,181493
19.65760,224967
19.66573,274616
19.67385,318764
19.68197,339487
19.69010,344382
19.69822,333521
19.70635,302167
19.71447,269248
19.72258,245570
19.73072,224878
19.73883,198528
19.74695,188456
19.75508,175681
19.76320,165613
19.77133,174173
19.77945,178128
19.78757,214635
19.79570,232790
19.80382,244588
19.81195,254072
19.82007,234657
19.82818,215227
19.83632,186337
19.84443,172729
19.85257,197054
19.86068,311908
19.86880,638412
19.87693,1300106
19.88505,2301050
19.89317,3568189
19.90130,4553427
19.90942,4891400
19.91755,4408244
19.92567,3403082
19.93378,2358996
19.94192,1688516
19.95003,1250599
19.95817,1000309
19.96628,847709
19.97440,736376
19.98253,686524
19.99065,638661
19.99878,586312
20.00690,560272
20.01502,542751
20.02315,518079
20.03127,500105
20.03938,450603
20.04752,402498
20.05563,375275
20.06377,358930
20.07188,348509
20.08000,356675
20.08813,353227
20.09625,350459
20.10438,329460
20.11250,286719
20.12062,251938
20.12875,220737
20.13687,206822
20.14498,205919
20.15312,235739
20.16123,310319
20.16937,399847
20.17748,540495
20.18560,677557
20.19373,797422
20.20185,840431
20.20998,808818
20.21810,719517
20.22622,614945
20.23435,533174
20.24247,474619
20.25060,469405
20.25872,520638
20.26683,584809
20.27497,659941
20.28308,712872
20.29120,659272
20.29933,600438
20.30745,513161
20.31558,406602
20.32370,335102
20.33182,259906
20.33995,216444
20.34807,186189
20.35620,158568
20.36432,139016
20.37243,127549
20.38057,120921
20.38868,112808
20.39682,108347
20.40493,109545
20.41305,102657
20.42118,109154
20.42930,116909
20.43742,126082
20.44555,130491
20.45367,135817
20.46180,141721
20.46992,146151
20.47803,146628
20.48617,144321
20.49428,132912
20.50242,119442
20.51053,108423
20.51865,98194
20.52678,96239
20.53490,90540
20.54302,90836
20.55115,91616
20.55927,92168
20.56740,87457
20.57552,86983
20.58363,86440
20.59177,81725
20.59988,84716
20.60802,77811
20.61613,80958
20.62425,81717
20.63238,86365
20.64050,85283
20.64863,97567
20.65675,104590
20.66487,100308
20.67300,93912
20.68112,89962
20.68923,84725
20.69737,79816
20.70548,75033
20.71362,78783
20.72173,75682
20.72985,76688
20.73798,76884
20.74610,77519
20.75423,83027
20.76235,81774
20.77047,92606
20.77860,113104
20.78672,141993
20.79483,221761
20.80297,343216
20.81108,477548
20.81922,622200
20.82733,661965
20.83545,615287
20.84358,459902
20.85170,320707
20.85983,218320
20.86795,164642
20.87607,129222
20.88420,116277
20.89232,107816
20.90045,111533
20.90857,108517
20.91668,111975
20.92482,109341
20.93293,109644
20.94105,110485
20.94918,105505
20.95730,108508
20.96543,98079
20.97355,96457
20.98167,90214
20.98980,86904
20.99792,79807
21.00605,80655
21.01417,82578
21.02228,85551
21.03042,84222
21.03853,83165
21.04667,84009
21.05478,82205
21.06290,80142
21.07103,80486
21.07915,73780
21.08727,75664
21.09540,75001
21.10352,74731
21.11165,70499
21.11977,77080
21.12788,77064
21.13602,92832
21.14413,119509
21.15227,148197
21.16038,163761
21.16850,180738
21.17663,171962
21.18475,151276
21.19287,133700
21.20100,113271
21.20912,97114
21.21725,89122
21.22537,86905
21.23348,88523
21.24162,81082
21.24973,84645
21.25787,79348
21.26598,80351
21.27410,77967
21.28223,77761
21.29035,74311
21.29848,74976
21.30660,70090
21.31472,76047
21.32285,73301
21.33097,69024
21.33908,71439
21.34722,67097
21.35533,65774
21.36347,63671
21.37158,71774
21.37970,73922
21.38783,75530
21.39595,86456
21.40408,98647
21.41220,107046
21.42032,110637
21.42845,100752
21.43657,98555
21.44470,86507
21.45282,80741
21.46093,76952
21.46907,74587
21.47718,76112
21.48530,71652
21.49343,72437
21.50155,69131
21.50968,70253
21.51780,71344
21.52592,72143
21.53405,68253
21.54217,71342
21.55030,66213
21.55842,70025
21.56653,69499
21.57467,73652
21.58278,78841
21.59090,82749
21.59903,88983
21.60715,93023
21.61528,93868
21.62340,98344
21.63152,100631
21.63965,110622
21.64777,113147
21.65590,117832
21.66402,118847
21.67213,123503
21.68027,114299
21.68838,115487
21.69652,104723
21.70463,95768
21.71275,94572
21.72088,83781
21.72900,78792
21.73712,75582
21.74525,73052
21.75337,77068
21.76150,72254
21.76962,79268
21.77773,82533
21.78587,81793
21.79398,88524
21.80212,93016
21.81023,96879
21.81835,97615
21.82648,101915
21.83460,103002
21.84273,107021
21.85085,93626
21.85897,95520
21.86710,94104
21.87522,79885
21.88333,78514
21.89147,77820
21.89958,73309
21.90772,69788
21.91583,69559
21.92395,67806
21.93208,66769
21.94020,68245
21.94833,64620
21.95645,59195
21.96457,61419
21.97270,60345
21.98082,57464
21.98893,58139
21.99707,56511
22.00518,58779
22.01332,56706
22.02143,61440
22.02955,62407
22.03768,65468
22.04580,58384
22.05393,58221
22.06205,59133
22.07017,59936
22.07830,59188
22.08642,59666
22.09455,62615
22.10267,64723
22.11078,58684
22.11892,58504
22.12703,56568
22.13515,56447
22.14328,57512
22.15140,58610
22.15953,56810
22.16765,62672
22.17577,57238
22.18390,55737
22.19202,58744
22.20015,57308
22.20827,58529
22.21638,57407
22.22452,63749
22.23263,63666
22.24075,61469
22.24888,62570
22.25700,59091
22.26513,65088
22.27325,64722
22.28137,73805
22.28950,81723
22.29762,78196
22.30575,83921
22.31387,83318
22.32198,86693
22.33012,76965
22.33823,77018
22.34637,72600
22.35448,67342
22.36260,63751
22.37073,64959
22.37885,71758
22.38697,77188
22.39510,92314
22.40322,115574
22.41135,140746
22.41947,167705
22.42758,182672
22.43572,175457
22.44383,158708
22.45197,135096
22.46008,117109
22.46820,97239
22.47633,98919
22.48445,114087
22.49258,131521
22.50070,140763
22.50882,149033
22.51695,149658
22.52507,144280
22.53318,138823
22.54132,127138
22.54943,107574
22.55757,106612
22.56568,90112
22.57380,87572
22.58193,82132
22.59005,76228
22.59818,79973
22.60630,76341
22.61442,70298
22.62255,66833
22.63067,71018
22.63878,70945
22.64692,69761
22.65503,69450
22.66317,72832
22.67128,73826
22.67940,72595
22.68753,76223
22.69565,83246
22.70378,95404
22.71190,101493
22.72002,103181
22.72815,104595
22.73627,98820
22.74440,88554
22.75252,76489
22.76063,69071
22.76877,72754
22.77688,72018
22.78500,81335
22.79313,88555
22.80125,105299
22.80938,114988
22.81750,117303
22.82562,113348
22.83375,103722
22.84187,97183
22.85000,88153
22.85812,89577
22.86623,97733
22.87437,108557
22.88248,125986
22.89062,144728
22.89873,155477
22.90685,174637
22.91498,192616
22.92310,214373
22.93122,217211
22.93935,199900
22.94747,181781
22.95560,155615
22.96372,121074
22.97183,104127
22.97997,89489
22.98808,88424
22.99622,87020
23.00433,90438
23.01245,84387
23.02058,91208
23.02870,91947
23.03682,86194
23.04495,86757
23.05307,91915
23.06120,89191
23.06932,92428
23.07743,89134
23.08557,91785
23.09368,95302
23.10182,96847
23.10993,88085
23.11805,91890
23.12618,87575
23.13430,90509
23.14243,83820
23.15055,85022
23.15867,89515
23.16680,86599
23.17492,90897
23.18303,89608
23.19117,85069
23.19928,92601
23.20742,93172
23.21553,87123
23.22365,78962
23.23178,85058
23.23990,82984
23.24803,86601
23.25615,98798
23.26427,95430
23.27240,97474
23.28052,96392
23.28863,90754
23.29677,89094
23.30488,87470
23.31302,90658
23.32113,92765
23.32925,102966
23.33738,115798
23.34550,135898
23.35363,155665
23.36175,174687
23.36987,196805
23.37800,206207
23.38612,194320
23.39425,177416
23.40237,184350
23.41048,161409
23.41862,149509
23.42673,155033
23.43485,140617
23.44298,139016
23.45110,141682
23.45923,129769
23.46735,124400
23.47547,122889
23.48360,122945
23.49172,116896
23.49985,122016
23.50797,113301
23.51608,113204
23.52422,103394
23.53233,102524
23.54047,106274
23.54858,103764
23.55670,100781
23.56483,113124
23.57295,129093
23.58107,169498
23.58920,210797
23.59732,262112
23.60545,292752
23.61357,296505
23.62168,259383
23.62982,225054
23.63793,200856
23.64607,188924
23.65418,193734
23.66230,208947
23.67043,216949
23.67855,201608
23.68668,180791
23.69480,156471
23.70292,131028
23.71105,117029
23.71917,104080
23.72728,96547
23.73542,98091
23.74353,110710
23.75167,171789
23.75978,319037
23.76790,628864
23.77603,1228217
23.78415,2008619
23.79228,2559162
23.80040,2710465
23.80852,2577801
23.81665,2255362
23.82477,1816556
23.83288,1422788
23.84102,1097634
23.84913,840554
23.85727,668141
23.86538,562123
23.87350,491533
23.88163,413641
23.88975,377272
23.89788,348669
23.90600,324867
23.91412,305525
23.92225,295616
23.93037,276245
23.93850,256290
23.94662,236739
23.95473,222214
23.96287,207203
23.97098,200675
23.97910,193413
23.98723,170536
23.99535,188744
24.00348,232656
24.01160,337402
24.01972,529517
24.02785,773498
24.03597,948243
24.04410,1003976
24.05222,899579
24.06033,684315
24.06847,483991
24.07658,329879
24.08470,233959
24.09283,187167
24.10095,156054
24.10908,154730
24.11720,142679
24.12532,142624
24.13345,142594
24.14157,143219
24.14970,150210
24.15782,145702
24.16593,151961
24.17407,145772
24.18218,145524
24.19032,146785
24.19843,148057
24.20655,140598
24.21468,144194
24.22280,138435
24.23092,122724
24.23905,119132
24.24717,108304
24.25530,105264
24.26342,98508
24.27153,96177
24.27967,90138
24.28778,89630
24.29592,90605
24.30403,87115
24.31215,90158
24.32028,92562
24.32840,85779
24.33653,84784
24.34465,86090
24.35277,90248
24.36090,91937
24.36902,99179
24.37713,118820
24.38527,138314
24.39338,156042
24.40152,151795
24.40963,140146
24.41775,122287
24.42588,100625
24.43400,93423
24.44213,80144
24.45025,80948
24.45837,86727
24.46650,89861
24.47462,103721
24.48273,102285
24.49087,111765
24.49898,120474
24.50712,117586
24.51523,136019
24.52335,157359
24.53148,191556
24.53960,250918
24.54773,304611
24.55585,346535
24.56397,361351
24.57210,382998
24.58022,353696
24.58835,329042
24.59647,292962
24.60458,270185
24.61272,254071
24.62083,252352
24.62895,241820
24.63708,236315
24.64520,236001
24.65333,241873
24.66145,238979
24.66957,236378
24.67770,234590
24.68582,234593
24.69395,230444
24.70207,223317
24.71018,222372
24.71832,219629
24.72643,219755
24.73457,223772
24.74268,216228
24.75080,207605
24.75893,214990
24.76705,219848
24.77517,213541
24.78330,220571
24.79142,217550
24.79955,206283
24.80767,215802
24.81578,203966
24.82392,209108
24.83203,225351
24.84017,250944
24.84828,280326
24.85640,334682
24.86453,398917
24.87265,498042
24.88077,604182
24.88890,692300
24.89702,743097
24.90515,726692
24.91327,599867
24.92138,454398
24.92952,319621
24.93763,239743
24.94577,176599
24.95388,143474
24.96200,122515
24.97013,116126
24.97825,109555
24.98638,99177
24.99450,94814
25.00262,99296
25.01075,90072
25.01887,86992
25.02698,86482
25.03512,81613
25.04323,83331
25.05137,83595
25.05948,82490
25.06760,84848
25.07573,86886
25.08385,90562
25.09198,100955
25.10010,143283
25.10822,278000
25.11635,555199
25.12447,1093687
25.13258,1927608
25.14072,2687597
25.14883,3242774
25.15697,3270393
25.16508,2736105
25.17320,2043212
25.18133,1305891
25.18945,791569
25.19758,479360
25.20570,312678
25.21382,216959
25.22195,168901
25.23007,156471
25.23820,167053
25.24632,189163
25.25443,234188
25.26257,286438
25.27068,329295
25.27880,349410
25.28693,329458
25.29505,288012
25.30318,226266
25.31130,178244
25.31942,151856
25.32755,143767
25.33567,152449
25.34380,194748
25.35192,246706
25.36003,294790
25.36817,317394
25.37628,331877
25.38442,340115
25.39253,341665
25.40065,356571
25.40878,354755
25.41690,356984
25.42502,353612
25.43315,357645
25.44127,352757
25.44940,363480
25.45752,362689
25.46563,363520
25.47377,362074
25.48188,359457
25.49002,369247
25.49813,358444
25.50625,346528
25.51438,336938
25.52250,337909
25.53062,336441
25.53875,331775
25.54687,336741
25.55500,333121
25.56312,329440
25.57123,322114
25.57937,333191
25.58748,323867
25.59562,327842
25.60373,322317
25.61185,315914
25.61998,314040
25.62810,299394
25.63623,298139
25.64435,293352
25.65247,301042
25.66060,291016
25.66872,296182
25.67683,293469
25.68497,293137
25.69308,286764
25.70122,280753
25.70933,287838
25.71745,289604
25.72558,263890
25.73370,264807
25.74183,261987
25.74995,261232
25.75807,254720
25.76620,252806
25.77432,255838
25.78245,251175
25.79057,249938
25.79868,243394
25.80682,250564
25.81493,239164
25.82305,254925
25.83118,258520
25.83930,269878
25.84743,273688
25.85555,274295
25.86367,267040
25.87180,260123
25.87992,243324
25.88805,227425
25.89617,214732
25.90428,214797
25.91242,199594
25.92053,197538
25.92865,193126
25.93678,190324
25.94490,201609
25.95303,195470
25.96115,188797
25.96927,183403
25.97740,184751
25.98552,183403
25.99365,182339
26.00177,173345
26.00988,177122
26.01802,172593
26.02613,164117
26.03427,166962
26.04238,165996
26.05050,162959
26.05863,165723
26.06675,159923
26.07487,162606
26.08300,164140
26.09112,163820
26.09925,168834
26.10737,160079
26.11548,166047
26.12362,149580
26.13173,158810
26.13987,166442
26.14798,165667
26.15610,170816
26.16423,166471
26.17235,161420
26.18047,160165
26.18860,155489
26.19672,145811
26.20485,148504
26.21297,141925
26.22108,127553
26.22922,136757
26.23733,131848
26.24547,127742
26.25358,127936
26.26170,126100
26.26983,133120
26.27795,123118
26.28608,121964
26.29420,122196
26.30232,121384
26.31045,117832
26.31857,112653
26.32668,116111
26.33482,117634
26.34293,122685
26.35107,119536
26.35918,127832
26.36730,139617
26.37543,167525
26.38355,208388
26.39168,237947
26.39980,266570
26.40792,267102
26.41605,256829
26.42417,222679
26.43230,194948
26.44042,164247
26.44853,137950
26.45667,134431
26.46478,124390
26.47290,122792
26.48103,120952
26.48915,111205
26.49728,104777
26.50540,108276
26.51352,100140
26.52165,95807
26.52977,93336
26.53790,89356
26.54602,93151
26.55413,87609
26.56227,89964
26.57038,90532
26.57850,88082
26.58663,87885
26.59475,82579
26.60288,85116
26.61100,88695
26.61912,88096
26.62725,86982
26.63537,80113
26.64350,81893
26.65162,88817
26.65973,84802
26.66787,86358
26.67598,88371
26.68412,91978
26.69223,87186
26.70035,81718
26.70848,81037
26.71660,81650
26.72472,80458
26.73285,80826
26.74097,79491
26.74910,82454
26.75722,81175
26.76533,76264
26.77347,77936
26.78158,82887
26.78972,86765
26.79783,86144
26.80595,84424
26.81408,90025
26.82220,87381
26.83033,81935
26.83845,81616
26.84657,78130
26.85470,76588
26.86282,76121
26.87093,68544
26.87907,74071
26.88718,71625
26.89532,67691
26.90343,70790
26.91155,69224
26.91968,67335
26.92780,68188
26.93593,67856
26.94405,73058
26.95217,70083
26.96030,80147
26.96842,85653
26.97653,103298
26.98467,138342
26.99278,196457
27.00092,285420
27.00903,393917
27.01715,521453
27.02528,629780
27.03340,664524
27.04153,665275
27.04965,612782
27.05777,532273
27.06590,430310
27.07402,361688
27.08215,311755
27.09027,265985
27.09838,236875
27.10652,213016
27.11463,190343
27.12275,181764
27.13088,177284
27.13900,165693
27.14713,162387
27.15525,151615
27.16337,150740
27.17150,153866
27.17962,164577
27.18775,161047
27.19587,172655
27.20398,156222
27.21212,143553
27.22023,131725
27.22837,130671
27.23648,120160
27.24460,121201
27.25273,116311
27.26085,108871
27.26897,104812
27.27710,105286
27.28522,104004
27.29335,97422
27.30147,92776
27.30958,96568
27.31772,89530
27.32583,91233
27.33397,93481
27.34208,94662
27.35020,97538
27.35833,93591
27.36645,90572
27.37457,90782
27.38270,89751
27.39082,82115
27.39895,82351
27.40707,83101
27.41518,81200
27.42332,78870
27.43143,76455
27.43957,78818
27.44768,74125
27.45580,79272
27.46393,76160
27.47205,75994
27.48018,76167
27.48830,74358
27.49642,74634
27.50455,75321
27.51267,81857
27.52078,83534
27.52892,84525
27.53703,83848
27.54517,86492
27.55328,78790
27.56140,77661
27.56953,78850
27.57765,79959
27.58578,88573
27.59390,102893
27.60202,108283
27.61015,101965
27.61827,100138
27.62638,94237
27.63452,86583
27.64263,81662
27.65077,78732
27.65888,83494
27.66700,91607
27.67513,91767
27.68325,103346
27.69138,114841
27.69950,117317
27.70762,106152
27.71575,97971
27.72387,82829
27.73200,77777
27.74012,77841
27.74823,73787
27.75637,60533
27.76448,64971
27.77260,63945
27.78073,65832
27.78885,66952
27.79698,68960
27.80510,69419
27.81322,67545
27.82135,64917
27.82947,64592
27.83760,62931
27.84572,63945
27.85383,67708
27.86197,61063
27.87008,63593
27.87822,62278
27.88633,57485
27.89445,61062
27.90258,58219
27.91070,57734
27.91882,58081
27.92695,56389
27.93507,57599
27.94320,58839
27.95132,56623
27.95943,57898
27.96757,55560
27.97568,56567
27.98382,53597
27.99193,59742
28.00005,61963
28.00818,73621
28.01630,87308
28.02442,112277
28.03255,150464
28.04067,195604
28.04880,232028
28.05692,239155
28.06503,237547
28.07317,188248
28.08128,157151
28.08942,123079
28.09753,101935
28.10565,93027
28.11378,84705
28.12190,71934
28.13003,72783
28.13815,65855
28.14627,63154
28.15440,62883
28.16252,59715
28.17063,62132
28.17877,68288
28.18688,70533
28.19502,85116
28.20313,94463
28.21125,104241
28.21938,101097
28.22750,104920
28.23563,100623
28.24375,93849
28.25187,83967
28.26000,78547
28.26812,69821
28.27625,62302
28.28437,64344
28.29248,66231
28.30062,70785
28.30873,86749
28.31685,94013
28.32498,106951
28.33310,124326
28.34123,132245
28.34935,152574
28.35747,168550
28.36560,187019
28.37372,192553
28.38185,214947
28.38997,219301
28.39808,222983
28.40622,223680
28.41433,218217
28.42245,209099
28.43058,198081
28.43870,184985
28.44683,171755
28.45495,162968
28.46307,152748
28.47120,146407
28.47932,137488
28.48745,133891
28.49557,131385
28.50368,132163
28.51182,128813
28.51993,119954
28.52807,116957
28.53618,107251
28.54430,100074
28.55243,94349
28.56055,93137
28.56867,90156
28.57680,83870
28.58492,86628
28.59305,77362
28.60117,83637
28.60928,87173
28.61742,89329
28.62553,87475
28.63367,86568
28.64178,91904
28.64990,92808
28.65803,94127
28.66615,92396
28.67427,88787
28.68240,81297
28.69052,78457
28.69865,76127
28.70677,76845
28.71488,71671
28.72302,73829
28.73113,75443
28.73927,75246
28.74738,82704
28.75550,85820
28.76363,90882
28.77175,97088
28.77988,93179
28.78800,92856
28.79612,89354
28.80425,85900
28.81237,80668
28.82048,74615
28.82862,80517
28.83673,73549
28.84487,76199
28.85298,71646
28.86110,72790
28.86923,74300
28.87735,76642
28.88548,84612
28.89360,88464
28.90172,91634
28.90985,89850
28.91797,84005
28.92610,82163
28.93422,73596
28.94233,76445
28.95047,75465
28.95858,76699
28.96670,72479
28.97483,72379
28.98295,67958
28.99108,65659
28.99920,62870
29.00732,61309
29.01545,61979
29.02357,67927
29.03170,62856
29.03982,63692
29.04793,61699
29.05607,61522
29.06418,63633
29.07232,59598
29.08043,66007
29.08855,66411
29.09668,64637
29.10480,63389
29.11292,66628
29.12105,58393
29.12917,61864
29.13730,58100
29.14542,54667
29.15353,58102
29.16167,63516
29.16978,58431
29.17792,61500
29.18603,67880
29.19415,77892
29.20228,87753
29.21040,106327
29.21852,122316
29.22665,137414
29.23477,178770
29.24290,230145
29.25102,339736
29.25913,443597
29.26727,535600
29.27538,565348
29.28352,496908
29.29163,378020
29.29975,254720
29.30788,168499
29.31600,109370
29.32413,82337
29.33225,69733
29.34037,64547
29.34850,57937
29.35662,61993
29.36473,56101
29.37287,61120
29.38098,58811
29.38912,52551
29.39723,60069
29.40535,59892
29.41348,62407
29.42160,66963
29.42973,63546
29.43785,63711
29.44597,64913
29.45410,61851
29.46222,60652
29.47033,56080
29.47847,60068
29.48658,57664
29.49472,63524
29.50283,68321
29.51095,57461
29.51908,61974
29.52720,60518
29.53533,56542
29.54345,58737
29.55157,59632
29.55970,56895
29.56782,55567
29.57595,54928
29.58407,56173
29.59218,51346
29.60032,51343
29.60843,53027
29.61655,49474
29.62468,51782
29.63280,55781
29.64093,53294
29.64905,53545
29.65717,52562
29.66530,52728
29.67342,55798
29.68155,56422
29.68967,58330
29.69778,59192
29.70592,60483
29.71403,62084
29.72217,60008
29.73028,60054
29.73840,56954
29.74653,55041
29.75465,56041
29.76277,53294
29.77090,53186
29.77902,50074
29.78715,50126
29.79527,49065
29.80338,48990
29.81152,52007
29.81963,47778
29.82777,49082
29.83588,50993
29.84400,45545
29.85213,47690
29.86025,52847
29.86837,53158
29.87650,57837
29.88462,72471
29.89275,85236
29.90087,89382
29.90898,95763
29.91712,91175
29.92523,81608
29.93337,68270
29.94148,66640
29.94960,70913
29.95773,69189
29.96585,73754
29.97398,81711
29.98210,92020
29.99022,99586
29.99835,117903
30.00647,120510
30.01458,133235
30.02272,128876
30.03083,141453
30.03897,121808
30.04708,132736
30.05520,129643
30.06333,124417
30.07145,129607
30.07958,126294
30.08770,121765
30.09582,121001
30.10395,113706
30.11207,114801
30.12020,112541
30.12832,107526
30.13643,103358
30.14457,102530
30.15268,96316
30.16080,98712
30.16893,95123
30.17705,96055
30.18518,100812
30.19330,104171
30.20142,100668
30.20955,106888
30.21767,102389
30.22580,99709
30.23392,88647
30.24203,81948
30.25017,75966
30.25828,76102
30.26640,67287
30.27453,65038
30.28265,65168
30.29078,64157
30.29890,63897
30.30702,64089
30.31515,63917
30.32327,65128
30.33140,65486
30.33952,67041
30.34763,67023
30.35577,63011
30.36388,63454
30.37202,62320
30.38013,60316
30.38825,61388
30.39638,58041
30.40450,57535
30.41262,59501
30.42075,57768
30.42887,54774
30.43700,52404
30.44512,55264
30.45323,55613
30.46137,54037
30.46948,54783
30.47762,56712
30.48573,56890
30.49385,53591
30.50198,55416
30.51010,51800
30.51822,53547
30.52635,52163
30.53447,55957
30.54260,52586
30.55072,54207
30.55883,52654
30.56697,56710
30.57508,58647
30.58322,56000
30.59133,57045
30.59945,55609
30.60758,54350
30.61570,52301
30.62383,54690
30.63195,55643
30.64007,54118
30.64820,46417
30.65632,49705
30.66443,50200
30.67257,47938
30.68068,52083
30.68882,47575
30.69693,49516
30.70505,51554
30.71318,50639
30.72130,52087
30.72943,46126
30.73755,54576
30.74567,54653
30.75380,60996
30.76192,68182
30.77005,77654
30.77817,86125
30.78628,97338
30.79442,116229
30.80253,131450
30.81065,139014
30.81878,138966
30.82690,131546
30.83503,124967
30.84315,117729
30.85127,104028
30.85940,103344
30.86752,96518
30.87565,98150
30.88377,103688
30.89188,100120
30.90002,105436
30.90813,102708
30.91625,96642
30.92438,100070
30.93250,94389
30.94063,99150
30.94875,95741
30.95687,96125
30.96500,98779
30.97312,94449
30.98125,96792
30.98937,92667
30.99748,94749
31.00562,88108
31.01373,93223
31.02187,91614
31.02998,94179
31.03810,95285
31.04623,101540
31.05435,93952
31.06247,100353
31.07060,98261
31.07872,104954
31.08685,104669
31.09497,111164
31.10308,119158
31.11122,115929
31.11933,121358
31.12747,111854
31.13558,106925
31.14370,98180
31.15183,98952
31.15995,97342
31.16808,100384
31.17620,105561
31.18432,117958
31.19245,134407
31.20057,162924
31.20868,202952
31.21682,241280
31.22493,267217
31.23307,272698
31.24118,248618
31.24930,208674
31.25743,167560
31.26555,133704
31.27368,109086
31.28180,96462
31.28992,87778
31.29805,90065
31.30617,82968
31.31428,78508
31.32242,82056
31.33053,86629
31.33867,80711
31.34678,85535
31.35490,86727
31.36303,78052
31.37115,82533
31.37928,81882
31.38740,86165
31.39552,86173
31.40365,86412
31.41177,78270
31.41990,76495
31.42802,75924
31.43613,75913
31.44427,76126
31.45238,74854
31.46050,72638
31.46863,70727
31.47675,70390
31.48488,77266
31.49300,74335
31.50112,75686
31.50925,77878
31.51737,81819
31.52550,86093
31.53362,85463
31.54173,86869
31.54987,87235
31.55798,83684
31.56610,75148
31.57423,77041
31.58235,72696
31.59048,69184
31.59860,70611
31.60672,66868
31.61485,68301
31.62297,71639
31.63110,68171
31.63922,65967
31.64733,65341
31.65547,71468
31.66358,68578
31.67172,74843
31.67983,74486
31.68795,72600
31.69608,72731
31.70420,69681
31.71232,64905
31.72045,64466
31.72857,65028
31.73670,63064
31.74482,60599
31.75293,64236
31.76107,60878
31.76918,65456
31.77732,64544
31.78543,64286
31.79355,60780
31.80168,64075
31.80980,62933
31.81793,59648
31.82605,61117
31.83417,66434
31.84230,65024
31.85042,64781
31.85853,61174
31.86667,68020
31.87478,69428
31.88292,70255
31.89103,70933
31.89915,76152
31.90728,86836
31.91540,85756
31.92353,98323
31.93165,97964
31.93977,100596
31.94790,104150
31.95602,109783
31.96413,109523
31.97227,120423
31.98038,117626
31.98852,117729
31.99663,130462
32.00475,116617
32.01288,124946
32.02100,119080
32.02913,108931
32.03725,111959
32.04537,110166
32.05350,106543
32.06162,104018
32.06975,98518
32.07787,96702
32.08598,92259
32.09412,88442
32.10223,84741
32.11035,79470
32.11848,75152
32.12660,76714
32.13473,75181
32.14285,76405
32.15097,75124
32.15910,72475
32.16722,70819
32.17535,70772
32.18347,68292
32.19158,72652
32.19972,70684
32.20783,69322
32.21597,69004
32.22408,67367
32.23220,63262
32.24033,68594
32.24845,70140
32.25657,66783
32.26470,68382
32.27282,65526
32.28095,68044
32.28907,65258
32.29718,68644
32.30532,60257
32.31343,64673
32.32157,61682
32.32968,57330
32.33780,61978
32.34593,63151
32.35405,64699
32.36217,61571
32.37030,61356
32.37842,62822
32.38655,58917
32.39467,60691
32.40278,57676
32.41092,59178
32.41903,58400
32.42717,56117
32.43528,57730
32.44340,53123
32.45153,54167
32.45965,56102
32.46778,55921
32.47590,56193
32.48402,57259
32.49215,52122
32.50027,53624
32.50838,51914
32.51652,53068
32.52463,53285
32.53277,55666
32.54088,55130
32.54900,54709
32.55713,53709
32.56525,57346
32.57338,52067
32.58150,53640
32.58962,52331
32.59775,56140
32.60587,53887
32.61400,51450
32.62212,57529
32.63023,53722
32.63837,65840
32.64648,69355
32.65460,69574
32.66273,73216
32.67085,69513
32.67898,65467
32.68710,62087
32.69522,60076
32.70335,61108
32.71147,61188
32.71960,58401
32.72772,57576
32.73583,56009
32.74397,52291
32.75208,56437
32.76020,54787
32.76833,52151
32.77645,53611
32.78458,51412
32.79270,52483
32.80082,52777
32.80895,53327
32.81707,56238
32.82520,51621
32.83332,51696
32.84143,52040
32.84957,52178
32.85768,49841
32.86582,54999
32.87393,60187
32.88205,61202
32.89018,67655
32.89830,72221
32.90642,73839
32.91455,70321
32.92267,72636
32.93080,65882
32.93892,62925
32.94703,63232
32.95517,61353
32.96328,55177
32.97142,54372
32.97953,57786
32.98765,70776
32.99578,72434
33.00390,72895
33.01202,78471
33.02015,74262
33.02827,67686
33.03640,60613
33.04452,63014
33.05263,61858
33.06077,64424
33.06888,73501
33.07702,73493
33.08513,77567
33.09325,83323
33.10138,87171
33.10950,88684
33.11763,91742
33.12575,92141
33.13387,87596
33.14200,76017
33.15012,70829
33.15823,65641
33.16637,64262
33.17448,60761
33.18262,57427
33.19073,58986
33.19885,59287
33.20698,59395
33.21510,60167
33.22323,53304
33.23135,55671
33.23947,54757
33.24760,54281
33.25572,54833
33.26385,53776
33.27197,57775
33.28008,55275
33.28822,57992
33.29633,57582
33.30445,55780
33.31258,56350
33.32070,56304
33.32883,59509
33.33695,59412
33.34507,60108
33.35320,64130
33.36132,61647
33.36945,57783
33.37757,61617
33.38568,64730
33.39382,57978
33.40193,55110
33.41005,52100
33.41818,51931
33.42630,51050
33.43443,50526
33.44255,52319
33.45067,52808
33.45880,48080
33.46692,50651
33.47505,51055
33.48317,46900
33.49128,50003
33.49942,53263
33.50753,52463
33.51567,56223
33.52378,53891
33.53190,56076
33.54003,58010
33.54815,62493
33.55627,60606
33.56440,66568
33.57252,58270
33.58065,56623
33.58877,58045
33.59688,56745
33.60502,50147
33.61313,56530
33.62127,51542
33.62938,55309
33.63750,59529
33.64563,58079
33.65375,57350
33.66188,56129
33.67000,59892
33.67812,61555
33.68625,55859
33.69437,53412
33.70248,56819
33.71062,46479
33.71873,52603
33.72687,49666
33.73498,48998
33.74310,49932
33.75123,45138
33.75935,50306
33.76748,50883
33.77560,48131
33.78372,49836
33.79185,47027
33.79997,48345
33.80808,51845
33.81622,55426
33.82433,49979
33.83247,56232
33.84058,50744
33.84870,50235
33.85683,56506
33.86495,50115
33.87308,55958
33.88120,55300
33.88932,59547
33.89745,59536
33.90557,57711
33.91370,64274
33.92182,61147
33.92993,56213
33.93807,56202
33.94618,53924
33.95430,51111
33.96243,50018
33.97055,52935
33.97868,50455
33.98680,50864
33.99492,51813
34.00305,50549
34.01117,50502
34.01930,52152
34.02742,50882
34.03553,51112
34.04367,53272
34.05178,49252
34.05990,53631
34.06803,49930
34.07615,51013
34.08428,52520
34.09240,52724
34.10052,54171
34.10865,51554
34.11677,57444
34.12490,55826
34.13302,55472
34.14113,64045
34.14927,53366
34.15738,60858
34.16552,56751
34.17363,54358
34.18175,58967
34.18988,61086
34.19800,56273
34.20612,54645
34.21425,51032
34.22237,52364
34.23050,54692
34.23862,56516
34.24673,50711
34.25487,51575
34.26298,55772
34.27112,55675
34.27923,53528
34.28735,51991
34.29548,53786
34.30360,55705
34.31173,54347
34.31985,51833
34.32797,53191
34.33610,54228
34.34422,55754
34.35233,52974
34.36047,55823
34.36858,51747
34.37672,53817
34.38483,48775
34.39295,51674
34.40108,51516
34.40920,50152
34.41733,51009
34.42545,53911
34.43357,49356
34.44170,50336
34.44982,48122
34.45795,47563
34.46607,52070
34.47418,51637
34.48232,51698
34.49043,55982
34.49855,60102
34.50668,63450
34.51480,66206
34.52293,83561
34.53105,88311
34.53917,105034
34.54730,106510
34.55542,108726
34.56355,107417
34.57167,109045
34.57978,103032
34.58792,92607
34.59603,84124
34.60415,82204
34.61228,81362
34.62040,81990
34.62853,74398
34.63665,76075
34.64477,70733
34.65290,66082
34.66102,65993
34.66915,66791
34.67727,64977
34.68538,66038
34.69352,65761
34.70163,62214
34.70977,64029
34.71788,62623
34.72600,55697
34.73413,61210
34.74225,61425
34.75037,59806
34.75850,61414
34.76662,63359
34.77475,61077
34.78287,62410
34.79098,63885
34.79912,60425
34.80723,64303
34.81537,63884
34.82348,60132
34.83160,63912
34.83973,64972
34.84785,66839
34.85597,66268
34.86410,61904
34.87222,66964
34.88035,61608
34.88847,61729
34.89658,63091
34.90472,59643
34.91283,59326
34.92097,65084
34.92908,63590
34.93720,62425
34.94533,62993
34.95345,70123
34.96158,67627
34.96970,74669
34.97782,68569
34.98595,69942
34.99407,65232
35.00218,63314
35.01032,68067
35.01843,63488
35.02657,58852
35.03468,63558
35.04280,59731
35.05093,55995
35.05905,53194
35.06718,55779
35.07530,57103
35.08342,55355
35.09155,55917
35.09967,58369
35.10780,55305
35.11592,50327
35.12403,57853
35.13217,55706
35.14028,56640
35.14840,58092
35.15653,54420
35.16465,56612
35.17278,59089
35.18090,55702
35.18902,57247
35.19715,58359
35.20527,51319
35.21340,56096
35.22152,50111
35.22963,55487
35.23777,52561
35.24588,54186
35.25400,52763
35.26213,57010
35.27025,55104
35.27838,60761
35.28650,52455
35.29462,53483
35.30275,52210
35.31087,53310
35.31900,53574
35.32712,53574
35.33523,53485
35.34337,48888
35.35148,52489
35.35962,51435
35.36773,51445
35.37585,59968
35.38398,59905
35.39210,67028
35.40022,77180
35.40835,83778
35.41647,90719
35.42460,102476
35.43272,104188
35.44083,110261
35.44897,100432
35.45708,88542
35.46522,79843
35.47333,76253
35.48145,66595
35.48958,66864
35.49770,63532
35.50583,62385
35.51395,64595
35.52207,54520
35.53020,60366
35.53832,56329
35.54643,53917
35.55457,55978
35.56268,55590
35.57082,58760
35.57893,59385
35.58705,56624
35.59518,56719
35.60330,57325
35.61143,54492
35.61955,57980
35.62767,53653
35.63580,53384
35.64392,56126
35.65203,61666
35.66017,56447
35.66828,62132
35.67642,56217
35.68453,58948
35.69265,60285
35.70078,56484
35.70890,53726
35.71703,55492
35.72515,59354
35.73327,59886
35.74140,64262
35.74952,63447
35.75765,69860
35.76577,67279
35.77388,61798
35.78202,65547
35.79013,64950
35.79825,61776
35.80638,58781
35.81450,58920
35.82263,55643
35.83075,60699
35.83887,54405
35.84700,54026
35.85512,56026
35.86325,53661
35.87137,59134
35.87948,57358
35.88762,66781
35.89573,53371
35.90385,53502
35.91198,52945
35.92010,55563
35.92823,54072
35.93635,54908
35.94447,53894
35.95260,49563
35.96072,55528
35.96885,55536
35.97697,57297
35.98508,54376
35.99322,58458
36.00133,58181
36.00947,65333
36.01758,63227
36.02570,57533
36.03383,61956
36.04195,59219
36.05007,58890
36.05820,57146
36.06632,58751
36.07445,59629
36.08257,56221
36.09068,55078
36.09882,53725
36.10693,57739
36.11507,61258
36.12318,57132
36.13130,58649
36.13943,60637
36.14755,59847
36.15568,57973
36.16380,59660
36.17192,58949
36.18005,61612
36.18817,56278
36.19628,57102
36.20442,57173
36.21253,56109
36.22067,56478
36.22878,53719
36.23690,55012
36.24503,59646
36.25315,63593
36.26128,69383
36.26940,76632
36.27752,73763
36.28565,83960
36.29377,94316
36.30188,99776
36.31002,97862
36.31813,95642
36.32627,94891
36.33438,87776
36.34250,87437
36.35063,82061
36.35875,83262
36.36688,85999
36.37500,87966
36.38312,82684
36.39125,92207
36.39937,90209
36.40750,87734
36.41562,86035
36.42373,87291
36.43187,87371
36.43998,84847
36.44810,88804
36.45623,83756
36.46435,92624
36.47248,82309
36.48060,81018
36.48872,82499
36.49685,80876
36.50497,83055
36.51310,85142
36.52122,84164
36.52933,79765
36.53747,84096
36.54558,80727
36.55372,80695
36.56183,80873
36.56995,81971
36.57808,83882
36.58620,81876
36.59432,77944
36.60245,79008
36.61057,82382
36.61870,74784
36.62682,79712
36.63493,81554
36.64307,90585
36.65118,84497
36.65932,79782
36.66743,84839
36.67555,78428
36.68368,82712
36.69180,77307
36.69992,79123
36.70805,74975
36.71617,77273
36.72430,77291
36.73242,80331
36.74053,81130
36.74867,73884
36.75678,82107
36.76492,81679
36.77303,78344
36.78115,69935
36.78928,77496
36.79740,74673
36.80553,76452
36.81365,80295
36.82177,69657
36.82990,72152
36.83802,75663
36.84613,72485
36.85427,71232
36.86238,79770
36.87052,71499
36.87863,73105
36.88675,69388
36.89488,73303
36.90300,71429
36.91113,72281
36.91925,72074
36.92737,74863
36.93550,78103
36.94362,80145
36.95175,83119
36.95987,89521
36.96798,93122
36.97612,91460
36.98423,86528
36.99235,82486
37.00048,79504
37.00860,71366
37.01673,76615
37.02485,72679
37.03297,71143
37.04110,73209
37.04922,70032
37.05735,74018
37.06547,67405
37.07358,71503
37.08172,79779
37.08983,72332
37.09795,75359
37.10608,72091
37.11420,71880
37.12233,69372
37.13045,71328
37.13857,66643
37.14670,74190
37.15482,74387
37.16295,76674
37.17107,66916
37.17918,75480
37.18732,79386
37.19543,69493
37.20357,73192
37.21168,72014
37.21980,70875
37.22793,68941
37.23605,70714
37.24417,66719
37.25230,63736
37.26042,69721
37.26855,68287
37.27667,68986
37.28478,66911
37.29292,68690
37.30103,70758
37.30917,71202
37.31728,81963
37.32540,90458
37.33353,101998
37.34165,107833
37.34977,108397
37.35790,109529
37.36602,109741
37.37415,117264
37.38227,95929
37.39038,95725
37.39852,93580
37.40663,92934
37.41477,85848
37.42288,88255
37.43100,87654
37.43913,86646
37.44725,86470
37.45538,85009
37.46350,83309
37.47162,86677
37.47975,82227
37.48787,80159
