C:\MassHunter\GCMS\1\data\JTB-E02\BACandBLUE\JTB-E18-013-04.D Thu Jun 20 07:47:32 2019
Start of data points
2.09513,28242
2.10327,28276
2.11138,29000
2.11952,27185
2.12763,29332
2.13575,36301
2.14388,37331
2.15200,42575
2.16012,39816
2.16825,37894
2.17637,42080
2.18450,42684
2.19262,39612
2.20073,41282
2.20887,37139
2.21698,35945
2.22512,37081
2.23323,34422
2.24135,40197
2.24948,33489
2.25760,39830
2.26573,184185
2.27385,1283195
2.28197,2336974
2.29010,1786257
2.29822,814173
2.30633,465501
2.31447,340862
2.32258,290601
2.33072,249670
2.33883,215231
2.34695,200593
2.35508,180823
2.36320,163619
2.37133,150268
2.37945,142494
2.38757,135972
2.39570,135008
2.40382,128575
2.41193,122424
2.42007,129815
2.42818,154151
2.43632,138362
2.44443,131519
2.45255,136179
2.46068,125216
2.46880,115210
2.47693,96703
2.48505,102835
2.49317,112087
2.50130,119517
2.50942,111074
2.51755,110502
2.52567,97010
2.53378,94102
2.54192,93728
2.55003,93060
2.55815,93903
2.56628,88197
2.57440,90685
2.58253,84836
2.59065,85878
2.59877,84343
2.60690,89909
2.61502,101223
2.62315,99546
2.63127,96652
2.63938,87392
2.64752,81520
2.65563,80840
2.66375,79638
2.67188,80620
2.68000,76175
2.68813,77103
2.69625,73627
2.70437,72866
2.71250,69814
2.72062,68362
2.72875,71828
2.73687,70378
2.74498,70477
2.75312,63841
2.76123,63498
2.76937,66162
2.77748,64232
2.78560,67528
2.79373,67000
2.80185,63502
2.80997,67051
2.81810,61868
2.82622,65009
2.83435,59868
2.84247,62760
2.85058,61936
2.85872,61422
2.86683,65227
2.87497,63898
2.88308,64655
2.89120,60457
2.89933,63563
2.90745,59476
2.91558,64112
2.92370,57036
2.93182,58127
2.93995,57380
2.94807,60052
2.95618,54279
2.96432,56538
2.97243,57509
2.98057,57692
2.98868,59552
2.99680,60784
3.00493,62180
3.01305,55935
3.02118,61387
3.02930,54847
3.03742,53393
3.04555,57085
3.05367,57243
3.06178,58711
3.06992,54690
3.07803,53220
3.08617,57204
3.09428,55684
3.10240,62373
3.11053,76520
3.11865,91963
3.12678,95636
3.13490,83182
3.14302,79589
3.15115,76887
3.15927,77455
3.16740,72883
3.17552,75807
3.18363,73309
3.19177,65729
3.19988,69484
3.20800,70835
3.21613,67949
3.22425,67062
3.23238,62027
3.24050,64750
3.24862,67130
3.25675,65233
3.26487,64526
3.27300,69117
3.28112,170516
3.28923,1099626
3.29737,5641189
3.30548,1.514726E+07
3.31362,2.206034E+07
3.32173,2.135718E+07
3.32985,1.613455E+07
3.33798,1.085855E+07
3.34610,7373672
3.35422,5406241
3.36235,4183707
3.37047,3385801
3.37860,2845579
3.38672,2422245
3.39483,2095582
3.40297,1855983
3.41108,1666781
3.41922,1513584
3.42733,1400421
3.43545,1308432
3.44358,1204716
3.45170,1129518
3.45982,1071225
3.46795,1019956
3.47607,958767
3.48420,913771
3.49232,869803
3.50043,832355
3.50857,809152
3.51668,780940
3.52482,728272
3.53293,712536
3.54105,690209
3.54918,664852
3.55730,634553
3.56543,616790
3.57355,594953
3.58167,580599
3.58980,568532
3.59792,562187
3.60603,521731
3.61417,527266
3.62228,505893
3.63042,504121
3.63853,500485
3.64665,472504
3.65478,473503
3.66290,458382
3.67103,434811
3.67915,439679
3.68727,422556
3.69540,429947
3.70352,418784
3.71163,404323
3.71977,407262
3.72788,390189
3.73602,368789
3.74413,373525
3.75225,360815
3.76038,356472
3.76850,356704
3.77663,364283
3.78475,354185
3.79287,346190
3.80100,337560
3.80912,324446
3.81725,328408
3.82537,324407
3.83348,327353
3.84162,317361
3.84973,306183
3.85785,301775
3.86598,309024
3.87410,295269
3.88223,284644
3.89035,292301
3.89847,285142
3.90660,278013
3.91472,285921
3.92285,286426
3.93097,272237
3.93908,279591
3.94722,265041
3.95533,269853
3.96347,267597
3.97158,272492
3.97970,264845
3.98783,259381
3.99595,266895
4.00407,262816
4.01220,281298
4.02032,300348
4.02845,317711
4.03657,312750
4.04468,302080
4.05282,277507
4.06093,268767
4.06907,257689
4.07718,250744
4.08530,254709
4.09343,247938
4.10155,239061
4.10967,244055
4.11780,233645
4.12592,228453
4.13405,227065
4.14217,227465
4.15028,241728
4.15842,245727
4.16653,244473
4.17467,230839
4.18278,226734
4.19090,221798
4.19903,218918
4.20715,219466
4.21528,222882
4.22340,245835
4.23152,314051
4.23965,379553
4.24777,384998
4.25588,359183
4.26402,310567
4.27213,291549
4.28027,263967
4.28838,252071
4.29650,243400
4.30463,229914
4.31275,221399
4.32088,223197
4.32900,213853
4.33712,214087
4.34525,213871
4.35337,206282
4.36150,207189
4.36962,208422
4.37773,209272
4.38587,203858
4.39398,204122
4.40210,203538
4.41023,202657
4.41835,192996
4.42648,194167
4.43460,187130
4.44272,184413
4.45085,187303
4.45897,191926
4.46710,184548
4.47522,181466
4.48333,182238
4.49147,178360
4.49958,179196
4.50770,178410
4.51583,179529
4.52395,172071
4.53208,174196
4.54020,171613
4.54832,176690
4.55645,165695
4.56457,165095
4.57270,179363
4.58082,166810
4.58893,171706
4.59707,171863
4.60518,165792
4.61332,163757
4.62143,166852
4.62955,164890
4.63768,160433
4.64580,162007
4.65392,166658
4.66205,151279
4.67017,171083
4.67830,160365
4.68642,160736
4.69453,154574
4.70267,158115
4.71078,157150
4.71892,158236
4.72703,154563
4.73515,153887
4.74328,158213
4.75140,155841
4.75953,154052
4.76765,154268
4.77577,155118
4.78390,152733
4.79202,156051
4.80013,152164
4.80827,148440
4.81638,147256
4.82452,146602
4.83263,151154
4.84075,156987
4.84888,147998
4.85700,149738
4.86513,151874
4.87325,154546
4.88137,155389
4.88950,150123
4.89762,149830
4.90573,147113
4.91387,149873
4.92198,168758
4.93012,303648
4.93823,963132
4.94635,3227217
4.95448,7914144
4.96260,1.325505E+07
4.97073,1.59717E+07
4.97885,1.455467E+07
4.98697,1.09568E+07
4.99510,7383808
5.00322,4962912
5.01135,3496240
5.01947,2638524
5.02758,2150303
5.03572,1764807
5.04383,1561018
5.05195,1371998
5.06008,1195447
5.06820,1116976
5.07633,1003760
5.08445,941218
5.09257,863897
5.10070,835793
5.10882,772178
5.11695,723777
5.12507,694447
5.13318,641914
5.14132,628861
5.14943,602725
5.15755,577357
5.16568,562467
5.17380,532723
5.18193,519120
5.19005,505098
5.19817,493287
5.20630,471782
5.21442,460360
5.22255,447873
5.23067,450038
5.23878,474825
5.24692,486162
5.25503,483576
5.26317,445315
5.27128,414488
5.27940,402832
5.28753,391574
5.29565,373408
5.30377,352279
5.31190,349590
5.32002,337932
5.32815,331241
5.33627,317239
5.34438,323428
5.35252,309810
5.36063,305467
5.36877,308085
5.37688,298559
5.38500,294855
5.39313,291508
5.40125,293521
5.40938,282314
5.41750,276774
5.42562,273638
5.43375,273380
5.44187,270101
5.44998,257740
5.45812,269564
5.46623,268685
5.47437,260303
5.48248,253133
5.49060,251194
5.49873,252414
5.50685,243772
5.51498,237263
5.52310,236027
5.53122,235943
5.53935,242570
5.54747,237012
5.55558,238701
5.56372,232681
5.57183,230372
5.57997,224538
5.58808,225927
5.59620,222188
5.60433,218106
5.61245,217769
5.62058,215894
5.62870,220312
5.63682,225230
5.64495,225615
5.65307,227420
5.66120,229337
5.66932,229380
5.67743,234648
5.68557,259751
5.69368,270084
5.70180,275257
5.70993,266758
5.71805,248861
5.72618,225649
5.73430,220763
5.74242,212685
5.75055,203974
5.75867,201113
5.76680,201231
5.77492,192792
5.78303,196827
5.79117,202410
5.79928,191358
5.80742,194746
5.81553,188039
5.82365,183690
5.83178,183163
5.83990,189950
5.84802,182527
5.85615,178161
5.86427,190694
5.87240,187950
5.88052,187829
5.88863,174523
5.89677,182305
5.90488,174091
5.91302,159300
5.92113,130771
5.92925,125958
5.93738,121316
5.94550,120664
5.95362,117416
5.96175,120632
5.96987,122967
5.97800,121775
5.98612,126433
5.99423,123756
6.00237,124767
6.01048,120836
6.01862,115087
6.02673,122015
6.03485,118298
6.04298,117011
6.05110,117229
6.05923,108607
6.06735,116825
6.07547,112461
6.08360,114479
6.09172,119364
6.09983,112796
6.10797,117920
6.11608,111968
6.12422,116182
6.13233,116114
6.14045,117670
6.14858,113826
6.15670,119524
6.16483,121295
6.17295,125200
6.18107,123337
6.18920,121818
6.19732,133200
6.20543,129227
6.21357,120105
6.22168,124906
6.22982,123948
6.23793,128273
6.24605,127867
6.25418,127636
6.26230,134642
6.27043,131209
6.27855,142704
6.28667,136165
6.29480,128963
6.30292,137044
6.31105,135573
6.31917,138469
6.32728,145005
6.33542,141781
6.34353,146283
6.35165,141262
6.35978,150172
6.36790,139171
6.37603,146645
6.38415,143060
6.39227,150746
6.40040,150866
6.40852,147286
6.41665,146081
6.42477,148748
6.43288,150567
6.44102,150479
6.44913,158573
6.45727,168169
6.46538,165808
6.47350,159819
6.48163,158931
6.48975,157995
6.49787,157219
6.50600,154639
6.51412,145729
6.52225,131400
6.53037,134152
6.53848,119580
6.54662,120199
6.55473,118220
6.56287,113849
6.57098,114777
6.57910,115349
6.58723,110064
6.59535,108577
6.60347,113285
6.61160,105029
6.61972,106367
6.62785,105762
6.63597,101578
6.64408,105712
6.65222,105568
6.66033,108537
6.66847,104757
6.67658,106324
6.68470,100214
6.69283,104709
6.70095,97990
6.70908,100825
6.71720,102085
6.72532,99201
6.73345,100573
6.74157,99052
6.74968,100232
6.75782,97331
6.76593,99913
6.77407,100609
6.78218,97051
6.79030,93400
6.79843,95978
6.80655,95949
6.81468,94435
6.82280,93079
6.83092,103032
6.83905,100059
6.84717,89674
6.85530,89149
6.86342,76838
6.87153,64073
6.87967,60819
6.88778,57166
6.89590,60111
6.90403,57185
6.91215,59889
6.92028,55871
6.92840,61213
6.93652,56756
6.94465,62034
6.95277,59453
6.96090,58405
6.96902,58764
6.97713,57888
6.98527,59461
6.99338,56681
7.00150,56937
7.00963,57000
7.01775,52751
7.02588,56532
7.03400,54710
7.04212,54493
7.05025,54575
7.05837,53768
7.06650,51640
7.07462,55362
7.08273,56237
7.09087,54532
7.09898,57523
7.10712,54759
7.11523,53078
7.12335,56547
7.13148,55025
7.13960,56632
7.14772,59596
7.15585,55473
7.16397,55730
7.17210,57176
7.18022,61088
7.18833,63533
7.19647,56857
7.20458,53464
7.21272,54758
7.22083,49911
7.22895,52352
7.23708,54011
7.24520,50645
7.25332,51221
7.26145,47260
7.26957,53103
7.27770,53127
7.28582,53871
7.29393,51050
7.30207,51730
7.31018,54246
7.31832,50739
7.32643,53143
7.33455,49761
7.34268,49305
7.35080,50685
7.35893,54330
7.36705,47256
7.37517,49516
7.38330,49033
7.39142,54562
7.39953,54572
7.40767,52171
7.41578,55436
7.42392,52864
7.43203,52931
7.44015,58688
7.44828,58425
7.45640,58167
7.46453,56231
7.47265,62279
7.48077,58085
7.48890,58316
7.49702,54582
7.50515,53168
7.51327,50560
7.52138,52658
7.52952,55362
7.53763,50965
7.54575,48950
7.55388,51893
7.56200,51973
7.57013,52542
7.57825,52583
7.58637,48451
7.59450,53223
7.60262,52503
7.61075,52399
7.61887,51720
7.62698,54217
7.63512,49856
7.64323,49242
7.65137,53082
7.65948,52445
7.66760,52417
7.67573,48315
7.68385,49618
7.69197,48694
7.70010,49797
7.70822,49620
7.71635,50171
7.72447,49840
7.73258,49449
7.74072,47998
7.74883,52461
7.75697,45209
7.76508,49951
7.77320,47179
7.78133,51179
7.78945,47470
7.79757,50404
7.80570,48744
7.81382,49771
7.82195,48393
7.83007,45117
7.83818,44815
7.84632,49398
7.85443,51007
7.86257,50383
7.87068,44605
7.87880,42587
7.88693,45010
7.89505,43655
7.90318,45379
7.91130,44228
7.91942,45182
7.92755,44340
7.93567,44205
7.94378,43594
7.95192,45234
7.96003,42842
7.96817,47095
7.97628,44733
7.98440,47746
7.99253,45648
8.00065,44206
8.00878,42495
8.01690,43288
8.02502,43596
8.03315,46886
8.04127,46580
8.04938,47143
8.05752,46887
8.06563,41183
8.07377,45445
8.08188,41155
8.09000,42862
8.09813,42107
8.10625,42045
8.11438,45291
8.12250,40791
8.13062,42001
8.13875,42574
8.14687,46258
8.15500,42093
8.16312,41544
8.17123,40608
8.17937,46744
8.18748,46853
8.19560,45998
8.20373,42050
8.21185,44673
8.21998,47633
8.22810,43774
8.23622,41006
8.24435,43242
8.25247,39676
8.26060,43995
8.26872,42969
8.27683,43284
8.28497,41231
8.29308,43842
8.30122,38252
8.30933,44875
8.31745,40355
8.32558,43659
8.33370,39366
8.34182,39095
8.34995,44511
8.35807,47273
8.36620,45227
8.37432,43167
8.38243,47849
8.39057,42130
8.39868,44138
8.40682,43653
8.41493,40602
8.42305,42929
8.43118,38035
8.43930,38797
8.44742,48876
8.45555,42389
8.46367,40740
8.47180,43795
8.47992,39823
8.48803,40341
8.49617,56556
8.50428,285198
8.51242,549476
8.52053,360103
8.52865,150103
8.53678,97110
8.54490,82997
8.55303,75262
8.56115,67815
8.56927,64731
8.57740,60833
8.58552,62059
8.59363,66016
8.60177,65304
8.60988,62122
8.61802,60643
8.62613,58325
8.63425,60827
8.64238,62573
8.65050,56060
8.65863,57264
8.66675,61320
8.67487,56133
8.68300,59011
8.69112,59932
8.69925,55987
8.70737,57074
8.71548,55919
8.72362,54153
8.73173,54450
8.73985,53174
8.74798,60616
8.75610,101367
8.76423,288289
8.77235,841301
8.78047,2058546
8.78860,3867169
8.79672,5462276
8.80485,5770908
8.81297,4891085
8.82108,3434586
8.82922,2271029
8.83733,1554805
8.84545,1152285
8.85358,893261
8.86170,714023
8.86983,602140
8.87795,509669
8.88607,428662
8.89420,401240
8.90232,505686
8.91045,2722665
8.91857,6998517
8.92668,5609997
8.93482,2686259
8.94293,1519084
8.95107,1052624
8.95918,795467
8.96730,641746
8.97543,550311
8.98355,484476
8.99167,427457
8.99980,384570
9.00792,350959
9.01605,329432
9.02417,311512
9.03228,283708
9.04042,264375
9.04853,250519
9.05667,241914
9.06478,230911
9.07290,214762
9.08103,213846
9.08915,205836
9.09727,198529
9.10540,185360
9.11352,184619
9.12165,185868
9.12977,181918
9.13788,180989
9.14602,170089
9.15413,163115
9.16227,163814
9.17038,161123
9.17850,163912
9.18663,156573
9.19475,157223
9.20288,151876
9.21100,150382
9.21912,150523
9.22725,144076
9.23537,150912
9.24348,137907
9.25162,139349
9.25973,135953
9.26787,135511
9.27598,131842
9.28410,126142
9.29223,133158
9.30035,129880
9.30848,129140
9.31660,131407
9.32472,125182
9.33285,126215
9.34097,118829
9.34910,115873
9.35722,117316
9.36533,118769
9.37347,111481
9.38158,108061
9.38970,113464
9.39783,136283
9.40595,524222
9.41408,2383946
9.42220,4456188
9.43032,3772817
9.43845,2030997
9.44657,1140742
9.45470,746666
9.46282,554657
9.47093,434609
9.47907,353378
9.48718,299480
9.49530,269397
9.50343,237815
9.51155,224730
9.51968,205136
9.52780,183236
9.53592,174205
9.54405,170827
9.55217,159278
9.56030,140648
9.56842,132314
9.57653,128255
9.58467,116192
9.59278,113064
9.60092,108027
9.60903,105144
9.61715,104434
9.62528,100815
9.63340,98595
9.64152,90041
9.64965,91442
9.65777,89267
9.66590,90595
9.67402,84691
9.68213,79769
9.69027,83615
9.69838,79943
9.70652,83290
9.71463,79977
9.72275,81495
9.73088,79033
9.73900,74020
9.74713,74460
9.75525,77941
9.76337,73861
9.77150,73532
9.77962,71188
9.78773,71688
9.79587,74997
9.80398,71263
9.81212,74162
9.82023,69842
9.82835,68582
9.83648,74720
9.84460,71231
9.85273,85138
9.86085,88580
9.86897,85603
9.87710,76320
9.88522,74247
9.89333,69700
9.90147,73366
9.90958,66471
9.91772,69168
9.92583,78554
9.93395,81088
9.94208,77885
9.95020,81670
9.95833,71056
9.96645,71741
9.97457,70489
9.98270,77277
9.99082,74296
9.99895,76658
10.00707,77813
10.01518,84062
10.02332,82273
10.03143,86241
10.03955,88258
10.04768,88819
10.05580,88973
10.06393,83267
10.07205,78811
10.08017,79095
10.08830,80180
10.09642,75715
10.10455,84169
10.11267,84169
10.12078,87240
10.12892,91115
10.13703,93076
10.14517,97670
10.15328,105499
10.16140,108975
10.16953,116101
10.17765,108302
10.18577,99076
10.19390,87846
10.20202,84599
10.21015,82282
10.21827,83946
10.22638,80499
10.23452,88043
10.24263,89877
10.25077,86532
10.25888,81290
10.26700,78354
10.27513,79200
10.28325,80071
10.29137,78196
10.29950,81785
10.30762,86030
10.31575,89832
10.32387,94914
10.33198,90310
10.34012,88428
10.34823,83220
10.35637,80511
10.36448,75704
10.37260,72225
10.38073,76562
10.38885,79555
10.39698,73388
10.40510,73270
10.41322,73407
10.42135,73227
10.42947,67657
10.43758,68272
10.44572,64909
10.45383,70978
10.46197,70073
10.47008,69847
10.47820,68383
10.48633,66898
10.49445,68507
10.50258,69028
10.51070,66445
10.51882,64599
10.52695,65384
10.53507,65614
10.54318,66417
10.55132,65025
10.55943,67879
10.56757,69085
10.57568,66876
10.58380,65457
10.59193,66808
10.60005,66322
10.60818,63326
10.61630,61574
10.62442,62931
10.63255,61273
10.64067,57789
10.64880,58638
10.65692,62642
10.66503,63220
10.67317,63312
10.68128,61879
10.68940,63688
10.69753,62690
10.70565,60985
10.71378,62457
10.72190,59462
10.73002,56891
10.73815,60195
10.74627,56312
10.75440,63090
10.76252,62197
10.77063,63546
10.77877,58022
10.78688,63304
10.79502,62146
10.80313,57141
10.81125,58888
10.81938,59732
10.82750,60055
10.83562,58233
10.84375,56085
10.85187,56996
10.86000,58089
10.86812,55623
10.87623,56032
10.88437,54848
10.89248,56269
10.90062,61854
10.90873,54514
10.91685,56951
10.92498,53742
10.93310,57795
10.94122,53566
10.94935,56505
10.95747,59769
10.96560,57390
10.97372,53957
10.98183,55532
10.98997,58332
10.99808,56105
11.00622,79888
11.01433,194205
11.02245,501540
11.03058,950506
11.03870,1126282
11.04683,962116
11.05495,625653
11.06307,382010
11.07120,264852
11.07932,201490
11.08743,164569
11.09557,135530
11.10368,120404
11.11182,105827
11.11993,93335
11.12805,86782
11.13618,83264
11.14430,83270
11.15243,74364
11.16055,75273
11.16867,75559
11.17680,82515
11.18492,87796
11.19305,92938
11.20117,104024
11.20928,96641
11.21742,99627
11.22553,93549
11.23365,85387
11.24178,79010
11.24990,69516
11.25803,68751
11.26615,60713
11.27427,60757
11.28240,61183
11.29052,61323
11.29865,58328
11.30677,54817
11.31488,63811
11.32302,59026
11.33113,58046
11.33925,58233
11.34738,68131
11.35550,58412
11.36363,55268
11.37175,55937
11.37987,56554
11.38800,50900
11.39612,57937
11.40425,56749
11.41237,55918
11.42048,56285
11.42862,53893
11.43673,58608
11.44487,54324
11.45298,50382
11.46110,57145
11.46923,53827
11.47735,52190
11.48547,51640
11.49360,53471
11.50172,51983
11.50985,55709
11.51797,58331
11.52608,52196
11.53422,52601
11.54233,54164
11.55047,54784
11.55858,52990
11.56670,50394
11.57483,50312
11.58295,48603
11.59107,52313
11.59920,45928
11.60732,53006
11.61545,50710
11.62357,50263
11.63168,53551
11.63982,52353
11.64793,51864
11.65607,54729
11.66418,51375
11.67230,47397
11.68043,49457
11.68855,48159
11.69668,47095
11.70480,52290
11.71292,56531
11.72105,53453
11.72917,58075
11.73728,56960
11.74542,48980
11.75353,57440
11.76167,57531
11.76978,57550
11.77790,56000
11.78603,55343
11.79415,56618
11.80228,56825
11.81040,52253
11.81852,54107
11.82665,53501
11.83477,55807
11.84290,52019
11.85102,52432
11.85913,51153
11.86727,49519
11.87538,54014
11.88350,51642
11.89163,52185
11.89975,49537
11.90788,55516
11.91600,54150
11.92412,49753
11.93225,51952
11.94037,53665
11.94850,51486
11.95662,52294
11.96473,60184
11.97287,50356
11.98098,50138
11.98912,48155
11.99723,51323
12.00535,54539
12.01348,54230
12.02160,53517
12.02972,51934
12.03785,56939
12.04597,51724
12.05410,52335
12.06222,55051
12.07033,53105
12.07847,55113
12.08658,57861
12.09472,57181
12.10283,53595
12.11095,60700
12.11908,54150
12.12720,54634
12.13532,53250
12.14345,53634
12.15157,54323
12.15970,56198
12.16782,54715
12.17593,50917
12.18407,54735
12.19218,54919
12.20032,56031
12.20843,56673
12.21655,55425
12.22468,52010
12.23280,53209
12.24093,51511
12.24905,53186
12.25717,56397
12.26530,55425
12.27342,53722
12.28153,48678
12.28967,52422
12.29778,52416
12.30592,52822
12.31403,49619
12.32215,50305
12.33028,55382
12.33840,53276
12.34653,46601
12.35465,50829
12.36277,52125
12.37090,48369
12.37902,51311
12.38713,51784
12.39527,53889
12.40338,56692
12.41152,54546
12.41963,55265
12.42775,56743
12.43588,56750
12.44400,50497
12.45213,55412
12.46025,51940
12.46837,50298
12.47650,56286
12.48462,55405
12.49275,50634
12.50087,53900
12.50898,52310
12.51712,54158
12.52523,56337
12.53335,52092
12.54148,47896
12.54960,53367
12.55773,56610
12.56585,53178
12.57397,54739
12.58210,50397
12.59022,51676
12.59835,52716
12.60647,54283
12.61458,54743
12.62272,54930
12.63083,50439
12.63897,47213
12.64708,54927
12.65520,52951
12.66333,48718
12.67145,50904
12.67957,49588
12.68770,48010
12.69582,47437
12.70395,50351
12.71207,49833
12.72018,49950
12.72832,55724
12.73643,51259
12.74457,54223
12.75268,59189
12.76080,56183
12.76893,61364
12.77705,53548
12.78517,51415
12.79330,48151
12.80142,48098
12.80955,57392
12.81767,51298
12.82578,49911
12.83392,50140
12.84203,56059
12.85017,46647
12.85828,49578
12.86640,47179
12.87453,48547
12.88265,48129
12.89078,46090
12.89890,49968
12.90702,45988
12.91515,50451
12.92327,46110
12.93138,46790
12.93952,51413
12.94763,48291
12.95577,51102
12.96388,51925
12.97200,44967
12.98013,55369
12.98825,52683
12.99638,48342
13.00450,48430
13.01262,46991
13.02075,52092
13.02887,51752
13.03700,46266
13.04512,48296
13.05323,50793
13.06137,46092
13.06948,50979
13.07760,48163
13.08573,48328
13.09385,47257
13.10198,44771
13.11010,45360
13.11822,47213
13.12635,46157
13.13447,45562
13.14260,50493
13.15072,49520
13.15883,46639
13.16697,48027
13.17508,46807
13.18320,51276
13.19133,52679
13.19945,61710
13.20758,60265
13.21570,63111
13.22382,61142
13.23195,57655
13.24007,50797
13.24820,51008
13.25632,51970
13.26443,46406
13.27257,45967
13.28068,47209
13.28882,44794
13.29693,46871
13.30505,49696
13.31318,47013
13.32130,49725
13.32942,46471
13.33755,45609
13.34567,45568
13.35380,48967
13.36192,53085
13.37003,46612
13.37817,48527
13.38628,47982
13.39442,44205
13.40253,48203
13.41065,47402
13.41878,45622
13.42690,47567
13.43502,44416
13.44315,47045
13.45127,47635
13.45940,48789
13.46752,48191
13.47563,49455
13.48377,44044
13.49188,46364
13.50002,48980
13.50813,48373
13.51625,45878
13.52438,43209
13.53250,48740
13.54063,48566
13.54875,43263
13.55687,47658
13.56500,47061
13.57312,47307
13.58123,47689
13.58937,47936
13.59748,42913
13.60562,45879
13.61373,47190
13.62185,53468
13.62998,44813
13.63810,47897
13.64623,49449
13.65435,47847
13.66247,46754
13.67060,48007
13.67872,48355
13.68685,45702
13.69497,44136
13.70308,46245
13.71122,46576
13.71933,49578
13.72745,47894
13.73558,49051
13.74370,48063
13.75183,52291
13.75995,52435
13.76807,58014
13.77620,63961
13.78432,69187
13.79245,71798
13.80057,75980
13.80868,76899
13.81682,78532
13.82493,72051
13.83305,74786
13.84118,73947
13.84930,71635
13.85743,75708
13.86555,73941
13.87367,77930
13.88180,81363
13.88992,76512
13.89805,74837
13.90617,74082
13.91428,74802
13.92242,80622
13.93053,75694
13.93867,76479
13.94678,75567
13.95490,77480
13.96303,79548
13.97115,77704
13.97927,77142
13.98740,70980
13.99552,74893
14.00365,74320
14.01177,71172
14.01988,73496
14.02802,73721
14.03613,78884
14.04427,75487
14.05238,75108
14.06050,82024
14.06863,72749
14.07675,76685
14.08488,79617
14.09300,72036
14.10112,73401
14.10925,72702
14.11737,74007
14.12548,72029
14.13362,75155
14.14173,74021
14.14987,73084
14.15798,77285
14.16610,95135
14.17423,164475
14.18235,349636
14.19048,734797
14.19860,1329437
14.20672,1859044
14.21485,1983429
14.22297,1695298
14.23108,1161132
14.23922,741896
14.24733,465892
14.25547,326962
14.26358,256948
14.27170,215278
14.27983,186630
14.28795,168877
14.29608,158620
14.30420,152618
14.31232,142559
14.32045,132607
14.32857,126023
14.33670,122605
14.34482,122120
14.35293,107037
14.36107,96386
14.36918,90058
14.37730,84500
14.38543,73035
14.39355,75343
14.40168,70434
14.40980,68135
14.41792,72318
14.42605,68181
14.43417,67447
14.44230,68660
14.45042,63526
14.45853,66591
14.46667,62150
14.47478,65486
14.48290,65985
14.49103,64969
14.49915,58622
14.50728,62094
14.51540,62012
14.52352,61441
14.53165,62598
14.53977,62364
14.54790,62890
14.55602,63971
14.56413,62810
14.57227,63826
14.58038,60851
14.58852,58321
14.59663,59870
14.60475,59141
14.61288,58891
14.62100,54285
14.62912,110069
14.63725,476308
14.64537,577095
14.65350,258055
14.66162,130733
14.66973,99776
14.67787,84753
14.68598,88270
14.69412,88844
14.70223,86146
14.71035,82501
14.71848,82006
14.72660,74890
14.73473,78328
14.74285,77671
14.75097,76695
14.75910,84493
14.76722,117844
14.77533,177927
14.78347,273597
14.79158,323839
14.79972,318952
14.80783,260270
14.81595,194071
14.82408,641311
14.83220,2475016
14.84033,2127813
14.84845,1114724
14.85657,759886
14.86470,579692
14.87282,472079
14.88093,398749
14.88907,333215
14.89718,299050
14.90532,269132
14.91343,239245
14.92155,217454
14.92968,207798
14.93780,188980
14.94593,181357
14.95405,166989
14.96217,163517
14.97030,157737
14.97842,213324
14.98655,863243
14.99467,1487793
15.00278,975756
15.01092,617083
15.01903,468355
15.02715,391016
15.03528,328653
15.04340,292971
15.05153,263465
15.05965,245072
15.06777,215136
15.07590,205105
15.08402,193562
15.09215,182996
15.10027,166708
15.10838,159815
15.11652,155396
15.12463,151341
15.13277,149402
15.14088,141865
15.14900,137162
15.15713,133344
15.16525,126587
15.17337,127140
15.18150,121861
15.18962,114496
15.19775,121331
15.20587,111643
15.21398,113534
15.22212,107894
15.23023,107718
15.23837,105968
15.24648,107470
15.25460,107099
15.26273,117387
15.27085,112197
15.27897,97803
15.28710,99959
15.29522,107647
15.30335,108957
15.31147,107490
15.31958,96806
15.32772,104738
15.33583,118427
15.34397,132791
15.35208,143184
15.36020,143372
15.36833,135352
15.37645,118337
15.38458,112482
15.39270,105602
15.40082,100449
15.40895,103298
15.41707,97669
15.42518,103612
15.43332,103242
15.44143,95064
15.44957,89416
15.45768,92148
15.46580,96900
15.47393,90064
15.48205,93374
15.49018,110428
15.49830,232393
15.50642,378431
15.51455,372183
15.52267,262151
15.53080,203471
15.53892,167626
15.54703,150582
15.55517,133813
15.56328,126134
15.57140,119540
15.57953,116479
15.58765,106228
15.59578,105917
15.60390,97647
15.61202,95164
15.62015,95609
15.62827,90226
15.63640,88229
15.64452,89305
15.65263,87495
15.66077,89756
15.66888,89738
15.67700,85047
15.68513,84566
15.69325,82573
15.70138,79830
15.70950,85274
15.71762,80676
15.72575,80196
15.73387,76603
15.74200,83094
15.75012,84630
15.75823,77518
15.76637,79285
15.77448,76476
15.78262,80204
15.79073,81592
15.79885,80086
15.80698,77033
15.81510,74347
15.82322,77858
15.83135,78105
15.83947,79584
15.84760,76866
15.85572,78988
15.86383,76970
15.87197,76367
15.88008,74256
15.88822,74709
15.89633,74876
15.90445,72193
15.91258,77632
15.92070,72619
15.92882,76496
15.93695,72846
15.94507,76939
15.95320,72634
15.96132,76027
15.96943,76362
15.97757,76535
15.98568,76914
15.99382,80626
16.00193,81766
16.01005,80948
16.01818,81784
16.02630,82838
16.03443,86602
16.04255,91224
16.05067,90357
16.05880,87112
16.06692,81825
16.07503,84153
16.08317,77381
16.09128,79365
16.09942,74970
16.10753,75725
16.11565,79768
16.12378,77391
16.13190,75287
16.14003,76725
16.14815,68142
16.15627,72472
16.16440,74523
16.17252,74713
16.18065,74679
16.18877,74296
16.19688,69799
16.20502,70691
16.21313,71798
16.22125,73176
16.22938,70503
16.23750,77023
16.24563,74880
16.25375,69798
16.26187,72623
16.27000,66933
16.27812,66931
16.28625,68210
16.29437,70859
16.30248,68028
16.31062,74755
16.31873,67347
16.32685,75116
16.33498,67797
16.34310,64010
16.35123,66656
16.35935,73230
16.36747,73035
16.37560,71064
16.38372,70618
16.39185,76037
16.39997,71179
16.40808,73105
16.41622,70890
16.42433,71337
16.43247,69579
16.44058,67695
16.44870,70002
16.45683,63356
16.46495,71718
16.47307,70105
16.48120,72647
16.48932,71775
16.49745,72773
16.50557,72556
16.51368,72547
16.52182,69011
16.52993,71778
16.53807,70117
16.54618,71431
16.55430,71342
16.56243,67895
16.57055,75504
16.57868,70790
16.58680,71077
16.59492,65717
16.60305,70502
16.61117,71070
16.61928,69924
16.62742,67494
16.63553,66492
16.64367,69378
16.65178,69398
16.65990,68448
16.66803,64975
16.67615,65529
16.68428,63557
16.69240,64693
16.70052,67639
16.70865,71941
16.71677,64394
16.72488,67919
16.73302,66242
16.74113,67211
16.74927,65044
16.75738,63070
16.76550,62196
16.77363,63515
16.78175,61875
16.78988,68363
16.79800,63883
16.80612,63658
16.81425,63750
16.82237,60886
16.83050,63160
16.83862,62075
16.84673,63659
16.85487,64952
16.86298,61743
16.87110,60476
16.87923,59390
16.88735,70762
16.89548,66218
16.90360,65406
16.91172,65474
16.91985,66489
16.92797,63446
16.93610,62573
16.94422,59086
16.95233,63501
16.96047,60996
16.96858,63476
16.97670,62073
16.98483,62465
16.99295,66728
17.00108,62146
17.00920,59916
17.01732,56875
17.02545,58613
17.03357,62547
17.04170,59757
17.04982,56875
17.05793,59621
17.06607,61512
17.07418,58095
17.08232,57612
17.09043,60682
17.09855,64632
17.10668,75285
17.11480,88948
17.12292,113431
17.13105,112915
17.13917,98194
17.14730,84911
17.15542,72370
17.16353,73398
17.17167,68141
17.17978,66776
17.18792,67083
17.19603,62166
17.20415,69107
17.21228,69791
17.22040,61956
17.22853,58669
17.23665,61494
17.24477,59308
17.25290,60762
17.26102,59539
17.26913,56008
17.27727,55523
17.28538,59084
17.29352,60010
17.30163,60709
17.30975,59484
17.31788,56496
17.32600,57051
17.33413,62969
17.34225,61889
17.35037,61309
17.35850,66488
17.36662,66345
17.37475,66076
17.38287,74742
17.39098,70667
17.39912,67166
17.40723,67012
17.41535,64838
17.42348,61567
17.43160,61358
17.43973,66207
17.44785,62663
17.45597,64411
17.46410,59285
17.47222,60258
17.48035,58708
17.48847,61964
17.49658,61584
17.50472,60157
17.51283,59791
17.52095,62578
17.52908,58749
17.53720,58956
17.54533,59553
17.55345,65651
17.56157,61923
17.56970,59695
17.57782,58348
17.58595,59652
17.59407,55697
17.60218,56148
17.61032,52955
17.61843,55614
17.62657,53891
17.63468,55851
17.64280,53517
17.65093,50325
17.65905,57288
17.66717,62832
17.67530,60304
17.68342,61793
17.69155,57093
17.69967,58060
17.70778,59923
17.71592,65046
17.72403,55400
17.73217,56742
17.74028,58146
17.74840,60476
17.75653,56651
17.76465,53406
17.77277,56356
17.78090,52421
17.78902,54160
17.79715,58150
17.80527,57233
17.81338,53948
17.82152,53188
17.82963,55340
17.83777,58922
17.84588,58416
17.85400,58852
17.86213,60310
17.87025,53164
17.87838,59067
17.88650,53262
17.89462,59375
17.90275,53091
17.91087,55869
17.91898,47885
17.92712,50974
17.93523,47824
17.94337,50642
17.95148,47413
17.95960,49593
17.96773,50541
17.97585,47651
17.98398,50962
17.99210,52027
18.00022,52591
18.00835,53682
18.01647,45565
18.02460,47530
18.03272,50996
18.04083,48909
18.04897,50060
18.05708,49047
18.06520,55436
18.07333,55279
18.08145,59465
18.08958,70495
18.09770,75568
18.10582,80331
18.11395,79703
18.12207,84946
18.13020,83626
18.13832,83302
18.14643,81093
18.15457,73999
18.16268,78418
18.17080,73816
18.17893,71756
18.18705,75353
18.19518,75650
18.20330,71105
18.21142,73260
18.21955,71449
18.22767,73453
18.23580,69665
18.24392,72929
18.25203,72081
18.26017,69769
18.26828,64996
18.27642,68196
18.28453,61475
18.29265,63817
18.30078,59876
18.30890,55851
18.31702,54063
18.32515,57619
18.33327,56557
18.34140,54701
18.34952,53524
18.35763,57999
18.36577,53623
18.37388,56614
18.38202,50601
18.39013,58255
18.39825,52704
18.40638,54015
18.41450,58703
18.42263,48492
18.43075,53991
18.43887,51759
18.44700,53734
18.45512,59273
18.46323,59238
18.47137,54661
18.47948,52819
18.48762,54476
18.49573,53449
18.50385,54042
18.51198,53346
18.52010,47118
18.52823,52162
18.53635,51662
18.54447,51793
18.55260,50212
18.56072,55726
18.56883,52537
18.57697,51840
18.58508,52450
18.59322,48856
18.60133,51987
18.60945,56012
18.61758,58322
18.62570,53931
18.63383,53289
18.64195,53408
18.65007,45834
18.65820,50937
18.66632,50795
18.67445,48379
18.68257,49374
18.69068,50235
18.69882,51038
18.70693,49579
18.71505,51976
18.72318,52113
18.73130,48128
18.73943,50035
18.74755,53754
18.75567,49403
18.76380,51696
18.77192,48843
18.78005,51319
18.78817,51039
18.79628,50381
18.80442,48920
18.81253,49419
18.82065,49016
18.82878,53188
18.83690,52109
18.84503,48384
18.85315,50359
18.86127,50967
18.86940,44918
18.87752,52198
18.88565,50076
18.89377,50887
18.90188,49413
18.91002,50132
18.91813,48301
18.92627,46005
18.93438,50042
18.94250,50879
18.95063,47525
18.95875,48617
18.96687,48756
18.97500,47667
18.98312,49901
18.99125,49486
18.99937,47100
19.00748,46982
19.01562,48397
19.02373,46097
19.03187,47652
19.03998,49785
19.04810,45986
19.05623,49734
19.06435,47777
19.07248,47395
19.08060,46656
19.08872,50591
19.09685,53917
19.10497,59748
19.11308,58974
19.12122,56411
19.12933,59988
19.13747,58851
19.14558,58371
19.15370,56155
19.16183,56474
19.16995,52508
19.17808,52107
19.18620,54143
19.19432,51460
19.20245,52506
19.21057,54442
19.21868,46520
19.22682,50506
19.23493,49947
19.24307,50707
19.25118,47846
19.25930,47129
19.26743,53762
19.27555,55085
19.28368,57461
19.29180,61435
19.29992,64186
19.30805,61920
19.31617,63764
19.32430,62205
19.33242,64756
19.34053,64907
19.34867,62453
19.35678,64695
19.36490,64888
19.37303,67000
19.38115,70946
19.38928,67235
19.39740,67762
19.40552,73279
19.41365,69094
19.42177,69307
19.42990,68172
19.43802,71351
19.44613,71588
19.45427,69874
19.46238,73538
19.47052,90581
19.47863,128000
19.48675,203982
19.49488,345268
19.50300,536234
19.51112,719743
19.51925,718940
19.52737,604280
19.53550,402454
19.54362,254609
19.55173,158821
19.55987,117498
19.56798,98141
19.57612,89107
19.58423,91766
19.59235,99690
19.60048,114929
19.60860,144765
19.61672,166332
19.62485,180818
19.63297,178405
19.64110,176898
19.64922,201426
19.65733,241559
19.66547,294706
19.67358,349203
19.68172,354280
19.68983,343015
19.69795,291520
19.70608,243569
19.71420,197344
19.72233,161907
19.73045,138979
19.73857,127243
19.74670,117387
19.75482,104638
19.76293,98747
19.77107,93659
19.77918,93111
19.78732,88962
19.79543,88783
19.80355,87166
19.81168,79269
19.81980,82317
19.82793,78814
19.83605,77324
19.84417,75099
19.85230,79719
19.86042,76220
19.86855,84505
19.87667,88199
19.88478,95491
19.89292,119086
19.90103,157871
19.90915,203606
19.91728,244527
19.92540,271718
19.93353,293704
19.94165,292527
19.94977,293283
19.95790,277237
19.96602,263654
19.97415,261932
19.98227,249678
19.99038,243902
19.99852,233387
20.00663,221272
20.01475,212718
20.02288,204807
20.03100,198352
20.03913,190460
20.04725,169007
20.05537,151964
20.06350,133556
20.07162,119377
20.07975,111144
20.08787,102294
20.09598,97040
20.10412,93244
20.11223,94802
20.12037,88922
20.12848,89445
20.13660,90050
20.14473,91203
20.15285,86626
20.16097,90712
20.16910,86236
20.17722,86412
20.18535,86426
20.19347,83052
20.20158,78544
20.20972,84705
20.21783,83625
20.22597,87003
20.23408,83554
20.24220,91598
20.25033,116954
20.25845,151211
20.26657,196531
20.27470,255417
20.28282,300345
20.29095,309403
20.29907,291994
20.30718,262232
20.31532,213749
20.32343,178072
20.33157,141703
20.33968,122503
20.34780,112940
20.35593,111055
20.36405,104805
20.37218,108151
20.38030,118091
20.38842,102453
20.39655,100671
20.40467,101555
20.41278,104262
20.42092,108203
20.42903,125471
20.43717,138980
20.44528,144685
20.45340,155165
20.46153,151871
20.46965,145035
20.47778,135829
20.48590,116069
20.49402,109041
20.50215,98457
20.51027,88220
20.51840,90335
20.52652,86252
20.53463,85605
20.54277,78465
20.55088,86315
20.55900,82020
20.56713,78327
20.57525,80016
20.58338,76223
20.59150,83482
20.59962,77482
20.60775,78465
20.61587,80831
20.62400,76881
20.63212,74793
20.64023,74277
20.64837,74996
20.65648,75652
20.66460,74028
20.67273,72422
20.68085,77273
20.68898,71183
20.69710,68741
20.70522,73629
20.71335,70906
20.72147,69253
20.72960,68792
20.73772,64413
20.74583,64621
20.75397,63333
20.76208,66037
20.77022,68230
20.77833,67186
20.78645,66659
20.79458,66656
20.80270,66709
20.81082,66702
20.81895,64648
20.82707,66496
20.83520,63905
20.84332,65811
20.85143,67017
20.85957,64793
20.86768,66196
20.87582,65732
20.88393,66591
20.89205,62262
20.90018,61201
20.90830,59262
20.91643,64912
20.92455,55241
20.93267,62602
20.94080,58753
20.94892,57601
20.95703,55150
20.96517,57975
20.97328,53932
20.98142,55642
20.98953,58450
20.99765,52457
21.00578,63595
21.01390,71344
21.02203,76093
21.03015,81345
21.03827,81801
21.04640,72113
21.05452,70167
21.06263,64523
21.07077,63599
21.07888,63669
21.08702,57398
21.09513,55049
21.10325,53955
21.11138,56605
21.11950,57095
21.12763,53448
21.13575,53033
21.14387,54813
21.15200,55652
21.16012,59758
21.16825,60622
21.17637,58985
21.18448,56908
21.19262,59788
21.20073,58154
21.20885,53044
21.21698,53937
21.22510,56914
21.23323,55092
21.24135,60138
21.24947,57332
21.25760,52664
21.26572,54094
21.27385,54765
21.28197,53645
21.29008,59255
21.29822,61985
21.30633,65415
21.31445,68695
21.32258,72012
21.33070,69999
21.33883,64634
21.34695,57243
21.35507,61818
21.36320,56831
21.37132,52091
21.37945,48809
21.38757,59305
21.39568,57580
21.40382,59151
21.41193,54810
21.42007,55444
21.42818,56283
21.43630,59962
21.44443,61596
21.45255,61901
21.46067,65657
21.46880,65215
21.47692,63216
21.48505,61251
21.49317,60827
21.50128,61379
21.50942,59338
21.51753,58127
21.52567,56370
21.53378,62055
21.54190,62620
21.55003,61443
21.55815,60998
21.56628,59157
21.57440,58590
21.58252,57430
21.59065,62321
21.59877,63791
21.60688,69864
21.61502,77789
21.62313,91434
21.63127,109134
21.63938,127121
21.64750,131666
21.65563,126558
21.66375,112339
21.67188,103526
21.68000,86303
21.68812,81946
21.69625,75218
21.70437,72431
21.71248,71511
21.72062,70321
21.72873,65811
21.73687,67032
21.74498,68480
21.75310,67014
21.76123,67843
21.76935,66803
21.77748,64958
21.78560,62251
21.79372,65073
21.80185,70101
21.80997,74752
21.81810,76995
21.82622,89549
21.83433,104221
21.84247,110030
21.85058,104143
21.85870,92113
21.86683,81111
21.87495,77315
21.88308,72609
21.89120,68492
21.89932,64523
21.90745,61569
21.91557,60725
21.92370,56497
21.93182,60286
21.93993,60914
21.94807,58491
21.95618,60370
21.96432,57476
21.97243,54909
21.98055,55287
21.98868,54886
21.99680,53879
22.00492,52997
22.01305,53117
22.02117,51397
22.02930,50291
22.03742,47897
22.04553,51202
22.05367,49705
22.06178,52346
22.06992,50826
22.07803,49649
22.08615,52301
22.09428,45666
22.10240,50391
22.11052,46205
22.11865,47149
22.12677,51980
22.13490,52866
22.14302,53437
22.15113,57675
22.15927,49464
22.16738,49790
22.17552,52990
22.18363,53720
22.19175,49566
22.19988,49015
22.20800,49679
22.21613,53873
22.22425,56835
22.23237,54178
22.24050,54785
22.24862,54812
22.25673,54121
22.26487,52922
22.27298,52106
22.28112,49648
22.28923,55776
22.29735,58285
22.30548,50255
22.31360,51440
22.32173,52304
22.32985,50894
22.33797,47283
22.34610,50900
22.35422,47439
22.36233,51402
22.37047,50807
22.37858,48193
22.38672,45478
22.39483,43078
22.40295,44261
22.41108,47940
22.41920,46313
22.42733,48154
22.43545,45808
22.44357,46066
22.45170,51169
22.45982,50620
22.46795,50976
22.47607,51331
22.48418,48584
22.49232,49161
22.50043,52380
22.50855,48425
22.51668,44306
22.52480,46179
22.53293,41076
22.54105,37833
22.54917,42822
22.55730,43928
22.56542,44651
22.57355,41246
22.58167,42373
22.58978,42910
22.59792,41712
22.60603,39507
22.61417,40998
22.62228,43385
22.63040,40936
22.63853,38492
22.64665,38779
22.65477,35131
22.66290,40016
22.67102,39650
22.67915,38204
22.68727,39677
22.69538,39449
22.70352,41896
22.71163,37798
22.71977,37895
22.72788,41266
22.73600,42839
22.74413,40022
22.75225,43757
22.76038,40867
22.76850,40677
22.77662,37221
22.78475,37123
22.79287,36911
22.80098,37715
22.80912,36111
22.81723,35157
22.82537,40486
22.83348,40492
22.84160,44579
22.84973,40130
22.85785,42938
22.86598,43474
22.87410,40184
22.88222,43052
22.89035,46969
22.89847,44958
22.90658,50093
22.91472,60121
22.92283,63906
22.93097,70013
22.93908,78387
22.94720,76617
22.95533,71685
22.96345,69760
22.97158,70018
22.97970,65284
22.98782,60741
22.99595,63309
23.00407,54493
23.01220,50475
23.02032,50906
23.02843,48758
23.03657,47348
23.04468,44915
23.05280,39511
23.06093,37710
23.06905,40594
23.07718,40672
23.08530,41067
23.09342,42460
23.10155,45075
23.10967,42837
23.11780,38559
23.12592,38529
23.13403,44001
23.14217,41506
23.15028,40819
23.15840,37137
23.16653,39122
23.17465,40777
23.18278,41110
23.19090,39854
23.19902,37242
23.20715,41842
23.21527,38481
23.22340,37542
23.23152,38363
23.23963,36704
23.24777,39307
23.25588,36885
23.26402,35429
23.27213,36359
23.28025,39241
23.28838,36578
23.29650,38551
23.30462,36298
23.31275,35348
23.32087,39200
23.32900,35884
23.33712,37467
23.34523,37911
23.35337,42728
23.36148,37369
23.36962,41751
23.37773,40279
23.38585,42393
23.39398,41386
23.40210,41620
23.41023,44068
23.41835,44228
23.42647,43713
23.43460,45839
23.44272,49785
23.45083,49050
23.45897,44826
23.46708,48347
23.47522,46898
23.48333,45086
23.49145,43597
23.49958,49117
23.50770,45241
23.51583,44176
23.52395,41980
23.53207,41718
23.54020,45265
23.54832,40706
23.55643,40266
23.56457,40459
23.57268,43716
23.58082,50380
23.58893,49777
23.59705,44556
23.60518,48391
23.61330,49843
23.62143,49400
23.62955,47321
23.63767,55030
23.64580,46548
23.65392,50964
23.66205,48523
23.67017,50868
23.67828,58816
23.68642,50229
23.69453,48412
23.70265,47602
23.71078,49495
23.71890,50628
23.72703,55267
23.73515,75035
23.74327,124878
23.75140,273269
23.75952,680223
23.76765,1643345
23.77577,3034374
23.78388,4377708
23.79202,5090377
23.80013,4992497
23.80827,4235514
23.81638,3280627
23.82450,2378135
23.83263,1697293
23.84075,1234732
23.84887,966059
23.85700,785857
23.86512,685669
23.87325,697318
23.88137,803090
23.88948,922339
23.89762,1017401
23.90573,1027955
23.91387,955323
23.92198,820879
23.93010,687706
23.93823,571541
23.94635,467709
23.95447,395203
23.96260,335160
23.97072,294848
23.97885,258163
23.98697,242312
23.99508,225932
24.00322,211594
24.01133,201634
24.01947,191452
24.02758,182547
24.03570,183194
24.04383,171614
24.05195,164620
24.06008,161746
24.06820,152040
24.07632,156782
24.08445,142626
24.09257,134170
24.10068,136032
24.10882,135544
24.11693,135570
24.12507,135098
24.13318,137706
24.14130,135562
24.14943,135033
24.15755,135504
24.16568,129410
24.17380,122445
24.18192,115095
24.19005,113730
24.19817,111339
24.20628,121035
24.21442,119341
24.22253,124061
24.23067,118040
24.23878,113757
24.24690,112243
24.25503,105014
24.26315,97639
24.27128,96363
24.27940,97441
24.28752,95309
24.29565,92627
24.30377,83773
24.31190,88121
24.32002,87897
24.32813,83598
24.33627,82126
24.34438,80169
24.35250,85226
24.36063,96844
24.36875,128695
24.37688,217178
24.38500,395122
24.39312,671634
24.40125,993269
24.40937,1225612
24.41750,1283839
24.42562,1181391
24.43373,929472
24.44187,720883
24.44998,546043
24.45812,424528
24.46623,334104
24.47435,277360
24.48248,243381
24.49060,222585
24.49872,212166
24.50685,210989
24.51497,200116
24.52310,184399
24.53122,180325
24.53933,158021
24.54747,146473
24.55558,135718
24.56372,127869
24.57183,120923
24.57995,117543
24.58808,113239
24.59620,119421
24.60432,112251
24.61245,115604
24.62057,108052
24.62870,111427
24.63682,99944
24.64493,95640
24.65307,93669
24.66118,95163
24.66932,98748
24.67743,93428
24.68555,87477
24.69368,86912
24.70180,80971
24.70993,83227
24.71805,80703
24.72617,81990
24.73430,72171
24.74242,74789
24.75053,70894
24.75867,74108
24.76678,79221
24.77492,77665
24.78303,76341
24.79115,72926
24.79928,72540
24.80740,71829
24.81553,70811
24.82365,72281
24.83177,71283
24.83990,66825
24.84802,63761
24.85615,67501
24.86427,70296
24.87238,67977
24.88052,67050
24.88863,67583
24.89675,68608
24.90488,63038
24.91300,63600
24.92113,65821
24.92925,64165
24.93737,63812
24.94550,64581
24.95362,62621
24.96175,66096
24.96987,61243
24.97798,63087
24.98612,59122
24.99423,61815
25.00235,58214
25.01048,61215
25.01860,60918
25.02673,58067
25.03485,59837
25.04297,62475
25.05110,59322
25.05922,59432
25.06735,62576
25.07547,59643
25.08358,60230
25.09172,63283
25.09983,58408
25.10797,59545
25.11608,61763
25.12420,64595
25.13233,63104
25.14045,72020
25.14857,85230
25.15670,83821
25.16482,78933
25.17295,77236
25.18107,67950
25.18918,67120
25.19732,67444
25.20543,67572
25.21357,58136
25.22168,62282
25.22980,59449
25.23793,56787
25.24605,56435
25.25418,59885
25.26230,60577
25.27042,58412
25.27855,63076
25.28667,64872
25.29478,65220
25.30292,65311
25.31103,67431
25.31917,65068
25.32728,67376
25.33540,66930
25.34353,62998
25.35165,62169
25.35978,58967
25.36790,58999
25.37602,57648
25.38415,55615
25.39227,53855
25.40038,59582
25.40852,54144
25.41663,52252
25.42477,53131
25.43288,55017
25.44100,54639
25.44913,59997
25.45725,58970
25.46538,56360
25.47350,62078
25.48162,56483
25.48975,59982
25.49787,60346
25.50600,61000
25.51412,54926
25.52223,55694
25.53037,52792
25.53848,50816
25.54660,51815
25.55473,53380
25.56285,50582
25.57098,48647
25.57910,50734
25.58722,49104
25.59535,45154
25.60347,45695
25.61160,48124
25.61972,48412
25.62783,50058
25.63597,48987
25.64408,47933
25.65220,48102
25.66033,45157
25.66845,48068
25.67658,48064
25.68470,51501
25.69282,48616
25.70095,48647
25.70907,44718
25.71720,46440
25.72532,47225
25.73343,46562
25.74157,47773
25.74968,46819
25.75782,47014
25.76593,48292
25.77405,47911
25.78218,47719
25.79030,49962
25.79842,48835
25.80655,47721
25.81467,49462
25.82280,47719
25.83092,45001
25.83903,46613
25.84717,46018
25.85528,50681
25.86342,47985
25.87153,52047
25.87965,50303
25.88778,47659
25.89590,47029
25.90403,47514
25.91215,45200
25.92027,49707
25.92840,44179
25.93652,42179
25.94463,42372
25.95277,47197
25.96088,42390
25.96902,42508
25.97713,42531
25.98525,43472
25.99338,40995
26.00150,45131
26.00963,43820
26.01775,39076
26.02587,39039
26.03400,42329
26.04212,43471
26.05023,44489
26.05837,44127
26.06648,45184
26.07462,44562
26.08273,44194
26.09085,46657
26.09898,48402
26.10710,46966
26.11523,44848
26.12335,50005
26.13147,52981
26.13960,49736
26.14772,50486
26.15585,55147
26.16397,54055
26.17208,53529
26.18022,56085
26.18833,50955
26.19645,49361
26.20458,48931
26.21270,48833
26.22083,48576
26.22895,46033
26.23707,47493
26.24520,49540
26.25332,47580
26.26145,52742
26.26957,51884
26.27768,53181
26.28582,52427
26.29393,48180
26.30207,44623
26.31018,45725
26.31830,44901
26.32643,47366
26.33455,43061
26.34267,44260
26.35080,42153
26.35892,42860
26.36705,44658
26.37517,42726
26.38328,40333
26.39142,43070
26.39953,45049
26.40767,43434
26.41578,41884
26.42390,44277
26.43203,42609
26.44015,46144
26.44827,41889
26.45640,39759
26.46452,40444
26.47265,38359
26.48077,43095
26.48888,38389
26.49702,43082
26.50513,44149
26.51327,41580
26.52138,42171
26.52950,38314
26.53763,39761
26.54575,41162
26.55388,41636
26.56200,46148
26.57012,41819
26.57825,40692
26.58637,41552
26.59448,40839
26.60262,39811
26.61073,41110
26.61887,47621
26.62698,42409
26.63510,39645
26.64323,41526
26.65135,45188
26.65948,40981
26.66760,43502
26.67572,42872
26.68385,37848
26.69197,39383
26.70008,43105
26.70822,41662
26.71633,43730
26.72447,43814
26.73258,42976
26.74070,45811
26.74883,41339
26.75695,42858
26.76508,44001
26.77320,43465
26.78132,38247
26.78945,39973
26.79757,45225
26.80570,41113
26.81382,45635
26.82193,42737
26.83007,40347
26.83818,45597
26.84630,49753
26.85443,45228
26.86255,44820
26.87068,49283
26.87880,45484
26.88692,50298
26.89505,47763
26.90317,43953
26.91130,47634
26.91942,46812
26.92753,45351
26.93567,46755
26.94378,55853
26.95192,62933
26.96003,90109
26.96815,174903
26.97628,349324
26.98440,669741
26.99252,1285536
27.00065,2304504
27.00877,3783549
27.01690,4855973
27.02502,5415640
27.03313,5230049
27.04127,4692960
27.04938,3892012
27.05752,3094175
27.06563,2438685
27.07375,1890443
27.08188,1492574
27.09000,1172255
27.09812,936173
27.10625,760398
27.11437,624502
27.12250,530705
27.13062,465685
27.13873,408464
27.14687,366912
27.15498,334546
27.16312,320914
27.17123,295421
27.17935,269201
27.18748,249945
27.19560,244574
27.20373,232726
27.21185,242394
27.21997,267312
27.22810,320916
27.23622,405847
27.24433,508253
27.25247,630126
27.26058,742023
27.26872,784743
27.27683,769497
27.28495,703840
27.29308,639215
27.30120,543799
27.30933,461323
27.31745,402898
27.32557,334501
27.33370,283510
27.34182,261916
27.34995,235611
27.35807,209480
27.36618,199855
27.37432,183208
27.38243,166074
27.39055,171687
27.39868,152491
27.40680,150195
27.41493,142056
27.42305,142186
27.43117,129190
27.43930,133465
27.44742,130909
27.45555,120948
27.46367,121587
27.47178,114987
27.47992,116260
27.48803,111715
27.49615,109141
27.50428,109865
27.51240,110444
27.52053,102295
27.52865,106374
27.53677,106522
27.54490,104456
27.55302,102311
27.56115,101919
27.56927,95655
27.57738,101287
27.58552,95900
27.59363,97731
27.60177,98299
27.60988,92935
27.61800,90815
27.62613,89841
27.63425,94197
27.64237,88725
27.65050,88241
27.65862,85042
27.66675,84488
27.67487,86512
27.68298,77431
27.69112,80932
27.69923,76886
27.70737,75780
27.71548,79782
27.72360,74008
27.73173,74081
27.73985,75765
27.74797,77075
27.75610,72567
27.76422,69565
27.77235,72626
27.78047,71991
27.78858,71240
27.79672,72497
27.80483,68276
27.81297,69995
27.82108,67958
27.82920,69652
27.83733,66872
27.84545,69816
27.85358,69646
27.86170,69581
27.86982,68731
27.87795,67493
27.88607,68503
27.89418,65534
27.90232,65948
27.91043,66333
27.91857,64486
27.92668,60816
27.93480,61281
27.94293,60239
27.95105,57969
27.95918,62445
27.96730,61364
27.97542,62904
27.98355,58791
27.99167,59919
27.99980,58876
28.00792,54618
28.01603,59925
28.02417,60358
28.03228,58285
28.04040,57330
28.04853,57860
28.05665,58881
28.06478,61007
28.07290,58427
28.08102,57515
28.08915,57493
28.09727,56768
28.10540,56412
28.11352,56151
28.12163,59835
28.12977,54597
28.13788,53311
28.14602,54388
28.15413,55623
28.16225,55364
28.17038,55482
28.17850,54832
28.18662,59335
28.19475,67487
28.20287,73640
28.21100,74013
28.21912,74777
28.22723,75771
28.23537,70935
28.24348,61723
28.25162,65082
28.25973,67092
28.26785,69404
28.27598,72078
28.28410,90194
28.29222,131331
28.30035,205574
28.30847,309097
28.31660,479197
28.32472,676886
28.33283,903840
28.34097,1171218
28.34908,1455508
28.35722,1695980
28.36533,1913439
28.37345,2020103
28.38158,1917272
28.38970,1881937
28.39783,1807871
28.40595,1675733
28.41407,1510054
28.42220,1304913
28.43032,1147555
28.43843,1003265
28.44657,854537
28.45468,750708
28.46282,648873
28.47093,599047
28.47905,558419
28.48718,527713
28.49530,518328
28.50343,502309
28.51155,486831
28.51967,488629
28.52780,468617
28.53592,475374
28.54403,465791
28.55217,445631
28.56028,425680
28.56842,404783
28.57653,402276
28.58465,368723
28.59278,354457
28.60090,317755
28.60903,300332
28.61715,279549
28.62527,264326
28.63340,248395
28.64152,235723
28.64965,221452
28.65777,212995
28.66588,204827
28.67402,188644
28.68213,190338
28.69025,175901
28.69838,175791
28.70650,165069
28.71463,154487
28.72275,154436
28.73087,148460
28.73900,153298
28.74712,160711
28.75525,194780
28.76337,216058
28.77148,253148
28.77962,261383
28.78773,246481
28.79587,220643
28.80398,188865
28.81210,162112
28.82023,142631
28.82835,136181
28.83647,128882
28.84460,125804
28.85272,123684
28.86085,117155
28.86897,112583
28.87708,106260
28.88522,105334
28.89333,107641
28.90147,101686
28.90958,102261
28.91770,95975
28.92583,97060
28.93395,95820
28.94207,95250
28.95020,97586
28.95832,96935
28.96645,101414
28.97457,99081
28.98268,97671
28.99082,92830
28.99893,95181
29.00707,85661
29.01518,93889
29.02330,90490
29.03143,88820
29.03955,86081
29.04768,86033
29.05580,86241
29.06392,86974
29.07205,81478
29.08017,87012
29.08828,84353
29.09642,84664
29.10453,82898
29.11267,78041
29.12078,83346
29.12890,88597
29.13703,75473
29.14515,77101
29.15328,78619
29.16140,74693
29.16952,77111
29.17765,78712
29.18577,81128
29.19390,72715
29.20202,79345
29.21013,76523
29.21827,76978
29.22638,76390
29.23450,81970
29.24263,76070
29.25075,81358
29.25888,84010
29.26700,95464
29.27512,99596
29.28325,94006
29.29137,94699
29.29950,92083
29.30762,82654
29.31573,81682
29.32387,80924
29.33198,71993
29.34010,76275
29.34823,78595
29.35635,74882
29.36448,75931
29.37260,72365
29.38072,76138
29.38885,72475
29.39697,72635
29.40510,72752
29.41322,72977
29.42133,74813
29.42947,71950
29.43758,72342
29.44572,69411
29.45383,70827
29.46195,68026
29.47008,71437
29.47820,70089
29.48632,80254
29.49445,75759
29.50257,84928
29.51070,77486
29.51882,72837
29.52693,70256
29.53507,70859
29.54318,65748
29.55132,65031
29.55943,64493
29.56755,61914
29.57568,60292
29.58380,67866
29.59192,62675
29.60005,61353
29.60817,63522
29.61630,67215
29.62442,61823
29.63253,61370
29.64067,60105
29.64878,61763
29.65692,59565
29.66503,62351
29.67315,63764
29.68128,57949
29.68940,57107
29.69753,59380
29.70565,56638
29.71377,55885
29.72190,58108
29.73002,58320
29.73813,58661
29.74627,58369
29.75438,55662
29.76252,59513
29.77063,57011
29.77875,54764
29.78688,57353
29.79500,55409
29.80313,57169
29.81125,52831
29.81937,51451
29.82750,49669
29.83562,58811
29.84375,57113
29.85187,60700
29.85998,52795
29.86812,52947
29.87623,52578
29.88435,59743
29.89248,57430
29.90060,62661
29.90873,69234
29.91685,68486
29.92497,75938
29.93310,99280
29.94122,120749
29.94935,152123
29.95747,198892
29.96558,242549
29.97372,300433
29.98183,368794
29.98995,422999
29.99808,482506
30.00620,543697
30.01433,578869
30.02245,629730
30.03057,658491
30.03870,680534
30.04682,684214
30.05495,665683
30.06307,659649
30.07118,642968
30.07932,624837
30.08743,605987
30.09557,564678
30.10368,542161
30.11180,515998
30.11993,470793
30.12805,446639
30.13617,433961
30.14430,399933
30.15242,378494
30.16055,358395
30.16867,318317
30.17678,301853
30.18492,278241
30.19303,268790
30.20117,245988
30.20928,241718
30.21740,216060
30.22553,205550
30.23365,204319
30.24178,189383
30.24990,172562
30.25802,165467
30.26615,157454
30.27427,153840
30.28238,143596
30.29052,138512
30.29863,144276
30.30677,130911
30.31488,120905
30.32300,119568
30.33113,121557
30.33925,107771
30.34738,111276
30.35550,105859
30.36362,102984
30.37175,102724
30.37987,96687
30.38798,94631
30.39612,96332
30.40423,91743
30.41237,92651
30.42048,93646
30.42860,92228
30.43673,88570
30.44485,91607
30.45298,84762
30.46110,88738
30.46922,84121
30.47735,87471
30.48547,83574
30.49360,83313
30.50172,79613
30.50983,77721
30.51797,80117
30.52608,79861
30.53420,76880
30.54233,78146
30.55045,71755
30.55858,78987
30.56670,75601
30.57482,79870
30.58295,79051
30.59107,76377
30.59920,72339
30.60732,72364
30.61543,73805
30.62357,70409
30.63168,69119
30.63982,66051
30.64793,68527
30.65605,69586
30.66418,64561
30.67230,65553
30.68042,70269
30.68855,64851
30.69667,68870
30.70480,66558
30.71292,66280
30.72103,63179
30.72917,67131
30.73728,68618
30.74542,58028
30.75353,66411
30.76165,59525
30.76978,63505
30.77790,67155
30.78602,59258
30.79415,64540
30.80227,65922
30.81040,66538
30.81852,69311
30.82663,66364
30.83477,67297
30.84288,64428
30.85102,68210
30.85913,61276
30.86725,62880
30.87538,63865
30.88350,63007
30.89163,60563
30.89975,65775
30.90787,59248
30.91600,59647
30.92412,59236
30.93223,63204
30.94037,58325
30.94848,58424
30.95662,62590
30.96473,58389
30.97285,59769
30.98098,58736
30.98910,55844
30.99723,59505
31.00535,57462
31.01347,57234
31.02160,59130
31.02972,58688
31.03783,60519
31.04597,65724
31.05408,58750
31.06222,63646
31.07033,59431
31.07845,65870
31.08658,69209
31.09470,72005
31.10283,70561
31.11095,78609
31.11907,75672
31.12720,76592
31.13532,71293
31.14345,70519
31.15157,64671
31.15968,69247
31.16782,67864
31.17593,66031
31.18405,68380
31.19218,77368
31.20030,83784
31.20843,96322
31.21655,105765
31.22467,118538
31.23280,118935
31.24092,114693
31.24905,109966
31.25717,94769
31.26528,84626
31.27342,77589
31.28153,73344
31.28967,65232
31.29778,66935
31.30590,62281
31.31403,61266
31.32215,65621
31.33027,61524
31.33840,60769
31.34652,63552
31.35465,65621
31.36277,71776
31.37088,68578
31.37902,69778
31.38713,66364
31.39527,67057
31.40338,69437
31.41150,69527
31.41963,64359
31.42775,69978
31.43587,68891
31.44400,62913
31.45212,62107
31.46025,57808
31.46837,57989
31.47648,56169
31.48462,56879
31.49273,57919
31.50087,57258
31.50898,50779
31.51710,54981
31.52523,53832
31.53335,51893
31.54148,54401
31.54960,52409
31.55772,52368
31.56585,54890
31.57397,53680
31.58208,55049
31.59022,52607
31.59833,53568
31.60647,53825
31.61458,53268
31.62270,49840
31.63083,51699
31.63895,54804
31.64708,51475
31.65520,55141
31.66332,56549
31.67145,53152
31.67957,47205
31.68770,49556
31.69582,50980
31.70393,51101
31.71207,54563
31.72018,47341
31.72830,47873
31.73643,53503
31.74455,51250
31.75268,52018
31.76080,50595
31.76892,53354
31.77705,51504
31.78517,53532
31.79330,50148
31.80142,52418
31.80953,52410
31.81767,50288
31.82578,52806
31.83390,54759
31.84203,46135
31.85015,53938
31.85828,53174
31.86640,55756
31.87452,63215
31.88265,72429
31.89077,89541
31.89890,100496
31.90702,132273
31.91513,173216
31.92327,203951
31.93138,242185
31.93952,284943
31.94763,333460
31.95575,359280
31.96388,389663
31.97200,409647
31.98012,419364
31.98825,412060
31.99637,420033
32.00450,387652
32.01262,381965
32.02073,363354
32.02887,342505
32.03698,320324
32.04512,307305
32.05323,291608
32.06135,273338
32.06948,255764
32.07760,237831
32.08572,221860
32.09385,216809
32.10197,186156
32.11010,177429
32.11822,171148
32.12633,157223
32.13447,148509
32.14258,133136
32.15072,133048
32.15883,125465
32.16695,128629
32.17508,118479
32.18320,116150
32.19133,108365
32.19945,109811
32.20757,103311
32.21570,103746
32.22382,102183
32.23193,95451
32.24007,94271
32.24818,89425
32.25632,90290
32.26443,86088
32.27255,83716
32.28068,80072
32.28880,81011
32.29693,80820
32.30505,77450
32.31317,79567
32.32130,82490
32.32942,81209
32.33755,82866
32.34567,76396
32.35378,76321
32.36192,73244
32.37003,78869
32.37815,76492
32.38628,72051
32.39440,70074
32.40253,71176
32.41065,67213
32.41877,70044
32.42690,64477
32.43502,67315
32.44315,69759
32.45127,68187
32.45938,65166
32.46752,66338
32.47563,65230
32.48375,69660
32.49188,60413
32.50000,59789
32.50813,64995
32.51625,64558
32.52437,60866
32.53250,66387
32.54062,64868
32.54875,58224
32.55687,69059
32.56498,59074
32.57312,64627
32.58123,66351
32.58937,66533
32.59748,59726
32.60560,60971
32.61373,54799
32.62185,64970
32.62997,68057
32.63810,75108
32.64622,87781
32.65435,109933
32.66247,130072
32.67058,127889
32.67872,132243
32.68683,122579
32.69497,103680
32.70308,94853
32.71120,80730
32.71933,72235
32.72745,73888
32.73558,70862
32.74370,67048
32.75182,67850
32.75995,65134
32.76807,59339
32.77618,64418
32.78432,55066
32.79243,59666
32.80057,60893
32.80868,58408
32.81680,58750
32.82493,59690
32.83305,60167
32.84118,59354
32.84930,57265
32.85742,55939
32.86555,54544
32.87367,60855
32.88178,57408
32.88992,59224
32.89803,58793
32.90617,55320
32.91428,53422
32.92240,53041
32.93053,56347
32.93865,54496
32.94678,58456
32.95490,55139
32.96302,52567
32.97115,55056
32.97927,50136
32.98740,59765
32.99552,56164
33.00363,58454
33.01177,56757
33.01988,58968
33.02800,53339
33.03613,53099
33.04425,59467
33.05238,53862
33.06050,56799
33.06862,55917
33.07675,53316
33.08487,56559
33.09300,53926
33.10112,60617
33.10923,57632
33.11737,66076
33.12548,66934
33.13360,64633
33.14173,64144
33.14985,58169
33.15798,58504
33.16610,55223
33.17422,55917
33.18235,56188
33.19047,56090
33.19860,62566
33.20672,57714
33.21483,59950
33.22297,58433
33.23108,57099
33.23922,57400
33.24733,56171
33.25545,55727
33.26358,51958
33.27170,55729
33.27982,54028
33.28795,51055
33.29607,51419
33.30420,57184
33.31232,51714
33.32043,52640
33.32857,55028
33.33668,52898
33.34482,50683
33.35293,51327
33.36105,51851
33.36918,55014
33.37730,48799
33.38543,52279
33.39355,54700
33.40167,50516
33.40980,57836
33.41792,51532
33.42603,51054
33.43417,54097
33.44228,50268
33.45042,50585
33.45853,48592
33.46665,51118
33.47478,52176
33.48290,52414
33.49103,48977
33.49915,50827
33.50727,52338
33.51540,51482
33.52352,51901
33.53165,53932
33.53977,52073
33.54788,52198
33.55602,52783
33.56413,51965
33.57225,49759
33.58038,53013
33.58850,49321
33.59663,48613
33.60475,52359
33.61287,50203
33.62100,49108
33.62912,50825
33.63725,46261
33.64537,52289
33.65348,54586
33.66162,52340
33.66973,50289
33.67785,48409
33.68598,48586
33.69410,55508
33.70223,51573
33.71035,48451
33.71847,49228
33.72660,52382
33.73472,48442
33.74285,48771
33.75097,54374
33.75908,48378
33.76722,49119
33.77533,51147
33.78347,47214
33.79158,49820
33.79970,49909
33.80783,45927
33.81595,50137
33.82407,52302
33.83220,49999
33.84032,57347
33.84845,52395
33.85657,54815
33.86468,54144
33.87282,50653
33.88093,54330
33.88907,56419
33.89718,51315
33.90530,53740
33.91343,55535
33.92155,54557
33.92967,57381
33.93780,54307
33.94592,51270
33.95405,56530
33.96217,51834
33.97028,46677
33.97842,52877
33.98653,47716
33.99467,46774
34.00278,51996
34.01090,49287
34.01903,45648
34.02715,47543
34.03528,49706
34.04340,51380
34.05152,52644
34.05965,50395
34.06777,47742
34.07588,50298
34.08402,52167
34.09213,48910
34.10027,49023
34.10838,53699
34.11650,53325
34.12463,48188
34.13275,49691
34.14088,53244
34.14900,52627
34.15712,51068
34.16525,51090
34.17337,50080
34.18150,51378
34.18962,49419
34.19773,49801
34.20587,49736
34.21398,46496
34.22210,47862
34.23023,49518
34.23835,51233
34.24648,52255
34.25460,47947
34.26272,49888
34.27085,47831
34.27897,52116
34.28710,53759
34.29522,49035
34.30333,52562
34.31147,49504
34.31958,51017
34.32770,51770
34.33583,48158
34.34395,54324
34.35208,49916
34.36020,54323
34.36832,52274
34.37645,47995
34.38457,53649
34.39270,48003
34.40082,49884
34.40893,50154
34.41707,47517
34.42518,52157
34.43332,51052
34.44143,52615
34.44955,51314
34.45768,48430
34.46580,52698
34.47392,52148
34.48205,53552
34.49017,63381
34.49830,78315
34.50642,99611
34.51453,138060
34.52267,195377
34.53078,259151
34.53892,305260
34.54703,354537
34.55515,370699
34.56328,363465
34.57140,357686
34.57953,338381
34.58765,310071
34.59577,278932
34.60390,243943
34.61202,204731
34.62013,200793
34.62827,180078
34.63638,156492
34.64452,148324
34.65263,147050
34.66075,132264
34.66888,121012
34.67700,119611
34.68513,109703
34.69325,109486
34.70137,102742
34.70950,106818
34.71762,103856
34.72573,102545
34.73387,98866
34.74198,99061
34.75012,90294
34.75823,91527
34.76635,85996
34.77448,86379
34.78260,87135
34.79073,79240
34.79885,81706
34.80697,77325
34.81510,76163
34.82322,78658
34.83135,81258
34.83947,77251
34.84758,81444
34.85572,73556
34.86383,85685
34.87195,77471
34.88008,75151
34.88820,74899
34.89633,76431
34.90445,75894
34.91257,77531
34.92070,76944
34.92882,79295
34.93695,80785
34.94507,77100
34.95318,76277
34.96132,80492
34.96943,75003
34.97755,77864
34.98568,77340
34.99380,76387
35.00193,75224
35.01005,70048
35.01817,71140
35.02630,70133
35.03442,74654
35.04255,68488
35.05067,67415
35.05878,66676
35.06692,64288
35.07503,67187
35.08317,65914
35.09128,71924
35.09940,69235
35.10753,62143
35.11565,63927
35.12377,67328
35.13190,63950
35.14002,65108
35.14815,71377
35.15627,70095
35.16438,71878
35.17252,71779
35.18063,69246
35.18877,69459
35.19688,65581
35.20500,63133
35.21313,70323
35.22125,65723
35.22938,64665
35.23750,63187
35.24562,60101
35.25375,66319
35.26187,62253
35.26998,63605
35.27812,64458
35.28623,64192
35.29437,61672
35.30248,60342
35.31060,61235
35.31873,60917
35.32685,60623
35.33498,61153
35.34310,59154
35.35122,62087
35.35935,60213
35.36747,60318
35.37558,62767
35.38372,61689
35.39183,58747
35.39997,60873
35.40808,59025
35.41620,61300
35.42433,59994
35.43245,60327
35.44058,56986
35.44870,58956
35.45682,64139
35.46495,63934
35.47307,61753
35.48120,67635
35.48932,64533
35.49743,63048
35.50557,65918
35.51368,61667
35.52180,57605
35.52993,56904
35.53805,60142
35.54618,57281
35.55430,58234
35.56242,64721
35.57055,59794
35.57867,64981
35.58680,62041
35.59492,61435
35.60303,66920
35.61117,63946
35.61928,57078
35.62742,63873
35.63553,60282
35.64365,57942
35.65178,66231
35.65990,72717
35.66802,70037
35.67615,72555
35.68427,71267
35.69240,79282
35.70052,70864
35.70863,67322
35.71677,67344
35.72488,64042
35.73302,63533
35.74113,63586
35.74925,66776
35.75738,66272
35.76550,60767
35.77362,65275
35.78175,59721
35.78987,64756
35.79800,58039
35.80612,61786
35.81423,62321
35.82237,65119
35.83048,60176
35.83862,59310
35.84673,63394
35.85485,65193
35.86298,63765
35.87110,67993
35.87923,64264
35.88735,59703
35.89547,57805
35.90360,57714
35.91172,57344
35.91983,57624
35.92797,59522
35.93608,57839
35.94422,57286
35.95233,61160
35.96045,68731
35.96858,59457
35.97670,59962
35.98483,60280
35.99295,57289
36.00107,55439
36.00920,61723
36.01732,62084
36.02545,67450
36.03357,62271
36.04168,62345
36.04982,60786
36.05793,61515
36.06605,63774
36.07418,64217
36.08230,58589
36.09043,62495
36.09855,61416
36.10667,63179
36.11480,58761
36.12292,62004
36.13105,62421
36.13917,65209
36.14728,61667
36.15542,61323
36.16353,60561
36.17165,65388
36.17978,62620
36.18790,63590
36.19603,65347
36.20415,61374
36.21227,63202
36.22040,60510
36.22852,57555
36.23665,58220
36.24477,61025
36.25288,63364
36.26102,64692
36.26913,66398
36.27727,65003
36.28538,75136
36.29350,86558
36.30163,104679
36.30975,116408
36.31787,123619
36.32600,119588
36.33412,114406
36.34225,102320
36.35037,89349
36.35848,79447
36.36662,77060
36.37473,77570
36.38287,72497
36.39098,74269
36.39910,73456
36.40723,65884
36.41535,74061
36.42347,72508
36.43160,73488
36.43972,72274
36.44785,66866
36.45597,64476
36.46408,71536
36.47222,72323
36.48033,68908
36.48847,71454
36.49658,66950
36.50470,64250
36.51283,65519
36.52095,67105
36.52908,68689
36.53720,70237
36.54532,65963
36.55345,65919
36.56157,69525
36.56968,65385
36.57782,67574
36.58593,63837
36.59407,64440
36.60218,68699
36.61030,67267
36.61843,63417
36.62655,66024
36.63468,63589
36.64280,71158
36.65092,72011
36.65905,71474
36.66717,69530
36.67530,66794
36.68342,69961
36.69153,64049
36.69967,63907
36.70778,66820
36.71590,64730
36.72403,63353
36.73215,65476
36.74028,67042
36.74840,68700
36.75652,65859
36.76465,70942
36.77277,69692
36.78090,65546
36.78902,61798
36.79713,63751
36.80527,73278
36.81338,68500
36.82150,69059
36.82963,71091
36.83775,76200
36.84588,70215
36.85400,74874
36.86212,78373
36.87025,83046
36.87837,87138
36.88650,92126
36.89462,94429
36.90273,98679
36.91087,99460
36.91898,98593
36.92712,106196
36.93523,102277
36.94335,104714
36.95148,95653
36.95960,97589
36.96772,99765
36.97585,98915
36.98397,90674
36.99210,88730
37.00022,83869
37.00833,82199
37.01647,76574
37.02458,75351
37.03272,74772
37.04083,70694
37.04895,73148
37.05708,69903
37.06520,72459
37.07333,66310
37.08145,76451
37.08957,67082
37.09770,66404
37.10582,67669
37.11393,67002
37.12207,68423
37.13018,67359
37.13832,66175
37.14643,65212
37.15455,67975
37.16268,67200
37.17080,69390
37.17893,68740
37.18705,69092
37.19517,67851
37.20330,66613
37.21142,66544
37.21953,68620
37.22767,72915
37.23578,68022
37.24392,66093
37.25203,69110
37.26015,69036
37.26828,66248
37.27640,65161
37.28453,64540
37.29265,77155
37.30077,78809
37.30890,98075
37.31702,125362
37.32515,167035
37.33327,213429
37.34138,262297
37.34952,285541
37.35763,297315
37.36575,287320
37.37388,268699
37.38200,249616
37.39013,216998
37.39825,200664
37.40637,181506
37.41450,171976
37.42262,148163
37.43075,147249
37.43887,137270
37.44698,141782
37.45512,137785
37.46323,129908
37.47135,122635
37.47948,117545
37.48760,117997
