C:\MassHunter\GCMS\1\data\JTB-E02\BACandBLUE\JTB-E18-009-10.D Thu May 16 12:28:56 2019
Start of data points
2.09537	79530
2.10348	75518
2.11160	77540
2.11973	76004
2.12785	80070
2.13598	77459
2.14410	78425
2.15222	78895
2.16035	76587
2.16847	74921
2.17660	76218
2.18472	73119
2.19283	73078
2.20097	70840
2.20908	71292
2.21722	66178
2.22533	72321
2.23345	71341
2.24158	69458
2.24970	71341
2.25782	69055
2.26595	89787
2.27407	554915
2.28220	1795453
2.29032	1212147
2.29843	482361
2.30657	327771
2.31468	262792
2.32282	243231
2.33093	216156
2.33905	242128
2.34718	212359
2.35530	180260
2.36343	161818
2.37155	158805
2.37967	149266
2.38780	143554
2.39592	138049
2.40403	135329
2.41217	135562
2.42028	138664
2.42842	145615
2.43653	136011
2.44465	124881
2.45278	123530
2.46090	115869
2.46903	114199
2.47715	116236
2.48527	116770
2.49340	127783
2.50152	141485
2.50963	121987
2.51777	119596
2.52588	116487
2.53402	110418
2.54213	112709
2.55025	105296
2.55838	137766
2.56650	193705
2.57463	172679
2.58275	140906
2.59087	126933
2.59900	126311
2.60712	224051
2.61525	591618
2.62337	583444
2.63148	336336
2.63962	235224
2.64773	186554
2.65585	159470
2.66398	148789
2.67210	133006
2.68023	133340
2.68835	127761
2.69647	121288
2.70460	115211
2.71272	116147
2.72085	107457
2.72897	114786
2.73708	107959
2.74522	114638
2.75333	110542
2.76147	108907
2.76958	106541
2.77770	160813
2.78583	561609
2.79395	1052244
2.80207	728983
2.81020	402040
2.81832	328848
2.82645	297110
2.83457	267683
2.84268	232216
2.85082	202615
2.85893	182145
2.86707	162449
2.87518	156277
2.88330	151812
2.89143	143950
2.89955	135743
2.90767	135867
2.91580	123617
2.92392	129072
2.93205	124073
2.94017	123121
2.94828	115430
2.95642	111874
2.96453	116820
2.97267	118198
2.98078	116610
2.98890	118949
2.99703	113982
3.00515	114640
3.01328	115935
3.02140	116404
3.02952	114472
3.03765	110294
3.04577	104555
3.05388	105487
3.06202	108052
3.07013	115313
3.07827	126526
3.08638	326305
3.09450	1041795
3.10263	1934414
3.11075	2985507
3.11888	3312932
3.12700	2177431
3.13512	1334869
3.14325	1021217
3.15137	816092
3.15948	676914
3.16762	567189
3.17573	522466
3.18387	557478
3.19198	983064
3.20010	1623053
3.20823	1464135
3.21635	975649
3.22448	767543
3.23260	638880
3.24072	548222
3.24885	474308
3.25697	416682
3.26510	380785
3.27322	349978
3.28133	332887
3.28947	368096
3.29758	799963
3.30570	2075853
3.31383	3695874
3.32195	4055493
3.33008	3189750
3.33820	2211752
3.34632	1669192
3.35445	1325114
3.36257	1123104
3.37070	989252
3.37882	870967
3.38693	797877
3.39507	730959
3.40318	680542
3.41132	634507
3.41943	590893
3.42755	581021
3.43568	553470
3.44380	545893
3.45192	522099
3.46005	496961
3.46817	491497
3.47630	477278
3.48442	475424
3.49253	456561
3.50067	442780
3.50878	431121
3.51692	408712
3.52503	402598
3.53315	408986
3.54128	406619
3.54940	409880
3.55752	398671
3.56565	379680
3.57377	362916
3.58190	367329
3.59002	369466
3.59813	358087
3.60627	338946
3.61438	348918
3.62252	344889
3.63063	351490
3.63875	377663
3.64688	375747
3.65500	378056
3.66313	623843
3.67125	2660421
3.67937	8625968
3.68750	1.340967E+07
3.69562	1.1053E+07
3.70373	6448705
3.71187	4125976
3.71998	3185133
3.72812	2657409
3.73623	2291463
3.74435	2023591
3.75248	1799562
3.76060	1623630
3.76873	1493134
3.77685	1409362
3.78497	1293407
3.79310	1206214
3.80122	1190578
3.80935	1417364
3.81747	1946113
3.82558	2239428
3.83372	1856497
3.84183	1445653
3.84995	1220106
3.85808	1084397
3.86620	1005413
3.87433	948814
3.88245	900525
3.89057	862026
3.89870	812483
3.90682	774422
3.91495	779810
3.92307	842611
3.93118	955175
3.93932	1008212
3.94743	963473
3.95555	1153646
3.96368	1912831
3.97180	2729737
3.97993	2590440
3.98805	1786548
3.99617	1309634
4.00430	1525524
4.01242	2570788
4.02055	3561155
4.02867	3245876
4.03678	2181418
4.04492	1414244
4.05303	1040202
4.06117	873707
4.06928	792003
4.07740	713305
4.08553	663475
4.09365	629524
4.10177	602906
4.10990	566985
4.11802	555730
4.12615	524294
4.13427	516182
4.14238	537114
4.15052	583760
4.15863	595930
4.16677	566435
4.17488	539855
4.18300	517824
4.19113	497336
4.19925	472747
4.20737	558801
4.21550	1457605
4.22362	5000433
4.23175	1.131505E+07
4.23987	1.612868E+07
4.24798	1.578556E+07
4.25612	1.077503E+07
4.26423	6377527
4.27237	4292932
4.28048	3134616
4.28860	2441460
4.29673	1975874
4.30485	1656908
4.31298	1431398
4.32110	1247214
4.32922	1154105
4.33735	1031884
4.34547	955720
4.35358	919022
4.36172	915392
4.36983	920446
4.37797	913598
4.38608	831882
4.39420	755367
4.40233	697086
4.41045	656995
4.41858	633934
4.42670	610521
4.43482	587064
4.44295	559287
4.45107	541873
4.45920	522828
4.46732	510044
4.47543	491642
4.48357	484324
4.49168	470656
4.49980	465290
4.50793	463549
4.51605	452193
4.52418	442870
4.53230	425027
4.54042	425494
4.54855	434570
4.55667	433710
4.56480	423997
4.57292	406468
4.58103	387709
4.58917	386728
4.59728	374205
4.60540	369055
4.61353	378628
4.62165	388017
4.62978	454608
4.63790	610287
4.64602	787245
4.65415	824869
4.66227	673456
4.67040	543630
4.67852	474282
4.68663	445724
4.69477	420108
4.70288	394173
4.71102	373364
4.71913	363379
4.72725	362800
4.73538	356834
4.74350	348673
4.75162	334138
4.75975	326805
4.76787	312928
4.77600	311396
4.78412	329939
4.79223	452273
4.80037	812306
4.80848	1419086
4.81662	1659768
4.82473	1387802
4.83285	994658
4.84098	795402
4.84910	722170
4.85723	666526
4.86535	603920
4.87347	533727
4.88160	483905
4.88972	445860
4.89783	429794
4.90597	408265
4.91408	393260
4.92222	384596
4.93033	384344
4.93845	422945
4.94658	592568
4.95470	1000327
4.96283	1571936
4.97095	1957469
4.97907	1973854
4.98720	1647952
4.99532	1282104
5.00343	1020086
5.01157	848763
5.01968	762270
5.02782	729197
5.03593	784402
5.04405	874843
5.05218	884988
5.06030	804774
5.06843	711890
5.07655	642493
5.08467	594288
5.09280	573565
5.10092	550500
5.10905	513143
5.11717	511486
5.12528	490104
5.13342	471119
5.14153	465984
5.14965	474878
5.15778	503961
5.16590	556399
5.17403	625732
5.18215	615082
5.19027	569338
5.19840	526433
5.20652	534585
5.21465	570473
5.22277	559132
5.23088	534745
5.23902	502283
5.24713	495303
5.25525	464627
5.26338	443429
5.27150	395614
5.27963	375933
5.28775	371222
5.29587	362633
5.30400	360403
5.31212	346631
5.32025	345428
5.32837	354122
5.33648	363278
5.34462	375922
5.35273	364196
5.36087	361932
5.36898	350459
5.37710	326937
5.38523	333111
5.39335	341584
5.40147	364532
5.40960	353208
5.41772	351913
5.42585	341639
5.43397	328537
5.44208	318477
5.45022	308439
5.45833	327304
5.46647	328308
5.47458	324410
5.48270	305943
5.49083	295010
5.49895	290912
5.50708	288335
5.51520	295808
5.52332	294343
5.53145	301886
5.53957	287274
5.54768	300469
5.55582	316378
5.56393	373198
5.57207	484710
5.58018	551382
5.58830	556933
5.59643	474375
5.60455	398710
5.61268	345315
5.62080	313578
5.62892	308379
5.63705	296440
5.64517	290251
5.65330	296939
5.66142	289793
5.66953	281863
5.67767	290510
5.68578	308379
5.69390	339256
5.70203	347368
5.71015	329092
5.71828	316614
5.72640	289580
5.73452	280588
5.74265	272168
5.75077	270752
5.75890	268815
5.76702	261953
5.77513	257930
5.78327	246022
5.79138	249930
5.79950	247538
5.80763	255977
5.81575	245051
5.82388	245619
5.83200	249471
5.84012	251846
5.84825	258247
5.85637	246387
5.86450	236223
5.87262	250476
5.88073	237599
5.88887	235795
5.89698	236338
5.90512	230436
5.91323	207929
5.92135	194298
5.92948	193335
5.93760	192603
5.94572	188134
5.95385	197273
5.96197	226295
5.97010	251966
5.97822	283731
5.98633	334306
5.99447	385348
6.00258	386223
6.01072	333768
6.01883	281100
6.02695	234280
6.03508	206117
6.04320	199075
6.05132	185231
6.05945	185097
6.06757	177937
6.07570	175218
6.08382	171656
6.09193	166262
6.10007	172264
6.10818	186522
6.11632	194472
6.12443	216339
6.13255	270398
6.14068	385486
6.14880	523220
6.15693	572017
6.16505	487354
6.17317	382659
6.18130	303722
6.18942	251485
6.19753	240207
6.20567	233320
6.21378	225608
6.22192	212657
6.23003	212740
6.23815	209715
6.24628	209771
6.25440	196755
6.26253	211589
6.27065	219563
6.27877	216548
6.28690	208084
6.29502	194976
6.30315	187422
6.31127	190640
6.31938	203353
6.32752	228205
6.33563	292552
6.34375	357891
6.35188	375267
6.36000	330039
6.36813	274909
6.37625	232635
6.38437	217453
6.39250	210814
6.40062	213215
6.40875	204885
6.41687	200480
6.42498	201694
6.43312	200161
6.44123	196672
6.44935	193643
6.45748	196624
6.46560	198973
6.47373	197314
6.48185	193835
6.48997	193754
6.49810	196881
6.50622	198204
6.51435	199703
6.52247	193404
6.53058	197688
6.53872	197184
6.54683	194796
6.55497	205213
6.56308	211019
6.57120	253245
6.57933	315109
6.58745	362490
6.59557	374839
6.60370	318973
6.61182	262045
6.61995	222660
6.62807	213598
6.63618	217651
6.64432	213929
6.65243	233422
6.66057	315222
6.66868	450257
6.67680	572596
6.68493	566642
6.69305	444450
6.70118	323464
6.70930	264462
6.71742	251555
6.72555	230832
6.73367	219351
6.74178	204014
6.74992	192937
6.75803	181694
6.76617	177709
6.77428	173299
6.78240	171932
6.79053	177962
6.79865	171474
6.80678	164301
6.81490	158456
6.82302	158967
6.83115	146938
6.83927	153105
6.84738	156950
6.85552	156230
6.86363	151164
6.87177	138917
6.87988	115653
6.88800	109401
6.89613	108496
6.90425	96902
6.91238	96781
6.92050	94834
6.92862	91625
6.93675	99464
6.94487	87003
6.95300	90851
6.96112	90925
6.96923	103281
6.97737	116397
6.98548	126464
6.99360	132135
7.00173	125797
7.00985	117088
7.01798	115804
7.02610	113094
7.03422	107567
7.04235	110033
7.05047	107721
7.05860	113807
7.06672	117382
7.07483	116421
7.08297	117188
7.09108	108740
7.09920	100867
7.10733	88357
7.11545	88626
7.12358	86126
7.13170	87660
7.13982	86574
7.14795	101321
7.15607	127699
7.16420	153907
7.17232	174145
7.18043	159007
7.18857	136969
7.19668	122817
7.20482	163734
7.21293	388129
7.22105	967045
7.22918	1859995
7.23730	2537283
7.24542	2532770
7.25355	1876608
7.26167	1132355
7.26980	691801
7.27792	446739
7.28603	296786
7.29417	197866
7.30228	137771
7.31042	114556
7.31853	117728
7.32665	115150
7.33478	124496
7.34290	122683
7.35103	121477
7.35915	112065
7.36727	108750
7.37540	114931
7.38352	119819
7.39163	118719
7.39977	121052
7.40788	110714
7.41602	104022
7.42413	104526
7.43225	93595
7.44038	93676
7.44850	97273
7.45663	95357
7.46475	97220
7.47287	93474
7.48100	96091
7.48912	89246
7.49723	81528
7.50537	87441
7.51348	97446
7.52162	125541
7.52973	186382
7.53785	305043
7.54598	513389
7.55410	745585
7.56223	933352
7.57035	1009441
7.57847	936079
7.58660	751652
7.59472	530378
7.60285	366186
7.61097	254409
7.61908	187566
7.62722	157901
7.63533	135850
7.64345	118809
7.65158	109477
7.65970	104624
7.66783	102154
7.67595	93802
7.68407	92773
7.69220	91007
7.70032	86731
7.70845	92231
7.71657	90530
7.72468	90622
7.73282	90363
7.74093	86132
7.74907	87152
7.75718	90339
7.76530	99561
7.77343	102023
7.78155	96721
7.78967	104156
7.79780	106792
7.80592	114202
7.81405	125389
7.82217	123028
7.83028	115092
7.83842	109194
7.84653	100613
7.85467	92156
7.86278	97336
7.87090	108363
7.87903	121846
7.88715	137756
7.89527	143435
7.90340	136422
7.91152	125323
7.91965	117142
7.92777	109034
7.93588	118204
7.94402	133349
7.95213	145941
7.96027	148254
7.96838	145046
7.97650	121941
7.98463	110810
7.99275	98708
8.00088	91980
8.00900	84687
8.01712	85856
8.02525	80128
8.03337	80341
8.04148	78160
8.04962	81896
8.05773	80085
8.06587	79585
8.07398	77893
8.08210	81542
8.09023	76530
8.09835	76150
8.10648	74995
8.11460	76556
8.12272	81493
8.13085	79668
8.13897	88575
8.14710	100328
8.15522	116095
8.16333	117138
8.17147	112009
8.17958	99603
8.18770	87570
8.19583	86396
8.20395	76903
8.21208	77186
8.22020	78225
8.22832	79705
8.23645	78305
8.24457	75964
8.25270	77626
8.26082	76793
8.26893	75551
8.27707	76868
8.28518	73490
8.29330	77134
8.30143	74392
8.30955	84929
8.31768	82030
8.32580	80969
8.33392	84998
8.34205	81624
8.35017	80500
8.35830	77592
8.36642	73514
8.37453	74120
8.38267	73206
8.39078	77610
8.39892	80271
8.40703	84633
8.41515	82519
8.42328	76333
8.43140	72204
8.43952	75015
8.44765	70442
8.45577	65982
8.46390	69030
8.47202	68064
8.48013	65566
8.48827	66720
8.49638	65761
8.50452	70346
8.51263	73259
8.52075	113280
8.52888	234076
8.53700	494217
8.54512	895411
8.55325	1218883
8.56137	1216207
8.56950	915800
8.57762	561464
8.58573	309397
8.59387	195174
8.60198	142226
8.61012	125480
8.61823	121133
8.62635	121524
8.63448	116821
8.64260	109237
8.65073	103277
8.65885	100846
8.66697	97125
8.67510	100137
8.68322	90665
8.69133	90376
8.69947	96049
8.70758	92314
8.71572	95135
8.72383	90539
8.73195	88698
8.74008	80857
8.74820	81984
8.75633	93602
8.76445	131369
8.77257	217182
8.78070	373108
8.78882	535177
8.79695	640830
8.80507	614987
8.81318	496974
8.82132	364583
8.82943	258188
8.83755	219359
8.84568	199591
8.85380	201010
8.86193	197131
8.87005	197940
8.87817	192331
8.88630	191911
8.89442	172994
8.90255	171728
8.91067	166376
8.91878	161475
8.92692	169360
8.93503	173163
8.94315	197607
8.95128	207097
8.95940	215069
8.96753	198048
8.97565	183208
8.98377	180016
8.99190	183041
9.00002	177182
9.00815	164339
9.01627	157348
9.02438	149493
9.03252	137198
9.04063	136454
9.04877	129115
9.05688	121282
9.06500	126228
9.07313	122981
9.08125	123242
9.08937	129632
9.09750	134792
9.10562	141172
9.11375	167512
9.12187	186594
9.12998	185730
9.13812	182157
9.14623	165027
9.15437	142888
9.16248	129368
9.17060	129749
9.17873	123533
9.18685	121736
9.19498	115005
9.20310	113870
9.21122	113763
9.21935	107968
9.22747	113755
9.23558	114098
9.24372	110780
9.25183	102546
9.25997	102957
9.26808	112413
9.27620	105984
9.28433	104489
9.29245	99188
9.30058	96550
9.30870	102351
9.31682	90298
9.32495	98388
9.33307	94059
9.34118	95054
9.34932	92437
9.35743	93940
9.36557	93851
9.37368	89108
9.38180	93791
9.38993	92516
9.39805	92178
9.40618	99663
9.41430	99561
9.42242	121216
9.43055	133348
9.43867	155707
9.44680	162943
9.45492	164326
9.46303	142463
9.47117	127260
9.47928	116635
9.48740	106044
9.49553	97986
9.50365	99398
9.51178	107449
9.51990	115238
9.52802	134323
9.53615	135379
9.54427	123200
9.55240	111152
9.56052	104517
9.56863	87869
9.57677	84803
9.58488	86755
9.59300	97644
9.60113	100378
9.60925	94013
9.61738	90628
9.62550	75697
9.63362	70357
9.64175	65694
9.64987	65159
9.65800	68423
9.66612	62895
9.67423	62766
9.68237	60953
9.69048	56766
9.69862	53700
9.70673	56434
9.71485	54673
9.72298	56407
9.73110	55003
9.73922	55198
9.74735	55786
9.75547	52928
9.76360	49506
9.77172	47665
9.77983	52295
9.78797	50263
9.79608	50647
9.80422	45112
9.81233	47433
9.82045	48561
9.82858	50743
9.83670	48257
9.84483	51020
9.85295	47637
9.86107	51285
9.86920	50090
9.87732	49023
9.88543	53569
9.89357	53314
9.90168	53849
9.90982	54051
9.91793	50902
9.92605	57314
9.93418	68277
9.94230	79282
9.95043	103025
9.95855	119282
9.96667	129149
9.97480	124859
9.98292	113824
9.99105	93112
9.99917	80247
10.00728	74939
10.01542	74550
10.02353	68836
10.03165	65076
10.03978	63493
10.04790	62340
10.05603	59935
10.06415	60214
10.07227	62117
10.08040	66418
10.08852	65106
10.09665	60212
10.10477	59965
10.11288	62746
10.12102	59823
10.12913	63237
10.13725	56876
10.14538	58258
10.15350	55231
10.16163	56341
10.16975	53518
10.17787	51880
10.18600	56599
10.19412	54709
10.20225	51266
10.21037	53683
10.21848	50763
10.22662	55758
10.23473	54462
10.24287	61368
10.25098	73896
10.25910	103916
10.26723	207484
10.27535	525389
10.28347	1221134
10.29160	2462489
10.29972	4018639
10.30785	5932510
10.31597	8796330
10.32408	1.317425E+07
10.33222	1.947804E+07
10.34033	2.636393E+07
10.34847	3.056319E+07
10.35658	3.013581E+07
10.36470	2.321032E+07
10.37283	1.30523E+07
10.38095	6123676
10.38907	3120384
10.39720	2031798
10.40532	1464531
10.41345	1141316
10.42157	932049
10.42968	796830
10.43782	722597
10.44593	667400
10.45407	607671
10.46218	586211
10.47030	545003
10.47843	502875
10.48655	469989
10.49468	441542
10.50280	417567
10.51092	384010
10.51905	362983
10.52717	363846
10.53528	348817
10.54342	344402
10.55153	338274
10.55967	325442
10.56778	306399
10.57590	298984
10.58403	271988
10.59215	265860
10.60028	253920
10.60840	247714
10.61652	229237
10.62465	220622
10.63277	210762
10.64090	211395
10.64902	205420
10.65713	197814
10.66527	195534
10.67338	198715
10.68150	192973
10.68963	188732
10.69775	182276
10.70588	176842
10.71400	173346
10.72212	176673
10.73025	170270
10.73837	165022
10.74650	164392
10.75462	146846
10.76273	148769
10.77087	141767
10.77898	138491
10.78710	138371
10.79523	135767
10.80335	139538
10.81148	139286
10.81960	138041
10.82772	134793
10.83585	127757
10.84397	126908
10.85210	123663
10.86022	119537
10.86833	112584
10.87647	112542
10.88458	111684
10.89272	105920
10.90083	105121
10.90895	102055
10.91708	108905
10.92520	106384
10.93332	104905
10.94145	101708
10.94957	97249
10.95770	96128
10.96582	92180
10.97393	91841
10.98207	97133
10.99018	94809
10.99832	95851
11.00643	93325
11.01455	92594
11.02268	96367
11.03080	93934
11.03893	87487
11.04705	87778
11.05517	86005
11.06330	84066
11.07142	81689
11.07953	89220
11.08767	86228
11.09578	90001
11.10392	86622
11.11203	85187
11.12015	78843
11.12828	79101
11.13640	69997
11.14453	65007
11.15265	61327
11.16077	62439
11.16890	63628
11.17702	63694
11.18513	66915
11.19327	68878
11.20138	69197
11.20952	66873
11.21763	65066
11.22575	62679
11.23388	53399
11.24200	54801
11.25013	53764
11.25825	53489
11.26637	49969
11.27450	50469
11.28262	53953
11.29075	48956
11.29887	57820
11.30698	77559
11.31512	129295
11.32323	230060
11.33135	386938
11.33948	566956
11.34760	718433
11.35573	743613
11.36385	662750
11.37197	501552
11.38010	343183
11.38822	231892
11.39635	181087
11.40447	146321
11.41258	137432
11.42072	131845
11.42883	124463
11.43695	121887
11.44508	107745
11.45320	95162
11.46133	95142
11.46945	87071
11.47757	103363
11.48570	111801
11.49382	144594
11.50195	167929
11.51007	182470
11.51818	171006
11.52632	152636
11.53443	146947
11.54257	134413
11.55068	128174
11.55880	128698
11.56693	118879
11.57505	103228
11.58317	94422
11.59130	96811
11.59942	114698
11.60755	137392
11.61567	186866
11.62378	209410
11.63192	208494
11.64003	195607
11.64817	149081
11.65628	113405
11.66440	94209
11.67253	80869
11.68065	79639
11.68878	77873
11.69690	77858
11.70502	77765
11.71315	76673
11.72127	73387
11.72938	71764
11.73752	76059
11.74563	65011
11.75377	67342
11.76188	66463
11.77000	59942
11.77813	62197
11.78625	57086
11.79438	58597
11.80250	51151
11.81062	60549
11.81875	55329
11.82687	59382
11.83498	55971
11.84312	55136
11.85123	53152
11.85937	52543
11.86748	49035
11.87560	50368
11.88373	52082
11.89185	53641
11.89998	52006
11.90810	55465
11.91622	51816
11.92435	59094
11.93247	60674
11.94060	64300
11.94872	60039
11.95683	60742
11.96497	55016
11.97308	49419
11.98120	52489
11.98933	60844
11.99745	74051
12.00558	100223
12.01370	116076
12.02182	122242
12.02995	116373
12.03807	96230
12.04620	84029
12.05432	72851
12.06243	59700
12.07057	58470
12.07868	59222
12.08682	63822
12.09493	55394
12.10305	65920
12.11118	75367
12.11930	96630
12.12742	128790
12.13555	158010
12.14367	165541
12.15180	170858
12.15992	143142
12.16803	114150
12.17617	85335
12.18428	70538
12.19242	64249
12.20053	62898
12.20865	67787
12.21678	70201
12.22490	67802
12.23302	66267
12.24115	64933
12.24927	56306
12.25740	58035
12.26552	64612
12.27363	58837
12.28177	57944
12.28988	59158
12.29802	55147
12.30613	54763
12.31425	57929
12.32238	54006
12.33050	57178
12.33863	53410
12.34675	54042
12.35487	51782
12.36300	52296
12.37112	48847
12.37923	47015
12.38737	49709
12.39548	55787
12.40362	69018
12.41173	72758
12.41985	91029
12.42798	100337
12.43610	108555
12.44423	111902
12.45235	94200
12.46047	86942
12.46860	78772
12.47672	70161
12.48485	70935
12.49297	70751
12.50108	63936
12.50922	61709
12.51733	57215
12.52545	60217
12.53358	69915
12.54170	101415
12.54983	151336
12.55795	250389
12.56607	338664
12.57420	407972
12.58232	379231
12.59045	307715
12.59857	215278
12.60668	145336
12.61482	114972
12.62293	97168
12.63105	91195
12.63918	89620
12.64730	80959
12.65543	73808
12.66355	71416
12.67167	64753
12.67980	68448
12.68792	58065
12.69605	60756
12.70417	57464
12.71228	65025
12.72042	62386
12.72853	61551
12.73667	64525
12.74478	64322
12.75290	63345
12.76103	63432
12.76915	58763
12.77727	56209
12.78540	53471
12.79352	50196
12.80165	51282
12.80977	51051
12.81788	48019
12.82602	46686
12.83413	46734
12.84227	52550
12.85038	42793
12.85850	40822
12.86663	40317
12.87475	42533
12.88287	43005
12.89100	44114
12.89912	43569
12.90725	43579
12.91537	40740
12.92348	41823
12.93162	42225
12.93973	41581
12.94787	45843
12.95598	44045
12.96410	47975
12.97223	46242
12.98035	51567
12.98848	55676
12.99660	59376
13.00472	49927
13.01285	47889
13.02097	47060
13.02908	44142
13.03722	43981
13.04533	45421
13.05347	41308
13.06158	44405
13.06970	49012
13.07783	42168
13.08595	43328
13.09408	44144
13.10220	44688
13.11032	48418
13.11845	47889
13.12657	43451
13.13470	40652
13.14282	39834
13.15093	40808
13.15907	42654
13.16718	51079
13.17530	47955
13.18343	50373
13.19155	50711
13.19968	48021
13.20780	51172
13.21592	52477
13.22405	56066
13.23217	55925
13.24030	49020
13.24842	53480
13.25653	50929
13.26467	46667
13.27278	50748
13.28090	42759
13.28903	41142
13.29715	42945
13.30528	45173
13.31340	41451
13.32152	39979
13.32965	37803
13.33777	38332
13.34590	39961
13.35402	37551
13.36213	36123
13.37027	37223
13.37838	37810
13.38652	37159
13.39463	38306
13.40275	34475
13.41088	36719
13.41900	37921
13.42712	39468
13.43525	39341
13.44337	41638
13.45150	35446
13.45962	37469
13.46773	38873
13.47587	40837
13.48398	39053
13.49212	40400
13.50023	40982
13.50835	37766
13.51648	42579
13.52460	39644
13.53273	39718
13.54085	38386
13.54897	40845
13.55710	41238
13.56522	40018
13.57333	37940
13.58147	43814
13.58958	45026
13.59772	46925
13.60583	51359
13.61395	62484
13.62208	66369
13.63020	66441
13.63833	64924
13.64645	57647
13.65457	50107
13.66270	46798
13.67082	44257
13.67893	40089
13.68707	40879
13.69518	34761
13.70332	36667
13.71143	36076
13.71955	36875
13.72768	41309
13.73580	42056
13.74393	54111
13.75205	71789
13.76017	136189
13.76830	220688
13.77642	340218
13.78455	434838
13.79267	508780
13.80078	508624
13.80892	466153
13.81703	431255
13.82515	370330
13.83328	364697
13.84140	351238
13.84953	324183
13.85765	287061
13.86577	254593
13.87390	195127
13.88202	162313
13.89015	136497
13.89827	116615
13.90638	108821
13.91452	100030
13.92263	95938
13.93075	89472
13.93888	85970
13.94700	77472
13.95513	74885
13.96325	80804
13.97137	78952
13.97950	85556
13.98762	85817
13.99575	87161
14.00387	88567
14.01198	93500
14.02012	89111
14.02823	84582
14.03637	87345
14.04448	85304
14.05260	86643
14.06073	80694
14.06885	81438
14.07697	86477
14.08510	79209
14.09322	76842
14.10135	76235
14.10947	74628
14.11758	72223
14.12572	70296
14.13383	71493
14.14197	77808
14.15008	77650
14.15820	77599
14.16633	80589
14.17445	85655
14.18258	87932
14.19070	99627
14.19882	121368
14.20695	155138
14.21507	186011
14.22318	207729
14.23132	227807
14.23943	217537
14.24757	213135
14.25568	223755
14.26380	225754
14.27193	210241
14.28005	184234
14.28818	167801
14.29630	139581
14.30442	133588
14.31255	122385
14.32067	113061
14.32880	105473
14.33692	106063
14.34503	104816
14.35317	111058
14.36128	94167
14.36940	88139
14.37753	77269
14.38565	69387
14.39378	66371
14.40190	64869
14.41002	67533
14.41815	68078
14.42627	81401
14.43440	72279
14.44252	74912
14.45063	68928
14.45877	63943
14.46688	62346
14.47500	57523
14.48313	54817
14.49125	57552
14.49938	58599
14.50750	54240
14.51562	54231
14.52375	55473
14.53187	55315
14.54000	58681
14.54812	56237
14.55623	57058
14.56437	53603
14.57248	48267
14.58062	49632
14.58873	50787
14.59685	47161
14.60498	46269
14.61310	44558
14.62122	45669
14.62935	42922
14.63747	43886
14.64560	45697
14.65372	47055
14.66183	42865
14.66997	42754
14.67808	40754
14.68622	39478
14.69433	40821
14.70245	45238
14.71058	44645
14.71870	43972
14.72682	44327
14.73495	44930
14.74307	47818
14.75120	46471
14.75932	45450
14.76743	45446
14.77557	47979
14.78368	57286
14.79182	86723
14.79993	216387
14.80805	535485
14.81618	1292736
14.82430	2526122
14.83243	4003272
14.84055	4830504
14.84867	4612479
14.85680	3642341
14.86492	2521561
14.87303	1578712
14.88117	979095
14.88928	666129
14.89742	499876
14.90553	388183
14.91365	336341
14.92178	301978
14.92990	276127
14.93803	254043
14.94615	236862
14.95427	214797
14.96240	196230
14.97052	188581
14.97865	178553
14.98677	167281
14.99488	162605
15.00302	152785
15.01113	147326
15.01925	146428
15.02738	132695
15.03550	128904
15.04363	124648
15.05175	122231
15.05987	122102
15.06800	117740
15.07612	112111
15.08425	114683
15.09237	105431
15.10048	103244
15.10862	98382
15.11673	102175
15.12485	106425
15.13298	109827
15.14110	117508
15.14923	126160
15.15735	122472
15.16547	113212
15.17360	96290
15.18172	83267
15.18985	71327
15.19797	66534
15.20608	58387
15.21422	58940
15.22233	56185
15.23047	55893
15.23858	53776
15.24670	50535
15.25483	48903
15.26295	51773
15.27107	52867
15.27920	50609
15.28732	52554
15.29545	51886
15.30357	46672
15.31168	49175
15.31982	48769
15.32793	46226
15.33607	45443
15.34418	45958
15.35230	43913
15.36043	45981
15.36855	42558
15.37668	45130
15.38480	48210
15.39292	47049
15.40105	47241
15.40917	44810
15.41728	44137
15.42542	45210
15.43353	45065
15.44167	42703
15.44978	38805
15.45790	48671
15.46603	49078
15.47415	52050
15.48228	69181
15.49040	92123
15.49852	116025
15.50665	129187
15.51477	138520
15.52288	136953
15.53102	126701
15.53913	123080
15.54727	114749
15.55538	107748
15.56350	97945
15.57163	89819
15.57975	74841
15.58788	62723
15.59600	60048
15.60412	57124
15.61225	52382
15.62037	51181
15.62850	47816
15.63662	49679
15.64473	45760
15.65287	44618
15.66098	45151
15.66910	49003
15.67723	46725
15.68535	43347
15.69348	41562
15.70160	42525
15.70972	39884
15.71785	46345
15.72597	46167
15.73410	42187
15.74222	45430
15.75033	54757
15.75847	65248
15.76658	102072
15.77470	167045
15.78283	253626
15.79095	359290
15.79908	403922
15.80720	375414
15.81532	306001
15.82345	208349
15.83157	148367
15.83970	112869
15.84782	92890
15.85593	81363
15.86407	77251
15.87218	77158
15.88032	80299
15.88843	83471
15.89655	91588
15.90468	84015
15.91280	80637
15.92092	73611
15.92905	70384
15.93717	69123
15.94530	67409
15.95342	63426
15.96153	60991
15.96967	64442
15.97778	66000
15.98592	67663
15.99403	65078
16.00215	67926
16.01028	67943
16.01840	69109
16.02653	73357
16.03465	74225
16.04277	72752
16.05090	68354
16.05902	67288
16.06713	55806
16.07527	57983
16.08338	56138
16.09152	51000
16.09963	48492
16.10775	50627
16.11588	51703
16.12400	52483
16.13213	59019
16.14025	55812
16.14837	60432
16.15650	58753
16.16462	60523
16.17273	59145
16.18087	54342
16.18898	52641
16.19712	46537
16.20523	47135
16.21335	49841
16.22148	48422
16.22960	50969
16.23773	47578
16.24585	45697
16.25397	44921
16.26210	45966
16.27022	44862
16.27835	49016
16.28647	55608
16.29458	51778
16.30272	53166
16.31083	53402
16.31895	57332
16.32708	60317
16.33520	51229
16.34333	53264
16.35145	56559
16.35957	57396
16.36770	72435
16.37582	73130
16.38395	83721
16.39207	82230
16.40018	71009
16.40832	67462
16.41643	62604
16.42457	62664
16.43268	53838
16.44080	65218
16.44893	83904
16.45705	137527
16.46517	262226
16.47330	474034
16.48142	735803
16.48955	912303
16.49767	921695
16.50578	733522
16.51392	532666
16.52203	346534
16.53017	228317
16.53828	165666
16.54640	128697
16.55453	117780
16.56265	102484
16.57077	96346
16.57890	90239
16.58702	86134
16.59515	85928
16.60327	87022
16.61138	84876
16.61952	76383
16.62763	73189
16.63577	83511
16.64388	72701
16.65200	68998
16.66013	65922
16.66825	64404
16.67638	62687
16.68450	62980
16.69262	59897
16.70075	61992
16.70887	57606
16.71698	56401
16.72512	52051
16.73323	52321
16.74137	52630
16.74948	53358
16.75760	58059
16.76573	63067
16.77385	64151
16.78198	62832
16.79010	56976
16.79822	54426
16.80635	53531
16.81447	48209
16.82258	46678
16.83072	44419
16.83883	47086
16.84697	44787
16.85508	41435
16.86320	43313
16.87133	42130
16.87945	43045
16.88758	43674
16.89570	41322
16.90382	40423
16.91195	43204
16.92007	38939
16.92820	42487
16.93632	45307
16.94443	44471
16.95257	39212
16.96068	47493
16.96880	42686
16.97693	40491
16.98505	43136
16.99318	40536
17.00130	42690
17.00942	42716
17.01755	43623
17.02567	44997
17.03380	42441
17.04192	49068
17.05003	49399
17.05817	48166
17.06628	50665
17.07442	49623
17.08253	54922
17.09065	53031
17.09878	52563
17.10690	59893
17.11502	61490
17.12315	66044
17.13127	66662
17.13940	62913
17.14752	61727
17.15563	61450
17.16377	59235
17.17188	55082
17.18002	53361
17.18813	49944
17.19625	48852
17.20438	45346
17.21250	47455
17.22062	47370
17.22875	48230
17.23687	44440
17.24500	42242
17.25312	48844
17.26123	44328
17.26937	48654
17.27748	45136
17.28562	43528
17.29373	40088
17.30185	39680
17.30998	43143
17.31810	45654
17.32623	45525
17.33435	52056
17.34247	61901
17.35060	62617
17.35872	63447
17.36683	70309
17.37497	65016
17.38308	62001
17.39122	65041
17.39933	57090
17.40745	58573
17.41558	62520
17.42370	55807
17.43183	56199
17.43995	56036
17.44807	54312
17.45620	55327
17.46432	53071
17.47245	52124
17.48057	49803
17.48868	47434
17.49682	51172
17.50493	44528
17.51305	48801
17.52118	46526
17.52930	44735
17.53743	44814
17.54555	50212
17.55367	52239
17.56180	56140
17.56992	78507
17.57805	118857
17.58617	188005
17.59428	293716
17.60242	432522
17.61053	559051
17.61865	606622
17.62678	570228
17.63490	465076
17.64303	353410
17.65115	257694
17.65927	194043
17.66740	156209
17.67552	137953
17.68365	128302
17.69177	115363
17.69988	103032
17.70802	97654
17.71613	85413
17.72427	87920
17.73238	77924
17.74050	77579
17.74863	72346
17.75675	66697
17.76487	67394
17.77300	64779
17.78112	62804
17.78925	58423
17.79737	62696
17.80548	59353
17.81362	62451
17.82173	60431
17.82987	64189
17.83798	65875
17.84610	74757
17.85423	75007
17.86235	91143
17.87048	86670
17.87860	93256
17.88672	86910
17.89485	75698
17.90297	68248
17.91108	58642
17.91922	55732
17.92733	55431
17.93547	52139
17.94358	46447
17.95170	49864
17.95983	49883
17.96795	47328
17.97608	50190
17.98420	46917
17.99232	45450
18.00045	47240
18.00857	50552
18.01668	59220
18.02482	72372
18.03293	95175
18.04107	95719
18.04918	107118
18.05730	108448
18.06543	96075
18.07355	91222
18.08168	84787
18.08980	96476
18.09792	104857
18.10605	110460
18.11417	116267
18.12230	122736
18.13042	113984
18.13853	118316
18.14667	117783
18.15478	111350
18.16290	106947
18.17103	98647
18.17915	94881
18.18728	88698
18.19540	86174
18.20352	83367
18.21165	75238
18.21977	71623
18.22790	69188
18.23602	71908
18.24413	73871
18.25227	68789
18.26038	68155
18.26850	70256
18.27663	71162
18.28475	67347
18.29288	53572
18.30100	51224
18.30912	52054
18.31725	51676
18.32537	50347
18.33350	47673
18.34162	42911
18.34973	43489
18.35787	45447
18.36598	44619
18.37412	43418
18.38223	47267
18.39035	46843
18.39848	45078
18.40660	44181
18.41472	49419
18.42285	46520
18.43097	53354
18.43910	62589
18.44722	67576
18.45533	83202
18.46347	105153
18.47158	137132
18.47972	179429
18.48783	207770
18.49595	213257
18.50408	191110
18.51220	162479
18.52033	127124
18.52845	101921
18.53657	87996
18.54470	79017
18.55282	68624
18.56093	56348
18.56907	58150
18.57718	59945
18.58532	56820
18.59343	62230
18.60155	59840
18.60968	63306
18.61780	63771
18.62593	62762
18.63405	64719
18.64217	61175
18.65030	62902
18.65842	57316
18.66653	55708
18.67467	50892
18.68278	48833
18.69092	45727
18.69903	45547
18.70715	44241
18.71528	45713
18.72340	42860
18.73153	41988
18.73965	44570
18.74777	44320
18.75590	41158
18.76402	40206
18.77215	41813
18.78027	41235
18.78838	44857
18.79652	44289
18.80463	41103
18.81275	42129
18.82088	39775
18.82900	39660
18.83713	41678
18.84525	37618
18.85337	40806
18.86150	40181
18.86962	42764
18.87775	44798
18.88587	40031
18.89398	47282
18.90212	45665
18.91023	44990
18.91837	44824
18.92648	47827
18.93460	46312
18.94273	55700
18.95085	61568
18.95897	65110
18.96710	65461
18.97522	65663
18.98335	62043
18.99147	61497
18.99958	69542
19.00772	76004
19.01583	85945
19.02397	95279
19.03208	94530
19.04020	99784
19.04833	103942
19.05645	127108
19.06457	170533
19.07270	303291
19.08082	634389
19.08895	1264546
19.09707	2247071
19.10518	3315807
19.11332	3842267
19.12143	3715920
19.12957	3082782
19.13768	2257965
19.14580	1537284
19.15393	990324
19.16205	655331
19.17018	486996
19.17830	392022
19.18642	327047
19.19455	287104
19.20267	272086
19.21078	232937
19.21892	217974
19.22703	201909
19.23517	190905
19.24328	174318
19.25140	159901
19.25953	151959
19.26765	146066
19.27578	144319
19.28390	153032
19.29202	157990
19.30015	158990
19.30827	165772
19.31638	158277
19.32452	146790
19.33263	147266
19.34077	150114
19.34888	147269
19.35700	151962
19.36513	173672
19.37325	185799
19.38138	199430
19.38950	200734
19.39762	189101
19.40575	168056
19.41387	156975
19.42200	144264
19.43012	134208
19.43823	127661
19.44637	130948
19.45448	122599
19.46260	116402
19.47073	120262
19.47885	127104
19.48698	131811
19.49510	148774
19.50322	175487
19.51135	212713
19.51947	241982
19.52760	258740
19.53572	237135
19.54383	213129
19.55197	181757
19.56008	150005
19.56822	133569
19.57633	121575
19.58445	113470
19.59258	116064
19.60070	113556
19.60882	108992
19.61695	104277
19.62507	109277
19.63320	112307
19.64132	127090
19.64943	163400
19.65757	211966
19.66568	277485
19.67382	352813
19.68193	395765
19.69005	439494
19.69818	405070
19.70630	370986
19.71443	330713
19.72255	281076
19.73067	243572
19.73880	212946
19.74692	193900
19.75503	170014
19.76317	152864
19.77128	146451
19.77942	138553
19.78753	139162
19.79565	139125
19.80378	150615
19.81190	147096
19.82003	148360
19.82815	137904
19.83627	128487
19.84440	116041
19.85252	106587
19.86063	110721
19.86877	106600
19.87688	106674
19.88502	128707
19.89313	152032
19.90125	171945
19.90938	201937
19.91750	235570
19.92563	249494
19.93375	261767
19.94187	253471
19.95000	252814
19.95812	230636
19.96625	226614
19.97437	211110
19.98248	213175
19.99062	207387
19.99873	202504
20.00685	195698
20.01498	190859
20.02310	188073
20.03123	185484
20.03935	174736
20.04747	167849
20.05560	148347
20.06372	147335
20.07185	131814
20.07997	139793
20.08808	134280
20.09622	132385
20.10433	124847
20.11245	121716
20.12058	109108
20.12870	112763
20.13683	102806
20.14495	103545
20.15307	109360
20.16120	112457
20.16932	132886
20.17745	148885
20.18557	187292
20.19368	200928
20.20182	214837
20.20993	221765
20.21807	206595
20.22618	183806
20.23430	169241
20.24243	168193
20.25055	181644
20.25867	213571
20.26680	288029
20.27492	362972
20.28305	458760
20.29117	487258
20.29928	495160
20.30742	463923
20.31553	397485
20.32367	308838
20.33178	254165
20.33990	198636
20.34803	170714
20.35615	139336
20.36428	119975
20.37240	112533
20.38052	100037
20.38865	100687
20.39677	98894
20.40488	93560
20.41302	94977
20.42113	97256
20.42927	102372
20.43738	110940
20.44550	121591
20.45363	128925
20.46175	127111
20.46988	123502
20.47800	121509
20.48612	115246
20.49425	101548
20.50237	88407
20.51048	92570
20.51862	75270
20.52673	76932
20.53487	73939
20.54298	77857
20.55110	73208
20.55923	77665
20.56735	77188
20.57548	68996
20.58360	72157
20.59172	73505
20.59985	68151
20.60797	71730
20.61610	68235
20.62422	68181
20.63233	65959
20.64047	68419
20.64858	66307
20.65670	68860
20.66483	69532
20.67295	62672
20.68108	65155
20.68920	64960
20.69732	62369
20.70545	62792
20.71357	64551
20.72170	65217
20.72982	62660
20.73793	59164
20.74607	61973
20.75418	64513
20.76232	63599
20.77043	68019
20.77855	75192
20.78668	77302
20.79480	105462
20.80292	143106
20.81105	210647
20.81917	269162
20.82730	293752
20.83542	290460
20.84353	246142
20.85167	189896
20.85978	138070
20.86792	106513
20.87603	89848
20.88415	82518
20.89228	80309
20.90040	77338
20.90852	73917
20.91665	73410
20.92477	74784
20.93290	77998
20.94102	70751
20.94913	73787
20.95727	78562
20.96538	66025
20.97352	65994
20.98163	65981
20.98975	64744
20.99788	60546
21.00600	62815
21.01413	63174
21.02225	63925
21.03037	63698
21.03850	62501
21.04662	61710
21.05473	62965
21.06287	62116
21.07098	63755
21.07912	64704
21.08723	65531
21.09535	62640
21.10348	59863
21.11160	62157
21.11973	60808
21.12785	62637
21.13597	69881
21.14410	91794
21.15222	120673
21.16033	146389
21.16847	171328
21.17658	175708
21.18472	169890
21.19283	143786
21.20095	114344
21.20908	100034
21.21720	86969
21.22533	80256
21.23345	70453
21.24157	69506
21.24970	65295
21.25782	65739
21.26595	68092
21.27407	62855
21.28218	62783
21.29032	61333
21.29843	61223
21.30655	64574
21.31468	61426
21.32280	58214
21.33093	58243
21.33905	59324
21.34717	62121
21.35530	58428
21.36342	55651
21.37155	59114
21.37967	57966
21.38778	62520
21.39592	63121
21.40403	71316
21.41217	72268
21.42028	71038
21.42840	71687
21.43653	70009
21.44465	73356
21.45277	71369
21.46090	63175
21.46902	61517
21.47715	61815
21.48527	62421
21.49338	54527
21.50152	58127
21.50963	56876
21.51777	50535
21.52588	61719
21.53400	53504
21.54213	56409
21.55025	55943
21.55837	55096
21.56650	54850
21.57462	56501
21.58275	64340
21.59087	66280
21.59898	62922
21.60712	71362
21.61523	75812
21.62337	79287
21.63148	83487
21.63960	91525
21.64773	103792
21.65585	110233
21.66398	114401
21.67210	110195
21.68022	107837
21.68835	96984
21.69647	93492
21.70458	93261
21.71272	81966
21.72083	73434
21.72897	67822
21.73708	68172
21.74520	61103
21.75333	60604
21.76145	60778
21.76958	60975
21.77770	59611
21.78582	60158
21.79395	58866
21.80207	62219
21.81020	57701
21.81832	66471
21.82643	72550
21.83457	81632
21.84268	93595
21.85080	96507
21.85893	96311
21.86705	87663
21.87518	85465
21.88330	79245
21.89142	69149
21.89955	68438
21.90767	59238
21.91580	61320
21.92392	59600
21.93203	55101
21.94017	52012
21.94828	55846
21.95640	53015
21.96453	50786
21.97265	49488
21.98078	45782
21.98890	45809
21.99702	46673
22.00515	49991
22.01327	46804
22.02140	49297
22.02952	52712
22.03763	52211
22.04577	49506
22.05388	52242
22.06202	50681
22.07013	49556
22.07825	51387
22.08638	51408
22.09450	50447
22.10262	50357
22.11075	48009
22.11887	46524
22.12700	50681
22.13512	48392
22.14323	47996
22.15137	48347
22.15948	47820
22.16762	46085
22.17573	47408
22.18385	49773
22.19198	47888
22.20010	49057
22.20822	47729
22.21635	48681
22.22447	50159
22.23260	52375
22.24072	56234
22.24883	59490
22.25697	55290
22.26508	50949
22.27322	52771
22.28133	56624
22.28945	62017
22.29758	62257
22.30570	64918
22.31383	67112
22.32195	67143
22.33007	68581
22.33820	64943
22.34632	60942
22.35443	61068
22.36257	63414
22.37068	57499
22.37882	66295
22.38693	71470
22.39505	80208
22.40318	90557
22.41130	113583
22.41943	131370
22.42755	146063
22.43567	151833
22.44380	131363
22.45192	122774
22.46005	108683
22.46817	97060
22.47628	87402
22.48442	85302
22.49253	91976
22.50065	102478
22.50878	102042
22.51690	102842
22.52503	98413
22.53315	94803
22.54127	89582
22.54940	90698
22.55752	78837
22.56565	76875
22.57377	79317
22.58188	69132
22.59002	68078
22.59813	64919
22.60625	62022
22.61438	58268
22.62250	56582
22.63063	52847
22.63875	52578
22.64687	56803
22.65500	53592
22.66312	49294
22.67125	55253
22.67937	54247
22.68748	61446
22.69562	68241
22.70373	82907
22.71187	95721
22.71998	110351
22.72810	106187
22.73623	105596
22.74435	95488
22.75247	87743
22.76060	70939
22.76872	69748
22.77685	71150
22.78497	76155
22.79308	81084
22.80122	96806
22.80933	107995
22.81747	118130
22.82558	111988
22.83370	112037
22.84183	94972
22.84995	82634
22.85808	79630
22.86620	79469
22.87432	79978
22.88245	89676
22.89057	108892
22.89868	117452
22.90682	137849
22.91493	144440
22.92307	171143
22.93118	183208
22.93930	191974
22.94743	190685
22.95555	180858
22.96368	166851
22.97180	156586
22.97992	142108
22.98805	136672
22.99617	130869
23.00428	129440
23.01242	117772
23.02053	117003
23.02867	112353
23.03678	108794
23.04490	106671
23.05303	109945
23.06115	108282
23.06928	103820
23.07740	105872
23.08552	108559
23.09365	110394
23.10177	109258
23.10990	98627
23.11802	97444
23.12613	95429
23.13427	91129
23.14238	91649
23.15050	96205
23.15863	96871
23.16675	95732
23.17488	90915
23.18300	95498
23.19112	95361
23.19925	91238
23.20737	92521
23.21550	94790
23.22362	94038
23.23173	88661
23.23987	82817
23.24798	88500
23.25612	91038
23.26423	94769
23.27235	103136
23.28048	103070
23.28860	101893
23.29672	93270
23.30485	94873
23.31297	88950
23.32110	92646
23.32922	87465
23.33733	100106
23.34547	106135
23.35358	122410
23.36172	125534
23.36983	140420
23.37795	148815
23.38608	154583
23.39420	150560
23.40232	137785
23.41045	129860
23.41857	128322
23.42670	126965
23.43482	124069
23.44293	120230
23.45107	116349
23.45918	112712
23.46732	111235
23.47543	113600
23.48355	106838
23.49168	104084
23.49980	98880
23.50793	96115
23.51605	92616
23.52417	92070
23.53230	91375
23.54042	88379
23.54853	93402
23.55667	93059
23.56478	101883
23.57292	104399
23.58103	127664
23.58915	156887
23.59728	197333
23.60540	225304
23.61353	237964
23.62165	220530
23.62977	204645
23.63790	178175
23.64602	159937
23.65413	138807
23.66227	137011
23.67038	140941
23.67852	142931
23.68663	131291
23.69475	114182
23.70288	107494
23.71100	94825
23.71913	89601
23.72725	80487
23.73537	85706
23.74350	92694
23.75162	116016
23.75975	199953
23.76787	400730
23.77598	769533
23.78412	1365862
23.79223	2037138
23.80035	2521330
23.80848	2598588
23.81660	2376238
23.82473	1918672
23.83285	1463746
23.84097	1141857
23.84910	870859
23.85722	679691
23.86535	548155
23.87347	467386
23.88158	412134
23.88972	365195
23.89783	327572
23.90597	300088
23.91408	292827
23.92220	276926
23.93033	261724
23.93845	251458
23.94657	229817
23.95470	215566
23.96282	203850
23.97095	194492
23.97907	181274
23.98718	170119
23.99532	164155
24.00343	160574
24.01157	176881
24.01968	215183
24.02780	279261
24.03593	331951
24.04405	363921
24.05217	358526
24.06030	299500
24.06842	233282
24.07655	182262
24.08467	145583
24.09278	127054
24.10092	116334
24.10903	118408
24.11717	118676
24.12528	120004
24.13340	121285
24.14153	137368
24.14965	154612
24.15778	160787
24.16590	155893
24.17402	153791
24.18215	140443
24.19027	135951
24.19838	129243
24.20652	122315
24.21463	123214
24.22277	114863
24.23088	110887
24.23900	109020
24.24713	102568
24.25525	102639
24.26338	92270
24.27150	82936
24.27962	84199
24.28775	78822
24.29587	80667
24.30400	82653
24.31212	84725
24.32023	82569
24.32837	78863
24.33648	83807
24.34460	82156
24.35273	79972
24.36085	76244
24.36898	76860
24.37710	78118
24.38522	89039
24.39335	94625
24.40147	109732
24.40960	122298
24.41772	127380
24.42583	122140
24.43397	107556
24.44208	88931
24.45020	83772
24.45833	71716
24.46645	68796
24.47458	72044
24.48270	77786
24.49082	79105
24.49895	80530
24.50707	88283
24.51520	95155
24.52332	99289
24.53143	103078
24.53957	95085
24.54768	92365
24.55582	99949
24.56393	97534
24.57205	97041
24.58018	94293
24.58830	88303
24.59642	85341
24.60455	80064
24.61267	76650
24.62080	75998
24.62892	79344
24.63703	90084
24.64517	98326
24.65328	101880
24.66142	107256
24.66953	113201
24.67765	120565
24.68578	121345
24.69390	123244
24.70202	119444
24.71015	125575
24.71827	121498
24.72640	122261
24.73452	124140
24.74263	123293
24.75077	121420
24.75888	123299
24.76702	128302
24.77513	136870
24.78325	136791
24.79138	142453
24.79950	139249
24.80763	140277
24.81575	142392
24.82387	149225
24.83200	145044
24.84012	152748
24.84823	184354
24.85637	202966
24.86448	250733
24.87262	308780
24.88073	398773
24.88885	495418
24.89698	546990
24.90510	543592
24.91323	513391
24.92135	414757
24.92947	318437
24.93760	238130
24.94572	191885
24.95385	162026
24.96197	147216
24.97008	134992
24.97822	126687
24.98633	124268
24.99445	122799
25.00258	119597
25.01070	115721
25.01883	120888
25.02695	120181
25.03507	117109
25.04320	110458
25.05132	113218
25.05945	112366
25.06757	109722
25.07568	101008
25.08382	108854
25.09193	116556
25.10005	141222
25.10818	211302
25.11630	377165
25.12443	725702
25.13255	1302798
25.14067	1987726
25.14880	2554910
25.15692	2754124
25.16505	2486825
25.17317	1995005
25.18128	1382983
25.18942	894223
25.19753	573948
25.20567	382337
25.21378	278871
25.22190	219126
25.23003	204651
25.23815	198645
25.24627	231387
25.25440	305383
25.26252	412861
25.27065	528537
25.27877	596493
25.28688	628590
25.29502	563755
25.30313	463312
25.31127	347719
25.31938	256669
25.32750	203777
25.33563	160940
25.34375	143507
25.35188	128205
25.36000	122666
25.36812	118916
25.37625	114760
25.38437	111019
25.39248	103557
25.40062	100516
25.40873	98897
25.41687	93836
25.42498	97250
25.43310	96090
25.44123	89385
25.44935	90258
25.45748	90126
25.46560	92690
25.47372	92166
25.48185	92398
25.48997	87773
25.49808	85359
25.50622	83741
25.51433	77114
25.52247	76186
25.53058	75510
25.53870	71449
25.54683	73628
25.55495	68066
25.56308	66453
25.57120	66344
25.57932	63993
25.58745	64215
25.59557	66963
25.60370	65203
25.61182	66174
25.61993	73520
25.62807	68650
25.63618	80914
25.64430	82038
25.65243	88925
25.66055	82634
25.66868	82244
25.67680	75276
25.68492	67938
25.69305	66229
25.70117	62891
25.70930	59518
25.71742	61638
25.72553	62559
25.73367	57030
25.74178	59309
25.74992	59512
25.75803	61431
25.76615	55876
25.77428	65735
25.78240	63814
25.79052	64945
25.79865	65531
25.80677	60652
25.81490	64308
25.82302	64753
25.83113	62884
25.83927	63325
25.84738	63912
25.85552	69006
25.86363	69614
25.87175	77217
25.87988	81618
25.88800	88377
25.89612	96505
25.90425	109475
25.91237	114807
25.92050	107944
25.92862	110705
25.93673	109488
25.94487	118304
25.95298	123167
25.96112	122699
25.96923	121191
25.97735	119072
25.98548	126465
25.99360	123857
26.00173	119867
26.00985	117868
26.01797	116230
26.02610	114937
26.03422	111543
26.04233	118433
26.05047	119987
26.05858	115232
26.06672	122376
26.07483	118547
26.08295	122279
26.09108	120277
26.09920	130263
26.10733	126935
26.11545	123789
26.12357	123926
26.13170	128499
26.13982	126377
26.14795	129422
26.15607	126960
26.16418	131107
26.17232	132847
26.18043	131221
26.18855	124457
26.19668	121834
26.20480	115263
26.21293	116901
26.22105	112795
26.22917	110354
26.23730	109330
26.24542	105692
26.25355	103620
26.26167	107916
26.26978	104546
26.27792	103918
26.28603	100718
26.29415	100347
26.30228	99530
26.31040	101351
26.31853	95646
26.32665	96716
26.33477	97742
26.34290	97142
26.35102	95511
26.35915	105480
26.36727	115800
26.37538	129365
26.38352	151246
26.39163	179835
26.39977	209871
26.40788	213997
26.41600	217996
26.42413	198579
26.43225	169082
26.44037	149101
26.44850	128810
26.45662	107650
26.46475	106006
26.47287	99348
26.48098	95950
26.48912	94363
26.49723	86924
26.50537	91752
26.51348	85275
26.52160	82803
26.52973	83018
26.53785	76766
26.54597	80384
26.55410	77424
26.56222	76971
26.57035	75472
26.57847	76990
26.58658	78174
26.59472	70081
26.60283	72375
26.61097	68639
26.61908	68402
26.62720	68361
26.63533	65623
26.64345	73208
26.65158	71677
26.65970	73961
26.66782	72937
26.67595	75890
26.68407	70663
26.69218	76135
26.70032	72230
26.70843	67171
26.71657	74015
26.72468	62001
26.73280	67694
26.74093	65969
26.74905	63402
26.75718	65041
26.76530	62933
26.77342	60316
26.78155	62837
26.78967	63904
26.79780	67433
26.80592	64607
26.81403	69480
26.82217	66509
26.83028	64354
26.83840	62340
26.84653	64375
26.85465	59546
26.86278	63143
26.87090	63183
26.87902	63400
26.88715	57550
26.89527	56533
26.90340	58536
26.91152	59379
26.91963	56354
26.92777	55374
26.93588	57359
26.94400	56239
26.95213	56247
26.96025	57886
26.96838	62169
26.97650	73879
26.98462	90930
26.99275	135833
27.00087	195444
27.00900	277191
27.01712	379702
27.02523	462997
27.03337	546020
27.04148	550473
27.04962	521099
27.05773	465676
27.06585	392861
27.07398	321737
27.08210	266155
27.09022	228475
27.09835	201826
27.10647	183839
27.11460	166229
27.12272	154811
27.13083	145297
27.13897	130692
27.14708	121720
27.15522	125987
27.16333	125566
27.17145	129447
27.17958	134117
27.18770	148198
27.19583	138754
27.20395	143651
27.21207	140485
27.22020	129454
27.22832	116067
27.23643	107385
27.24457	102825
27.25268	93315
27.26082	90878
27.26893	84909
27.27705	84053
27.28518	86066
27.29330	77562
27.30143	75827
27.30955	79648
27.31767	76172
27.32580	79774
27.33392	71850
27.34203	78173
27.35017	71225
27.35828	76279
27.36642	76314
27.37453	70168
27.38265	74513
27.39078	69109
27.39890	68671
27.40703	64063
27.41515	69444
27.42327	61741
27.43140	67719
27.43952	59921
27.44765	61383
27.45577	63312
27.46388	62440
27.47202	60067
27.48013	63523
27.48825	63116
27.49638	60211
27.50450	61343
27.51263	58005
27.52075	60534
27.52887	61859
27.53700	57664
27.54512	62136
27.55325	56789
27.56137	63034
27.56948	63430
27.57762	64752
27.58573	73774
27.59385	74797
27.60198	81258
27.61010	86789
27.61823	87545
27.62635	75463
27.63447	67796
27.64260	68509
27.65072	60513
27.65885	58274
27.66697	59661
27.67508	59639
27.68322	57884
27.69133	57783
27.69947	54526
27.70758	56217
27.71570	54981
27.72383	56715
27.73195	52081
27.74007	55774
27.74820	55863
27.75632	55256
27.76445	59693
27.77257	67716
27.78068	78773
27.78882	85157
27.79693	94562
27.80507	96357
27.81318	89524
27.82130	79916
27.82943	68337
27.83755	64160
27.84568	56355
27.85380	56821
27.86192	55416
27.87005	53176
27.87817	52267
27.88628	48890
27.89442	49355
27.90253	48550
27.91067	51116
27.91878	49061
27.92690	48726
27.93503	51765
27.94315	47964
27.95128	47998
27.95940	50416
27.96752	44712
27.97565	50409
27.98377	53064
27.99188	54339
28.00002	52440
28.00813	56695
28.01627	55938
28.02438	60050
28.03250	60744
28.04063	58867
28.04875	62229
28.05688	64600
28.06500	67323
28.07312	63455
28.08125	57131
28.08937	56027
28.09750	52208
28.10562	57025
28.11373	48984
28.12187	50105
28.12998	50945
28.13810	49333
28.14623	48197
28.15435	45203
28.16248	52684
28.17060	46752
28.17872	48584
28.18685	52991
28.19497	58568
28.20310	67609
28.21122	77894
28.21933	82171
28.22747	94670
28.23558	86914
28.24372	83874
28.25183	73167
28.25995	68843
28.26808	66704
28.27620	54654
28.28432	54697
28.29245	52193
28.30057	48823
28.30870	56196
28.31682	58373
28.32493	62966
28.33307	75742
28.34118	82811
28.34932	93291
28.35743	114918
28.36555	128365
28.37368	151727
28.38180	160135
28.38992	165228
28.39805	165556
28.40617	166505
28.41430	173032
28.42242	157068
28.43053	148951
28.43867	138495
28.44678	129476
28.45492	123335
28.46303	113962
28.47115	114147
28.47928	107648
28.48740	99153
28.49553	97362
28.50365	90333
28.51177	98528
28.51990	92091
28.52802	87339
28.53613	86721
28.54427	80721
28.55238	77622
28.56052	70508
28.56863	68074
28.57675	69017
28.58488	64942
28.59300	67963
28.60113	68151
28.60925	72914
28.61737	64499
28.62550	70953
28.63362	70231
28.64175	76054
28.64987	81777
28.65798	71432
28.66612	80166
28.67423	78254
28.68235	76004
28.69048	73737
28.69860	68868
28.70673	75766
28.71485	64269
28.72297	59245
28.73110	61253
28.73922	58220
28.74735	61539
28.75547	60745
28.76358	67243
28.77172	72790
28.77983	73182
28.78795	83394
28.79608	80571
28.80420	82447
28.81233	70239
28.82045	74857
28.82857	69200
28.83670	64456
28.84482	61478
28.85295	61426
28.86107	59782
28.86918	60513
28.87732	62849
28.88543	62788
28.89357	67679
28.90168	66144
28.90980	72095
28.91793	71142
28.92605	65894
28.93417	64538
28.94230	62723
28.95042	64983
28.95855	63588
28.96667	61160
28.97478	59366
28.98292	60319
28.99103	56813
28.99917	58847
29.00728	51752
29.01540	53449
29.02353	50887
29.03165	53090
29.03977	50653
29.04790	51397
29.05602	50632
29.06415	57331
29.07227	58129
29.08038	61499
29.08852	64522
29.09663	67375
29.10477	62967
29.11288	60081
29.12100	53008
29.12913	58794
29.13725	53827
29.14538	50502
29.15350	50778
29.16162	54006
29.16975	49321
29.17787	51847
29.18598	56801
29.19412	65640
29.20223	72211
29.21037	83141
29.21848	90776
29.22660	90228
29.23473	87634
29.24285	83197
29.25098	84809
29.25910	86433
29.26722	88796
29.27535	88508
29.28347	84221
29.29160	78914
29.29972	73408
29.30783	61716
29.31597	62780
29.32408	52833
29.33220	50789
29.34033	49969
29.34845	48840
29.35658	49975
29.36470	46132
29.37282	49766
29.38095	46591
29.38907	46715
29.39720	54114
29.40532	52668
29.41343	52498
29.42157	60803
29.42968	55113
29.43780	54896
29.44593	56754
29.45405	52821
29.46218	52063
29.47030	49645
29.47842	51281
29.48655	54667
29.49467	54397
29.50280	61395
29.51092	62371
29.51903	55095
29.52717	61780
29.53528	51392
29.54342	57624
29.55153	51844
29.55965	47531
29.56778	46471
29.57590	47839
29.58402	44795
29.59215	47897
29.60027	46262
29.60840	48955
29.61652	50933
29.62463	46871
29.63277	45431
29.64088	47781
29.64902	48331
29.65713	45093
29.66525	46562
29.67338	49925
29.68150	46536
29.68963	49801
29.69775	48862
29.70587	49746
29.71400	50449
29.72212	49261
29.73023	45325
29.73837	45541
29.74648	44120
29.75462	44842
29.76273	45193
29.77085	45309
29.77898	44057
29.78710	42381
29.79523	44834
29.80335	44634
29.81147	40997
29.81960	40937
29.82772	42538
29.83583	40996
29.84397	42832
29.85208	44790
29.86022	48211
29.86833	52622
29.87645	67102
29.88458	84723
29.89270	118431
29.90083	140401
29.90895	162242
29.91707	150820
29.92520	129575
29.93332	102328
29.94145	84878
29.94957	69274
29.95768	61118
29.96582	59395
29.97393	66413
29.98205	63579
29.99018	75126
29.99830	80860
30.00643	92325
30.01455	86859
30.02267	88914
30.03080	91947
30.03892	105811
30.04705	104445
30.05517	106432
30.06328	100155
30.07142	108196
30.07953	102409
30.08765	99121
30.09578	105310
30.10390	96234
30.11203	94225
30.12015	94259
30.12827	91302
30.13640	86589
30.14452	85263
30.15265	84485
30.16077	77397
30.16888	74369
30.17702	74976
30.18513	77718
30.19327	71256
30.20138	71867
30.20950	73334
30.21763	72142
30.22575	69509
30.23387	66746
30.24200	58683
30.25012	62797
30.25825	55978
30.26637	52469
30.27448	52268
30.28262	59839
30.29073	58924
30.29887	55900
30.30698	55661
30.31510	56272
30.32323	49499
30.33135	51741
30.33948	55338
30.34760	52464
30.35572	53808
30.36385	52088
30.37197	51695
30.38008	52022
30.38822	49666
30.39633	44542
30.40447	49109
30.41258	48292
30.42070	49064
30.42883	47981
30.43695	47583
30.44508	47610
30.45320	45406
30.46132	45467
30.46945	47039
30.47757	45504
30.48570	49780
30.49382	48454
30.50193	46630
30.51007	49812
30.51818	49152
30.52630	50129
30.53443	52743
30.54255	43078
30.55068	47207
30.55880	47304
30.56692	45968
30.57505	46461
30.58317	46100
30.59130	45476
30.59942	43474
30.60753	42572
30.61567	45658
30.62378	41962
30.63190	41409
30.64003	40435
30.64815	43612
30.65628	42347
30.66440	41776
30.67252	46777
30.68065	42680
30.68877	45377
30.69690	41700
30.70502	43209
30.71313	43355
30.72127	43744
30.72938	38810
30.73752	47224
30.74563	40995
30.75375	44885
30.76188	48543
30.77000	48610
30.77812	60256
30.78625	88854
30.79437	124266
30.80250	181197
30.81062	229183
30.81873	259889
30.82687	245284
30.83498	203737
30.84312	152035
30.85123	109588
30.85935	87417
30.86748	64255
30.87560	61835
30.88372	55159
30.89185	59021
30.89997	55216
30.90810	48099
30.91622	46874
30.92433	48276
30.93247	46239
30.94058	47829
30.94872	45936
30.95683	47708
30.96495	48490
30.97308	46264
30.98120	45361
30.98933	41813
30.99745	41198
31.00557	46069
31.01370	43389
31.02182	43268
31.02993	45604
31.03807	45461
31.04618	47253
31.05432	50247
31.06243	46898
31.07055	48748
31.07868	56015
31.08680	52992
31.09493	62851
31.10305	73026
31.11117	74072
31.11930	73041
31.12742	71049
31.13555	65089
31.14367	60272
31.15178	58989
31.15992	58831
31.16803	64011
31.17615	68978
31.18428	69115
31.19240	79448
31.20053	95826
31.20865	110865
31.21677	129581
31.22490	150291
31.23302	156174
31.24115	156739
31.24927	130647
31.25738	114902
31.26552	91140
31.27363	77124
31.28175	66736
31.28988	60830
31.29800	61985
31.30613	59936
31.31425	65182
31.32237	61788
31.33050	65147
31.33862	61079
31.34675	60839
31.35487	63919
31.36298	59650
31.37112	59459
31.37923	61516
31.38737	57450
31.39548	58710
31.40360	62742
31.41173	59266
31.41985	60806
31.42797	61554
31.43610	61942
31.44422	56749
31.45235	59158
31.46047	58545
31.46858	63535
31.47672	64172
31.48483	70864
31.49297	71454
31.50108	73024
31.50920	74280
31.51733	68204
31.52545	66463
31.53358	64424
31.54170	64005
31.54982	63510
31.55795	68851
31.56607	70002
31.57418	74473
31.58232	74396
31.59043	67829
31.59857	64703
31.60668	59022
31.61480	59169
31.62293	57764
31.63105	53470
31.63918	53598
31.64730	48931
31.65542	58281
31.66355	60443
31.67167	54569
31.67978	60925
31.68792	57950
31.69603	57013
31.70417	54187
31.71228	54040
31.72040	52369
31.72853	50744
31.73665	48168
31.74478	49461
31.75290	49588
31.76102	46089
31.76915	49826
31.77727	48227
31.78540	46077
31.79352	51994
31.80163	51841
31.80977	48656
31.81788	50770
31.82600	49895
31.83413	53681
31.84225	51409
31.85038	52962
31.85850	56711
31.86662	54117
31.87475	65609
31.88287	65531
31.89100	60188
31.89912	55480
31.90723	62308
31.91537	59450
31.92348	69196
31.93160	73317
31.93973	72457
31.94785	75409
31.95598	78430
31.96410	85167
31.97222	88963
31.98035	94452
31.98847	91106
31.99660	96801
32.00472	99693
32.01283	99124
32.02097	107906
32.02908	92069
32.03722	92145
32.04533	90683
32.05345	89195
32.06158	87633
32.06970	84237
32.07782	84535
32.08595	83815
32.09407	79431
32.10220	78735
32.11032	69789
32.11843	69180
32.12657	64552
32.13468	62966
32.14282	63253
32.15093	59969
32.15905	58197
32.16718	56676
32.17530	51680
32.18343	58096
32.19155	56688
32.19967	57067
32.20780	58225
32.21592	55443
32.22403	55631
32.23217	54716
32.24028	54139
32.24842	53814
32.25653	57392
32.26465	61021
32.27278	59476
32.28090	55360
32.28903	58430
32.29715	63978
32.30527	51268
32.31340	51566
32.32152	51197
32.32963	49537
32.33777	48811
32.34588	54965
32.35402	55789
32.36213	53178
32.37025	54749
32.37838	51848
32.38650	48282
32.39463	53517
32.40275	53364
32.41087	48706
32.41900	48686
32.42712	48653
32.43525	45750
32.44337	47143
32.45148	49852
32.45962	53911
32.46773	52021
32.47585	42853
32.48398	46434
32.49210	43383
32.50023	43397
32.50835	49417
32.51647	48286
32.52460	44132
32.53272	47969
32.54085	45906
32.54897	47964
32.55708	48888
32.56522	50243
32.57333	47323
32.58147	49557
32.58958	43696
32.59770	46440
32.60583	45483
32.61395	44073
32.62207	45290
32.63020	44811
32.63832	45095
32.64645	49132
32.65457	47962
32.66268	54839
32.67082	57279
32.67893	61317
32.68707	54594
32.69518	57611
32.70330	59520
32.71143	54889
32.71955	53096
32.72767	52532
32.73580	48313
32.74392	49190
32.75205	49071
32.76017	43238
32.76828	44084
32.77642	43768
32.78453	45400
32.79267	46728
32.80078	44029
32.80890	41433
32.81703	42786
32.82515	40694
32.83328	44219
32.84140	43032
32.84952	45511
32.85765	41377
32.86577	46242
32.87388	46288
32.88202	46162
32.89013	43783
32.89827	48535
32.90638	46226
32.91450	52268
32.92263	44989
32.93075	46736
32.93888	50527
32.94700	43874
32.95512	41550
32.96325	48449
32.97137	51742
32.97950	62653
32.98762	79305
32.99573	88859
33.00387	110086
33.01198	115009
33.02010	114209
33.02823	101224
33.03635	87246
33.04448	70952
33.05260	62720
33.06072	59168
33.06885	63585
33.07697	60314
33.08510	65318
33.09322	67984
33.10133	70982
33.10947	77051
33.11758	79540
33.12570	85969
33.13383	84748
33.14195	79647
33.15008	74407
33.15820	61359
33.16632	60236
33.17445	55572
33.18257	54420
33.19070	52078
33.19882	53900
33.20693	55738
33.21507	53360
33.22318	56747
33.23132	52467
33.23943	49694
33.24755	52767
33.25568	53068
33.26380	48320
33.27192	45602
33.28005	48355
33.28817	50416
33.29630	50362
33.30442	46490
33.31253	47923
33.32067	47109
33.32878	45253
33.33692	48508
33.34503	49749
33.35315	53939
33.36128	50395
33.36940	54077
33.37752	49279
33.38565	52657
33.39377	49501
33.40190	50380
33.41002	47137
33.41813	46195
33.42627	41984
33.43438	42262
33.44252	40508
33.45063	45405
33.45875	42082
33.46688	45385
33.47500	45843
33.48313	45489
33.49125	45487
33.49937	46679
33.50750	47901
33.51562	46029
33.52373	49648
33.53187	52801
33.53998	53580
33.54812	52808
33.55623	49845
33.56435	51245
33.57248	51741
33.58060	46764
33.58873	48272
33.59685	45248
33.60497	42950
33.61310	45472
33.62122	43899
33.62935	39939
33.63747	44828
33.64558	47669
33.65372	46210
33.66183	45351
33.66995	48159
33.67808	51556
33.68620	46833
33.69433	46563
33.70245	49743
33.71057	44771
33.71870	45973
33.72682	43681
33.73495	43968
33.74307	42918
33.75118	43903
33.75932	43399
33.76743	45460
33.77555	42383
33.78368	44017
33.79180	46157
33.79993	44365
33.80805	44142
33.81617	46162
33.82430	45656
33.83242	45294
33.84055	45355
33.84867	51582
33.85678	47830
33.86492	50536
33.87303	51380
33.88117	49179
33.88928	49347
33.89740	46386
33.90553	48872
33.91365	47255
33.92177	47646
33.92990	46802
33.93802	47275
33.94615	46838
33.95427	45579
33.96238	46637
33.97052	46719
33.97863	42778
33.98677	45433
33.99488	44122
34.00300	43453
34.01113	46954
34.01925	47241
34.02738	42195
34.03550	47302
34.04362	46615
34.05175	47453
34.05987	46848
34.06798	48615
34.07612	43902
34.08423	46906
34.09237	50525
34.10048	44917
34.10860	44896
34.11673	45200
34.12485	46875
34.13298	45737
34.14110	49344
34.14922	45631
34.15735	45177
34.16547	43607
34.17358	47864
34.18172	44068
34.18983	42205
34.19797	44282
34.20608	45771
34.21420	48938
34.22233	48437
34.23045	45840
34.23858	44549
34.24670	49496
34.25482	45720
34.26295	49147
34.27107	47910
34.27920	46709
34.28732	45811
34.29543	44329
34.30357	40461
34.31168	43861
34.31980	44990
34.32793	44292
34.33605	46951
34.34418	48969
34.35230	43540
34.36042	47231
34.36855	48386
34.37667	48672
34.38480	43877
34.39292	47309
34.40103	45433
34.40917	42740
34.41728	47906
34.42540	49447
34.43353	47351
34.44165	44415
34.44978	40740
34.45790	45662
34.46602	45180
34.47415	44890
34.48227	41310
34.49040	42438
34.49852	42166
34.50663	44638
34.51477	47105
34.52288	51496
34.53102	62362
34.53913	74347
34.54725	79021
34.55538	88475
34.56350	90835
34.57162	93013
34.57975	100563
34.58787	91234
34.59600	83812
34.60412	83573
34.61223	75673
34.62037	73634
34.62848	68663
34.63662	71060
34.64473	61414
34.65285	65884
34.66098	60513
34.66910	59476
34.67723	60864
34.68535	57908
34.69347	57555
34.70160	56833
34.70972	55434
34.71783	54926
34.72597	54773
34.73408	55534
34.74222	58984
34.75033	55375
34.75845	56971
34.76658	54917
34.77470	54882
34.78283	53313
34.79095	56297
34.79907	53852
34.80720	50531
34.81532	52790
34.82345	49490
34.83157	52915
34.83968	52030
34.84782	49922
34.85593	48942
34.86405	49092
34.87218	49286
34.88030	46745
34.88843	49033
34.89655	48140
34.90467	50718
34.91280	48114
34.92092	53223
34.92905	50984
34.93717	50930
34.94528	53508
34.95342	51744
34.96153	57487
34.96965	54987
34.97778	60700
34.98590	61212
34.99403	56998
35.00215	53479
35.01027	53770
35.01840	56309
35.02652	54636
35.03465	52399
35.04277	52838
35.05088	51936
35.05902	48848
35.06713	50043
35.07527	52658
35.08338	49003
35.09150	49983
35.09963	48199
35.10775	51957
35.11587	49448
35.12400	54575
35.13212	49785
35.14025	49601
35.14837	54157
35.15648	52410
35.16462	60473
35.17273	57372
35.18087	54500
35.18898	53615
35.19710	49924
35.20523	49992
35.21335	49398
35.22147	47268
35.22960	49725
35.23772	44528
35.24585	45447
35.25397	49774
35.26208	53582
35.27022	51178
35.27833	54056
35.28647	53546
35.29458	51252
35.30270	50807
35.31083	48312
35.31895	44765
35.32708	48211
35.33520	52203
35.34332	48751
35.35145	45127
35.35957	46355
35.36768	43817
35.37582	45470
35.38393	47574
35.39207	47060
35.40018	47031
35.40830	52086
35.41643	50048
35.42455	48437
35.43268	51565
35.44080	54568
35.44892	55332
35.45705	57029
35.46517	56906
35.47330	56124
35.48142	58252
35.48953	49303
35.49767	55912
35.50578	55606
35.51390	51042
35.52203	55211
35.53015	56624
35.53828	50752
35.54640	50695
35.55452	49886
35.56265	54722
35.57077	47010
35.57890	47281
35.58702	46274
35.59513	51833
35.60327	50407
35.61138	50830
35.61950	49719
35.62763	47647
35.63575	48551
35.64388	47594
35.65200	48666
35.66012	49982
35.66825	47998
35.67637	55020
35.68450	56294
35.69262	57673
35.70073	53001
35.70887	53833
35.71698	53132
35.72512	52276
35.73323	52548
35.74135	54414
35.74948	55342
35.75760	58976
35.76572	61800
35.77385	62396
35.78197	58968
35.79010	59916
35.79822	55456
35.80633	54773
35.81447	51558
35.82258	53648
35.83072	50699
35.83883	50530
35.84695	49196
35.85508	47179
35.86320	49433
35.87133	53669
35.87945	49314
35.88757	52754
35.89570	49700
35.90382	51603
35.91193	50526
35.92007	51977
35.92818	53331
35.93632	48349
35.94443	50559
35.95255	49020
35.96068	51500
35.96880	47430
35.97693	47810
35.98505	47306
35.99317	53279
36.00130	49462
36.00942	55898
36.01753	57503
36.02567	56695
36.03378	61983
36.04192	62189
36.05003	53428
36.05815	53419
36.06628	53366
36.07440	49172
36.08253	54343
36.09065	55548
36.09877	53056
36.10690	49822
36.11502	52118
36.12315	51497
36.13127	54738
36.13938	54875
36.14752	52173
36.15563	56931
36.16375	61645
36.17188	54859
36.18000	56791
36.18813	53454
36.19625	54520
36.20437	50420
36.21250	53349
36.22062	53559
36.22875	52219
36.23687	48753
36.24498	51245
36.25312	53428
36.26123	48376
36.26935	54369
36.27748	49402
36.28560	53053
36.29373	49102
36.30185	57414
36.30997	56027
36.31810	66273
36.32622	67304
36.33435	63382
36.34247	61381
36.35058	58453
36.35872	56308
36.36683	53747
36.37497	50445
36.38308	56083
36.39120	53814
36.39933	55739
36.40745	59252
36.41557	56712
36.42370	55305
36.43182	57952
36.43995	54884
36.44807	55440
36.45618	55938
36.46432	51824
36.47243	51880
36.48057	48196
36.48868	49175
36.49680	51449
36.50493	51088
36.51305	52351
36.52118	52427
36.52930	53303
36.53742	55053
36.54555	49627
36.55367	54280
36.56178	50674
36.56992	57906
36.57803	48526
36.58617	52988
36.59428	55128
36.60240	50203
36.61053	52582
36.61865	53199
36.62678	54200
36.63490	54763
36.64302	54030
36.65115	56359
36.65927	56733
36.66738	57433
36.67552	59836
36.68363	57053
36.69177	59235
36.69988	57877
36.70800	55593
36.71613	56957
36.72425	60022
36.73238	57204
36.74050	65529
36.74862	57201
36.75675	60274
36.76487	56221
36.77300	62449
36.78112	57877
36.78923	57631
36.79737	65187
36.80548	56430
36.81360	53309
36.82173	57149
36.82985	57481
36.83798	53289
36.84610	56520
36.85422	56521
36.86235	57236
36.87047	54088
36.87860	55197
36.88672	58113
36.89483	60094
36.90297	56443
36.91108	60286
36.91922	59344
36.92733	56873
36.93545	60750
36.94358	61208
36.95170	74048
36.95982	80451
36.96795	86503
36.97607	86189
36.98420	89511
36.99232	79606
37.00043	71109
37.00857	69439
37.01668	66151
37.02482	65493
37.03293	62127
37.04105	60504
37.04918	58353
37.05730	58008
37.06542	60751
37.07355	60914
37.08167	64533
37.08980	65106
37.09792	61059
37.10603	63389
37.11417	66809
37.12228	67971
37.13042	65850
37.13853	58069
37.14665	61235
37.15478	61196
37.16290	60076
37.17103	60702
37.17915	60601
37.18727	61851
37.19540	63333
37.20352	58813
37.21163	62363
37.21977	59738
37.22788	63298
37.23602	61997
37.24413	60521
37.25225	57078
37.26038	55433
37.26850	55665
37.27663	60399
37.28475	57391
37.29287	53401
37.30100	61272
37.30912	60866
37.31725	62902
37.32537	63376
37.33348	67867
37.34162	70931
37.34973	76186
37.35785	88400
37.36598	86064
37.37410	88357
37.38223	86097
37.39035	88686
37.39847	81422
37.40660	83287
37.41472	74908
37.42285	75830
37.43097	75975
37.43908	73980
37.44722	71324
37.45533	72049
37.46345	73150
37.47158	70160
37.47970	69903
37.48783	72919
