Z:\data\JTB-E02\BACandBLUE\JTB-E02-197-15.D Thu Feb 21 16:22:01 2019
Start of data points
2.09517,71503
2.10330,79509
2.11142,81501
2.11953,81537
2.12767,76097
2.13578,75146
2.14392,73477
2.15203,72089
2.16015,72075
2.16828,71171
2.17640,63631
2.18453,64672
2.19265,65760
2.20077,66560
2.20890,63901
2.21702,65061
2.22515,64526
2.23327,63771
2.24138,60702
2.24952,63578
2.25763,59865
2.26575,105254
2.27388,704547
2.28200,1928297
2.29013,1284111
2.29825,543416
2.30637,419664
2.31450,356751
2.32262,322177
2.33075,263267
2.33887,253173
2.34698,231780
2.35512,201106
2.36323,191626
2.37135,182166
2.37948,168958
2.38760,168237
2.39573,152942
2.40385,147739
2.41197,147381
2.42010,144512
2.42822,157617
2.43635,139214
2.44447,132706
2.45258,137183
2.46072,127054
2.46883,124677
2.47697,119287
2.48508,115744
2.49320,124429
2.50133,133994
2.50945,125743
2.51757,110693
2.52570,114971
2.53382,107717
2.54195,116325
2.55007,117426
2.55818,200812
2.56632,459952
2.57443,454605
2.58257,280664
2.59068,226753
2.59880,204939
2.60693,183763
2.61505,189900
2.62318,183255
2.63130,169161
2.63942,156507
2.64755,150496
2.65567,136729
2.66378,152012
2.67192,144410
2.68003,141971
2.68817,142603
2.69628,140396
2.70440,129079
2.71253,125133
2.72065,120715
2.72878,123311
2.73690,136212
2.74502,137538
2.75315,128340
2.76127,114314
2.76938,113316
2.77752,111751
2.78563,113952
2.79377,120704
2.80188,142118
2.81000,241288
2.81813,342202
2.82625,282275
2.83438,239339
2.84250,242267
2.85062,206252
2.85875,207806
2.86687,256736
2.87500,313198
2.88312,261016
2.89123,257183
2.89937,309969
2.90748,268196
2.91560,213144
2.92373,173922
2.93185,165422
2.93998,165454
2.94810,153799
2.95622,142017
2.96435,118860
2.97247,118465
2.98060,113515
2.98872,109026
2.99683,109696
3.00497,173699
3.01308,463390
3.02122,659126
3.02933,472159
3.03745,281887
3.04558,219029
3.05370,205739
3.06182,241600
3.06995,257165
3.07807,252697
3.08620,241888
3.09432,322842
3.10243,459185
3.11057,971391
3.11868,2014589
3.12682,2268975
3.13493,1881067
3.14305,1693417
3.15118,1387546
3.15930,1087870
3.16742,931419
3.17555,824034
3.18367,687254
3.19180,604257
3.19992,575404
3.20803,511745
3.21617,447624
3.22428,396667
3.23242,389067
3.24053,373461
3.24865,340279
3.25678,304473
3.26490,273563
3.27303,252041
3.28115,242559
3.28927,260889
3.29740,414029
3.30552,1316010
3.31363,3839138
3.32177,6827875
3.32988,7319025
3.33802,5515258
3.34613,3779792
3.35425,2788653
3.36238,2187303
3.37050,1790111
3.37863,1583368
3.38675,1497103
3.39487,1536526
3.40300,1538245
3.41112,1521012
3.41925,1476554
3.42737,1418481
3.43548,1255530
3.44362,1121078
3.45173,968548
3.45985,880625
3.46798,905483
3.47610,1216203
3.48423,1595977
3.49235,1545505
3.50047,1348499
3.50860,1303934
3.51672,1181732
3.52485,1085514
3.53297,1119797
3.54108,1158806
3.54922,1052965
3.55733,843799
3.56545,682623
3.57358,575729
3.58170,504621
3.58983,457236
3.59795,409521
3.60607,383493
3.61420,381024
3.62232,390866
3.63045,412623
3.63857,406488
3.64668,399033
3.65482,390849
3.66293,373805
3.67107,397378
3.67918,544053
3.68730,792515
3.69543,893236
3.70355,877142
3.71167,914366
3.71980,974021
3.72792,884936
3.73605,732350
3.74417,637119
3.75228,575661
3.76042,537969
3.76853,461486
3.77667,426258
3.78478,407792
3.79290,467363
3.80103,714368
3.80915,1044128
3.81727,1302706
3.82540,1906526
3.83352,2383066
3.84165,1984844
3.84977,1426591
3.85788,1118135
3.86602,954735
3.87413,825905
3.88227,722154
3.89038,672975
3.89850,622248
3.90663,590243
3.91475,571700
3.92288,560901
3.93100,543968
3.93912,536666
3.94725,495139
3.95537,447838
3.96348,433385
3.97162,413747
3.97973,431343
3.98787,439887
3.99598,424826
4.00410,414986
4.01223,420468
4.02035,465049
4.02848,504518
4.03660,560117
4.04472,587952
4.05285,619171
4.06097,619661
4.06910,578552
4.07722,520929
4.08533,434818
4.09347,368957
4.10158,341178
4.10970,361639
4.11783,447556
4.12595,533899
4.13408,599832
4.14220,609207
4.15032,577201
4.15845,581624
4.16657,721356
4.17470,872457
4.18282,914054
4.19093,840651
4.19907,642051
4.20718,515176
4.21530,432284
4.22343,401154
4.23155,486021
4.23968,777550
4.24780,1114261
4.25592,1106067
4.26405,865319
4.27217,675992
4.28030,585909
4.28842,537226
4.29653,464101
4.30467,412814
4.31278,372771
4.32092,339492
4.32903,313223
4.33715,302862
4.34528,302346
4.35340,287860
4.36152,274986
4.36965,259111
4.37777,262936
4.38590,246945
4.39402,243981
4.40213,235548
4.41027,232672
4.41838,256409
4.42652,259435
4.43463,255903
4.44275,252158
4.45088,253117
4.45900,246179
4.46713,250620
4.47525,256928
4.48337,257379
4.49150,273088
4.49962,283938
4.50773,313387
4.51587,377766
4.52398,459014
4.53212,463441
4.54023,450263
4.54835,404839
4.55648,389397
4.56460,382197
4.57273,372845
4.58085,366774
4.58897,365143
4.59710,368046
4.60522,362245
4.61333,341317
4.62147,325434
4.62958,342351
4.63772,345510
4.64583,348918
4.65395,334253
4.66208,320560
4.67020,310044
4.67833,327957
4.68645,356395
4.69457,346951
4.70270,291953
4.71082,254484
4.71895,236485
4.72707,226042
4.73518,211783
4.74332,197536
4.75143,192096
4.75955,192403
4.76768,198566
4.77580,219669
4.78393,231811
4.79205,245657
4.80017,240489
4.80830,230268
4.81642,223583
4.82455,218144
4.83267,223281
4.84078,241218
4.84892,257666
4.85703,255936
4.86515,255703
4.87328,253604
4.88140,252394
4.88953,258208
4.89765,294784
4.90577,330254
4.91390,335306
4.92202,301193
4.93015,261772
4.93827,229570
4.94638,221719
4.95452,255958
4.96263,466552
4.97077,982772
4.97888,1801099
4.98700,2489881
4.99513,2583624
5.00325,2193927
5.01137,1678419
5.01950,1266005
5.02762,1010958
5.03575,854919
5.04387,757116
5.05198,682181
5.06012,628231
5.06823,585032
5.07637,568152
5.08448,530006
5.09260,489618
5.10073,464925
5.10885,426119
5.11698,402451
5.12510,376335
5.13322,385307
5.14135,368966
5.14947,368242
5.15758,383773
5.16572,397019
5.17383,443372
5.18197,482413
5.19008,536558
5.19820,618777
5.20633,725068
5.21445,801702
5.22258,736175
5.23070,575001
5.23882,439062
5.24695,375334
5.25507,346074
5.26320,327938
5.27132,310754
5.27943,299919
5.28757,290862
5.29568,293102
5.30380,282374
5.31193,270588
5.32005,272453
5.32818,280681
5.33630,297507
5.34442,334551
5.35255,369898
5.36067,394150
5.36880,421543
5.37692,406193
5.38503,416519
5.39317,404231
5.40128,403558
5.40940,337835
5.41753,317199
5.42565,297920
5.43378,274880
5.44190,273314
5.45002,274034
5.45815,306625
5.46627,342502
5.47440,361441
5.48252,368474
5.49063,368553
5.49877,338941
5.50688,335219
5.51502,330938
5.52313,349958
5.53125,375924
5.53938,403714
5.54750,405244
5.55562,357612
5.56375,316656
5.57187,282490
5.58000,268565
5.58812,267690
5.59623,281774
5.60437,328682
5.61248,387081
5.62062,411598
5.62873,403090
5.63685,365952
5.64498,332163
5.65310,317240
5.66122,301923
5.66935,280836
5.67747,277245
5.68560,259238
5.69372,272939
5.70183,274022
5.70997,298081
5.71808,317020
5.72622,318252
5.73433,300830
5.74245,287532
5.75058,267837
5.75870,262511
5.76683,261280
5.77495,253428
5.78307,245099
5.79120,247938
5.79932,274880
5.80743,278519
5.81557,274661
5.82368,259303
5.83182,249975
5.83993,234073
5.84805,242260
5.85618,235183
5.86430,239389
5.87243,245163
5.88055,221496
5.88867,208121
5.89680,203164
5.90492,180208
5.91303,178910
5.92117,183539
5.92928,194267
5.93742,209557
5.94553,200445
5.95365,203340
5.96178,201818
5.96990,207830
5.97803,224557
5.98615,237420
5.99427,236176
6.00240,231227
6.01052,247112
6.01865,229308
6.02677,200944
6.03488,189133
6.04302,186926
6.05113,174869
6.05925,174789
6.06738,191664
6.07550,196310
6.08363,210639
6.09175,217963
6.09987,212846
6.10800,202521
6.11612,181832
6.12425,169899
6.13237,165354
6.14048,163872
6.14862,158207
6.15673,163018
6.16487,167561
6.17298,179777
6.18110,213909
6.18923,232813
6.19735,245413
6.20547,249390
6.21360,234302
6.22172,225079
6.22985,210523
6.23797,209109
6.24608,211624
6.25422,210534
6.26233,217290
6.27047,236614
6.27858,243039
6.28670,240889
6.29483,246045
6.30295,248368
6.31108,235756
6.31920,223660
6.32732,212755
6.33545,205420
6.34357,220919
6.35168,219420
6.35982,225376
6.36793,227256
6.37607,231640
6.38418,244124
6.39230,246760
6.40043,247253
6.40855,247752
6.41668,256411
6.42480,273460
6.43292,260103
6.44105,265843
6.44917,263779
6.45728,247261
6.46542,261212
6.47353,283287
6.48167,302533
6.48978,286128
6.49790,281862
6.50603,272134
6.51415,268146
6.52228,275915
6.53040,277499
6.53852,266385
6.54665,264034
6.55477,266847
6.56290,270215
6.57102,271658
6.57913,277459
6.58727,268475
6.59538,263120
6.60350,261792
6.61163,267226
6.61975,266784
6.62788,274952
6.63600,282057
6.64412,300135
6.65225,304825
6.66037,328948
6.66850,462897
6.67662,898587
6.68473,1706961
6.69287,2553289
6.70098,2726565
6.70910,2203087
6.71723,1529494
6.72535,1095167
6.73348,913170
6.74160,798543
6.74972,726572
6.75785,642392
6.76597,566085
6.77410,521856
6.78222,493061
6.79033,466327
6.79847,432610
6.80658,423052
6.81472,404005
6.82283,396173
6.83095,381896
6.83908,381284
6.84720,363392
6.85532,373958
6.86345,354390
6.87157,369147
6.87970,361355
6.88782,343356
6.89593,337043
6.90407,337967
6.91218,321391
6.92032,321519
6.92843,334435
6.93655,332148
6.94468,335980
6.95280,344496
6.96093,335080
6.96905,326794
6.97717,337794
6.98530,346876
6.99342,350784
7.00153,367419
7.00967,366888
7.01778,349774
7.02592,337778
7.03403,335949
7.04215,329020
7.05028,373079
7.05840,444324
7.06653,486415
7.07465,455127
7.08277,388503
7.09090,357280
7.09902,343675
7.10713,356157
7.11527,352700
7.12338,355662
7.13152,361717
7.13963,272272
7.14775,238302
7.15588,206159
7.16400,199442
7.17213,198675
7.18025,188194
7.18837,182353
7.19650,177630
7.20462,176243
7.21275,175799
7.22087,165352
7.22898,159724
7.23712,156101
7.24523,149521
7.25335,138970
7.26148,141399
7.26960,131482
7.27773,136234
7.28585,127850
7.29397,130482
7.30210,129225
7.31022,135599
7.31835,134980
7.32647,159067
7.33458,149244
7.34272,160903
7.35083,176861
7.35897,188387
7.36708,190462
7.37520,185551
7.38333,174287
7.39145,158085
7.39957,143345
7.40770,145066
7.41582,126523
7.42395,129371
7.43207,130214
7.44018,134784
7.44832,137217
7.45643,136944
7.46457,138647
7.47268,137263
7.48080,135104
7.48893,130214
7.49705,129354
7.50517,122122
7.51330,137396
7.52142,128669
7.52955,134999
7.53767,135778
7.54578,131905
7.55392,132836
7.56203,135403
7.57017,136386
7.57828,132519
7.58640,140040
7.59453,139103
7.60265,137803
7.61078,139751
7.61890,128866
7.62702,120708
7.63515,118614
7.64327,116039
7.65138,116467
7.65952,111086
7.66763,105128
7.67577,105981
7.68388,109126
7.69200,100144
7.70013,100656
7.70825,97092
7.71638,92460
7.72450,99585
7.73262,100345
7.74075,101854
7.74887,107268
7.75698,102906
7.76512,111836
7.77323,110041
7.78137,114408
7.78948,122871
7.79760,119289
7.80573,121968
7.81385,119305
7.82198,119583
7.83010,118827
7.83822,106898
7.84635,108735
7.85447,102190
7.86260,97333
7.87072,104703
7.87883,123771
7.88697,148537
7.89508,169439
7.90320,173479
7.91133,174450
7.91945,157672
7.92758,142844
7.93570,143087
7.94382,132268
7.95195,155314
7.96007,185842
7.96820,232190
7.97632,239681
7.98443,236222
7.99257,204859
8.00068,181657
8.00882,165915
8.01693,157368
8.02505,154360
8.03318,140677
8.04130,134195
8.04942,117395
8.05755,114651
8.06567,106592
8.07380,115972
8.08192,121631
8.09003,146295
8.09817,164217
8.10628,162180
8.11442,147728
8.12253,133743
8.13065,126510
8.13878,113336
8.14690,113307
8.15502,109006
8.16315,105197
8.17127,108922
8.17940,100522
8.18752,95385
8.19563,88669
8.20377,87537
8.21188,89470
8.22002,82288
8.22813,90607
8.23625,89107
8.24438,101457
8.25250,134794
8.26063,185572
8.26875,234366
8.27687,273403
8.28500,264900
8.29312,220303
8.30123,183501
8.30937,150523
8.31748,124042
8.32562,120036
8.33373,105822
8.34185,113672
8.34998,106125
8.35810,111373
8.36623,107215
8.37435,109878
8.38247,124648
8.39060,137887
8.39872,127038
8.40685,122247
8.41497,103729
8.42308,102474
8.43122,99084
8.43933,94284
8.44745,94473
8.45558,87589
8.46370,85699
8.47183,86180
8.47995,88040
8.48807,85343
8.49620,91037
8.50432,88368
8.51245,87367
8.52057,81611
8.52868,80015
8.53682,81211
8.54493,84308
8.55305,84407
8.56118,90305
8.56930,99004
8.57743,112888
8.58555,130695
8.59367,139303
8.60180,141970
8.60992,151717
8.61805,224924
8.62617,470588
8.63428,1188240
8.64242,2328351
8.65053,3432582
8.65867,3871938
8.66678,3370234
8.67490,2438428
8.68303,1745675
8.69115,1283810
8.69927,982679
8.70740,698168
8.71552,429548
8.72365,281465
8.73177,198067
8.73988,185700
8.74802,207574
8.75613,268938
8.76427,400340
8.77238,569816
8.78050,711921
8.78863,783578
8.79675,694440
8.80488,551868
8.81300,432129
8.82112,356856
8.82925,282859
8.83737,248007
8.84548,214255
8.85362,197816
8.86173,193914
8.86987,178216
8.87798,168895
8.88610,157331
8.89423,147716
8.90235,135464
8.91048,136484
8.91860,142860
8.92672,157925
8.93485,170570
8.94297,181080
8.95108,180369
8.95922,173215
8.96733,180367
8.97547,173232
8.98358,165909
8.99170,167024
8.99983,168140
9.00795,168969
9.01608,159190
9.02420,161987
9.03232,148203
9.04045,145677
9.04857,149076
9.05670,144569
9.06482,147987
9.07293,145927
9.08107,143776
9.08918,141863
9.09730,153018
9.10543,138504
9.11355,140015
9.12168,141122
9.12980,134417
9.13792,128264
9.14605,128937
9.15417,129808
9.16230,126806
9.17042,127374
9.17853,125703
9.18667,127162
9.19478,121922
9.20290,124034
9.21103,122262
9.21915,121445
9.22728,119291
9.23540,120587
9.24352,117242
9.25165,113291
9.25977,112834
9.26790,110887
9.27602,112633
9.28413,115953
9.29227,105940
9.30038,117008
9.30852,111425
9.31663,116393
9.32475,130246
9.33288,131316
9.34100,131767
9.34912,129696
9.35725,124705
9.36537,117272
9.37350,109596
9.38162,107138
9.38973,108478
9.39787,101597
9.40598,106108
9.41412,102275
9.42223,102057
9.43035,101232
9.43848,96250
9.44660,102270
9.45473,99310
9.46285,101307
9.47097,114286
9.47910,122294
9.48722,131662
9.49533,156267
9.50347,176915
9.51158,169602
9.51972,170768
9.52783,158579
9.53595,164790
9.54408,132398
9.55220,119134
9.56033,116209
9.56845,106272
9.57657,100068
9.58470,87169
9.59282,87888
9.60093,80502
9.60907,80639
9.61718,84921
9.62532,80694
9.63343,81132
9.64155,82141
9.64968,80151
9.65780,76086
9.66593,76027
9.67405,72728
9.68217,75678
9.69030,72362
9.69842,70406
9.70655,67060
9.71467,67408
9.72278,68682
9.73092,66486
9.73903,63413
9.74715,65437
9.75528,66019
9.76340,66526
9.77153,65173
9.77965,66474
9.78777,64598
9.79590,64271
9.80402,57875
9.81215,63490
9.82027,69520
9.82838,74958
9.83652,80869
9.84463,83472
9.85277,90939
9.86088,88469
9.86900,94116
9.87713,102222
9.88525,101019
9.89337,95802
9.90150,88585
9.90962,79842
9.91775,74445
9.92587,73844
9.93398,70082
9.94212,70941
9.95023,73104
9.95837,75311
9.96648,80708
9.97460,77857
9.98273,84490
9.99085,91750
9.99897,97199
10.00710,94418
10.01522,95042
10.02335,80826
10.03147,72886
10.03958,73168
10.04772,65587
10.05583,62219
10.06397,63472
10.07208,66893
10.08020,59972
10.08833,62182
10.09645,61793
10.10458,60334
10.11270,59676
10.12082,55317
10.12895,62542
10.13707,61852
10.14518,59720
10.15332,61669
10.16143,63048
10.16957,67889
10.17768,64421
10.18580,58929
10.19393,62267
10.20205,63844
10.21018,65898
10.21830,62591
10.22642,61879
10.23455,62118
10.24267,65394
10.25078,68406
10.25892,65904
10.26703,72945
10.27517,72389
10.28328,77962
10.29140,80481
10.29953,81435
10.30765,82712
10.31578,78737
10.32390,97033
10.33202,158248
10.34015,282045
10.34827,437551
10.35640,612124
10.36452,782426
10.37263,1109045
10.38077,1643560
10.38888,2213931
10.39700,2478850
10.40513,2170009
10.41325,1494026
10.42138,868394
10.42950,468137
10.43762,265002
10.44575,169027
10.45387,134730
10.46200,112405
10.47012,101084
10.47823,104720
10.48637,95391
10.49448,105841
10.50262,106155
10.51073,106437
10.51885,100986
10.52698,102954
10.53510,95545
10.54322,85878
10.55135,83975
10.55947,79488
10.56760,76785
10.57572,77174
10.58383,82097
10.59197,84078
10.60008,84012
10.60822,87079
10.61633,89314
10.62445,92566
10.63258,90844
10.64070,88659
10.64883,93678
10.65695,84153
10.66507,76441
10.67320,74221
10.68132,70847
10.68943,68854
10.69757,74762
10.70568,69238
10.71382,69547
10.72193,71997
10.73005,68845
10.73818,67074
10.74630,67696
10.75443,61780
10.76255,57282
10.77067,63294
10.77880,60083
10.78692,64656
10.79503,63565
10.80317,66214
10.81128,63215
10.81942,64904
10.82753,63437
10.83565,61107
10.84378,61124
10.85190,59697
10.86003,57960
10.86815,55416
10.87627,56017
10.88440,59114
10.89252,56541
10.90065,55911
10.90877,59223
10.91688,58951
10.92502,56036
10.93313,59531
10.94125,61720
10.94938,58326
10.95750,56110
10.96563,55067
10.97375,56254
10.98187,53747
10.99000,48460
10.99812,48535
11.00625,54218
11.01437,50311
11.02248,50498
11.03062,54505
11.03873,49901
11.04685,47398
11.05498,53263
11.06310,49385
11.07123,50460
11.07935,51975
11.08747,48209
11.09560,49683
11.10372,47478
11.11185,47133
11.11997,46896
11.12808,50111
11.13622,47615
11.14433,49647
11.15247,54160
11.16058,47845
11.16870,55461
11.17683,63264
11.18495,58090
11.19307,54716
11.20120,56896
11.20932,53638
11.21745,46813
11.22557,53288
11.23368,53696
11.24182,49539
11.24993,54640
11.25807,49922
11.26618,51241
11.27430,54800
11.28243,54933
11.29055,59330
11.29868,55972
11.30680,51331
11.31492,47212
11.32305,52469
11.33117,51066
11.33928,50068
11.34742,45949
11.35553,48479
11.36367,50487
11.37178,47904
11.37990,45966
11.38803,47312
11.39615,44845
11.40428,45773
11.41240,48222
11.42052,45556
11.42865,43660
11.43677,44552
11.44488,49054
11.45302,41575
11.46113,43008
11.46927,44231
11.47738,43807
11.48550,44151
11.49363,45222
11.50175,47426
11.50988,45443
11.51800,51947
11.52612,61023
11.53425,67867
11.54237,71691
11.55050,65007
11.55862,60197
11.56673,59092
11.57487,54132
11.58298,60733
11.59110,65705
11.59923,60955
11.60735,59912
11.61548,61271
11.62360,53430
11.63172,50909
11.63985,50458
11.64797,45846
11.65610,48657
11.66422,50962
11.67233,53979
11.68047,56746
11.68858,74452
11.69672,81433
11.70483,96977
11.71295,100281
11.72108,92781
11.72920,81126
11.73732,65259
11.74545,61701
11.75357,51373
11.76170,48938
11.76982,45460
11.77793,47932
11.78607,49588
11.79418,51171
11.80232,46594
11.81043,51979
11.81855,50691
11.82668,50942
11.83480,50334
11.84292,49497
11.85105,53519
11.85917,49169
11.86730,47827
11.87542,46937
11.88353,49045
11.89167,46989
11.89978,46682
11.90792,46983
11.91603,48209
11.92415,49378
11.93228,46661
11.94040,47899
11.94853,45398
11.95665,46374
11.96477,47902
11.97290,51330
11.98102,45954
11.98913,44316
11.99727,43913
12.00538,47142
12.01352,44091
12.02163,47418
12.02975,49809
12.03788,53624
12.04600,58027
12.05413,59929
12.06225,62446
12.07037,61623
12.07850,54126
12.08662,52610
12.09473,51848
12.10287,53303
12.11098,48568
12.11912,53986
12.12723,50890
12.13535,49680
12.14348,44403
12.15160,54011
12.15973,45007
12.16785,48781
12.17597,44273
12.18410,44193
12.19222,46138
12.20035,46672
12.20847,43269
12.21658,43993
12.22472,43033
12.23283,41648
12.24095,44150
12.24908,41294
12.25720,43899
12.26533,45156
12.27345,45920
12.28157,45486
12.28970,41721
12.29782,38825
12.30595,45592
12.31407,50359
12.32218,44677
12.33032,45278
12.33843,41102
12.34657,45412
12.35468,42788
12.36280,40014
12.37093,46120
12.37905,47927
12.38717,48209
12.39530,48643
12.40342,48662
12.41155,52797
12.41967,56009
12.42778,55939
12.43592,60829
12.44403,59037
12.45217,50712
12.46028,54369
12.46840,47067
12.47653,50750
12.48465,49341
12.49277,44419
12.50090,44385
12.50902,44279
12.51715,43379
12.52527,41190
12.53338,46500
12.54152,41364
12.54963,43810
12.55777,42063
12.56588,46441
12.57400,45440
12.58213,41541
12.59025,40245
12.59838,45663
12.60650,48652
12.61462,60721
12.62275,72707
12.63087,84116
12.63898,77648
12.64712,63005
12.65523,55552
12.66337,51655
12.67148,50736
12.67960,44610
12.68773,47140
12.69585,40738
12.70398,41792
12.71210,44764
12.72022,47637
12.72835,44524
12.73647,51336
12.74460,49249
12.75272,51719
12.76083,47004
12.76897,45136
12.77708,45235
12.78520,46479
12.79333,38050
12.80145,40124
12.80958,34952
12.81770,40377
12.82582,42528
12.83395,37287
12.84207,44395
12.85020,39926
12.85832,42168
12.86643,38990
12.87457,42012
12.88268,41372
12.89080,39957
12.89893,38187
12.90705,37039
12.91518,43477
12.92330,40573
12.93142,43602
12.93955,45351
12.94767,39773
12.95580,39574
12.96392,45499
12.97203,38892
12.98017,39504
12.98828,42355
12.99642,43315
13.00453,40422
13.01265,40982
13.02078,40763
13.02890,38693
13.03702,44696
13.04515,48961
13.05327,46719
13.06140,41414
13.06952,50743
13.07763,39110
13.08577,40180
13.09388,43343
13.10202,38072
13.11013,43829
13.11825,42492
13.12638,38465
13.13450,40961
13.14262,41997
13.15075,43869
13.15887,43424
13.16700,41220
13.17512,39347
13.18323,39384
13.19137,44117
13.19948,39930
13.20762,42459
13.21573,47610
13.22385,42756
13.23198,45745
13.24010,44754
13.24823,39762
13.25635,44326
13.26447,41104
13.27260,39139
13.28072,42350
13.28883,42824
13.29697,41125
13.30508,38509
13.31322,44395
13.32133,41379
13.32945,39499
13.33758,36111
13.34570,37628
13.35383,35316
13.36195,37597
13.37007,38062
13.37820,40881
13.38632,36647
13.39445,41585
13.40257,40416
13.41068,38329
13.41882,36079
13.42693,37373
13.43505,38914
13.44318,37221
13.45130,36304
13.45943,36433
13.46755,35381
13.47567,38594
13.48380,36204
13.49192,37836
13.50005,42242
13.50817,36721
13.51628,37750
13.52442,37688
13.53253,39995
13.54065,42303
13.54878,38002
13.55690,34682
13.56503,41758
13.57315,40228
13.58127,42478
13.58940,43078
13.59752,37463
13.60565,39426
13.61377,38743
13.62188,37391
13.63002,39665
13.63813,42046
13.64627,38853
13.65438,43225
13.66250,42074
13.67063,38450
13.67875,37302
13.68687,37010
13.69500,35610
13.70312,35375
13.71125,38252
13.71937,33932
13.72748,35746
13.73562,34808
13.74373,37167
13.75187,39597
13.75998,40884
13.76810,37352
13.77623,42095
13.78435,55664
13.79248,75235
13.80060,112573
13.80872,129701
13.81685,149893
13.82497,138487
13.83308,130573
13.84122,107697
13.84933,91546
13.85747,68583
13.86558,61975
13.87370,57623
13.88183,51223
13.88995,51281
13.89808,48266
13.90620,47839
13.91432,43888
13.92245,43765
13.93057,45338
13.93868,47223
13.94682,46496
13.95493,46298
13.96307,46686
13.97118,46563
13.97930,63996
13.98743,75085
13.99555,116499
14.00368,157845
14.01180,216028
14.01992,245615
14.02805,246646
14.03617,214933
14.04430,167591
14.05242,133610
14.06053,101361
14.06867,90241
14.07678,81955
14.08490,70666
14.09303,70199
14.10115,65137
14.10928,65311
14.11740,65173
14.12552,57981
14.13365,61231
14.14177,60589
14.14990,62856
14.15802,67486
14.16613,54604
14.17427,59600
14.18238,58564
14.19052,53578
14.19863,59621
14.20675,73296
14.21488,107519
14.22300,145339
14.23112,181134
14.23925,206116
14.24737,216053
14.25550,188233
14.26362,181096
14.27173,157713
14.27987,148427
14.28798,131866
14.29612,110830
14.30423,107346
14.31235,98384
14.32048,93380
14.32860,95261
14.33672,83145
14.34485,79319
14.35297,73294
14.36110,77829
14.36922,72075
14.37733,67041
14.38547,65352
14.39358,58192
14.40172,56169
14.40983,55164
14.41795,55499
14.42608,48042
14.43420,50505
14.44233,49638
14.45045,45709
14.45857,43993
14.46670,50040
14.47482,45195
14.48293,44929
14.49107,43434
14.49918,37970
14.50732,40908
14.51543,41458
14.52355,44272
14.53168,42120
14.53980,38774
14.54793,44067
14.55605,42228
14.56417,45689
14.57230,45439
14.58042,45514
14.58853,43922
14.59667,40518
14.60478,40191
14.61292,37364
14.62103,42689
14.62915,37961
14.63728,38098
14.64540,35244
14.65353,39123
14.66165,41166
14.66977,37604
14.67790,38403
14.68602,41922
14.69415,38574
14.70227,36212
14.71038,40867
14.71852,37795
14.72663,38808
14.73475,40962
14.74288,38063
14.75100,37879
14.75913,35609
14.76725,39696
14.77537,38383
14.78350,36043
14.79162,35120
14.79975,40711
14.80787,42108
14.81598,37219
14.82412,43137
14.83223,48666
14.84037,54322
14.84848,62333
14.85660,68025
14.86473,69252
14.87285,68920
14.88097,63992
14.88910,61711
14.89722,55389
14.90535,55593
14.91347,55791
14.92158,55965
14.92972,56903
14.93783,53920
14.94597,52844
14.95408,52498
14.96220,54151
14.97033,52370
14.97845,53019
14.98657,47508
14.99470,47643
15.00282,52344
15.01095,48995
15.01907,46664
15.02718,49702
15.03532,52792
15.04343,54835
15.05157,49617
15.05968,46684
15.06780,46660
15.07593,45256
15.08405,50612
15.09218,47217
15.10030,47613
15.10842,39653
15.11655,48015
15.12467,45421
15.13278,46956
15.14092,45674
15.14903,50187
15.15717,46462
15.16528,47470
15.17340,42823
15.18153,42349
15.18965,43605
15.19778,40507
15.20590,40821
15.21402,40861
15.22215,44547
15.23027,42004
15.23840,41351
15.24652,42232
15.25463,39074
15.26277,41210
15.27088,41169
15.27900,41896
15.28713,38467
15.29525,40046
15.30338,37941
15.31150,42178
15.31962,34850
15.32775,41973
15.33587,37003
15.34400,40197
15.35212,38564
15.36023,39942
15.36837,39926
15.37648,42478
15.38460,40490
15.39273,39836
15.40085,40112
15.40898,37103
15.41710,39219
15.42522,36017
15.43335,36245
15.44147,34900
15.44960,38230
15.45772,36239
15.46583,38018
15.47397,41039
15.48208,37683
15.49022,37773
15.49833,40375
15.50645,45416
15.51458,51096
15.52270,63535
15.53082,79021
15.53895,101239
15.54707,103903
15.55520,97419
15.56332,83216
15.57143,70123
15.57957,55150
15.58768,47734
15.59582,42716
15.60393,42663
15.61205,38649
15.62018,40422
15.62830,40045
15.63642,38381
15.64455,38763
15.65267,38514
15.66080,39239
15.66892,40428
15.67703,41272
15.68517,38817
15.69328,41450
15.70142,35661
15.70953,36568
15.71765,43454
15.72578,36250
15.73390,39006
15.74203,39907
15.75015,37280
15.75827,39386
15.76640,40855
15.77452,46909
15.78263,37920
15.79077,42162
15.79888,45782
15.80702,45042
15.81513,49231
15.82325,47061
15.83138,45586
15.83950,46290
15.84763,43282
15.85575,48944
15.86387,39391
15.87200,42596
15.88012,42431
15.88825,45032
15.89637,42803
15.90448,40323
15.91262,43760
15.92073,42132
15.92885,38192
15.93698,46813
15.94510,40639
15.95323,41577
15.96135,42187
15.96947,42970
15.97760,43625
15.98572,46971
15.99385,55758
16.00197,57537
16.01008,58664
16.01822,66276
16.02633,62517
16.03447,60098
16.04258,55144
16.05070,49664
16.05883,47413
16.06695,42032
16.07507,43879
16.08320,45180
16.09132,43164
16.09945,44367
16.10757,44942
16.11568,42889
16.12382,46850
16.13193,50498
16.14007,46590
16.14818,39317
16.15630,45293
16.16443,43493
16.17255,41634
16.18067,42461
16.18880,40126
16.19692,40396
16.20505,41231
16.21317,44695
16.22128,41993
16.22942,39561
16.23753,42606
16.24567,41702
16.25378,41572
16.26190,40686
16.27003,40335
16.27815,43046
16.28628,42188
16.29440,44258
16.30252,40704
16.31065,43140
16.31877,43304
16.32688,40848
16.33502,38566
16.34313,41576
16.35127,41005
16.35938,39010
16.36750,44975
16.37563,46355
16.38375,51443
16.39188,61511
16.40000,64916
16.40812,72312
16.41625,70079
16.42437,65478
16.43248,60824
16.44062,56058
16.44873,44976
16.45687,43267
16.46498,43204
16.47310,47428
16.48123,42259
16.48935,45310
16.49748,46709
16.50560,45935
16.51372,45471
16.52185,43643
16.52997,45435
16.53810,41634
16.54622,45396
16.55433,45106
16.56247,42655
16.57058,44053
16.57870,44119
16.58683,39224
16.59495,40511
16.60308,40339
16.61120,42246
16.61932,46832
16.62745,49989
16.63557,50215
16.64370,47123
16.65182,49372
16.65993,49141
16.66807,44708
16.67618,43851
16.68430,43791
16.69243,44037
16.70055,43892
16.70868,43601
16.71680,39286
16.72492,41445
16.73305,38044
16.74117,44413
16.74930,37697
16.75742,37915
16.76553,36952
16.77367,33955
16.78178,37453
16.78992,38975
16.79803,38571
16.80615,38652
16.81428,37185
16.82240,38288
16.83052,41869
16.83865,34486
16.84677,37437
16.85490,34157
16.86302,40465
16.87113,35452
16.87927,32930
16.88738,35657
16.89552,35509
16.90363,37895
16.91175,40234
16.91988,34251
16.92800,35792
16.93613,34259
16.94425,36453
16.95237,35528
16.96050,35842
16.96862,36852
16.97673,32003
16.98487,37968
16.99298,36313
17.00112,37478
17.00923,36778
17.01735,35509
17.02548,41002
17.03360,35712
17.04173,32560
17.04985,37259
17.05797,41083
17.06610,42776
17.07422,48007
17.08235,50629
17.09047,59928
17.09858,63327
17.10672,65341
17.11483,61367
17.12295,49639
17.13108,52585
17.13920,42221
17.14733,43757
17.15545,45494
17.16357,38667
17.17170,40905
17.17982,42894
17.18795,41710
17.19607,42874
17.20418,38809
17.21232,35374
17.22043,38123
17.22855,38226
17.23668,41338
17.24480,39540
17.25293,39269
17.26105,38641
17.26917,38009
17.27730,41525
17.28542,39491
17.29355,34866
17.30167,37569
17.30978,34613
17.31792,38424
17.32603,37790
17.33417,36335
17.34228,37783
17.35040,35916
17.35853,40013
17.36665,41319
17.37477,43911
17.38290,49321
17.39102,40596
17.39915,44162
17.40727,41714
17.41538,42377
17.42352,45232
17.43163,42386
17.43977,42944
17.44788,43296
17.45600,38794
17.46413,44474
17.47225,40398
17.48037,45704
17.48850,41223
17.49662,39153
17.50475,43735
17.51287,41937
17.52098,41082
17.52912,38324
17.53723,44341
17.54537,44651
17.55348,41367
17.56160,41343
17.56973,45182
17.57785,44104
17.58598,43953
17.59410,42765
17.60222,43584
17.61035,42064
17.61847,43049
17.62658,36221
17.63472,38708
17.64283,41035
17.65097,47585
17.65908,55118
17.66720,74075
17.67533,89533
17.68345,106368
17.69158,117023
17.69970,117170
17.70782,99952
17.71595,87387
17.72407,70853
17.73220,65055
17.74032,61525
17.74843,54329
17.75657,55490
17.76468,51127
17.77280,50437
17.78093,43803
17.78905,45677
17.79718,42014
17.80530,45209
17.81342,46767
17.82155,42574
17.82967,44247
17.83780,44619
17.84592,43302
17.85403,44759
17.86217,46692
17.87028,38990
17.87840,47621
17.88653,37917
17.89465,41952
17.90278,38844
17.91090,37296
17.91902,38033
17.92715,36142
17.93527,39468
17.94340,38757
17.95152,36491
17.95963,35546
17.96777,38516
17.97588,34237
17.98402,35655
17.99213,34967
18.00025,30988
18.00838,33773
18.01650,38789
18.02462,37073
18.03275,37987
18.04087,40727
18.04900,40098
18.05712,46992
18.06523,40154
18.07337,38101
18.08148,40434
18.08962,41936
18.09773,44749
18.10585,61567
18.11398,57727
18.12210,69603
18.13023,78546
18.13835,71314
18.14647,73970
18.15460,73316
18.16272,69013
18.17083,72066
18.17897,71690
18.18708,73879
18.19522,69246
18.20333,66420
18.21145,71080
18.21958,65347
18.22770,68129
18.23583,62524
18.24395,62807
18.25207,59897
18.26020,56295
18.26832,54613
18.27643,56703
18.28457,56150
18.29268,56296
18.30082,49304
18.30893,46396
18.31705,44893
18.32518,43941
18.33330,41447
18.34143,38461
18.34955,39803
18.35767,40698
18.36580,36812
18.37392,38343
18.38205,36839
18.39017,38607
18.39828,41185
18.40642,38020
18.41453,36853
18.42265,40730
18.43078,40841
18.43890,39151
18.44703,41252
18.45515,34718
18.46327,37788
18.47140,37465
18.47952,38484
18.48765,36759
18.49577,36429
18.50388,37749
18.51202,39438
18.52013,34046
18.52825,33391
18.53638,41087
18.54450,35608
18.55263,35778
18.56075,37692
18.56887,36173
18.57700,37741
18.58512,33386
18.59325,38311
18.60137,35738
18.60948,37594
18.61762,38668
18.62573,41016
18.63387,37295
18.64198,38478
18.65010,40662
18.65823,36793
18.66635,34498
18.67447,41610
18.68260,34572
18.69072,34024
18.69885,36531
18.70697,38405
18.71508,38028
18.72322,33681
18.73133,34921
18.73947,35343
18.74758,35154
18.75570,30509
18.76383,33229
18.77195,42242
18.78008,34163
18.78820,32442
18.79632,30900
18.80445,30259
18.81257,35398
18.82068,31112
18.82882,35361
18.83693,32343
18.84507,35413
18.85318,34848
18.86130,36064
18.86943,33111
18.87755,34080
18.88568,30794
18.89380,34388
18.90192,34059
18.91005,31579
18.91817,31381
18.92628,37715
18.93442,33587
18.94253,36199
18.95067,35857
18.95878,35350
18.96690,36670
18.97503,33772
18.98315,35610
18.99128,35198
18.99940,37421
19.00752,37086
19.01565,35121
19.02377,36669
19.03190,35908
19.04002,34831
19.04813,35658
19.05627,38301
19.06438,34485
19.07250,32141
19.08063,32012
19.08875,38451
19.09688,44018
19.10500,50951
19.11312,64668
19.12125,62974
19.12937,66131
19.13750,57604
19.14562,58105
19.15373,55065
19.16187,48591
19.16998,45812
19.17812,52413
19.18623,54106
19.19435,49384
19.20248,49388
19.21060,55715
19.21872,48703
19.22685,55276
19.23497,47852
19.24310,46897
19.25122,39158
19.25933,42959
19.26747,44755
19.27558,47594
19.28372,47873
19.29183,51678
19.29995,46338
19.30808,54787
19.31620,43424
19.32432,44424
19.33245,44660
19.34057,45429
19.34870,45041
19.35682,48393
19.36493,50809
19.37307,47789
19.38118,49144
19.38932,45399
19.39743,45318
19.40555,47383
19.41368,46711
19.42180,44559
19.42993,45492
19.43805,46596
19.44617,40415
19.45430,41536
19.46242,40786
19.47053,44633
19.47867,40234
19.48678,40190
19.49492,42880
19.50303,50671
19.51115,66579
19.51928,87937
19.52740,107864
19.53553,133676
19.54365,137848
19.55177,127611
19.55990,99140
19.56802,80543
19.57615,67906
19.58427,53704
19.59238,44979
19.60052,42829
19.60863,45605
19.61675,46245
19.62488,42906
19.63300,39827
19.64113,45538
19.64925,56054
19.65737,74696
19.66550,105486
19.67362,156252
19.68175,192911
19.68987,217388
19.69798,215256
19.70612,198317
19.71423,178355
19.72235,146887
19.73048,124284
19.73860,98733
19.74673,89068
19.75485,100877
19.76297,80274
19.77110,80810
19.77922,71200
19.78735,65776
19.79547,66637
19.80358,60832
19.81172,50901
19.81983,55571
19.82797,54491
19.83608,49201
19.84420,56821
19.85233,51507
19.86045,52391
19.86857,56752
19.87670,80264
19.88482,117790
19.89295,194038
19.90107,301566
19.90918,447795
19.91732,566941
19.92543,673286
19.93357,721806
19.94168,733408
19.94980,738588
19.95793,730098
19.96605,727822
19.97417,694942
19.98230,670316
19.99042,617030
19.99855,591757
20.00667,560326
20.01478,536213
20.02292,510076
20.03103,481511
20.03917,450764
20.04728,431249
20.05540,381979
20.06353,332945
20.07165,268147
20.07978,215500
20.08790,175651
20.09602,141865
20.10415,109727
20.11227,107316
20.12038,99079
20.12852,98239
20.13663,97795
20.14477,89625
20.15288,94633
20.16100,90318
20.16913,88331
20.17725,95233
20.18538,88604
20.19350,87111
20.20162,85390
20.20975,88343
20.21787,78321
20.22600,77225
20.23412,72558
20.24223,78042
20.25037,79595
20.25848,82147
20.26660,94020
20.27473,128525
20.28285,166605
20.29098,210639
20.29910,238773
20.30722,243484
20.31535,235888
20.32347,199175
20.33160,170167
20.33972,136218
20.34783,114181
20.35597,100961
20.36408,89071
20.37220,77022
20.38033,69622
20.38845,61242
20.39658,55051
20.40470,56034
20.41282,55338
20.42095,55847
20.42907,62196
20.43720,63620
20.44532,65827
20.45343,76117
20.46157,85854
20.46968,86604
20.47782,88816
20.48593,81660
20.49405,76343
20.50218,73260
20.51030,64777
20.51842,60480
20.52655,53152
20.53467,55353
20.54280,46324
20.55092,52232
20.55903,46580
20.56717,48821
20.57528,46949
20.58342,46003
20.59153,45866
20.59965,52038
20.60778,48040
20.61590,47242
20.62403,48033
20.63215,48657
20.64027,46413
20.64840,47250
20.65652,49847
20.66463,52377
20.67277,49162
20.68088,47069
20.68902,45630
20.69713,45155
20.70525,46640
20.71338,47552
20.72150,52000
20.72963,54368
20.73775,51323
20.74587,51593
20.75400,49703
20.76212,47975
20.77023,48898
20.77837,51925
20.78648,51859
20.79462,53484
20.80273,51755
20.81085,54113
20.81898,53820
20.82710,52043
20.83523,58911
20.84335,52165
20.85147,50422
20.85960,50269
20.86772,49430
20.87585,55821
20.88397,54004
20.89208,56518
20.90022,52443
20.90833,49031
20.91645,50425
20.92458,52126
20.93270,48798
20.94083,53547
20.94895,48323
20.95707,54326
20.96520,52248
20.97332,48839
20.98145,52894
20.98957,49827
20.99768,50328
21.00582,51872
21.01393,54691
21.02205,49946
21.03018,46364
21.03830,53278
21.04643,48007
21.05455,50539
21.06267,48010
21.07080,48233
21.07892,50829
21.08705,51498
21.09517,47478
21.10328,49102
21.11142,44435
21.11953,52321
21.12767,51748
21.13578,54297
21.14390,51182
21.15203,53617
21.16015,53344
21.16827,53779
21.17640,58126
21.18452,56827
21.19265,53308
21.20077,56276
21.20888,53838
21.21702,60072
21.22513,51524
21.23327,49850
21.24138,51179
21.24950,48366
21.25763,55202
21.26575,49746
21.27388,52830
21.28200,50121
21.29012,48224
21.29825,52135
21.30637,48750
21.31448,52102
21.32262,53167
21.33073,52617
21.33887,53226
21.34698,49152
21.35510,48703
21.36323,48355
21.37135,51107
21.37948,43655
21.38760,46352
21.39572,46033
21.40385,47566
21.41197,47465
21.42008,48949
21.42822,45127
21.43633,51580
21.44447,46658
21.45258,56673
21.46070,53759
21.46883,48912
21.47695,53528
21.48508,47468
21.49320,49552
21.50132,49647
21.50945,50270
21.51757,48437
21.52570,50539
21.53382,44563
21.54193,47417
21.55007,46554
21.55818,47616
21.56630,44648
21.57443,45130
21.58255,48499
21.59068,45943
21.59880,45526
21.60692,46955
21.61505,47570
21.62317,46778
21.63130,50988
21.63942,58481
21.64753,66589
21.65567,78828
21.66378,90690
21.67192,92254
21.68003,92474
21.68815,81187
21.69628,66787
21.70440,64572
21.71252,57807
21.72065,58190
21.72877,50048
21.73690,48609
21.74502,48311
21.75313,47672
21.76127,46559
21.76938,46466
21.77752,45339
21.78563,46083
21.79375,48364
21.80188,49648
21.81000,47035
21.81812,46800
21.82625,49629
21.83437,52964
21.84250,65963
21.85062,78541
21.85873,93592
21.86687,98683
21.87498,90192
21.88312,77486
21.89123,79051
21.89935,63035
21.90748,56392
21.91560,54339
21.92373,53724
21.93185,50080
21.93997,50090
21.94810,48320
21.95622,45899
21.96433,49801
21.97247,45501
21.98058,40643
21.98872,40411
21.99683,41318
22.00495,43633
22.01308,43599
22.02120,47135
22.02933,40747
22.03745,44739
22.04557,45122
22.05370,39979
22.06182,43282
22.06993,42454
22.07807,40316
22.08618,41342
22.09432,39343
22.10243,41091
22.11055,42431
22.11868,44295
22.12680,46172
22.13493,40243
22.14305,39605
22.15117,44804
22.15930,38951
22.16742,39792
22.17555,43525
22.18367,39202
22.19178,41330
22.19992,44180
22.20803,44711
22.21615,46008
22.22428,43566
22.23240,41143
22.24053,48815
22.24865,49798
22.25677,55234
22.26490,52208
22.27302,44896
22.28115,44954
22.28927,38161
22.29738,44690
22.30552,50855
22.31363,49338
22.32177,55445
22.32988,58362
22.33800,72480
22.34613,79445
22.35425,82029
22.36237,80058
22.37050,73184
22.37862,65484
22.38675,57900
22.39487,51485
22.40298,52475
22.41112,50861
22.41923,48785
22.42737,46288
22.43548,46608
22.44360,47250
22.45173,47819
22.45985,43377
22.46798,42779
22.47610,42058
22.48422,42661
22.49235,40091
22.50047,41502
22.50858,43921
22.51672,41288
22.52483,38643
22.53297,41917
22.54108,40113
22.54920,41681
22.55733,38961
22.56545,43155
22.57358,39123
22.58170,43579
22.58982,39390
22.59795,42908
22.60607,37629
22.61418,45206
22.62232,39497
22.63043,38406
22.63857,35501
22.64668,36905
22.65480,39536
22.66293,38364
22.67105,42949
22.67918,40218
22.68730,46588
22.69542,49079
22.70355,45148
22.71167,46156
22.71980,45597
22.72792,45873
22.73603,43994
22.74417,44302
22.75228,44497
22.76040,40065
22.76853,40773
22.77665,43789
22.78478,42094
22.79290,39968
22.80102,39932
22.80915,40565
22.81727,41783
22.82540,40986
22.83352,42534
22.84163,38350
22.84977,41349
22.85788,44168
22.86600,42940
22.87413,37602
22.88225,45214
22.89038,45904
22.89850,44279
22.90662,45508
22.91475,46126
22.92287,55261
22.93100,69991
22.93912,80742
22.94723,92112
22.95537,119912
22.96348,128815
22.97162,136579
22.97973,140229
22.98785,131905
22.99598,119263
23.00410,108769
23.01222,102561
23.02035,95119
23.02847,85052
23.03660,79722
23.04472,67171
23.05283,69142
23.06097,56002
23.06908,51841
23.07722,47584
23.08533,47749
23.09345,50355
23.10158,45296
23.10970,48653
23.11783,48314
23.12595,44663
23.13407,44247
23.14220,44889
23.15032,43280
23.15843,47772
23.16657,44286
23.17468,42890
23.18282,41916
23.19093,40394
23.19905,42192
23.20718,39931
23.21530,40558
23.22343,41951
23.23155,38837
23.23967,37394
23.24780,37972
23.25592,42395
23.26403,48318
23.27217,48037
23.28028,49657
23.28842,45883
23.29653,43304
23.30465,45453
23.31278,42926
23.32090,42309
23.32903,39694
23.33715,36443
23.34527,40471
23.35340,38136
23.36152,37253
23.36965,41163
23.37777,43121
23.38588,44496
23.39402,44200
23.40213,43255
23.41025,45641
23.41838,40330
23.42650,42741
23.43463,41350
23.44275,40428
23.45087,42487
23.45900,46392
23.46712,44525
23.47525,42734
23.48337,42893
23.49148,42174
23.49962,41358
23.50773,48524
23.51587,43517
23.52398,46359
23.53210,43143
23.54023,43572
23.54835,44684
23.55647,51039
23.56460,45500
23.57272,52462
23.58085,45284
23.58897,50556
23.59708,54429
23.60522,55034
23.61333,57228
23.62147,62082
23.62958,60397
23.63770,64091
23.64583,80957
23.65395,101735
23.66207,144259
23.67020,184010
23.67832,229296
23.68645,244683
23.69457,226894
23.70268,183376
23.71082,155385
23.71893,118884
23.72707,101726
23.73518,83661
23.74330,72114
23.75143,70601
23.75955,75692
23.76768,118135
23.77580,265429
23.78392,618256
23.79205,1353370
23.80017,2297407
23.80828,3268303
23.81642,3879059
23.82453,3626090
23.83267,2919718
23.84078,2028673
23.84890,1409313
23.85703,976700
23.86515,717936
23.87328,548007
23.88140,459344
23.88952,377263
23.89765,323912
23.90577,294451
23.91388,259097
23.92202,235799
23.93013,213932
23.93827,200441
23.94638,187703
23.95450,178590
23.96263,164444
23.97075,163323
23.97888,155699
23.98700,149463
23.99512,141355
24.00325,130821
24.01137,127147
24.01950,125618
24.02762,124755
24.03573,121666
24.04387,125820
24.05198,128025
24.06010,125440
24.06823,122409
24.07635,118162
24.08448,114569
24.09260,102902
24.10072,105176
24.10885,99254
24.11697,87404
24.12510,92309
24.13322,85326
24.14133,90822
24.14947,94893
24.15758,91086
24.16572,99815
24.17383,89665
24.18195,94773
24.19008,93707
24.19820,81194
24.20632,81999
24.21445,87637
24.22257,86419
24.23070,83967
24.23882,89799
24.24693,92412
24.25507,95573
24.26318,89942
24.27132,84585
24.27943,80828
24.28755,76982
24.29568,71965
24.30380,72520
24.31192,70134
24.32005,72652
24.32817,72702
24.33630,71944
24.34442,69872
24.35253,70768
24.36067,63623
24.36878,67553
24.37692,68064
24.38503,68182
24.39315,71803
24.40128,80831
24.40940,100975
24.41753,113662
24.42565,126146
24.43377,131110
24.44190,106079
24.45002,93872
24.45813,81759
24.46627,68298
24.47438,56499
24.48252,65751
24.49063,60892
24.49875,60559
24.50688,63701
24.51500,63420
24.52313,71042
24.53125,78333
24.53937,77685
24.54750,81398
24.55562,75774
24.56375,70170
24.57187,65373
24.57998,62745
24.58812,59621
24.59623,60957
24.60435,64620
24.61248,58764
24.62060,56838
24.62873,60590
24.63685,60391
24.64497,62242
24.65310,62149
24.66122,64837
24.66935,64536
24.67747,64588
24.68558,68524
24.69372,58548
24.70183,62023
24.70995,54085
24.71808,56508
24.72620,53339
24.73433,51577
24.74245,50997
24.75057,50212
24.75870,51594
24.76682,52512
24.77495,54262
24.78307,51568
24.79118,49553
24.79932,49691
24.80743,48699
24.81557,48854
24.82368,49065
24.83180,48081
24.83993,47700
24.84805,44032
24.85617,49600
24.86430,50523
24.87242,49790
24.88055,49516
24.88867,48940
24.89678,49424
24.90492,52944
24.91303,46551
24.92117,46210
24.92928,48012
24.93740,47368
24.94553,45197
24.95365,42503
24.96178,43857
24.96990,51553
24.97802,44002
24.98615,41760
24.99427,43714
25.00238,42350
25.01052,41437
25.01863,39981
25.02677,45833
25.03488,47098
25.04300,46717
25.05113,49767
25.05925,44693
25.06738,45407
25.07550,42870
25.08362,46145
25.09175,43855
25.09987,39986
25.10798,47323
25.11612,45875
25.12423,46007
25.13237,45141
25.14048,46667
25.14860,51176
25.15673,55174
25.16485,60070
25.17298,58750
25.18110,62255
25.18922,62721
25.19735,57180
25.20547,53486
25.21360,52811
25.22172,49657
25.22983,50250
25.23797,44575
25.24608,43888
25.25420,49734
25.26233,45007
25.27045,43789
25.27858,44668
25.28670,45230
25.29482,47727
25.30295,42628
25.31107,50613
25.31920,49713
25.32732,54605
25.33543,49302
25.34357,49882
25.35168,46263
25.35980,52057
25.36793,46761
25.37605,48188
25.38418,47013
25.39230,43620
25.40042,42373
25.40855,40949
25.41667,47200
25.42480,41826
25.43292,41014
25.44103,40041
25.44917,41092
25.45728,41882
25.46542,38651
25.47353,44199
25.48165,38002
25.48978,45494
25.49790,45380
25.50602,50645
25.51415,50021
25.52227,47027
25.53040,45496
25.53852,44361
25.54663,37496
25.55477,41029
25.56288,41323
25.57102,41841
25.57913,40941
25.58725,42370
25.59538,43030
25.60350,40316
25.61163,41275
25.61975,40988
25.62787,43117
25.63600,38646
25.64412,41617
25.65223,46906
25.66037,46922
25.66848,43239
25.67662,44946
25.68473,44827
25.69285,43582
25.70098,41021
25.70910,39882
25.71723,40444
25.72535,39298
25.73347,40801
25.74160,40149
25.74972,41285
25.75783,39093
25.76597,46685
25.77408,42556
25.78222,43653
25.79033,41338
25.79845,38146
25.80658,41799
25.81470,43069
25.82283,43465
25.83095,44046
25.83907,43673
25.84720,45552
25.85532,40764
25.86345,44987
25.87157,44171
25.87968,44277
25.88782,40440
25.89593,41637
25.90405,40414
25.91218,40919
25.92030,34857
25.92843,39929
25.93655,35540
25.94467,39173
25.95280,37117
25.96092,37592
25.96905,38199
25.97717,37274
25.98528,36485
25.99342,35414
26.00153,36874
26.00967,33938
26.01778,38160
26.02590,37172
26.03403,37764
26.04215,35776
26.05027,37504
26.05840,45026
26.06652,38725
26.07465,35550
26.08277,39000
26.09088,39115
26.09902,36364
26.10713,37246
26.11527,38370
26.12338,38293
26.13150,50516
26.13963,37184
26.14775,48042
26.15587,48357
26.16400,51192
26.17212,54340
26.18025,54488
26.18837,54039
26.19648,56600
26.20462,52964
26.21273,53293
26.22087,51581
26.22898,52025
26.23710,50187
26.24523,45483
26.25335,47054
26.26148,44006
26.26960,44988
26.27772,47118
26.28585,45985
26.29397,42898
26.30208,47114
26.31022,37932
26.31833,39136
26.32647,42640
26.33458,41146
26.34270,38167
26.35083,41141
26.35895,37633
26.36708,39273
26.37520,40348
26.38332,39006
26.39145,39662
26.39957,40242
26.40768,41050
26.41582,38827
26.42393,39848
26.43207,39983
26.44018,41909
26.44830,39814
26.45643,39730
26.46455,37780
26.47268,37137
26.48080,39045
26.48892,40570
26.49705,36692
26.50517,38057
26.51330,40385
26.52142,38130
26.52953,37842
26.53767,34669
26.54578,36680
26.55390,36902
26.56203,35195
26.57015,33577
26.57828,33344
26.58640,34101
26.59452,36509
26.60265,40144
26.61077,37990
26.61890,40589
26.62702,37253
26.63513,36242
26.64327,38247
26.65138,38143
26.65952,37139
26.66763,43651
26.67575,37505
26.68388,38305
26.69200,43870
26.70012,41749
26.70825,45984
26.71637,43700
26.72450,33290
26.73262,37256
26.74073,39308
26.74887,36585
26.75698,37377
26.76512,38575
26.77323,38617
26.78135,36558
26.78948,33215
26.79760,38158
26.80573,39342
26.81385,35319
26.82197,37903
26.83010,42163
26.83822,44509
26.84633,47106
26.85447,46666
26.86258,44009
26.87072,43966
26.87883,46314
26.88695,43635
26.89508,46483
26.90320,43489
26.91133,35791
26.91945,37407
26.92757,41198
26.93570,40585
26.94382,39306
26.95193,44064
26.96007,37141
26.96818,40838
26.97632,47863
26.98443,61382
26.99255,93519
27.00068,166637
27.00880,283804
27.01693,462220
27.02505,750664
27.03317,1016631
27.04130,1224999
27.04942,1232594
27.05755,1051777
27.06567,788971
27.07378,598024
27.08192,467788
27.09003,376008
27.09815,303126
27.10628,248231
27.11440,208405
27.12253,197970
27.13065,171823
27.13877,161401
27.14690,152340
27.15502,144301
27.16315,134076
27.17127,130733
27.17938,126247
27.18752,120565
27.19563,114684
27.20375,110227
27.21188,109107
27.22000,107938
27.22813,100941
27.23625,93308
27.24437,98817
27.25250,94153
27.26062,86828
27.26875,84652
27.27687,79154
27.28498,79701
27.29312,78012
27.30123,76507
27.30937,76046
27.31748,71177
27.32560,73228
27.33373,68082
27.34185,68278
27.34997,66159
27.35810,68028
27.36622,65187
27.37435,66727
27.38247,65993
27.39058,69299
27.39872,64982
27.40683,69728
27.41497,67828
27.42308,66880
27.43120,62882
27.43933,63137
27.44745,62395
27.45558,63487
27.46370,56893
27.47182,58007
27.47995,56346
27.48807,53269
27.49618,56596
27.50432,56376
27.51243,55552
27.52057,56603
27.52868,56963
27.53680,54715
27.54493,55387
27.55305,51699
27.56118,58991
27.56930,57533
27.57742,56256
27.58555,55991
27.59367,51056
27.60178,59657
27.60992,50496
27.61803,49720
27.62617,49268
27.63428,58057
27.64240,50115
27.65053,55666
27.65865,50789
27.66678,47426
27.67490,47689
27.68302,48415
27.69115,48084
27.69927,51249
27.70740,45812
27.71552,49663
27.72363,54623
27.73177,50131
27.73988,47380
27.74800,45797
27.75613,44800
27.76425,42325
27.77238,41973
27.78050,48640
27.78862,46601
27.79675,46103
27.80487,45230
27.81300,43875
27.82112,44741
27.82923,43820
27.83737,43613
27.84548,49958
27.85362,47864
27.86173,45499
27.86985,50718
27.87798,46552
27.88610,44229
27.89422,49339
27.90235,44502
27.91047,42261
27.91860,43692
27.92672,43238
27.93483,40841
27.94297,44504
27.95108,44158
27.95922,42986
27.96733,39341
27.97545,39118
27.98358,45448
27.99170,43452
27.99982,39059
28.00795,44050
28.01607,42623
28.02420,41965
28.03232,42295
28.04043,38906
28.04857,39634
28.05668,41870
28.06482,43374
28.07293,42757
28.08105,47417
28.08918,42583
28.09730,44168
28.10543,41013
28.11355,42450
28.12167,38969
28.12980,40465
28.13792,39276
28.14603,41840
28.15417,41099
28.16228,40997
28.17042,37127
28.17853,45309
28.18665,38953
28.19478,39768
28.20290,38213
28.21103,39492
28.21915,45404
28.22727,47577
28.23540,53129
28.24352,54187
28.25163,45204
28.25977,45408
28.26788,49256
28.27602,46600
28.28413,53413
28.29225,40088
28.30038,44257
28.30850,46877
28.31663,45722
28.32475,53064
28.33287,58781
28.34100,69563
28.34912,92117
28.35725,113005
28.36537,137891
28.37348,169159
28.38162,183248
28.38973,193454
28.39785,191050
28.40598,188793
28.41410,166026
28.42223,149757
28.43035,145827
28.43847,125781
28.44660,112380
28.45472,100897
28.46285,94915
28.47097,88986
28.47908,82825
28.48722,80845
28.49533,78109
28.50347,77226
28.51158,75303
28.51970,65587
28.52783,65187
28.53595,65143
28.54407,63547
28.55220,63503
28.56032,62854
28.56845,61026
28.57657,67849
28.58468,60511
28.59282,56919
28.60093,62568
28.60907,57894
28.61718,58684
28.62530,60318
28.63343,56991
28.64155,55903
28.64967,58575
28.65780,59144
28.66592,59027
28.67405,58895
28.68217,62272
28.69028,57950
28.69842,64200
28.70653,62794
28.71467,59699
28.72278,58963
28.73090,50389
28.73903,58143
28.74715,56620
28.75528,53860
28.76340,54770
28.77152,56257
28.77965,66365
28.78777,74716
28.79588,79087
28.80402,81489
28.81213,76021
28.82027,67317
28.82838,57012
28.83650,57508
28.84463,50499
28.85275,50936
28.86088,52988
28.86900,51619
28.87712,46422
28.88525,48877
28.89337,48651
28.90150,49113
28.90962,44011
28.91773,48407
28.92587,47543
28.93398,46105
28.94210,48211
28.95023,55884
28.95835,51412
28.96648,55846
28.97460,56176
28.98272,55089
28.99085,55784
28.99897,53300
29.00710,53437
29.01522,51433
29.02333,50380
29.03147,46460
29.03958,48080
29.04770,47597
29.05583,45393
29.06395,46214
29.07208,50392
29.08020,48184
29.08832,55925
29.09645,41087
29.10457,50573
29.11270,50324
29.12082,46304
29.12893,45545
29.13707,47485
29.14518,53457
29.15332,46592
29.16143,48477
29.16955,49045
29.17768,50966
29.18580,43090
29.19392,51584
29.20205,49734
29.21017,48982
29.21830,48712
29.22642,51340
29.23453,51101
29.24267,53724
29.25078,56703
29.25892,56476
29.26703,61172
29.27515,57128
29.28328,57436
29.29140,55430
29.29953,55964
29.30765,51079
29.31577,50999
29.32390,45049
29.33202,43506
29.34013,46969
29.34827,45274
29.35638,52320
29.36452,48073
29.37263,47507
29.38075,48536
29.38888,45288
29.39700,46119
29.40513,46446
29.41325,44809
29.42137,48621
29.42950,49264
29.43762,46690
29.44573,47915
29.45387,49810
29.46198,45261
29.47012,47427
29.47823,45143
29.48635,43585
29.49448,44069
29.50260,45966
29.51073,53182
29.51885,54333
29.52697,55483
29.53510,52903
29.54322,54378
29.55135,49521
29.55947,43944
29.56758,45303
29.57572,43753
29.58383,41522
29.59195,43883
29.60008,42082
29.60820,45164
29.61633,42584
29.62445,43765
29.63257,42698
29.64070,41217
29.64882,41893
29.65695,40958
29.66507,41726
29.67318,43232
29.68132,42719
29.68943,41590
29.69755,45502
29.70568,41901
29.71380,39750
29.72193,43733
29.73005,44351
29.73817,40510
29.74630,42441
29.75442,40209
29.76255,39616
29.77067,42875
29.77878,42902
29.78692,42233
29.79503,41486
29.80317,39648
29.81128,40024
29.81940,40370
29.82753,40365
29.83565,39636
29.84377,39222
29.85190,43434
29.86002,41266
29.86815,44825
29.87627,54431
29.88438,80801
29.89252,121069
29.90063,184009
29.90877,245559
29.91688,293648
29.92500,289446
29.93313,251688
29.94125,188776
29.94938,136502
29.95750,89512
29.96562,76864
29.97375,70049
29.98187,62873
29.98998,71215
29.99812,82261
30.00623,91870
30.01437,99804
30.02248,107086
30.03060,113228
30.03873,125677
30.04685,133743
30.05498,120435
30.06310,132305
30.07122,126950
30.07935,122883
30.08747,111405
30.09558,112613
30.10372,103652
30.11183,91703
30.11997,91287
30.12808,82805
30.13620,83002
30.14433,78599
30.15245,77426
30.16058,70794
30.16870,68678
30.17682,68410
30.18495,70623
30.19307,64949
30.20120,61892
30.20932,62333
30.21743,62226
30.22557,56912
30.23368,60470
30.24180,61684
30.24993,59453
30.25805,57837
30.26618,54421
30.27430,54112
30.28242,53554
30.29055,52567
30.29867,48256
30.30680,53336
30.31492,57159
30.32303,50115
30.33117,48847
30.33928,54090
30.34742,54900
30.35553,48405
30.36365,50722
30.37178,50808
30.37990,46975
30.38802,48742
30.39615,51755
30.40427,51696
30.41240,52030
30.42052,49084
30.42863,45601
30.43677,50671
30.44488,48352
30.45302,47744
30.46113,48615
30.46925,45447
30.47738,44183
30.48550,43733
30.49362,44856
30.50175,45947
30.50987,49804
30.51800,46546
30.52612,44112
30.53423,44891
30.54237,43160
30.55048,43734
30.55862,42405
30.56673,44637
30.57485,42730
30.58298,46654
30.59110,45983
30.59923,43392
30.60735,43342
30.61547,39645
30.62360,42629
30.63172,41979
30.63983,44928
30.64797,45348
30.65608,47407
30.66422,41957
30.67233,39396
30.68045,39696
30.68858,37462
30.69670,39852
30.70483,39578
30.71295,44700
30.72107,41183
30.72920,38718
30.73732,39054
30.74543,49977
30.75357,45871
30.76168,45597
30.76982,41166
30.77793,40102
30.78605,42746
30.79418,47545
30.80230,44165
30.81043,50890
30.81855,52355
30.82667,54688
30.83480,53771
30.84292,54639
30.85105,52165
30.85917,51169
30.86728,45038
30.87542,45735
30.88353,45558
30.89165,39320
30.89978,40724
30.90790,43094
30.91603,46361
30.92415,39098
30.93227,39976
30.94040,40484
30.94852,45219
30.95665,39295
30.96477,40616
30.97288,42899
30.98102,51159
30.98913,43295
30.99727,43768
31.00538,42049
31.01350,42730
31.02163,46040
31.02975,43828
31.03787,42935
31.04600,43605
31.05412,41037
31.06225,42675
31.07037,42217
31.07848,51295
31.08662,53854
31.09473,55780
31.10287,69476
31.11098,85483
31.11910,100696
31.12723,109461
31.13535,98499
31.14347,88747
31.15160,72360
31.15972,62525
31.16785,53091
31.17597,49649
31.18408,47221
31.19222,59313
31.20033,75451
31.20847,93914
31.21658,120453
31.22470,144572
31.23283,162732
31.24095,168779
31.24908,155566
31.25720,135897
31.26532,99946
31.27345,79622
31.28157,67149
31.28968,53963
31.29782,48679
31.30593,44486
31.31407,42433
31.32218,46940
31.33030,47572
31.33843,42595
31.34655,42199
31.35468,45988
31.36280,45582
31.37092,40964
31.37905,48222
31.38717,47767
31.39530,50589
31.40342,53112
31.41153,52282
31.41967,53428
31.42778,49240
31.43590,50730
31.44403,44243
31.45215,47776
31.46028,45769
31.46840,44698
31.47652,42752
31.48465,43012
31.49277,47247
31.50090,42999
31.50902,40112
31.51713,43066
31.52527,41848
31.53338,41068
31.54150,39598
31.54963,37118
31.55775,42094
31.56588,40299
31.57400,41676
31.58212,38065
31.59025,41144
31.59837,38956
31.60650,40256
31.61462,39684
31.62273,37986
31.63087,41513
31.63898,43463
31.64712,41598
31.65523,43812
31.66335,43072
31.67148,40591
31.67960,41934
31.68772,40035
31.69585,40489
31.70397,43250
31.71210,42806
31.72022,46167
31.72833,36729
31.73647,43692
31.74458,37502
31.75272,42192
31.76083,38092
31.76895,37598
31.77708,39530
31.78520,40006
31.79332,39109
31.80145,40028
31.80957,43308
31.81770,43896
31.82582,43483
31.83393,44004
31.84207,40357
31.85018,50708
31.85832,45244
31.86643,46779
31.87455,51448
31.88268,51876
31.89080,53035
31.89893,55673
31.90705,55345
31.91517,54308
31.92330,53702
31.93142,59245
31.93953,59854
31.94767,68608
31.95578,74831
31.96392,79233
31.97203,93266
31.98015,95736
31.98828,102301
31.99640,99498
32.00453,99033
32.01265,90762
32.02077,92919
32.02890,93684
32.03702,84402
32.04515,76659
32.05327,75580
32.06138,68954
32.06952,66351
32.07763,74083
32.08575,63079
32.09388,68036
32.10200,68768
32.11013,73406
32.11825,65023
32.12637,60929
32.13450,55771
32.14262,54333
32.15075,53966
32.15887,54372
32.16698,50699
32.17512,49859
32.18323,52618
32.19137,50215
32.19948,47307
32.20760,48449
32.21573,48938
32.22385,53618
32.23197,52921
32.24010,49908
32.24822,49271
32.25635,47522
32.26447,51429
32.27258,47230
32.28072,52034
32.28883,51764
32.29697,48227
32.30508,46371
32.31320,48954
32.32133,49623
32.32945,45284
32.33757,48069
32.34570,52583
32.35382,59702
32.36195,60043
32.37007,64613
32.37818,61877
32.38632,60849
32.39443,58049
32.40257,56298
32.41068,49403
32.41880,46057
32.42693,47969
32.43505,46883
32.44318,46671
32.45130,47733
32.45942,43494
32.46755,44510
32.47567,47965
32.48378,44728
32.49192,43162
32.50003,42808
32.50817,45221
32.51628,46029
32.52440,41883
32.53253,43452
32.54065,43794
32.54878,45365
32.55690,44437
32.56502,43121
32.57315,44079
32.58127,50852
32.58938,44691
32.59752,51079
32.60563,42644
32.61377,40572
32.62188,42800
32.63000,40584
32.63813,38171
32.64625,42061
32.65438,43230
32.66250,45647
32.67062,48206
32.67875,53518
32.68687,58062
32.69500,62479
32.70312,68175
32.71123,59068
32.71937,55058
32.72748,53274
32.73560,48177
32.74373,44971
32.75185,41589
32.75998,44061
32.76810,42288
32.77622,42545
32.78435,41289
32.79247,41648
32.80060,40457
32.80872,44349
32.81683,36443
32.82497,42210
32.83308,42654
32.84122,45775
32.84933,45915
32.85745,42604
32.86558,39399
32.87370,40359
32.88182,45102
32.88995,39410
32.89807,42187
32.90620,42765
32.91432,43202
32.92243,40650
32.93057,44225
32.93868,42541
32.94682,42386
32.95493,41070
32.96305,40421
32.97118,40460
32.97930,37415
32.98742,36187
32.99555,41555
33.00367,44910
33.01180,43731
33.01992,42853
33.02803,44983
33.03617,39849
33.04428,41507
33.05242,44772
33.06053,40969
33.06865,40621
33.07678,40051
33.08490,39455
33.09303,41751
33.10115,50530
33.10927,51310
33.11740,56821
33.12552,63463
33.13363,66664
33.14177,71063
33.14988,69850
33.15802,63038
33.16613,49784
33.17425,48310
33.18238,45243
33.19050,43663
33.19863,41258
33.20675,42464
33.21487,48506
33.22300,46072
33.23112,48875
33.23925,47246
33.24737,50816
33.25548,39926
33.26362,47118
33.27173,44601
33.27985,40147
33.28798,42643
33.29610,43206
33.30423,38338
33.31235,40585
33.32047,43067
33.32860,43625
33.33672,42401
33.34485,39799
33.35297,42516
33.36108,43270
33.36922,46909
33.37733,40836
33.38545,40893
33.39358,40761
33.40170,45712
33.40983,41303
33.41795,43178
33.42607,49325
33.43420,42682
33.44232,47306
33.45045,40602
33.45857,40849
33.46668,40707
33.47482,43222
33.48293,40878
33.49107,41612
33.49918,41242
33.50730,45432
33.51543,42464
33.52355,40366
33.53167,42655
33.53980,43096
33.54792,42221
33.55605,41777
33.56417,41911
33.57228,41790
33.58042,44668
33.58853,43761
33.59667,47662
33.60478,39978
33.61290,43887
33.62103,41754
33.62915,39026
33.63727,43991
33.64540,41677
33.65352,51166
33.66165,45017
33.66977,43590
33.67788,46596
33.68602,45194
33.69413,42826
33.70227,44156
33.71038,43816
33.71850,43315
33.72663,44078
33.73475,40859
33.74288,44790
33.75100,37987
33.75912,38573
33.76725,40237
33.77537,40850
33.78348,44350
33.79162,43694
33.79973,40135
33.80787,39079
33.81598,40302
33.82410,45307
33.83223,39012
33.84035,42265
33.84848,44468
33.85660,45252
33.86472,46461
33.87285,50109
33.88097,49234
33.88910,46290
33.89722,50237
33.90533,48227
33.91347,43410
33.92158,44708
33.92970,46366
33.93783,45536
33.94595,43362
33.95408,44778
33.96220,44585
33.97032,45961
33.97845,45176
33.98657,43846
33.99470,42535
34.00282,46365
34.01093,42823
34.01907,46375
34.02718,42972
34.03530,43478
34.04343,42657
34.05155,42335
34.05968,44089
34.06780,42551
34.07592,42399
34.08405,41158
34.09217,43259
34.10030,42053
34.10842,45428
34.11653,47970
34.12467,43287
34.13278,45782
34.14092,39721
34.14903,48042
34.15715,42874
34.16528,45489
34.17340,44938
34.18152,46033
34.18965,43576
34.19777,44851
34.20590,45216
34.21402,47078
34.22213,45376
34.23027,43534
34.23838,43613
34.24652,44774
34.25463,48857
34.26275,44896
34.27088,42374
34.27900,42742
34.28713,46986
34.29525,45655
34.30337,46579
34.31150,45470
34.31962,44079
34.32773,43440
34.33587,44765
34.34398,47955
34.35212,46036
34.36023,44484
34.36835,50971
34.37648,51399
34.38460,47032
34.39273,48908
34.40085,48294
34.40897,45916
34.41710,46337
34.42522,42983
34.43333,46929
34.44147,48746
34.44958,46258
34.45772,48643
34.46583,44666
34.47395,50035
34.48208,45765
34.49020,46370
34.49833,43688
34.50645,40213
34.51457,48743
34.52270,48228
34.53082,53877
34.53895,53808
34.54707,57808
34.55518,64823
34.56332,69745
34.57143,77200
34.57955,79721
34.58768,82277
34.59580,80113
34.60393,76622
34.61205,71086
34.62017,68988
34.62830,61468
34.63642,62132
34.64455,60032
34.65267,58879
34.66078,57005
34.66892,59311
34.67703,56127
34.68517,53125
34.69328,55273
34.70140,51519
34.70953,52182
34.71765,54431
34.72577,55121
34.73390,51117
34.74202,50524
34.75015,56403
34.75827,55552
34.76638,49656
34.77452,51803
34.78263,52912
34.79077,51886
34.79888,48354
34.80700,51972
34.81513,49612
34.82325,48925
34.83137,50987
34.83950,52449
34.84762,50098
34.85575,56633
34.86387,51125
34.87198,50618
34.88012,46056
34.88823,53685
34.89637,46758
34.90448,49627
34.91260,50585
34.92073,53794
34.92885,48837
34.93698,52638
34.94510,57294
34.95322,60112
34.96135,71209
34.96947,93910
34.97758,123045
34.98572,156576
34.99383,172431
35.00197,175675
35.01008,152859
35.01820,116075
35.02633,96511
35.03445,78164
35.04258,77465
35.05070,62435
35.05882,59294
35.06695,60148
35.07507,61611
35.08318,59687
35.09132,62737
35.09943,58720
35.10757,55127
35.11568,61226
35.12380,60253
35.13193,58427
35.14005,63886
35.14818,55532
35.15630,56391
35.16442,58266
35.17255,61146
35.18067,55810
35.18880,58752
35.19692,55145
35.20503,53674
35.21317,52811
35.22128,54679
35.22940,52346
35.23753,51461
35.24565,56282
35.25378,53283
35.26190,52858
35.27002,55065
35.27815,51514
35.28627,57536
35.29440,52271
35.30252,58812
35.31063,51666
35.31877,54275
35.32688,49624
35.33502,52088
35.34313,51716
35.35125,51049
35.35938,56063
35.36750,50635
35.37562,47793
35.38375,50113
35.39187,49486
35.40000,50555
35.40812,51645
35.41623,51295
35.42437,51047
35.43248,48289
35.44062,52469
35.44873,53622
35.45685,50907
35.46498,56081
35.47310,54325
35.48122,52866
35.48935,57110
35.49747,51683
35.50560,54201
35.51372,50710
35.52183,56696
35.52997,56950
35.53808,54196
35.54622,53842
35.55433,53597
35.56245,49144
35.57058,54532
35.57870,54023
35.58683,53789
35.59495,57044
35.60307,54846
35.61120,53720
35.61932,55487
35.62743,57692
35.63557,58990
35.64368,56468
35.65182,53377
35.65993,53621
35.66805,57026
35.67618,52707
35.68430,57976
35.69243,57939
35.70055,59197
35.70867,58900
35.71680,58274
35.72492,63116
35.73305,64642
35.74117,58188
35.74928,55691
35.75742,54373
35.76553,56636
35.77365,50527
35.78178,55579
35.78990,58733
35.79803,55487
35.80615,53591
35.81427,54264
35.82240,57794
35.83052,54164
35.83865,51691
35.84677,52968
35.85488,51772
35.86302,49833
35.87113,54999
35.87925,54342
35.88738,49486
35.89550,52422
35.90363,53182
35.91175,54734
35.91987,53889
35.92800,49596
35.93612,52063
35.94425,53832
35.95237,53864
35.96048,50375
35.96862,54646
35.97673,53891
35.98487,51102
35.99298,51581
36.00110,51525
36.00923,53161
36.01735,51264
36.02547,58800
36.03360,56137
36.04172,61016
36.04985,60429
36.05797,56754
36.06608,55324
36.07422,59672
36.08233,61531
36.09047,57001
36.09858,57946
36.10670,57810
36.11483,54411
36.12295,55468
36.13107,65834
36.13920,53996
36.14732,53907
36.15545,57876
36.16357,57270
36.17168,57060
36.17982,59726
36.18793,56837
36.19607,59885
36.20418,56670
36.21230,50835
36.22043,56398
36.22855,52928
36.23668,58738
36.24480,57908
36.25292,54520
36.26105,56165
36.26917,57009
36.27728,54118
36.28542,53089
36.29353,54674
36.30167,54101
36.30978,55997
36.31790,61540
36.32603,70528
36.33415,73682
36.34228,77695
36.35040,75184
36.35852,70762
36.36665,67641
36.37477,64019
36.38290,63081
36.39102,58038
36.39913,61207
36.40727,63443
36.41538,61120
36.42350,60650
36.43163,59554
36.43975,57412
36.44788,53758
36.45600,50696
36.46412,56899
36.47225,53492
36.48037,47811
36.48850,53081
36.49662,57718
36.50473,57128
36.51287,52411
36.52098,55840
36.52912,54685
36.53723,57201
36.54535,48765
36.55348,54661
36.56160,57419
36.56972,56030
36.57785,52261
36.58597,57960
36.59410,50260
36.60222,55284
36.61033,56373
36.61847,58491
36.62658,57774
36.63472,53889
36.64283,55617
36.65095,52717
36.65908,51860
36.66720,52568
36.67532,59561
36.68345,52894
36.69157,69520
36.69970,56540
36.70782,62290
36.71593,59578
36.72407,56158
36.73218,56339
36.74032,60426
36.74843,63704
36.75655,58922
36.76468,53945
36.77280,59114
36.78093,55767
36.78905,59641
36.79717,60028
36.80530,64064
36.81342,54281
36.82153,56765
36.82967,56708
36.83778,55130
36.84592,58987
36.85403,55697
36.86215,58494
36.87028,56260
36.87840,63979
36.88653,61155
36.89465,57372
36.90277,56162
36.91090,53692
36.91902,59646
36.92713,58329
36.93527,53757
36.94338,57861
36.95152,57907
36.95963,58963
36.96775,57103
36.97588,60704
36.98400,62266
36.99213,58692
37.00025,57406
37.00837,55095
37.01650,54205
37.02462,62719
37.03275,61190
37.04087,57012
37.04898,56525
37.05712,59054
37.06523,56434
37.07335,57526
37.08148,54257
37.08960,58154
37.09773,59929
37.10585,54296
37.11397,59665
37.12210,60761
37.13022,55488
37.13835,58440
37.14647,58061
37.15458,58644
37.16272,59820
37.17083,60488
37.17897,60780
37.18708,62675
37.19520,60223
37.20333,57888
37.21145,58042
37.21957,58878
37.22770,61167
37.23582,63146
37.24395,64898
37.25207,68237
37.26018,68119
37.26832,75005
37.27643,80535
37.28457,73636
37.29268,73065
37.30080,72667
37.30893,68264
37.31705,73109
37.32517,66501
37.33330,62876
37.34142,66491
37.34955,63893
37.35767,70940
37.36578,78581
37.37392,81894
37.38203,84744
37.39017,85050
37.39828,82606
37.40640,77747
37.41453,83028
37.42265,78727
37.43078,85892
37.43890,79482
37.44702,72047
37.45515,67048
37.46327,76641
37.47138,71536
37.47952,72317
37.48763,76808
