Z:\data\JTB-E02\BACandBLUE\JTB-E02-195-08.D Wed Feb 20 11:15:36 2019
Start of data points
2.09522,269092
2.10333,282383
2.11147,270014
2.11958,268018
2.12770,260712
2.13583,267646
2.14395,267609
2.15208,255905
2.16020,235815
2.16832,238354
2.17645,234206
2.18457,232856
2.19270,216470
2.20082,208494
2.20893,204906
2.21707,199863
2.22518,198031
2.23330,183447
2.24143,183306
2.24955,175430
2.25768,171504
2.26580,465938
2.27392,2742167
2.28205,6969692
2.29017,7062309
2.29830,4053972
2.30642,2549775
2.31453,1970140
2.32267,1640803
2.33078,1426141
2.33890,1406083
2.34703,1400867
2.35515,1213552
2.36328,1064940
2.37140,966389
2.37952,946301
2.38765,1026956
2.39577,1042054
2.40390,1060453
2.41202,1340582
2.42013,1675171
2.42827,3124038
2.43638,3175545
2.44452,2261355
2.45263,1845719
2.46075,1584198
2.46888,1405578
2.47700,1250162
2.48512,1132146
2.49325,1050102
2.50137,1012188
2.50950,950362
2.51762,926634
2.52573,980410
2.53387,935999
2.54198,903033
2.55012,1046095
2.55823,1203257
2.56635,1211527
2.57448,1117688
2.58260,924923
2.59073,807299
2.59885,753220
2.60697,719074
2.61510,792671
2.62322,826048
2.63133,734508
2.63947,681625
2.64758,637428
2.65572,611193
2.66383,638475
2.67195,590659
2.68008,607894
2.68820,588246
2.69633,573091
2.70445,538218
2.71257,500982
2.72070,477783
2.72882,470253
2.73693,445242
2.74507,448276
2.75318,436640
2.76132,430631
2.76943,406725
2.77755,400107
2.78568,389838
2.79380,398438
2.80193,417268
2.81005,526967
2.81817,571518
2.82630,537679
2.83442,495873
2.84255,472042
2.85067,439394
2.85878,440206
2.86692,483651
2.87503,516045
2.88315,472261
2.89128,450415
2.89940,495532
2.90753,472149
2.91565,425867
2.92377,399696
2.93190,365517
2.94002,352108
2.94815,359508
2.95627,351707
2.96438,342834
2.97252,342300
2.98063,321472
2.98875,323872
2.99688,315816
3.00500,327510
3.01313,359170
3.02125,379596
3.02937,344429
3.03750,325402
3.04562,315675
3.05375,308539
3.06187,308397
3.06998,312606
3.07812,294841
3.08623,294721
3.09437,292792
3.10248,308596
3.11060,348449
3.11873,433968
3.12685,456655
3.13497,436595
3.14310,420999
3.15122,393031
3.15935,373045
3.16747,348015
3.17558,342415
3.18372,327449
3.19183,327608
3.19997,317280
3.20808,315966
3.21620,312415
3.22433,294475
3.23245,289563
3.24058,283330
3.24870,274530
3.25682,271202
3.26495,266707
3.27307,273437
3.28118,675715
3.28932,7459020
3.29743,4.799983E+07
3.30557,1.234116E+08
3.31368,1.577169E+08
3.32180,1.632488E+08
3.32993,1.492738E+08
3.33805,1.245556E+08
3.34618,8.283689E+07
3.35430,6.398533E+07
3.36242,5.063411E+07
3.37055,4.096976E+07
3.37867,3.408368E+07
3.38680,2.866162E+07
3.39492,2.437489E+07
3.40303,2.096828E+07
3.41117,1.839057E+07
3.41928,1.625271E+07
3.42740,1.42412E+07
3.43553,1.272525E+07
3.44365,1.136E+07
3.45178,1.026397E+07
3.45990,9412506
3.46802,8572732
3.47615,8023009
3.48427,7452392
3.49240,7048837
3.50052,6647691
3.50863,6326353
3.51677,5910904
3.52488,5618104
3.53300,5269380
3.54113,4968111
3.54925,4747515
3.55738,4504368
3.56550,4328921
3.57362,4154018
3.58175,4022120
3.58987,3874040
3.59800,3750569
3.60612,3596901
3.61423,3477210
3.62237,3405796
3.63048,3314858
3.63862,3232151
3.64673,3143574
3.65485,3041580
3.66298,2941175
3.67110,2841869
3.67922,2804889
3.68735,2825038
3.69547,2899417
3.70360,2856948
3.71172,2779211
3.71983,2736614
3.72797,2662868
3.73608,2582699
3.74422,2515784
3.75233,2415722
3.76045,2333395
3.76858,2311872
3.77670,2240374
3.78482,2186645
3.79295,2165158
3.80107,2126798
3.80920,2111083
3.81732,2131341
3.82543,2186181
3.83357,2200749
3.84168,2157061
3.84982,2121381
3.85793,2048807
3.86605,1979084
3.87418,1943412
3.88230,1892377
3.89043,1841270
3.89855,1833320
3.90667,1802071
3.91480,1768251
3.92292,1736604
3.93103,1705943
3.93917,1672653
3.94728,1598258
3.95542,1572335
3.96353,1552251
3.97165,1523240
3.97978,1529027
3.98790,1506119
3.99603,1501934
4.00415,1485639
4.01227,1457077
4.02040,1479380
4.02852,1448711
4.03665,1422577
4.04477,1409365
4.05288,1408335
4.06102,1391637
4.06913,1341590
4.07725,1374242
4.08538,1335333
4.09350,1319661
4.10163,1273777
4.10975,1250722
4.11787,1260702
4.12600,1230325
4.13412,1216284
4.14225,1218857
4.15037,1306628
4.15848,1462636
4.16662,1637398
4.17473,1662371
4.18285,1558162
4.19098,1477587
4.19910,1398189
4.20723,1326218
4.21535,1289465
4.22347,1250910
4.23160,1225657
4.23972,1228843
4.24785,1228981
4.25597,1216180
4.26408,1173525
4.27222,1141787
4.28033,1138501
4.28847,1095434
4.29658,1091767
4.30470,1066405
4.31283,1056027
4.32095,1081745
4.32907,1143636
4.33720,1257759
4.34532,1318150
4.35345,1375079
4.36157,1442618
4.36968,1633176
4.37782,1764085
4.38593,1789190
4.39407,1650641
4.40218,1490212
4.41030,1282543
4.41843,1193971
4.42655,1134428
4.43468,1069064
4.44280,1023520
4.45092,992644
4.45905,997552
4.46717,968540
4.47528,950581
4.48342,938146
4.49153,934170
4.49967,937777
4.50778,923549
4.51590,933431
4.52403,915226
4.53215,893615
4.54028,899135
4.54840,884616
4.55652,855114
4.56465,856136
4.57277,819094
4.58088,828481
4.58902,828657
4.59713,809439
4.60527,809394
4.61338,854647
4.62150,849931
4.62963,840310
4.63775,825051
4.64588,803667
4.65400,772685
4.66212,765001
4.67025,758152
4.67837,754630
4.68650,763955
4.69462,749801
4.70273,737228
4.71087,743849
4.71898,721354
4.72710,692813
4.73523,712815
4.74335,686771
4.75148,687558
4.75960,687966
4.76772,677865
4.77585,679678
4.78397,672801
4.79210,676089
4.80022,673177
4.80833,664816
4.81647,660791
4.82458,675421
4.83270,680226
4.84083,676719
4.84895,674074
4.85708,677586
4.86520,698885
4.87332,754982
4.88145,824198
4.88957,842000
4.89770,818679
4.90582,782278
4.91393,743655
4.92207,731223
4.93018,859194
4.93832,2437878
4.94643,1.200601E+07
4.95455,4.290182E+07
4.96268,8.513426E+07
4.97080,1.155971E+08
4.97892,1.270961E+08
4.98705,1.214112E+08
4.99517,1.044854E+08
5.00330,8.171129E+07
5.01142,6.03396E+07
5.01953,4.291222E+07
5.02767,3.128582E+07
5.03578,2.348164E+07
5.04392,1.84321E+07
5.05203,1.460067E+07
5.06015,1.222735E+07
5.06828,1.030866E+07
5.07640,8874617
5.08453,7835408
5.09265,6994048
5.10077,6333183
5.10890,5701151
5.11702,5220299
5.12513,4854626
5.13327,4489349
5.14138,4183729
5.14952,3924174
5.15763,3715631
5.16575,3540875
5.17388,3398887
5.18200,3209899
5.19013,3136703
5.19825,3038502
5.20637,2926834
5.21450,2821323
5.22262,2726898
5.23073,2649814
5.23887,2547069
5.24698,2485530
5.25512,2408872
5.26323,2336150
5.27135,2253330
5.27948,2146568
5.28760,2110860
5.29573,2068682
5.30385,2051307
5.31197,1966080
5.32010,1906337
5.32822,1910683
5.33635,1852362
5.34447,1847083
5.35258,1844195
5.36072,1790139
5.36883,1765986
5.37695,1729959
5.38508,1686878
5.39320,1636054
5.40133,1610496
5.40945,1576353
5.41757,1546244
5.42570,1530205
5.43382,1502931
5.44195,1488417
5.45007,1468919
5.45818,1457101
5.46632,1412789
5.47443,1420431
5.48257,1390390
5.49068,1406879
5.49880,1320901
5.50693,1331904
5.51505,1300079
5.52317,1269909
5.53130,1261580
5.53942,1244403
5.54755,1253418
5.55567,1246016
5.56378,1234392
5.57192,1190515
5.58003,1187512
5.58817,1181512
5.59628,1175813
5.60440,1191811
5.61253,1198091
5.62065,1218960
5.62877,1324534
5.63690,1477685
5.64502,1663014
5.65315,1763055
5.66127,1688568
5.66938,1552845
5.67752,1353543
5.68563,1252993
5.69377,1193143
5.70188,1189996
5.71000,1193270
5.71813,1191854
5.72625,1148516
5.73438,1108541
5.74250,1084742
5.75062,1032095
5.75875,1016620
5.76687,998020
5.77498,988369
5.78312,977814
5.79123,950134
5.79937,942217
5.80748,947878
5.81560,908566
5.82373,914649
5.83185,880960
5.83998,903065
5.84810,877253
5.85622,876796
5.86435,878702
5.87247,880779
5.88058,858872
5.88872,829745
5.89683,816594
5.90497,804860
5.91308,774982
5.92120,692572
5.92933,640046
5.93745,614898
5.94558,605970
5.95370,595855
5.96182,607151
5.96995,640575
5.97807,719650
5.98620,898070
5.99432,1119678
6.00243,1298825
6.01057,1278628
6.01868,1187022
6.02680,1067294
6.03493,946115
6.04305,917635
6.05118,833975
6.05930,803088
6.06742,773028
6.07555,737118
6.08367,712737
6.09180,697015
6.09992,695930
6.10803,672406
6.11617,674240
6.12428,662774
6.13242,661123
6.14053,685977
6.14865,683965
6.15678,680333
6.16490,666828
6.17302,653344
6.18115,661311
6.18927,655808
6.19740,642994
6.20552,643678
6.21363,610996
6.22177,609511
6.22988,619856
6.23802,593469
6.24613,619894
6.25425,622168
6.26238,623384
6.27050,615502
6.27862,614429
6.28675,611933
6.29487,616966
6.30300,615291
6.31112,608169
6.31923,607883
6.32737,574080
6.33548,592885
6.34362,588346
6.35173,579527
6.35985,594460
6.36798,593936
6.37610,575993
6.38423,598089
6.39235,586420
6.40047,575902
6.40860,581356
6.41672,563217
6.42483,570518
6.43297,579926
6.44108,607149
6.44922,698801
6.45733,857938
6.46545,1007830
6.47358,972427
6.48170,860800
6.48983,724750
6.49795,660677
6.50607,644463
6.51420,628898
6.52232,584207
6.53045,567873
6.53857,542665
6.54668,530289
6.55482,520310
6.56293,534089
6.57105,534675
6.57918,533387
6.58730,519353
6.59543,501183
6.60355,466192
6.61167,459492
6.61980,457142
6.62792,457851
6.63605,459555
6.64417,468302
6.65228,465888
6.66042,450443
6.66853,444618
6.67665,449889
6.68478,440201
6.69290,447926
6.70103,428124
6.70915,431414
6.71727,425887
6.72540,411352
6.73352,408517
6.74165,402355
6.74977,404854
6.75788,409068
6.76602,399319
6.77413,393762
6.78227,392827
6.79038,386158
6.79850,376886
6.80663,375881
6.81475,388331
6.82287,390634
6.83100,377791
6.83912,387522
6.84725,400130
6.85537,400656
6.86348,380691
6.87162,370675
6.87973,431258
6.88787,611122
6.89598,844489
6.90410,986989
6.91223,928133
6.92035,775282
6.92848,616575
6.93660,490004
6.94472,438027
6.95285,388339
6.96097,368585
6.96908,330430
6.97722,302882
6.98533,293169
6.99347,270698
7.00158,258895
7.00970,267948
7.01783,270615
7.02595,281625
7.03408,305082
7.04220,291116
7.05032,297550
7.05845,280039
7.06657,273646
7.07468,280558
7.08282,266862
7.09093,276010
7.09907,259639
7.10718,256953
7.11530,258254
7.12343,238524
7.13155,243561
7.13968,238452
7.14780,229644
7.15592,220806
7.16405,230329
7.17217,230778
7.18030,238807
7.18842,234416
7.19653,246715
7.20467,236930
7.21278,242486
7.22090,254796
7.22903,261301
7.23715,262111
7.24528,272969
7.25340,254079
7.26152,238918
7.26965,234099
7.27777,212334
7.28590,208805
7.29402,210487
7.30213,226065
7.31027,211858
7.31838,224031
7.32650,223585
7.33463,226774
7.34275,210413
7.35088,213467
7.35900,222221
7.36712,209878
7.37525,202671
7.38337,206399
7.39150,211662
7.39962,223925
7.40773,267793
7.41587,300978
7.42398,316624
7.43212,328181
7.44023,302832
7.44835,321787
7.45648,362988
7.46460,397449
7.47272,420449
7.48085,416517
7.48897,372312
7.49710,308665
7.50522,262112
7.51333,245009
7.52147,219413
7.52958,203883
7.53772,198377
7.54583,206965
7.55395,196350
7.56208,203936
7.57020,202933
7.57833,198278
7.58645,190650
7.59457,208065
7.60270,205443
7.61082,193531
7.61893,188327
7.62707,194756
7.63518,190239
7.64332,188498
7.65143,184522
7.65955,182961
7.66768,178361
7.67580,194340
7.68393,198826
7.69205,190254
7.70017,186403
7.70830,185701
7.71642,192006
7.72453,185980
7.73267,182170
7.74078,179552
7.74892,182757
7.75703,182228
7.76515,183205
7.77328,173468
7.78140,177583
7.78953,170313
7.79765,174789
7.80577,190628
7.81390,190632
7.82202,198973
7.83015,206662
7.83827,204575
7.84638,202937
7.85452,189402
7.86263,172563
7.87075,163870
7.87888,153479
7.88700,152182
7.89513,155214
7.90325,146764
7.91137,150149
7.91950,145760
7.92762,143306
7.93575,146152
7.94387,151902
7.95198,147314
7.96012,148139
7.96823,170706
7.97637,186780
7.98448,229623
7.99260,276756
8.00073,313474
8.00885,313426
8.01697,277829
8.02510,239988
8.03322,204840
8.04135,191756
8.04947,178842
8.05758,182202
8.06572,177425
8.07383,195381
8.08197,199600
8.09008,196183
8.09820,197623
8.10633,196135
8.11445,184646
8.12257,194351
8.13070,184676
8.13882,184737
8.14695,184163
8.15507,188452
8.16318,184979
8.17132,204500
8.17943,258758
8.18757,289089
8.19568,334316
8.20380,343408
8.21193,319927
8.22005,285294
8.22818,255096
8.23630,222242
8.24442,208046
8.25255,202614
8.26067,199562
8.26878,213061
8.27692,216747
8.28503,213074
8.29317,205814
8.30128,195999
8.30940,198137
8.31753,197941
8.32565,194179
8.33378,203019
8.34190,234966
8.35002,295266
8.35815,408945
8.36627,516593
8.37438,564685
8.38252,528616
8.39063,440504
8.39877,355672
8.40688,291420
8.41500,256335
8.42313,262038
8.43125,264085
8.43938,278065
8.44750,285622
8.45562,277061
8.46375,261623
8.47187,260449
8.48000,253522
8.48812,244470
8.49623,232834
8.50437,229523
8.51248,223981
8.52060,251426
8.52873,286153
8.53685,318960
8.54498,324084
8.55310,309694
8.56122,269583
8.56935,253207
8.57747,235094
8.58560,238800
8.59372,213381
8.60183,207146
8.60997,207916
8.61808,195020
8.62622,208044
8.63433,199109
8.64245,209130
8.65058,198772
8.65870,188951
8.66682,190378
8.67495,182320
8.68307,178547
8.69120,178602
8.69932,175186
8.70743,181183
8.71557,181915
8.72368,183561
8.73182,179051
8.73993,182110
8.74805,183932
8.75618,186656
8.76430,256687
8.77243,649025
8.78055,2468964
8.78867,8949977
8.79680,2.457983E+07
8.80492,4.576549E+07
8.81303,5.827932E+07
8.82117,5.78308E+07
8.82928,4.922226E+07
8.83742,3.730178E+07
8.84553,2.613579E+07
8.85365,1.796768E+07
8.86178,1.214745E+07
8.86990,8314076
8.87803,5833248
8.88615,4282006
8.89427,3405149
8.90240,2743060
8.91052,2322673
8.91863,2005886
8.92677,1808475
8.93488,1667704
8.94302,1523498
8.95113,1415107
8.95925,1327989
8.96738,1266322
8.97550,1175017
8.98363,1101602
8.99175,1043014
8.99987,1030756
9.00800,986062
9.01612,951244
9.02425,908411
9.03237,889689
9.04048,864000
9.04862,808970
9.05673,809730
9.06485,789969
9.07298,771483
9.08110,750363
9.08923,739747
9.09735,715940
9.10547,683386
9.11360,672310
9.12172,645824
9.12985,646260
9.13797,641382
9.14608,653492
9.15422,654177
9.16233,653395
9.17045,657314
9.17858,693291
9.18670,739465
9.19483,786482
9.20295,865877
9.21107,846044
9.21920,817430
9.22732,732017
9.23545,669327
9.24357,620211
9.25168,575059
9.25982,568991
9.26793,534134
9.27607,522284
9.28418,499615
9.29230,487860
9.30043,469146
9.30855,463828
9.31667,458348
9.32480,443814
9.33292,426125
9.34105,434888
9.34917,445971
9.35728,424188
9.36542,425583
9.37353,406267
9.38167,398751
9.38978,382570
9.39790,389015
9.40603,385630
9.41415,369772
9.42228,363479
9.43040,356652
9.43852,361450
9.44665,348306
9.45477,358219
9.46288,344791
9.47102,335059
9.47913,342769
9.48727,331908
9.49538,337440
9.50350,332743
9.51163,326462
9.51975,333594
9.52788,352931
9.53600,363917
9.54412,412490
9.55225,479141
9.56037,543824
9.56848,587428
9.57662,589016
9.58473,552142
9.59287,505690
9.60098,555898
9.60910,680953
9.61723,871298
9.62535,1031357
9.63348,1014474
9.64160,897942
9.64972,772229
9.65785,646605
9.66597,589138
9.67410,548021
9.68222,481869
9.69033,458400
9.69847,421768
9.70658,389777
9.71470,367098
9.72283,352692
9.73095,345108
9.73908,327969
9.74720,308624
9.75532,296071
9.76345,284766
9.77157,277041
9.77970,282302
9.78782,260882
9.79593,263047
9.80407,264228
9.81218,248609
9.82032,257769
9.82843,249153
9.83655,251166
9.84468,247608
9.85280,247993
9.86092,244961
9.86905,243909
9.87717,235806
9.88530,238786
9.89342,238835
9.90153,224151
9.90967,232158
9.91778,226162
9.92592,215726
9.93403,222034
9.94215,210565
9.95028,221606
9.95840,217199
9.96652,226406
9.97465,240938
9.98277,261958
9.99090,323027
9.99902,389390
10.00713,467163
10.01527,594688
10.02338,799247
10.03152,1125100
10.03963,1548613
10.04775,1820432
10.05588,1949401
10.06400,1771127
10.07213,1421331
10.08025,1066556
10.08837,801315
10.09650,619875
10.10462,498344
10.11273,415038
10.12087,364766
10.12898,322369
10.13712,309221
10.14523,293871
10.15335,283110
10.16148,270458
10.16960,277963
10.17773,261878
10.18585,256818
10.19397,252931
10.20210,239749
10.21022,243191
10.21833,242572
10.22647,264866
10.23458,313834
10.24272,404544
10.25083,533079
10.25895,630701
10.26708,638885
10.27520,579343
10.28333,524847
10.29145,433327
10.29957,396130
10.30770,371983
10.31582,384099
10.32395,417374
10.33207,465200
10.34018,490546
10.34832,490557
10.35643,442709
10.36455,409484
10.37268,366115
10.38080,334171
10.38893,310386
10.39705,304255
10.40517,288482
10.41330,279562
10.42142,278362
10.42955,266716
10.43767,267742
10.44578,253658
10.45392,254245
10.46203,240636
10.47017,253051
10.47828,243513
10.48640,240589
10.49453,225596
10.50265,226479
10.51077,234189
10.51890,229365
10.52702,227357
10.53515,217424
10.54327,226597
10.55138,231872
10.55952,248731
10.56763,259487
10.57577,273021
10.58388,272562
10.59200,276235
10.60013,271703
10.60825,263056
10.61637,252625
10.62450,234169
10.63262,235909
10.64075,216809
10.64887,221026
10.65698,213466
10.66512,215227
10.67323,215194
10.68137,216454
10.68948,213072
10.69760,232119
10.70573,248727
10.71385,264997
10.72198,270189
10.73010,267642
10.73822,264534
10.74635,263282
10.75447,266407
10.76258,288898
10.77072,297097
10.77883,344900
10.78697,364264
10.79508,382095
10.80320,382808
10.81133,348344
10.81945,325400
10.82758,313473
10.83570,293835
10.84382,272224
10.85195,266827
10.86007,252852
10.86820,246483
10.87632,249037
10.88443,238973
10.89257,227216
10.90068,235256
10.90880,222635
10.91693,209471
10.92505,221803
10.93318,215058
10.94130,238958
10.94942,260499
10.95755,285978
10.96567,337162
10.97380,350272
10.98192,374340
10.99003,364083
10.99817,330167
11.00628,305532
11.01440,276747
11.02253,263813
11.03065,248279
11.03878,231844
11.04690,223104
11.05502,221256
11.06315,231618
11.07127,214320
11.07940,213822
11.08752,225873
11.09563,225799
11.10377,213666
11.11188,211578
11.12002,208749
11.12813,209389
11.13625,216651
11.14438,217014
11.15250,204954
11.16062,199817
11.16875,208235
11.17687,249210
11.18500,323834
11.19312,468722
11.20123,700659
11.20937,1002213
11.21748,1237481
11.22562,1414875
11.23373,1385488
11.24185,1181124
11.24998,917354
11.25810,673894
11.26622,507561
11.27435,383700
11.28247,312054
11.29060,276054
11.29872,259583
11.30683,257531
11.31497,238819
11.32308,265728
11.33122,283371
11.33933,310210
11.34745,326852
11.35558,316401
11.36370,308190
11.37183,289722
11.37995,278530
11.38807,270044
11.39620,263932
11.40432,253396
11.41243,255725
11.42057,238580
11.42868,222170
11.43682,224319
11.44493,214332
11.45305,211513
11.46118,203319
11.46930,201718
11.47743,207267
11.48555,202814
11.49367,199473
11.50180,206213
11.50992,205180
11.51805,203397
11.52617,203372
11.53428,203920
11.54242,199085
11.55053,195712
11.55865,206913
11.56678,194399
11.57490,205315
11.58303,200558
11.59115,198779
11.59927,197339
11.60740,205257
11.61552,200456
11.62365,203976
11.63177,225006
11.63988,217791
11.64802,215152
11.65613,209606
11.66425,199750
11.67238,212129
11.68050,203887
11.68863,194681
11.69675,189872
11.70487,206943
11.71300,220900
11.72112,238688
11.72925,276121
11.73737,289577
11.74548,295421
11.75362,303284
11.76173,313887
11.76987,358814
11.77798,404613
11.78610,490081
11.79423,541369
11.80235,529334
11.81047,475767
11.81860,379762
11.82672,313869
11.83485,276441
11.84297,263514
11.85108,267741
11.85922,268976
11.86733,289871
11.87547,311334
11.88358,326308
11.89170,311298
11.89983,297183
11.90795,281559
11.91608,264647
11.92420,261778
11.93232,244205
11.94045,231560
11.94857,227340
11.95668,216229
11.96482,213207
11.97293,209458
11.98107,216761
11.98918,208873
11.99730,210859
12.00543,207067
12.01355,218255
12.02168,209291
12.02980,209478
12.03792,218227
12.04605,213229
12.05417,216355
12.06228,209232
12.07042,214097
12.07853,218693
12.08667,218279
12.09478,226794
12.10290,216672
12.11103,224013
12.11915,217826
12.12728,213778
12.13540,214815
12.14352,221086
12.15165,238480
12.15977,259598
12.16790,280764
12.17602,281786
12.18413,295715
12.19227,304493
12.20038,289403
12.20850,281502
12.21663,283076
12.22475,261963
12.23288,267050
12.24100,251024
12.24912,240493
12.25725,239420
12.26537,228483
12.27350,232318
12.28162,220006
12.28973,226416
12.29787,223185
12.30598,223842
12.31412,220408
12.32223,218897
12.33035,213156
12.33848,227672
12.34660,218060
12.35472,217121
12.36285,216241
12.37097,219439
12.37910,220143
12.38722,224808
12.39533,220412
12.40347,228985
12.41158,224515
12.41972,240243
12.42783,239715
12.43595,244979
12.44408,260710
12.45220,281775
12.46032,345833
12.46845,425370
12.47657,476604
12.48470,547566
12.49282,545835
12.50093,513124
12.50907,475717
12.51718,433802
12.52532,381363
12.53343,342269
12.54155,312438
12.54968,288581
12.55780,279248
12.56593,278783
12.57405,275787
12.58217,270485
12.59030,256175
12.59842,250620
12.60653,245878
12.61467,242846
12.62278,237988
12.63092,235977
12.63903,232359
12.64715,235873
12.65528,239938
12.66340,227993
12.67153,232879
12.67965,234595
12.68777,243448
12.69590,226791
12.70402,235593
12.71213,247167
12.72027,255391
12.72838,285980
12.73652,346453
12.74463,469094
12.75275,657378
12.76088,913449
12.76900,1042669
12.77713,1086831
12.78525,1012395
12.79337,867066
12.80150,712763
12.80962,577993
12.81775,499052
12.82587,447394
12.83398,405823
12.84212,389778
12.85023,362512
12.85835,375426
12.86648,366064
12.87460,356993
12.88273,340417
12.89085,334171
12.89897,308682
12.90710,294951
12.91522,293518
12.92335,275432
12.93147,268679
12.93958,254956
12.94772,260411
12.95583,258725
12.96397,259263
12.97208,261158
12.98020,270059
12.98833,287144
12.99645,276191
13.00457,274677
13.01270,280530
13.02082,278104
13.02895,270252
13.03707,257317
13.04518,255885
13.05332,251569
13.06143,250699
13.06957,247417
13.07768,250062
13.08580,251245
13.09393,266175
13.10205,269924
13.11017,276775
13.11830,281153
13.12642,279003
13.13455,284941
13.14267,278640
13.15078,286005
13.15892,276504
13.16703,268345
13.17517,261188
13.18328,267743
13.19140,313604
13.19953,390161
13.20765,534787
13.21578,744194
13.22390,946716
13.23202,1030442
13.24015,946256
13.24827,755327
13.25638,552753
13.26452,425736
13.27263,321991
13.28077,292577
13.28888,281645
13.29700,272309
13.30513,263819
13.31325,260833
13.32138,260648
13.32950,235709
13.33762,242333
13.34575,241702
13.35387,243066
13.36200,246543
13.37012,239486
13.37823,245648
13.38637,233287
13.39448,234160
13.40260,236722
13.41073,233046
13.41885,229627
13.42698,247214
13.43510,223965
13.44322,231465
13.45135,225704
13.45947,220612
13.46760,220287
13.47572,219528
13.48383,214791
13.49197,223611
13.50008,221128
13.50820,215412
13.51633,219893
13.52445,232074
13.53258,210196
13.54070,210841
13.54882,214479
13.55695,223172
13.56507,220091
13.57320,224846
13.58132,229706
13.58943,227378
13.59757,243356
13.60568,230985
13.61382,229556
13.62193,228803
13.63005,223411
13.63818,216506
13.64630,217277
13.65442,222009
13.66255,223603
13.67067,212580
13.67880,210539
13.68692,211762
13.69503,211892
13.70317,206588
13.71128,210053
13.71942,210351
13.72753,210112
13.73565,207593
13.74378,209477
13.75190,200143
13.76002,202589
13.76815,208729
13.77627,202659
13.78440,201091
13.79252,220731
13.80063,210798
13.80877,214352
13.81688,213313
13.82502,225004
13.83313,221081
13.84125,223659
13.84938,241618
13.85750,240960
13.86563,253937
13.87375,262442
13.88187,277170
13.89000,271746
13.89812,267057
13.90623,257657
13.91437,262971
13.92248,296230
13.93062,349378
13.93873,442645
13.94685,554319
13.95498,610320
13.96310,590807
13.97123,531357
13.97935,434604
13.98747,344945
13.99560,302241
14.00372,262450
14.01185,271959
14.01997,250628
14.02808,255719
14.03622,238704
14.04433,252788
14.05245,270539
14.06058,302083
14.06870,379850
14.07683,496384
14.08495,632215
14.09307,702907
14.10120,722375
14.10932,612473
14.11745,463944
14.12557,368545
14.13368,305284
14.14182,270812
14.14993,270453
14.15807,252597
14.16618,282904
14.17430,319448
14.18243,491166
14.19055,1120193
14.19867,3097375
14.20680,7997440
14.21492,1.503307E+07
14.22305,1.992794E+07
14.23117,2.07921E+07
14.23928,1.756052E+07
14.24742,1.261759E+07
14.25553,7865726
14.26367,4640850
14.27178,2889305
14.27990,1990029
14.28803,1558594
14.29615,1263077
14.30427,1067151
14.31240,914685
14.32052,806793
14.32865,733837
14.33677,661492
14.34488,621142
14.35302,574368
14.36113,538910
14.36927,483001
14.37738,438390
14.38550,386271
14.39363,331568
14.40175,319978
14.40988,308834
14.41800,303228
14.42612,293094
14.43425,287867
14.44237,293131
14.45048,282383
14.45862,283158
14.46673,285791
14.47487,279388
14.48298,281270
14.49110,264000
14.49923,278943
14.50735,273693
14.51548,277357
14.52360,275584
14.53172,296122
14.53985,318280
14.54797,346749
14.55608,370225
14.56422,371606
14.57233,346765
14.58047,327339
14.58858,309666
14.59670,298005
14.60483,280094
14.61295,269092
14.62108,269800
14.62920,256019
14.63732,248728
14.64545,243027
14.65357,238386
14.66170,237774
14.66982,239993
14.67793,234610
14.68607,235716
14.69418,233315
14.70230,246358
14.71043,235031
14.71855,241206
14.72668,250166
14.73480,269784
14.74292,285308
14.75105,282658
14.75917,284300
14.76730,271066
14.77542,265140
14.78353,249586
14.79167,248710
14.79978,248277
14.80790,237471
14.81603,251066
14.82415,270013
14.83228,300332
14.84040,379627
14.84852,479086
14.85665,562385
14.86477,610925
14.87290,636725
14.88102,621878
14.88913,616100
14.89727,575685
14.90538,552881
14.91352,512693
14.92163,505970
14.92975,500055
14.93788,490573
14.94600,459628
14.95412,479503
14.96225,466694
14.97037,453855
14.97850,429028
14.98662,412554
14.99473,411950
15.00287,389228
15.01098,386967
15.01912,370770
15.02723,376419
15.03535,373474
15.04348,371796
15.05160,350900
15.05973,343755
15.06785,339094
15.07597,341110
15.08410,333885
15.09222,333463
15.10033,324323
15.10847,318948
15.11658,314014
15.12472,316881
15.13283,309039
15.14095,302392
15.14908,307111
15.15720,309958
15.16533,289099
15.17345,287044
15.18157,298585
15.18970,296135
15.19782,301844
15.20595,312964
15.21407,311557
15.22218,319500
15.23032,299388
15.23843,284902
15.24655,290451
15.25468,284867
15.26280,291317
15.27093,287104
15.27905,282734
15.28717,263812
15.29530,256949
15.30342,253603
15.31155,251597
15.31967,250015
15.32778,247307
15.33592,241560
15.34403,236032
15.35215,233642
15.36028,235959
15.36840,240148
15.37653,220380
15.38465,235983
15.39277,237704
15.40090,230109
15.40902,235361
15.41715,231557
15.42527,230983
15.43338,230365
15.44152,230877
15.44963,226717
15.45777,222990
15.46588,224891
15.47400,227810
15.48213,223911
15.49025,225868
15.49837,252401
15.50650,281714
15.51462,327858
15.52275,365933
15.53087,395251
15.53898,387153
15.54712,343340
15.55523,299765
15.56337,271003
15.57148,241601
15.57960,231981
15.58773,225816
15.59585,227691
15.60397,225013
15.61210,223278
15.62022,213836
15.62835,215562
15.63647,214853
15.64458,214315
15.65272,212851
15.66083,213063
15.66897,214322
15.67708,207452
15.68520,216362
15.69333,214385
15.70145,209653
15.70958,213548
15.71770,213308
15.72582,205917
15.73395,205239
15.74207,213273
15.75018,208838
15.75832,216262
15.76643,218751
15.77457,226616
15.78268,233337
15.79080,243988
15.79893,265335
15.80705,254145
15.81518,257369
15.82330,259630
15.83142,246247
15.83955,243006
15.84767,225852
15.85580,226078
15.86392,223911
15.87203,215606
15.88017,214392
15.88828,218253
15.89640,217335
15.90453,221350
15.91265,227814
15.92078,224159
15.92890,228407
15.93702,230059
15.94515,236210
15.95327,232057
15.96140,227512
15.96952,225376
15.97763,225140
15.98577,223823
15.99388,230704
16.00200,265036
16.01013,382951
16.01825,683940
16.02638,1398225
16.03450,2659915
16.04262,4335754
16.05075,5960853
16.05887,6905034
16.06700,6759205
16.07512,5794132
16.08323,4425578
16.09137,3117613
16.09948,2194399
16.10762,1622082
16.11573,1293132
16.12385,1095875
16.13198,979292
16.14010,876381
16.14822,774846
16.15635,730851
16.16447,679612
16.17260,636827
16.18072,618611
16.18883,569220
16.19697,542032
16.20508,538324
16.21322,507072
16.22133,502760
16.22945,482741
16.23758,493337
16.24570,485551
16.25383,476425
16.26195,494689
16.27007,500880
16.27820,478657
16.28632,478980
16.29443,449871
16.30257,441321
16.31068,451271
16.31882,420284
16.32693,410552
16.33505,409833
16.34318,401271
16.35130,392405
16.35943,374252
16.36755,389923
16.37567,372664
16.38380,362770
16.39192,354456
16.40003,328410
16.40817,304783
16.41628,309536
16.42442,287164
16.43253,281095
16.44065,287086
16.44878,278421
16.45690,283566
16.46503,295311
16.47315,281229
16.48127,303086
16.48940,303942
16.49752,337473
16.50565,345318
16.51377,359871
16.52188,368535
16.53002,363012
16.53813,351171
16.54625,340175
16.55438,334115
16.56250,316319
16.57063,316462
16.57875,311353
16.58687,308462
16.59500,296373
16.60312,286976
16.61125,289435
16.61937,279885
16.62748,281505
16.63562,279514
16.64373,268513
16.65185,273572
16.65998,285508
16.66810,271337
16.67623,262785
16.68435,263806
16.69247,263111
16.70060,271539
16.70872,261823
16.71685,263656
16.72497,266299
16.73308,256852
16.74122,245475
16.74933,241248
16.75747,236738
16.76558,234427
16.77370,234298
16.78183,233269
16.78995,235964
16.79807,234070
16.80620,222277
16.81432,225275
16.82245,229922
16.83057,224923
16.83868,222476
16.84682,225277
16.85493,231882
16.86307,227086
16.87118,220081
16.87930,219608
16.88743,215947
16.89555,222236
16.90368,230386
16.91180,225987
16.91992,231195
16.92805,236661
16.93617,244886
16.94428,252802
16.95242,272094
16.96053,263507
16.96867,255338
16.97678,255806
16.98490,247241
16.99303,235283
17.00115,229739
17.00928,231531
17.01740,244133
17.02552,247024
17.03365,262888
17.04177,264748
17.04988,258075
17.05802,262296
17.06613,250508
17.07427,241749
17.08238,238359
17.09050,240192
17.09863,251353
17.10675,263669
17.11488,282997
17.12300,311574
17.13112,309103
17.13925,321965
17.14737,318980
17.15550,292608
17.16362,291569
17.17173,273409
17.17987,258347
17.18798,248319
17.19610,254796
17.20423,239662
17.21235,237459
17.22048,225913
17.22860,220062
17.23672,220398
17.24485,230410
17.25297,227445
17.26110,230833
17.26922,240864
17.27733,248715
17.28547,252533
17.29358,254875
17.30172,274438
17.30983,267818
17.31795,255032
17.32608,248440
17.33420,248598
17.34232,243379
17.35045,244696
17.35857,263097
17.36670,301260
17.37482,369118
17.38293,443944
17.39107,514158
17.39918,525990
17.40732,501576
17.41543,421450
17.42355,330865
17.43168,298679
17.43980,268852
17.44792,252533
17.45605,259352
17.46417,252732
17.47230,247611
17.48042,251219
17.48853,238483
17.49667,244285
17.50478,241102
17.51292,255884
17.52103,246506
17.52915,260182
17.53728,261660
17.54540,277718
17.55353,280976
17.56165,277625
17.56977,279291
17.57790,266996
17.58602,262591
17.59413,245962
17.60227,256228
17.61038,253201
17.61852,247749
17.62663,243736
17.63475,242621
17.64288,249224
17.65100,246002
17.65913,237406
17.66725,240834
17.67537,242740
17.68350,240239
17.69162,252671
17.69973,256942
17.70787,267770
17.71598,302379
17.72412,339395
17.73223,398470
17.74035,465859
17.74848,493826
17.75660,434344
17.76473,362622
17.77285,308886
17.78097,270507
17.78910,254258
17.79722,236690
17.80535,235798
17.81347,230381
17.82158,234863
17.82972,229092
17.83783,231499
17.84595,257058
17.85408,265063
17.86220,268136
17.87033,280561
17.87845,286896
17.88657,280446
17.89470,271202
17.90282,253963
17.91095,254694
17.91907,232890
17.92718,232947
17.93532,230008
17.94343,222276
17.95157,217426
17.95968,213106
17.96780,216663
17.97593,205170
17.98405,212546
17.99217,210518
18.00030,214228
18.00842,224703
18.01655,274526
18.02467,460533
18.03278,884079
18.04092,1350513
18.04903,1592229
18.05717,1686310
18.06528,1762192
18.07340,1771622
18.08153,1875252
18.08965,1961475
18.09777,2153074
18.10590,2336312
18.11402,2533429
18.12215,2579611
18.13027,2557481
18.13838,2467988
18.14652,2337245
18.15463,2275188
18.16277,2195029
18.17088,2118735
18.17900,2059353
18.18713,1972832
18.19525,1865773
18.20338,1765210
18.21150,1678296
18.21962,1622846
18.22775,1605030
18.23587,1560900
18.24398,1478185
18.25212,1481609
18.26023,1458998
18.26837,1431000
18.27648,1435147
18.28460,1391811
18.29273,1339477
18.30085,1281407
18.30898,1209858
18.31710,1174166
18.32522,1112649
18.33335,1086931
18.34147,1054361
18.34960,1060784
18.35772,1005215
18.36583,1012069
18.37397,1003139
18.38208,963100
18.39020,974438
18.39833,959509
18.40645,922625
18.41458,923486
18.42270,915485
18.43082,892948
18.43895,890257
18.44707,855482
18.45520,891614
18.46332,863047
18.47143,850286
18.47957,840949
18.48768,842044
18.49580,829824
18.50393,857597
18.51205,833263
18.52018,809511
18.52830,792660
18.53642,788883
18.54455,764781
18.55267,752508
18.56080,758494
18.56892,729745
18.57703,722354
18.58517,711250
18.59328,722813
18.60142,723334
18.60953,712232
18.61765,750154
18.62578,758070
18.63390,745029
18.64202,723796
18.65015,733204
18.65827,742890
18.66640,745260
18.67452,744713
18.68263,752654
18.69077,746422
18.69888,717553
18.70702,677718
18.71513,640977
18.72325,648826
18.73138,615622
18.73950,613526
18.74763,621237
18.75575,597613
18.76387,613315
18.77200,604959
18.78012,586660
18.78823,594534
18.79637,590404
18.80448,571904
18.81262,575638
18.82073,568982
18.82885,573759
18.83698,553073
18.84510,563234
18.85323,555020
18.86135,543758
18.86947,553243
18.87760,549182
18.88572,561297
18.89383,555571
18.90197,561692
18.91008,562975
18.91822,556740
18.92633,550308
18.93445,544570
18.94258,533681
18.95070,522637
18.95883,509857
18.96695,523021
18.97507,519929
18.98320,524060
18.99132,535368
18.99945,539164
19.00757,553014
19.01568,540289
19.02382,523442
19.03193,516139
19.04005,491301
19.04818,482001
19.05630,481999
19.06443,477452
19.07255,481292
19.08067,489487
19.08880,503380
19.09692,553254
19.10505,626377
19.11317,755478
19.12128,911773
19.12942,1013632
19.13753,1022793
19.14565,979698
19.15378,899044
19.16190,790522
19.17003,697023
19.17815,658964
19.18627,619216
19.19440,591037
19.20252,558889
19.21065,554411
19.21877,546679
19.22688,525159
19.23502,515762
19.24313,510616
19.25127,497941
19.25938,488578
19.26750,515375
19.27563,552762
19.28375,678651
19.29187,918315
19.30000,1276696
19.30812,1738658
19.31625,2141847
19.32437,2268709
19.33248,2168945
19.34062,1873312
19.34873,1508234
19.35687,1257192
19.36498,1104104
19.37310,1037753
19.38123,976029
19.38935,865712
19.39748,800006
19.40560,712388
19.41372,644598
19.42185,602516
19.42997,585172
19.43808,562516
19.44622,545788
19.45433,556504
19.46247,664367
19.47058,974084
19.47870,1759531
19.48683,3763428
19.49495,7261082
19.50308,1.249452E+07
19.51120,1.821086E+07
19.51932,2.163332E+07
19.52745,2.094716E+07
19.53557,1.684967E+07
19.54368,1.155108E+07
19.55182,6843932
19.55993,3613509
19.56807,1859270
19.57618,1084415
19.58430,778638
19.59243,681500
19.60055,637001
19.60868,608062
19.61680,582510
19.62492,589307
19.63305,634257
19.64117,891107
19.64930,1624815
19.65742,3472603
19.66553,7228706
19.67367,1.332456E+07
19.68178,1.989909E+07
19.68990,2.339598E+07
19.69803,2.296368E+07
19.70615,1.982169E+07
19.71428,1.453741E+07
19.72240,9499240
19.73052,5853526
19.73865,3764946
19.74677,2664184
19.75490,2035533
19.76302,1626913
19.77113,1354376
19.77927,1190801
19.78738,1064956
19.79552,956405
19.80363,887036
19.81175,833580
19.81988,789943
19.82800,710238
19.83612,703829
19.84425,692213
19.85237,673571
19.86050,639960
19.86862,627583
19.87673,643972
19.88487,631200
19.89298,689899
19.90112,792651
19.90923,914334
19.91735,1067369
19.92548,1194628
19.93360,1210889
19.94172,1172401
19.94985,1078186
19.95797,987869
19.96610,861927
19.97422,809865
19.98233,761458
19.99047,738393
19.99858,700375
20.00672,676776
20.01483,671189
20.02295,650435
20.03108,674608
20.03920,678100
20.04733,663571
20.05545,633428
20.06357,602341
20.07170,571602
20.07982,548606
20.08793,523495
20.09607,508199
20.10418,494280
20.11232,487140
20.12043,488720
20.12855,483317
20.13668,487410
20.14480,464576
20.15293,464825
20.16105,461909
20.16917,467031
20.17730,469627
20.18542,448926
20.19353,449810
20.20167,455686
20.20978,458883
20.21792,468012
20.22603,466319
20.23415,483261
20.24228,580690
20.25040,933862
20.25853,2035922
20.26665,5049117
20.27477,1.152798E+07
20.28290,2.065455E+07
20.29102,2.786918E+07
20.29915,3.123021E+07
20.30727,2.939181E+07
20.31538,2.368542E+07
20.32352,1.661144E+07
20.33163,1.041232E+07
20.33975,6140106
20.34788,3508711
20.35600,2238614
20.36413,1627987
20.37225,1277551
20.38037,1127607
20.38850,1042241
20.39662,949862
20.40475,928520
20.41287,960547
20.42098,1146866
20.42912,1728890
20.43723,2894745
20.44537,4857042
20.45348,6948688
20.46160,8507519
20.46973,8851649
20.47785,7851799
20.48597,5899148
20.49410,4100121
20.50222,2759552
20.51035,1867732
20.51847,1316336
20.52658,1030792
20.53472,870232
20.54283,795089
20.55097,739818
20.55908,682824
20.56720,654218
20.57533,628618
20.58345,595430
20.59157,584179
20.59970,556275
20.60782,561070
20.61595,551700
20.62407,566772
20.63218,588781
20.64032,618751
20.64843,650872
20.65657,662869
20.66468,654008
20.67280,620756
20.68093,603221
20.68905,577671
20.69718,547295
20.70530,549328
20.71342,521545
20.72155,510517
20.72967,499153
20.73778,492577
20.74592,480248
20.75403,479251
20.76217,472206
20.77028,478149
20.77840,463827
20.78653,457360
20.79465,461214
20.80278,454563
20.81090,449769
20.81902,479148
20.82715,483746
20.83527,476116
20.84340,478904
20.85152,484102
20.85963,480460
20.86777,472302
20.87588,450794
20.88400,454655
20.89213,474713
20.90025,459200
20.90838,453331
20.91650,450723
20.92462,433114
20.93275,440486
20.94087,416470
20.94900,428589
20.95712,413196
20.96523,404009
20.97337,405608
20.98148,422828
20.98960,411278
20.99773,405055
21.00585,398011
21.01398,405717
21.02210,394365
21.03022,405911
21.03835,397858
21.04647,394486
21.05460,405411
21.06272,406005
21.07083,403370
21.07897,398618
21.08708,406265
21.09522,390123
21.10333,386693
21.11145,389574
21.11958,396710
21.12770,380732
21.13582,389417
21.14395,394042
21.15207,401236
21.16020,424248
21.16832,452041
21.17643,480058
21.18457,482315
21.19268,484845
21.20082,490126
21.20893,465519
21.21705,452366
21.22518,453139
21.23330,426827
21.24142,419749
21.24955,421970
21.25767,419315
21.26580,420917
21.27392,430264
21.28203,436221
21.29017,432470
21.29828,447713
21.30642,453963
21.31453,453555
21.32265,454754
21.33078,422897
21.33890,394802
21.34703,401048
21.35515,384132
21.36327,390000
21.37140,401088
21.37952,406526
21.38763,402163
21.39577,428851
21.40388,455358
21.41202,449133
21.42013,488499
21.42825,478006
21.43638,465889
21.44450,477835
21.45263,463803
21.46075,462443
21.46887,456614
21.47700,435833
21.48512,432656
21.49325,409852
21.50137,391881
21.50948,402545
21.51762,381299
21.52573,377461
21.53385,376502
21.54198,407847
21.55010,425190
21.55823,476863
21.56635,517940
21.57447,549012
21.58260,514245
21.59072,481126
21.59885,434359
21.60697,472702
21.61508,619172
21.62322,1037697
21.63133,2132927
21.63947,4380126
21.64758,7743297
21.65570,1.060015E+07
21.66383,1.102752E+07
21.67195,9334318
21.68007,6940812
21.68820,4484563
21.69632,2723599
21.70445,1615777
21.71257,1057490
21.72068,789844
21.72882,677929
21.73693,599078
21.74507,555093
21.75318,522111
21.76130,506047
21.76943,487312
21.77755,461239
21.78567,448680
21.79380,456285
21.80192,483590
21.81005,582295
21.81817,889565
21.82628,1571241
21.83442,2815486
21.84253,4722258
21.85067,6440553
21.85878,6808245
21.86690,6085018
21.87503,4456488
21.88315,2847391
21.89128,1799938
21.89940,1129226
21.90752,792031
21.91565,628439
21.92377,537793
21.93188,511594
21.94002,499398
21.94813,540993
21.95627,563010
21.96438,554968
21.97250,546377
21.98063,510714
21.98875,460770
21.99688,425720
22.00500,403944
22.01312,392289
22.02125,381861
22.02937,387448
22.03748,373403
22.04562,361012
22.05373,366427
22.06187,359927
22.06998,360057
22.07810,377489
22.08623,384704
22.09435,412477
22.10248,417178
22.11060,428277
22.11872,424707
22.12685,436364
22.13497,431424
22.14310,433926
22.15122,444047
22.15933,468097
22.16747,499139
22.17558,547059
22.18370,565208
22.19183,579753
22.19995,566675
22.20808,581030
22.21620,686880
22.22432,883777
22.23245,1155850
22.24057,1504222
22.24870,1793124
22.25682,1818229
22.26493,1618965
22.27307,1272384
22.28118,938889
22.28932,701459
22.29743,565061
22.30555,491823
22.31368,449975
22.32180,437360
22.32992,434175
22.33805,439676
22.34617,430801
22.35430,436398
22.36242,440347
22.37053,422760
22.37867,425650
22.38678,402270
22.39492,382568
22.40303,385653
22.41115,361250
22.41928,369865
22.42740,384478
22.43552,432036
22.44365,488526
22.45177,593308
22.45990,754771
22.46802,937232
22.47613,1129248
22.48427,1218883
22.49238,1191820
22.50052,1100149
22.50863,925331
22.51675,793503
22.52488,672944
22.53300,587346
22.54113,546863
22.54925,515506
22.55737,492656
22.56550,500584
22.57362,482164
22.58173,507240
22.58987,532197
22.59798,529361
22.60612,516777
22.61423,503650
22.62235,478743
22.63048,453055
22.63860,443322
22.64673,441853
22.65485,460304
22.66297,469618
22.67110,457363
22.67922,461389
22.68735,454710
22.69547,440728
22.70358,444011
22.71172,443034
22.71983,434736
22.72795,448055
22.73608,444422
22.74420,436821
22.75233,427059
22.76045,406951
22.76857,405442
22.77670,408939
22.78482,392659
22.79295,381416
22.80107,380443
22.80918,382453
22.81732,375004
22.82543,406115
22.83355,399432
22.84168,442097
22.84980,472017
22.85793,510593
22.86605,528160
22.87417,553054
22.88230,524597
22.89042,494683
22.89855,468454
22.90667,476676
22.91478,524448
22.92292,665225
22.93103,895843
22.93917,1273712
22.94728,1644640
22.95540,2049543
22.96353,2260400
22.97165,2291587
22.97977,2153769
22.98790,1935175
22.99602,1655979
23.00415,1457500
23.01227,1280308
23.02038,1131214
23.02852,984772
23.03663,832983
23.04477,705172
23.05288,619168
23.06100,559737
23.06913,508396
23.07725,496585
23.08537,501066
23.09350,514554
23.10162,537362
23.10975,559024
23.11787,516878
23.12598,472069
23.13412,439329
23.14223,413955
23.15037,388200
23.15848,389461
23.16660,393799
23.17473,400804
23.18285,401344
23.19098,404142
23.19910,424881
23.20722,421372
23.21535,425848
23.22347,407102
23.23158,386615
23.23972,386236
23.24783,378490
23.25597,379601
23.26408,382572
23.27220,386767
23.28033,388400
23.28845,383070
23.29658,397385
23.30470,385531
23.31282,380749
23.32095,373062
23.32907,376544
23.33720,376332
23.34532,390359
23.35343,389894
23.36157,406971
23.36968,417477
23.37780,443671
23.38593,446829
23.39405,440825
23.40218,401214
23.41030,397718
23.41842,393735
23.42655,381031
23.43467,411961
23.44280,409300
23.45092,410338
23.45903,387531
23.46717,380515
23.47528,380204
23.48340,371313
23.49153,372538
23.49965,368304
23.50778,385325
23.51590,391618
23.52402,399314
23.53215,400255
23.54027,393896
23.54840,385732
23.55652,395403
23.56463,393102
23.57277,407823
23.58088,412476
23.58902,418304
23.59713,406590
23.60525,407767
23.61338,401966
23.62150,385895
23.62962,386733
23.63775,386310
23.64587,391409
23.65400,404941
23.66212,408346
23.67023,423286
23.67837,451769
23.68648,457067
23.69462,471007
23.70273,465100
23.71085,451798
23.71898,417145
23.72710,422624
23.73523,416387
23.74335,409982
23.75147,422733
23.75960,490167
23.76772,792321
23.77583,1572316
23.78397,3275355
23.79208,5788827
23.80022,8031789
23.80833,9364259
23.81645,9008375
23.82458,7532592
23.83270,5392300
23.84083,3694902
23.84895,2532312
23.85707,1857428
23.86520,1454147
23.87332,1203021
23.88143,1056691
23.88957,968872
23.89768,912275
23.90582,835853
23.91393,771400
23.92205,758623
23.93018,723214
23.93830,707245
23.94643,692932
23.95455,678775
23.96267,673716
23.97080,668815
23.97892,651241
23.98705,657110
23.99517,640367
24.00328,660533
24.01142,667423
24.01953,651763
24.02765,640104
24.03578,617620
24.04390,626567
24.05203,619622
24.06015,620545
24.06827,619513
24.07640,618715
24.08452,608621
24.09265,616557
24.10077,594871
24.10888,585764
24.11702,618051
24.12513,697663
24.13327,901378
24.14138,1225890
24.14950,1673864
24.15763,1968154
24.16575,2082373
24.17387,1954251
24.18200,1626119
24.19012,1276418
24.19825,1102499
24.20637,1077523
24.21448,1310973
24.22262,1720250
24.23073,2295017
24.23887,2740278
24.24698,2717992
24.25510,2382868
24.26323,1795320
24.27135,1313146
24.27947,997499
24.28760,822826
24.29572,718870
24.30385,671831
24.31197,638040
24.32008,611466
24.32822,616189
24.33633,609955
24.34447,588841
24.35258,614259
24.36070,626576
24.36883,716456
24.37695,916598
24.38508,1631782
24.39320,3193870
24.40132,5571410
24.40945,7706144
24.41757,8320193
24.42568,7236159
24.43382,5148903
24.44193,3227605
24.45007,1853823
24.45818,1067858
24.46630,731782
24.47443,606211
24.48255,589958
24.49068,650175
24.49880,851875
24.50692,1291686
24.51505,2109289
24.52317,3233424
24.53128,4077350
24.53942,4074658
24.54753,3532922
24.55567,2756979
24.56378,1988609
24.57190,1395821
24.58003,1080741
24.58815,849012
24.59628,769577
24.60440,685089
24.61252,662962
24.62065,632258
24.62877,654148
24.63690,642687
24.64502,661874
24.65313,655891
24.66127,661039
24.66938,659466
24.67750,657054
24.68563,664085
24.69375,671045
24.70188,631314
24.71000,595007
24.71812,570856
24.72625,538812
24.73437,509587
24.74250,507764
24.75062,499629
24.75873,494489
24.76687,485701
24.77498,494786
24.78312,483923
24.79123,492699
24.79935,493201
24.80748,501238
24.81560,478599
24.82372,473220
24.83185,465096
24.83997,454825
24.84810,452825
24.85622,444302
24.86433,459705
24.87247,468061
24.88058,529953
24.88872,558451
24.89683,590938
24.90495,615302
24.91308,644655
24.92120,651068
24.92932,637486
24.93745,650569
24.94557,635798
24.95370,632507
24.96182,599648
24.96993,586286
24.97807,574086
24.98618,569777
24.99432,572267
25.00243,576847
25.01055,566209
25.01868,560717
25.02680,567517
25.03493,584855
25.04305,602012
25.05117,606640
25.05930,622700
25.06742,614774
25.07553,641100
25.08367,623980
25.09178,604396
25.09992,598309
25.10803,583778
25.11615,584628
25.12428,595154
25.13240,622593
25.14053,702949
25.14865,815277
25.15677,967702
25.16490,1090767
25.17302,1209173
25.18115,1209506
25.18927,1141102
25.19738,1033081
25.20552,925771
25.21363,838485
25.22175,744060
25.22988,703503
25.23800,668476
25.24613,642300
25.25425,634009
25.26237,616337
25.27050,608335
25.27862,586708
25.28675,585866
25.29487,573433
25.30298,568515
25.31112,564497
25.31923,562556
25.32735,564391
25.33548,575263
25.34360,582503
25.35173,574742
25.35985,584331
25.36797,584018
25.37610,591023
25.38422,590179
25.39235,562332
25.40047,561549
25.40858,532183
25.41672,524514
25.42483,490505
25.43297,463821
25.44108,464922
25.44920,452504
25.45733,479294
25.46545,526836
25.47357,641239
25.48170,787659
25.48982,1068824
25.49795,1380601
25.50607,1656379
25.51418,1784670
25.52232,1695892
25.53043,1477290
25.53857,1213462
25.54668,999467
25.55480,857925
25.56293,753705
25.57105,679489
25.57917,621024
25.58730,592217
25.59542,563982
25.60355,541339
25.61167,505305
25.61978,515733
25.62792,499517
25.63603,494461
25.64417,464356
25.65228,450391
25.66040,449523
25.66853,447393
25.67665,436940
25.68478,416021
25.69290,422333
25.70102,426198
25.70915,445171
25.71727,443966
25.72538,455065
25.73352,458329
25.74163,449552
25.74977,450947
25.75788,427863
25.76600,418895
25.77413,418614
25.78225,417650
25.79038,422569
25.79850,444330
25.80662,440394
25.81475,458758
25.82287,462750
25.83100,453641
25.83912,455054
25.84723,442352
25.85537,433861
25.86348,459201
25.87160,438505
25.87973,461910
25.88785,425299
25.89598,394355
25.90410,375007
25.91222,373446
25.92035,378162
25.92847,369104
25.93660,368112
25.94472,374627
25.95283,371340
25.96097,383172
25.96908,387907
25.97720,396025
25.98533,397844
25.99345,382337
26.00158,370208
26.00970,353815
26.01782,366443
26.02595,349712
26.03407,338715
26.04220,344128
26.05032,356872
26.05843,365976
26.06657,384072
26.07468,386451
26.08282,404396
26.09093,396800
26.09905,410178
26.10718,411190
26.11530,1010377
26.12342,1466391
26.13155,1632487
26.13967,1564870
26.14780,1507586
26.15592,1321702
26.16403,1210665
26.17217,1148616
26.18028,1044518
26.18842,963288
26.19653,865988
26.20465,774372
26.21278,694436
26.22090,601489
26.22903,535553
26.23715,501355
26.24527,463410
26.25340,447457
26.26152,448158
26.26963,497264
26.27777,508354
26.28588,545275
26.29402,533669
26.30213,504328
26.31025,466684
26.31838,452534
26.32650,431672
26.33463,429774
26.34275,424938
26.35087,420613
26.35900,402649
26.36712,415199
26.37523,411774
26.38337,427453
26.39148,445586
26.39962,455954
26.40773,477817
26.41585,506641
26.42398,541732
26.43210,550830
26.44023,570329
26.44835,562848
26.45647,538977
26.46460,525726
26.47272,531913
26.48085,550195
26.48897,560895
26.49708,562719
26.50522,582480
26.51333,587523
26.52145,578843
26.52958,612304
26.53770,601452
26.54583,612678
26.55395,619097
26.56207,628323
26.57020,641559
26.57832,624960
26.58645,635591
26.59457,641927
26.60268,643428
26.61082,651311
26.61893,648834
26.62705,622223
26.63518,593831
26.64330,572143
26.65143,533274
26.65955,522297
26.66767,512545
26.67580,477851
26.68392,461473
26.69205,435381
26.70017,409115
26.70828,388218
26.71642,393419
26.72453,409314
26.73267,434470
26.74078,454542
26.74890,462405
26.75703,449188
26.76515,409438
26.77327,383091
26.78140,364856
26.78952,337763
26.79765,325196
26.80577,329891
26.81388,340234
26.82202,353184
26.83013,361140
26.83827,393193
26.84638,431588
26.85450,484636
26.86263,561788
26.87075,663239
26.87888,726037
26.88700,757307
26.89512,693471
26.90325,594069
26.91137,514964
26.91948,438167
26.92762,423298
26.93573,477488
26.94387,753822
26.95198,1883931
26.96010,6182092
26.96823,1.867409E+07
26.97635,4.004427E+07
26.98448,6.327882E+07
26.99260,8.270076E+07
27.00072,9.297856E+07
27.00885,9.671373E+07
27.01697,9.223146E+07
27.02510,8.415475E+07
27.03322,7.018166E+07
27.04133,5.423441E+07
27.04947,3.925102E+07
27.05758,2.697041E+07
27.06570,1.877268E+07
27.07383,1.384239E+07
27.08195,1.064314E+07
27.09008,8437945
27.09820,6911346
27.10632,5895143
27.11445,5156139
27.12257,4786560
27.13070,4341495
27.13882,4008172
27.14693,3644884
27.15507,3481507
27.16318,3290854
27.17130,3071836
27.17943,2932872
27.18755,2754117
27.19568,2637050
27.20380,2572937
27.21192,2426838
27.22005,2340377
27.22817,2259118
27.23630,2171415
27.24442,2041250
27.25253,1994203
27.26067,1919609
27.26878,1855952
27.27692,1807027
27.28503,1757507
27.29315,1708812
27.30128,1644168
27.30940,1613788
27.31752,1601633
27.32565,1569630
27.33377,1543221
27.34190,1459555
27.35002,1463045
27.35813,1440280
27.36627,1424653
27.37438,1383282
27.38252,1408789
27.39063,1355823
27.39875,1400633
27.40688,1382603
27.41500,1378305
27.42312,1366300
27.43125,1349463
27.43937,1292969
27.44750,1239187
27.45562,1233514
27.46373,1221167
27.47187,1197227
27.47998,1187817
27.48812,1187841
27.49623,1165042
27.50435,1134184
27.51248,1142189
27.52060,1190861
27.52873,1325894
27.53685,1517210
27.54497,1640921
27.55310,1700114
27.56122,1651751
27.56933,1536970
27.57747,1378587
27.58558,1256990
27.59372,1171788
27.60183,1209684
27.60995,1296487
27.61808,1391892
27.62620,1459474
27.63433,1496982
27.64245,1448973
27.65057,1327362
27.65870,1227654
27.66682,1101461
27.67495,1042678
27.68307,1008017
27.69118,976515
27.69932,976513
27.70743,935831
27.71555,939702
27.72368,931978
27.73180,923195
27.73993,918864
27.74805,911908
27.75617,913649
27.76430,935752
27.77242,916108
27.78055,926742
27.78867,928398
27.79678,937440
27.80492,907696
27.81303,933374
27.82115,911765
27.82928,897095
27.83740,901854
27.84553,897868
27.85365,886220
27.86177,893850
27.86990,903879
27.87802,905845
27.88615,929023
27.89427,911394
27.90238,903470
27.91052,868879
27.91863,847685
27.92677,807151
27.93488,787867
27.94300,785874
27.95113,750676
27.95925,746380
27.96737,744175
27.97550,777939
27.98362,778076
27.99175,796307
27.99987,806206
28.00798,806509
28.01612,795157
28.02423,777703
28.03237,745579
28.04048,718987
28.04860,721498
28.05673,680268
28.06485,668342
28.07298,665232
28.08110,678174
28.08922,640827
28.09735,648380
28.10547,630832
28.11358,602119
28.12172,617270
28.12983,614672
28.13797,599240
28.14608,585889
28.15420,588095
28.16233,571778
28.17045,584320
28.17858,579833
28.18670,618170
28.19482,724165
28.20295,939897
28.21107,1296179
28.21918,1666794
28.22732,1923447
28.23543,1881440
28.24357,1652996
28.25168,1438441
28.25980,1575785
28.26793,2553835
28.27605,5588423
28.28418,1.326786E+07
28.29230,2.641581E+07
28.30042,4.271531E+07
28.30855,5.658053E+07
28.31667,6.672028E+07
28.32480,6.990371E+07
28.33292,6.74163E+07
28.34103,6.32924E+07
28.34917,5.688848E+07
28.35728,4.945314E+07
28.36540,4.256342E+07
28.37353,3.603343E+07
28.38165,3.056343E+07
28.38978,2.549074E+07
28.39790,2.062982E+07
28.40602,1.751021E+07
28.41415,1.42789E+07
28.42227,1.227288E+07
28.43040,1.011313E+07
28.43852,8335125
28.44663,6995855
28.45477,6117135
28.46288,5459665
28.47100,4827681
28.47913,4405637
28.48725,4181812
28.49538,3811019
28.50350,3478120
28.51162,3310624
28.51975,3144938
28.52787,2971282
28.53600,2809686
28.54412,2729607
28.55223,2603608
28.56037,2533058
28.56848,2422114
28.57662,2300555
28.58473,2197820
28.59285,2134796
28.60098,2081445
28.60910,1999005
28.61722,1941258
28.62535,1903594
28.63347,1820178
28.64160,1795557
28.64972,1811161
28.65783,1809144
28.66597,1772859
28.67408,1738271
28.68222,1719433
28.69033,1717985
28.69845,1633172
28.70658,1569948
28.71470,1492393
28.72283,1465331
28.73095,1445303
28.73907,1476154
28.74720,1579134
28.75532,1951524
28.76343,2802335
28.77157,4246510
28.77968,5590055
28.78782,5966613
28.79593,5277443
28.80405,4062263
28.81218,2940966
28.82030,2111671
28.82843,1650211
28.83655,1407002
28.84467,1284325
28.85280,1239427
28.86092,1216822
28.86903,1178468
28.87717,1187209
28.88528,1171926
28.89342,1173917
28.90153,1147137
28.90965,1160129
28.91778,1169681
28.92590,1179737
28.93403,1198326
28.94215,1165906
28.95027,1143280
28.95840,1135154
28.96652,1125262
28.97465,1140452
28.98277,1119247
28.99088,1153207
28.99902,1133235
29.00713,1095489
29.01525,1087494
29.02338,1081155
29.03150,1077713
29.03963,1061267
29.04775,1053108
29.05587,1041982
29.06400,1014001
29.07212,1020325
29.08025,1001382
29.08837,1022734
29.09648,1009020
29.10462,991306
29.11273,1013334
29.12087,1013490
29.12898,1014291
29.13710,1018301
29.14523,1028477
29.15335,999360
29.16147,1020472
29.16960,1006243
29.17772,1011978
29.18585,1013889
29.19397,1001918
29.20208,999827
29.21022,977168
29.21833,948768
29.22647,978919
29.23458,955303
29.24270,961301
29.25083,979518
29.25895,1013992
29.26707,1031083
29.27520,1002798
29.28332,1038163
29.29145,1016295
29.29957,1025406
29.30768,1013798
29.31582,997713
29.32393,980836
29.33207,974657
29.34018,956440
29.34830,947237
29.35643,932716
29.36455,909297
29.37268,915075
29.38080,916749
29.38892,933535
29.39705,928202
29.40517,974633
29.41328,995938
29.42142,1027125
29.42953,1065660
29.43767,1076189
29.44578,1036703
29.45390,1002053
29.46203,922066
29.47015,880125
29.47828,849475
29.48640,854524
29.49452,877761
29.50265,907822
29.51077,994031
29.51890,1036543
29.52702,1042641
29.53513,993555
29.54327,923029
29.55138,876577
29.55950,803246
29.56763,745671
29.57575,743302
29.58388,714558
29.59200,716022
29.60012,690299
29.60825,690216
29.61637,688605
29.62450,682719
29.63262,691653
29.64073,694673
29.64887,730726
29.65698,735478
29.66510,756397
29.67323,756849
29.68135,737405
29.68948,719942
29.69760,699804
29.70572,677727
29.71385,636809
29.72197,663070
29.73010,663556
29.73822,678038
29.74633,667958
29.75447,691841
29.76258,700832
29.77072,698307
29.77883,683866
29.78695,656021
29.79508,621346
29.80320,619489
29.81132,608756
29.81945,600316
29.82757,597303
29.83570,579554
29.84382,572668
29.85193,570111
29.86007,562630
29.86818,577683
29.87632,596671
29.88443,613500
29.89255,650656
29.90068,694539
29.90880,725471
29.91692,819459
29.92505,864214
29.93317,971096
29.94130,1220904
29.94942,1730186
29.95753,2766661
29.96567,4600449
29.97378,7734518
29.98192,1.220328E+07
29.99003,1.721452E+07
29.99815,2.15852E+07
30.00628,2.517708E+07
30.01440,2.690993E+07
30.02253,2.699653E+07
30.03065,2.542932E+07
30.03877,2.338848E+07
30.04690,2.102686E+07
30.05502,1.837224E+07
30.06313,1.592726E+07
30.07127,1.308327E+07
30.07938,1.098516E+07
30.08752,9133931
30.09563,7541042
30.10375,6096854
30.11188,4852189
30.12000,4155674
30.12813,3554264
30.13625,3071375
30.14437,2694112
30.15250,2438091
30.16062,2336916
30.16875,2276702
30.17687,2200875
30.18498,2048716
30.19312,1862806
30.20123,1688434
30.20935,1528127
30.21748,1441876
30.22560,1423366
30.23373,1395712
30.24185,1383963
30.24997,1292606
30.25810,1225476
30.26622,1159657
30.27435,1100506
30.28247,1042814
30.29058,1037036
30.29872,1039214
30.30683,1043004
30.31495,998555
30.32308,984169
30.33120,998467
30.33933,990337
30.34745,1021711
30.35557,1023370
30.36370,1045924
30.37182,1033745
30.37995,1004287
30.38807,1029013
30.39618,988613
30.40432,1016108
30.41243,1047360
30.42057,1108825
30.42868,1151159
30.43680,1164951
30.44493,1177943
30.45305,1171294
30.46117,1160705
30.46930,1107362
30.47742,1117149
30.48555,1117601
30.49367,1131403
30.50178,1136143
30.50992,1128907
30.51803,1141481
30.52617,1158251
30.53428,1164207
30.54240,1191433
30.55053,1196579
30.55865,1191741
30.56678,1212844
30.57490,1156836
30.58302,1157291
30.59115,1148695
30.59927,1118300
30.60738,1078601
30.61552,1063031
30.62363,1051591
30.63177,1014604
30.63988,1009596
30.64800,971674
30.65613,920028
30.66425,869506
30.67238,873203
30.68050,836401
30.68862,792951
30.69675,756809
30.70487,775232
30.71298,780496
30.72112,757031
30.72923,729263
30.73737,740248
30.74548,717920
30.75360,685690
30.76173,684378
30.76985,687337
30.77798,659986
30.78610,628018
30.79422,649625
30.80235,666717
30.81047,677133
30.81860,733207
30.82672,747542
30.83483,747827
30.84297,701346
30.85108,696151
30.85920,644378
30.86733,616410
30.87545,602957
30.88358,610615
30.89170,605225
30.89982,610017
30.90795,591216
30.91607,589988
30.92420,570716
30.93232,556199
30.94043,544366
30.94857,546221
30.95668,552259
30.96480,563954
30.97293,558946
30.98105,565203
30.98918,578621
30.99730,582292
31.00542,588305
31.01355,570501
31.02167,583225
31.02980,586461
31.03792,584962
31.04603,587207
31.05417,583728
31.06228,574515
31.07042,569135
31.07853,556984
31.08665,581162
31.09478,595471
31.10290,672609
31.11102,786907
31.11915,883666
31.12727,913966
31.13540,883438
31.14352,880093
31.15163,886623
31.15977,967767
31.16788,1129872
31.17602,1521974
31.18413,2523693
31.19225,4915190
31.20038,9849017
31.20850,1.773406E+07
31.21663,2.793504E+07
31.22475,3.812822E+07
31.23287,4.569712E+07
31.24100,5.089846E+07
31.24912,4.869646E+07
31.25723,4.23584E+07
31.26537,3.262471E+07
31.27348,2.147877E+07
31.28162,1.151455E+07
31.28973,5330269
31.29785,2427639
31.30598,1263943
31.31410,859809
31.32223,691911
31.33035,638939
31.33847,590099
31.34660,587239
31.35472,567274
31.36285,570779
31.37097,571813
31.37908,547658
31.38722,563371
31.39533,543852
31.40345,585636
31.41158,616059
31.41970,674058
31.42783,751416
31.43595,837754
31.44407,872021
31.45220,855870
31.46032,805839
31.46845,743464
31.47657,658472
31.48468,619144
31.49282,590727
31.50093,545502
31.50905,551606
31.51718,537741
31.52530,534323
31.53343,516085
31.54155,524681
31.54967,527344
31.55780,534574
31.56592,513196
31.57405,518133
31.58217,523406
31.59028,545256
31.59842,531473
31.60653,550872
31.61467,562405
31.62278,580919
31.63090,585024
31.63903,614503
31.64715,648073
31.65527,700572
31.66340,739481
31.67152,792824
31.67965,822118
31.68777,838804
31.69588,802326
31.70402,767105
31.71213,716022
31.72027,649107
31.72838,580690
31.73650,518464
31.74463,489273
31.75275,465021
31.76087,466563
31.76900,452447
31.77712,456719
31.78525,469773
31.79337,471105
31.80148,455751
31.80962,479251
31.81773,472951
31.82587,470923
31.83398,463344
31.84210,472723
31.85023,475888
31.85835,484775
31.86648,502300
31.87460,519055
31.88272,549739
31.89085,582875
31.89897,644100
31.90708,743862
31.91522,976619
31.92333,1412233
31.93147,2254284
31.93958,3545231
31.94770,5458535
31.95583,8103357
31.96395,1.057722E+07
31.97208,1.307967E+07
31.98020,1.445779E+07
31.98832,1.510881E+07
31.99645,1.509436E+07
32.00457,1.415273E+07
32.01270,1.267094E+07
32.02082,1.103643E+07
32.02893,9334096
32.03707,7864804
32.04518,6460848
32.05330,5254427
32.06143,4240408
32.06955,3697650
32.07768,3511327
32.08580,3494551
32.09392,3610482
32.10205,3567046
32.11017,3215226
32.11830,2742151
32.12642,2335624
32.13453,1918358
32.14267,1634745
32.15078,1471690
32.15890,1355397
32.16703,1248132
32.17515,1207033
32.18328,1147784
32.19140,1066133
32.19952,1018626
32.20765,992594
32.21577,964509
32.22390,924765
32.23202,901941
32.24013,897496
32.24827,885692
32.25638,852514
32.26452,821699
32.27263,810942
32.28075,799604
32.28888,787216
32.29700,788947
32.30512,775134
32.31325,766627
32.32137,745743
32.32950,750266
32.33762,756749
32.34573,759709
32.35387,768169
32.36198,779838
32.37012,781749
32.37823,765520
32.38635,752264
32.39448,710974
32.40260,669633
32.41073,672051
32.41885,632776
32.42697,613369
32.43510,619661
32.44322,589826
32.45133,606207
32.45947,601854
32.46758,611362
32.47572,600838
32.48383,604115
32.49195,596708
32.50008,580139
32.50820,572918
32.51633,564007
32.52445,560426
32.53257,563609
32.54070,553289
32.54882,546666
32.55693,531951
32.56507,551028
32.57318,537617
32.58132,529880
32.58943,537117
32.59755,536825
32.60568,530069
32.61380,539577
32.62193,520264
32.63005,537217
32.63817,607512
32.64630,853564
32.65442,1386276
32.66255,2264804
32.67067,3198815
32.67878,3637013
32.68692,3284384
32.69503,2597165
32.70315,1889318
32.71128,1323304
32.71940,927660
32.72753,736553
32.73565,651640
32.74377,600408
32.75190,579039
32.76002,555480
32.76815,565895
32.77627,555878
32.78438,546434
32.79252,510254
32.80063,507336
32.80875,486835
32.81688,476265
32.82500,486344
32.83313,488663
32.84125,483275
32.84937,495597
32.85750,498455
32.86562,495824
32.87375,478729
32.88187,484507
32.88998,475064
32.89812,462571
32.90623,497472
32.91437,509461
32.92248,515218
32.93060,526596
32.93873,534929
32.94685,525830
32.95497,497828
32.96310,489640
32.97122,475352
32.97935,454496
32.98747,461841
32.99558,457659
33.00372,460714
33.01183,465903
33.01997,460410
33.02808,461513
33.03620,480004
33.04433,466799
33.05245,468799
33.06058,456183
33.06870,457283
33.07682,478929
33.08495,485139
33.09307,513792
33.10118,561109
33.10932,651442
33.11743,758280
33.12557,917312
33.13368,1044308
33.14180,1035754
33.14993,937457
33.15805,813129
33.16618,679115
33.17430,597968
33.18242,517115
33.19055,493168
33.19867,505605
33.20678,532600
33.21492,611044
33.22303,682749
33.23117,739131
33.23928,746010
33.24740,708863
33.25553,682592
33.26365,651505
33.27178,601715
33.27990,571255
33.28802,561762
33.29615,546852
33.30427,563602
33.31240,555040
33.32052,553030
33.32863,557578
33.33677,548225
33.34488,541089
33.35300,515068
33.36113,504133
33.36925,493320
33.37738,473663
33.38550,465176
33.39362,459902
33.40175,451491
33.40987,445957
33.41800,441609
33.42612,462495
33.43423,441265
33.44237,439631
33.45048,445171
33.45862,453867
33.46673,440420
33.47485,437081
33.48298,426537
33.49110,434682
33.49922,420789
33.50735,431702
33.51547,421632
33.52360,421006
33.53172,424085
33.53983,431549
33.54797,445279
33.55608,463843
33.56422,469751
33.57233,498748
33.58045,514408
33.58858,496542
33.59670,502177
33.60482,496915
33.61295,486583
33.62107,457273
33.62920,455421
33.63732,447444
33.64543,441216
33.65357,446392
33.66168,447880
33.66982,463112
33.67793,472197
33.68605,463587
33.69418,462187
33.70230,469797
33.71043,453540
33.71855,456430
33.72667,456973
33.73480,453803
33.74292,437208
33.75103,444134
33.75917,455582
33.76728,497987
33.77542,543914
33.78353,631429
33.79165,742517
33.79978,878666
33.80790,1002781
33.81603,1053599
33.82415,1036479
33.83227,977249
33.84040,898699
33.84852,845565
33.85665,813365
33.86477,821805
33.87288,774867
33.88102,725382
33.88913,680118
33.89725,651370
33.90538,671936
33.91350,730845
33.92163,797183
33.92975,882111
33.93787,936438
33.94600,957762
33.95412,919191
33.96225,846802
33.97037,721630
33.97848,647374
33.98662,590149
33.99473,533720
34.00285,509677
34.01098,511974
34.01910,501580
34.02723,496575
34.03535,509243
34.04347,489932
34.05160,510489
34.05972,521388
34.06785,505946
34.07597,511755
34.08408,518649
34.09222,503358
34.10033,509449
34.10847,515422
34.11658,507451
34.12470,518905
34.13283,518351
34.14095,525361
34.14907,539528
34.15720,556266
34.16532,592622
34.17345,607416
34.18157,635405
34.18968,643895
34.19782,668216
34.20593,657909
34.21407,646020
34.22218,619808
34.23030,630443
34.23843,627078
34.24655,635606
34.25467,647741
34.26280,645539
34.27092,679800
34.27905,698176
34.28717,702955
34.29528,706445
34.30342,721188
34.31153,715164
34.31967,710329
34.32778,705066
34.33590,691919
34.34403,697491
34.35215,685923
34.36028,685614
34.36840,695056
34.37652,692465
34.38465,703747
34.39277,676645
34.40088,669304
34.40902,660652
34.41713,649488
34.42527,631212
34.43338,620802
34.44150,607180
34.44963,576173
34.45775,577048
34.46588,586359
34.47400,572503
34.48212,578272
34.49025,577860
34.49837,565825
34.50650,598288
34.51462,666970
34.52273,867211
34.53087,1370147
34.53898,2326879
34.54710,3881092
34.55523,6235737
34.56335,8928671
34.57148,1.081979E+07
34.57960,1.199818E+07
34.58772,1.16816E+07
34.59585,1.029005E+07
34.60397,8707991
34.61210,6932101
34.62022,5453383
34.62833,4146377
34.63647,3278329
34.64458,2675100
34.65270,2252999
34.66083,1936122
34.66895,1719712
34.67708,1549567
34.68520,1436062
34.69332,1351358
34.70145,1292861
34.70957,1219657
34.71770,1180361
34.72582,1152174
34.73393,1141578
34.74207,1156871
34.75018,1131508
34.75832,1105643
34.76643,1056947
34.77455,1008567
34.78268,960118
34.79080,917623
34.79892,889307
34.80705,868300
34.81517,841276
34.82330,817616
34.83142,804376
34.83953,805143
34.84767,816692
34.85578,809834
34.86392,826577
34.87203,826787
34.88015,807343
34.88828,807682
34.89640,801862
34.90453,777192
34.91265,768365
34.92077,776470
34.92890,756887
34.93702,757851
34.94513,767664
34.95327,797695
34.96138,831810
34.96952,877690
34.97763,928014
34.98575,957665
34.99388,961423
35.00200,959307
35.01013,904589
35.01825,907612
35.02637,870899
35.03450,870517
35.04262,856578
35.05073,840265
35.05887,837558
35.06698,819406
35.07512,780873
35.08323,794007
35.09135,750778
35.09948,746029
35.10760,741572
35.11573,761606
35.12385,861828
35.13197,1070290
35.14010,1348372
35.14822,1791746
35.15635,2255811
35.16447,2708091
35.17258,2912242
35.18072,2896936
35.18883,2588413
35.19695,2070421
35.20508,1558443
35.21320,1161499
35.22133,889050
35.22945,748999
35.23757,680362
35.24570,627061
35.25382,618157
35.26195,629301
35.27007,644291
35.27818,656191
35.28632,662274
35.29443,654555
35.30255,663834
35.31068,656352
35.31880,651238
35.32693,632711
35.33505,615248
35.34317,603767
35.35130,594599
35.35942,598170
35.36755,567416
35.37567,583132
35.38378,565691
35.39192,556806
35.40003,559775
35.40817,545029
35.41628,540598
35.42440,554769
35.43253,539406
35.44065,530982
35.44877,541335
35.45690,534754
35.46502,543458
35.47315,536448
35.48127,554863
35.48938,533570
35.49752,560312
35.50563,558593
35.51377,552391
35.52188,559883
35.53000,583843
35.53813,580979
35.54625,606335
35.55438,613541
35.56250,618152
35.57062,640717
35.57875,653439
35.58687,644404
35.59498,658319
35.60312,680790
35.61123,664014
35.61937,672028
35.62748,645917
35.63560,660752
35.64373,643745
35.65185,636862
35.65998,645866
35.66810,698673
35.67622,777893
35.68435,943827
35.69247,1097155
35.70060,1138852
35.70872,1137033
35.71683,1041986
35.72497,921187
35.73308,827460
35.74120,778051
35.74933,751884
35.75745,715364
35.76558,679957
35.77370,676812
35.78182,643122
35.78995,640149
35.79807,632124
35.80620,641733
35.81432,646794
35.82243,646620
35.83057,653872
35.83868,682014
35.84680,716965
35.85493,724326
35.86305,699205
35.87118,708657
35.87930,665042
35.88742,653212
35.89555,632131
35.90367,608479
35.91180,583011
35.91992,585700
35.92803,594008
35.93617,589070
35.94428,585231
35.95242,585148
35.96053,594736
35.96865,581289
35.97678,584367
35.98490,596823
35.99302,587400
36.00115,588435
36.00927,571209
36.01740,566090
36.02552,602640
36.03363,663126
36.04177,776447
36.04988,1036606
36.05802,1490218
36.06613,2215592
36.07425,3301053
36.08238,4412982
36.09050,5159610
36.09862,5193411
36.10675,4439863
36.11487,3475522
36.12300,2522297
36.13112,1929185
36.13923,1606556
36.14737,1455627
36.15548,1396551
36.16362,1412081
36.17173,1436940
36.17985,1511723
36.18798,1580235
36.19610,1734005
36.20423,1887152
36.21235,2023815
36.22047,2070510
36.22860,2079491
36.23672,1969445
36.24483,1775840
36.25297,1597949
36.26108,1464619
36.26922,1383518
36.27733,1315849
36.28545,1383677
36.29358,1557192
36.30170,1996580
36.30983,2769052
36.31795,3782568
36.32607,4472909
36.33420,4714033
36.34232,4483632
36.35045,3765890
36.35857,3214336
36.36668,2971389
36.37482,3120285
36.38293,3569067
36.39105,4047048
36.39918,4311456
36.40730,4392115
36.41543,3981779
36.42355,3368364
36.43167,2617300
36.43980,2038368
36.44792,1600959
36.45605,1299414
36.46417,1099176
36.47228,954394
36.48042,845764
36.48853,777960
36.49665,708451
36.50478,678793
36.51290,682094
36.52103,681018
36.52915,711028
36.53727,725223
36.54540,749168
36.55352,763845
36.56165,743017
36.56977,693411
36.57788,678999
36.58602,651648
36.59413,624622
36.60227,598740
36.61038,607639
36.61850,618686
36.62663,680253
36.63475,675366
36.64287,712189
36.65100,732817
36.65912,729660
36.66725,743778
36.67537,758965
36.68348,751539
36.69162,719949
36.69973,683557
36.70787,648989
36.71598,602827
36.72410,592823
36.73223,571423
36.74035,573186
36.74848,562449
36.75660,576454
36.76472,564968
36.77285,553473
36.78097,561106
36.78908,545302
36.79722,544072
36.80533,565222
36.81347,575054
36.82158,597900
36.82970,595404
36.83783,595320
36.84595,600940
36.85408,598807
36.86220,564950
36.87032,561403
36.87845,544546
36.88657,518273
36.89468,525040
36.90282,503224
36.91093,498845
36.91907,498895
36.92718,511619
36.93530,499072
36.94343,490643
36.95155,504412
36.95968,503348
36.96780,492738
36.97592,511297
36.98405,503546
36.99217,499860
37.00030,498275
37.00842,496022
37.01653,504191
37.02467,477167
37.03278,481393
37.04090,468785
37.04903,472496
37.05715,493773
37.06528,475883
37.07340,495084
37.08152,499649
37.08965,498690
37.09777,511289
37.10590,514021
37.11402,493809
37.12213,494955
37.13027,493977
37.13838,493239
37.14650,479841
37.15463,487524
37.16275,511550
37.17088,522797
37.17900,558580
37.18712,577761
37.19525,588503
37.20337,611165
37.21150,636052
37.21962,636051
37.22773,613780
37.23587,609684
37.24398,602698
37.25212,602904
37.26023,608550
37.26835,598461
37.27648,613697
37.28460,622595
37.29272,642539
37.30085,642630
37.30897,647003
37.31710,681109
37.32522,761719
37.33333,1029948
37.34147,1620879
37.34958,2609659
37.35772,4014153
37.36583,5453895
37.37395,6457856
37.38208,6677882
37.39020,6344290
37.39833,5455117
37.40645,4533327
37.41457,3675130
37.42270,2926252
37.43082,2399369
37.43893,2029070
37.44707,1777352
37.45518,1613267
37.46332,1475258
37.47143,1381790
37.47955,1336810
37.48768,1280019
