C:\MassHunter\GCMS\1\data\20191125_ALKANES\BURNOFFS\JTB-E18-40-21.D Wed Nov 27 16:47:56 2019
Start of data points
2.09530	51525
2.10342	50813
2.11155	53154
2.11967	52640
2.12778	52300
2.13592	53984
2.14403	54039
2.15217	53234
2.16028	51152
2.16840	47722
2.17653	46336
2.18465	46075
2.19278	42876
2.20090	45805
2.20902	43809
2.21715	41237
2.22527	38575
2.23338	38806
2.24152	35271
2.24963	40523
2.25777	47178
2.26588	296424
2.27400	2004248
2.28213	2843992
2.29025	1237564
2.29838	534750
2.30650	397827
2.31462	363280
2.32275	296625
2.33087	259944
2.33898	232690
2.34712	201683
2.35523	184030
2.36337	166094
2.37148	156129
2.37960	150778
2.38773	136608
2.39585	130820
2.40398	125663
2.41210	117660
2.42022	125756
2.42835	117533
2.43647	116374
2.44460	110227
2.45272	114760
2.46083	181368
2.46897	178191
2.47708	118483
2.48520	107272
2.49333	105303
2.50145	97627
2.50958	95524
2.51770	93239
2.52582	90838
2.53395	88190
2.54207	89055
2.55020	87781
2.55832	87190
2.56643	86263
2.57457	103936
2.58268	96337
2.59082	92383
2.59893	86103
2.60705	98038
2.61518	120218
2.62330	113473
2.63142	98429
2.63955	93070
2.64767	88689
2.65580	93744
2.66392	86294
2.67203	86028
2.68017	81694
2.68828	83583
2.69642	82571
2.70453	78153
2.71265	78566
2.72078	80158
2.72890	73386
2.73702	76531
2.74515	75921
2.75327	78868
2.76140	79266
2.76952	72897
2.77763	75022
2.78577	77055
2.79388	76500
2.80202	76138
2.81013	78791
2.81825	72000
2.82638	71544
2.83450	81964
2.84263	72306
2.85075	73244
2.85887	72993
2.86700	77639
2.87512	70717
2.88323	72251
2.89137	71265
2.89948	69604
2.90762	71032
2.91573	75508
2.92385	71453
2.93198	70727
2.94010	71486
2.94823	74930
2.95635	72897
2.96447	75661
2.97260	73016
2.98072	79724
2.98883	75212
2.99697	74830
3.00508	71682
3.01322	69562
3.02133	71039
3.02945	73238
3.03758	75061
3.04570	76480
3.05383	84528
3.06195	83757
3.07007	78059
3.07820	84269
3.08632	85098
3.09445	98923
3.10257	157631
3.11068	194355
3.11882	145017
3.12693	111038
3.13505	90849
3.14318	93109
3.15130	84847
3.15943	80272
3.16755	74802
3.17567	72539
3.18380	73563
3.19192	72112
3.20005	72889
3.20817	72888
3.21628	70854
3.22442	74784
3.23253	72245
3.24067	73127
3.24878	70273
3.25690	68996
3.26503	75387
3.27315	133768
3.28127	605239
3.28940	2383360
3.29752	5272313
3.30565	6721191
3.31377	5596874
3.32188	3635058
3.33002	2289813
3.33813	1612595
3.34627	1240092
3.35438	1021957
3.36250	876622
3.37063	761314
3.37875	702403
3.38687	631623
3.39500	580966
3.40312	541261
3.41125	505411
3.41937	484293
3.42748	457763
3.43562	446352
3.44373	425011
3.45187	398811
3.45998	393678
3.46810	381158
3.47623	371822
3.48435	364358
3.49248	344519
3.50060	338440
3.50872	331642
3.51685	322161
3.52497	316399
3.53308	308141
3.54122	304956
3.54933	290374
3.55747	281114
3.56558	289146
3.57370	321093
3.58183	361859
3.58995	399861
3.59808	379081
3.60620	326521
3.61432	306350
3.62245	305755
3.63057	302489
3.63870	291143
3.64682	278192
3.65493	260436
3.66307	243812
3.67118	248562
3.67930	243003
3.68743	238227
3.69555	237572
3.70368	234256
3.71180	239885
3.71992	231353
3.72805	230350
3.73617	232171
3.74430	222979
3.75242	223779
3.76053	215834
3.76867	216128
3.77678	219837
3.78490	217671
3.79303	219037
3.80115	214240
3.80928	212430
3.81740	212673
3.82552	218835
3.83365	214785
3.84177	213721
3.84990	215184
3.85802	207519
3.86613	205025
3.87427	200229
3.88238	198399
3.89052	202748
3.89863	204127
3.90675	199672
3.91488	195747
3.92300	210640
3.93112	239945
3.93925	253981
3.94737	251737
3.95550	220172
3.96362	206458
3.97173	198021
3.97987	202143
3.98798	226531
3.99612	353343
4.00423	605313
4.01235	736003
4.02048	600248
4.02860	390707
4.03672	271087
4.04485	233707
4.05297	209240
4.06110	208039
4.06922	200318
4.07733	195334
4.08547	193334
4.09358	194749
4.10172	187936
4.10983	183789
4.11795	191500
4.12608	186349
4.13420	190754
4.14233	201140
4.15045	200637
4.15857	191827
4.16670	192824
4.17482	190190
4.18293	192128
4.19107	182272
4.19918	178298
4.20732	181073
4.21543	186995
4.22355	192321
4.23168	189991
4.23980	180815
4.24793	181490
4.25605	181960
4.26417	195237
4.27230	182718
4.28042	189371
4.28855	185885
4.29667	172595
4.30478	168848
4.31292	177055
4.32103	178368
4.32915	175796
4.33728	175554
4.34540	179154
4.35353	172533
4.36165	176717
4.36977	173121
4.37790	177749
4.38602	173931
4.39415	170073
4.40227	170032
4.41038	169059
4.41852	167232
4.42663	166709
4.43475	162941
4.44288	163361
4.45100	165361
4.45913	161265
4.46725	163011
4.47537	161194
4.48350	161545
4.49162	159434
4.49975	165354
4.50787	161526
4.51598	159865
4.52412	163299
4.53223	165644
4.54037	169626
4.54848	161403
4.55660	169749
4.56473	167205
4.57285	156513
4.58097	157170
4.58910	157231
4.59722	158075
4.60535	157329
4.61347	159018
4.62158	157180
4.62972	159228
4.63783	157169
4.64597	159505
4.65408	155930
4.66220	152552
4.67033	158628
4.67845	158425
4.68658	156017
4.69470	152714
4.70282	153912
4.71095	160263
4.71907	157665
4.72718	151332
4.73532	152913
4.74343	154712
4.75157	149260
4.75968	160157
4.76780	154920
4.77593	152783
4.78405	151529
4.79218	156526
4.80030	156116
4.80842	151575
4.81655	151942
4.82467	155355
4.83278	157655
4.84092	152749
4.84903	148406
4.85717	154866
4.86528	155804
4.87340	153711
4.88153	147514
4.88965	155834
4.89778	175079
4.90590	284192
4.91402	667592
4.92215	1610836
4.93027	2933439
4.93840	3891406
4.94652	3722483
4.95463	2785317
4.96277	1808297
4.97088	1146084
4.97900	818061
4.98713	651657
4.99525	574966
5.00338	513183
5.01150	491740
5.01962	459698
5.02775	452212
5.03587	425684
5.04400	411656
5.05212	403878
5.06023	397387
5.06837	383822
5.07648	376704
5.08460	372394
5.09273	365666
5.10085	344654
5.10898	346763
5.11710	335522
5.12522	329596
5.13335	332492
5.14147	318993
5.14960	314945
5.15772	315688
5.16583	320531
5.17397	349641
5.18208	377908
5.19022	389993
5.19833	368792
5.20645	338833
5.21458	332226
5.22270	356054
5.23082	405233
5.23895	425045
5.24707	396627
5.25520	349549
5.26332	328903
5.27143	302144
5.27957	290231
5.28768	275644
5.29582	281123
5.30393	266935
5.31205	271213
5.32018	259115
5.32830	261544
5.33643	269116
5.34455	256878
5.35267	253152
5.36080	260424
5.36892	245267
5.37703	255538
5.38517	261486
5.39328	260569
5.40142	265735
5.40953	254685
5.41765	270310
5.42578	275146
5.43390	278761
5.44203	283809
5.45015	275865
5.45827	277952
5.46640	266116
5.47452	251177
5.48265	247248
5.49077	245488
5.49888	240979
5.50702	238027
5.51513	227318
5.52325	232172
5.53138	235983
5.53950	239684
5.54763	240954
5.55575	229760
5.56387	225899
5.57200	226662
5.58012	221237
5.58825	216888
5.59637	223304
5.60448	221987
5.61262	226336
5.62073	223109
5.62885	212683
5.63698	214933
5.64510	221521
5.65323	218352
5.66135	219033
5.66947	227751
5.67760	236541
5.68572	236715
5.69385	238200
5.70197	234857
5.71008	223170
5.71822	225447
5.72633	215164
5.73447	224320
5.74258	221747
5.75070	217466
5.75883	207185
5.76695	210337
5.77507	217281
5.78320	216911
5.79132	219361
5.79945	212758
5.80757	217426
5.81568	206526
5.82382	214258
5.83193	207686
5.84007	211478
5.84818	209674
5.85630	209541
5.86443	204794
5.87255	203745
5.88067	212396
5.88880	214570
5.89692	211305
5.90505	199785
5.91317	177237
5.92128	157557
5.92942	148310
5.93753	147678
5.94567	141127
5.95378	133389
5.96190	138952
5.97003	137157
5.97815	140835
5.98628	140528
5.99440	152085
6.00252	143759
6.01065	146108
6.01877	148878
6.02688	147842
6.03502	139265
6.04313	147856
6.05127	150853
6.05938	152225
6.06750	151800
6.07563	153374
6.08375	151697
6.09188	150907
6.10000	145228
6.10812	150041
6.11625	145318
6.12437	142059
6.13250	146762
6.14062	145077
6.14873	143145
6.15687	153973
6.16498	162488
6.17310	164611
6.18123	162780
6.18935	155847
6.19748	152871
6.20560	156073
6.21372	162948
6.22185	170484
6.22997	176005
6.23810	179385
6.24622	182143
6.25433	164132
6.26247	165326
6.27058	162977
6.27870	158661
6.28683	157923
6.29495	167251
6.30308	169724
6.31120	171174
6.31932	180019
6.32745	175013
6.33557	161048
6.34370	157386
6.35182	153418
6.35993	146810
6.36807	150680
6.37618	149294
6.38432	146629
6.39243	146185
6.40055	145538
6.40868	151824
6.41680	185208
6.42492	343070
6.43305	1119559
6.44117	3799663
6.44930	9085390
6.45742	1.52528E+07
6.46553	1.779059E+07
6.47367	1.453617E+07
6.48178	8294878
6.48992	3631889
6.49803	1680251
6.50615	1069750
6.51428	836330
6.52240	774694
6.53053	682614
6.53865	595398
6.54677	544757
6.55490	493196
6.56302	440826
6.57113	412439
6.57927	372999
6.58738	346020
6.59552	353635
6.60363	390896
6.61175	465228
6.61988	491988
6.62800	429755
6.63613	345512
6.64425	272862
6.65237	270814
6.66050	399035
6.66862	764993
6.67673	1417891
6.68487	2174590
6.69298	2716743
6.70112	2721175
6.70923	2239909
6.71735	1591887
6.72548	1040934
6.73360	688940
6.74173	543101
6.74985	483275
6.75797	450100
6.76610	422600
6.77422	393560
6.78235	379786
6.79047	371807
6.79858	362209
6.80672	351566
6.81483	351168
6.82295	349364
6.83108	371183
6.83920	374232
6.84733	359261
6.85545	348606
6.86357	323065
6.87170	302191
6.87982	271353
6.88795	256266
6.89607	246004
6.90418	237522
6.91232	229899
6.92043	224221
6.92855	218521
6.93668	215532
6.94480	209662
6.95293	204441
6.96105	203738
6.96917	190701
6.97730	198793
6.98542	193429
6.99355	182554
7.00167	186496
7.00978	181639
7.01792	181385
7.02603	176582
7.03417	169392
7.04228	170155
7.05040	174177
7.05853	166797
7.06665	174880
7.07477	169444
7.08290	167210
7.09102	161114
7.09915	162462
7.10727	172256
7.11538	159522
7.12352	157573
7.13163	148519
7.13977	156756
7.14788	152887
7.15600	149746
7.16413	151953
7.17225	144294
7.18038	153678
7.18850	146527
7.19662	153749
7.20475	144046
7.21287	139736
7.22098	142988
7.22912	138833
7.23723	136125
7.24537	129318
7.25348	133280
7.26160	143072
7.26973	139514
7.27785	138376
7.28598	141439
7.29410	134794
7.30222	134364
7.31035	136242
7.31847	130700
7.32658	137585
7.33472	131635
7.34283	140552
7.35097	142406
7.35908	140642
7.36720	138346
7.37533	144372
7.38345	148216
7.39158	133285
7.39970	127558
7.40782	115398
7.41595	122791
7.42407	123677
7.43220	117320
7.44032	113353
7.44843	115620
7.45657	112173
7.46468	113237
7.47280	109720
7.48093	117598
7.48905	119508
7.49718	121060
7.50530	141699
7.51342	190185
7.52155	335662
7.52967	669449
7.53780	1127511
7.54592	1534799
7.55403	1596706
7.56217	1261533
7.57028	783751
7.57842	417079
7.58653	237388
7.59465	162625
7.60278	132855
7.61090	122832
7.61902	123802
7.62715	122302
7.63527	129761
7.64340	137969
7.65152	141243
7.65963	132244
7.66777	122254
7.67588	120369
7.68402	112363
7.69213	103956
7.70025	102629
7.70838	101052
7.71650	101557
7.72462	105382
7.73275	103701
7.74087	99217
7.74900	95561
7.75712	97569
7.76523	95387
7.77337	102264
7.78148	94860
7.78962	98255
7.79773	103912
7.80585	102473
7.81398	100585
7.82210	97781
7.83023	95969
7.83835	96079
7.84647	94924
7.85460	90255
7.86272	87935
7.87083	95123
7.87897	101961
7.88708	105821
7.89522	119561
7.90333	118942
7.91145	116197
7.91958	108839
7.92770	103165
7.93583	92430
7.94395	88668
7.95207	93974
7.96020	86510
7.96832	81464
7.97645	89767
7.98457	89458
7.99268	89931
8.00082	93185
8.00893	96910
8.01705	98202
8.02518	96299
8.03330	90397
8.04143	87583
8.04955	79976
8.05767	76292
8.06580	78046
8.07392	75669
8.08205	79330
8.09017	76967
8.09828	75854
8.10642	83876
8.11453	81697
8.12265	77303
8.13078	79123
8.13890	79703
8.14703	77082
8.15515	74585
8.16327	75908
8.17140	73732
8.17952	70210
8.18765	64652
8.19577	67333
8.20388	63904
8.21202	62778
8.22013	65586
8.22827	58859
8.23638	60427
8.24450	54004
8.25263	59043
8.26075	53809
8.26887	55391
8.27700	56643
8.28512	59990
8.29325	58834
8.30137	57910
8.30948	55204
8.31762	60860
8.32573	59727
8.33387	55470
8.34198	52420
8.35010	56053
8.35823	53668
8.36635	51824
8.37447	52143
8.38260	49685
8.39072	52478
8.39885	51964
8.40697	52529
8.41508	50946
8.42322	54401
8.43133	53813
8.43947	56423
8.44758	71076
8.45570	105067
8.46383	165402
8.47195	240577
8.48008	322763
8.48820	339610
8.49632	327419
8.50445	248661
8.51257	159103
8.52068	113405
8.52882	83808
8.53693	76411
8.54507	71241
8.55318	66930
8.56130	65736
8.56943	64221
8.57755	58350
8.58568	58506
8.59380	53779
8.60192	52813
8.61005	54561
8.61817	53412
8.62630	48657
8.63442	54530
8.64253	50454
8.65067	50439
8.65878	49330
8.66690	50491
8.67503	48726
8.68315	49954
8.69128	53229
8.69940	65801
8.70752	121629
8.71565	275501
8.72377	567880
8.73190	957408
8.74002	1251277
8.74813	1204723
8.75627	931204
8.76438	631287
8.77250	422461
8.78063	334425
8.78875	308606
8.79688	297836
8.80500	292720
8.81312	267009
8.82125	260335
8.82937	234093
8.83750	211717
8.84562	197499
8.85373	178415
8.86187	167043
8.86998	151127
8.87812	151739
8.88623	149747
8.89435	138264
8.90248	140829
8.91060	133057
8.91872	132056
8.92685	136457
8.93497	132548
8.94310	129445
8.95122	128990
8.95933	126483
8.96747	134844
8.97558	127204
8.98372	123746
8.99183	124338
8.99995	126178
9.00808	124728
9.01620	121415
9.02433	116398
9.03245	114644
9.04057	115367
9.04870	116016
9.05682	115907
9.06493	104942
9.07307	114654
9.08118	113573
9.08932	114858
9.09743	118088
9.10555	147719
9.11368	195127
9.12180	267300
9.12993	335673
9.13805	350671
9.14617	322243
9.15430	252258
9.16242	190698
9.17053	143035
9.17867	121768
9.18678	113650
9.19492	110572
9.20303	104899
9.21115	106746
9.21928	101518
9.22740	102444
9.23553	99929
9.24365	112161
9.25177	128467
9.25990	161101
9.26802	224165
9.27615	312744
9.28427	386357
9.29238	396959
9.30052	362021
9.30863	271040
9.31675	192047
9.32488	155010
9.33300	131845
9.34113	129175
9.34925	134509
9.35737	131148
9.36550	129824
9.37362	124081
9.38175	113110
9.38987	111240
9.39798	100563
9.40612	99610
9.41423	99162
9.42235	95653
9.43048	90936
9.43860	90215
9.44673	91261
9.45485	90187
9.46297	102184
9.47110	111958
9.47922	115053
9.48735	104316
9.49547	102670
9.50358	91401
9.51172	69575
9.51983	61783
9.52797	50818
9.53608	45823
9.54420	48046
9.55233	48922
9.56045	48163
9.56857	44175
9.57670	42817
9.58482	42749
9.59295	41272
9.60107	42244
9.60918	43201
9.61732	43012
9.62543	40440
9.63357	38848
9.64168	37481
9.64980	38220
9.65793	37630
9.66605	37319
9.67418	38535
9.68230	35651
9.69042	36060
9.69855	36653
9.70667	35805
9.71478	35765
9.72292	36092
9.73103	37333
9.73917	33656
9.74728	34231
9.75540	36951
9.76353	36484
9.77165	34397
9.77978	36689
9.78790	39298
9.79602	44310
9.80415	44188
9.81227	45701
9.82040	45598
9.82852	45174
9.83663	49709
9.84477	50450
9.85288	47464
9.86100	45371
9.86913	44586
9.87725	45039
9.88538	47034
9.89350	50532
9.90162	59786
9.90975	66968
9.91787	65182
9.92600	64205
9.93412	56847
9.94223	48584
9.95037	48505
9.95848	47860
9.96660	51654
9.97473	50647
9.98285	48906
9.99098	49236
9.99910	51291
10.00722	49721
10.01535	51190
10.02347	48860
10.03160	48514
10.03972	42944
10.04783	43900
10.05597	38574
10.06408	39156
10.07222	42769
10.08033	38732
10.08845	42537
10.09658	38995
10.10470	42117
10.11282	51049
10.12095	62727
10.12907	88827
10.13720	115970
10.14532	144159
10.15343	155268
10.16157	137728
10.16968	113906
10.17782	80581
10.18593	58562
10.19405	49960
10.20218	38379
10.21030	38128
10.21842	38071
10.22655	39407
10.23467	43681
10.24280	61590
10.25092	122052
10.25903	305494
10.26717	920398
10.27528	2564862
10.28342	6087080
10.29153	1.202928E+07
10.29965	1.997383E+07
10.30778	2.949177E+07
10.31590	3.84775E+07
10.32403	4.646138E+07
10.33215	5.320675E+07
10.34027	5.901008E+07
10.34840	6.416534E+07
10.35652	6.844249E+07
10.36463	7.241982E+07
10.37277	7.584466E+07
10.38088	7.854958E+07
10.38902	8.152913E+07
10.39713	8.375661E+07
10.40525	8.54304E+07
10.41338	8.70304E+07
10.42150	8.863285E+07
10.42963	8.98157E+07
10.43775	9.094082E+07
10.44587	9.180692E+07
10.45400	9.261259E+07
10.46212	9.334807E+07
10.47025	9.394744E+07
10.47837	9.426184E+07
10.48648	9.483382E+07
10.49462	9.528293E+07
10.50273	9.520806E+07
10.51085	7.285656E+07
10.51898	7415926
10.52710	4356641
10.53523	4017472
10.54335	3793046
10.55147	3526287
10.55960	3320504
10.56772	3179668
10.57585	3047531
10.58397	2851864
10.59208	2737298
10.60022	2634900
10.60833	2510453
10.61645	2400044
10.62458	2329948
10.63270	2189051
10.64083	2114665
10.64895	2063268
10.65707	1984284
10.66520	1937938
10.67332	1859410
10.68145	1778988
10.68957	1701159
10.69768	1664710
10.70582	1625724
10.71393	1589300
10.72207	1541157
10.73018	1475566
10.73830	1417974
10.74643	1377403
10.75455	1376561
10.76267	1294258
10.77080	1267999
10.77892	1241773
10.78705	1200345
10.79517	1182623
10.80328	1170712
10.81142	1113363
10.81953	1096400
10.82767	1030474
10.83578	1039754
10.84390	985068
10.85203	989387
10.86015	982552
10.86828	934343
10.87640	902822
10.88452	892405
10.89265	875300
10.90077	879918
10.90888	861038
10.91702	813502
10.92513	811910
10.93327	770055
10.94138	770511
10.94950	757453
10.95763	744639
10.96575	723383
10.97388	705777
10.98200	700431
10.99012	689561
10.99825	661902
11.00637	655328
11.01448	630479
11.02262	615368
11.03073	612762
11.03887	604961
11.04698	591944
11.05510	579853
11.06323	583551
11.07135	560014
11.07948	544371
11.08760	535658
11.09572	503851
11.10385	441664
11.11197	364971
11.12010	279816
11.12822	193902
11.13633	153226
11.14447	133840
11.15258	122305
11.16070	122084
11.16883	112762
11.17695	106526
11.18508	109332
11.19320	102026
11.20132	97577
11.20945	97577
11.21757	95153
11.22570	90898
11.23382	98991
11.24193	93127
11.25007	88296
11.25818	85554
11.26630	89109
11.27443	87067
11.28255	85835
11.29068	87847
11.29880	84020
11.30692	83342
11.31505	82954
11.32317	85130
11.33130	83548
11.33942	89427
11.34753	92439
11.35567	99378
11.36378	99755
11.37192	95318
11.38003	94805
11.38815	78387
11.39628	78284
11.40440	78900
11.41252	85463
11.42065	87491
11.42877	83579
11.43690	85366
11.44502	88768
11.45313	80467
11.46127	76963
11.46938	77526
11.47752	80978
11.48563	72223
11.49375	78054
11.50188	76085
11.51000	71097
11.51813	70822
11.52625	76126
11.53437	73936
11.54250	74771
11.55062	74398
11.55873	86229
11.56687	141426
11.57498	302035
11.58312	670406
11.59123	1327000
11.59935	2002718
11.60748	2384669
11.61560	2159202
11.62373	1628439
11.63185	970909
11.63997	556176
11.64810	322146
11.65622	230841
11.66433	186085
11.67247	161219
11.68058	137329
11.68872	128021
11.69683	124954
11.70495	110173
11.71308	113879
11.72120	111190
11.72933	101174
11.73745	96974
11.74557	95415
11.75370	91254
11.76182	92576
11.76995	90469
11.77807	85885
11.78618	85129
11.79432	81648
11.80243	82264
11.81055	78425
11.81868	75852
11.82680	77171
11.83493	74012
11.84305	77718
11.85117	75426
11.85930	70717
11.86742	71228
11.87555	69935
11.88367	65234
11.89178	74773
11.89992	91744
11.90803	93446
11.91617	114983
11.92428	127284
11.93240	143242
11.94053	139819
11.94865	127292
11.95677	114121
11.96490	94036
11.97302	90815
11.98115	84331
11.98927	83565
11.99738	70848
12.00552	65961
12.01363	69274
12.02177	68959
12.02988	69535
12.03800	73979
12.04613	67410
12.05425	69015
12.06237	61555
12.07050	62821
12.07862	62960
12.08675	63035
12.09487	66927
12.10298	64080
12.11112	61365
12.11923	62733
12.12737	64147
12.13548	59084
12.14360	62486
12.15173	60225
12.15985	56610
12.16798	65029
12.17610	58179
12.18422	57977
12.19235	60232
12.20047	60775
12.20858	55946
12.21672	54610
12.22483	55847
12.23297	57915
12.24108	56928
12.24920	55844
12.25733	54269
12.26545	55825
12.27358	58580
12.28170	63253
12.28982	61590
12.29795	60868
12.30607	56569
12.31418	55855
12.32232	58469
12.33043	57449
12.33857	51384
12.34668	50760
12.35480	54504
12.36293	51196
12.37105	54375
12.37918	50636
12.38730	57482
12.39542	52107
12.40355	49481
12.41167	50553
12.41980	50860
12.42792	47692
12.43603	49048
12.44417	49050
12.45228	48088
12.46040	51298
12.46853	48717
12.47665	47617
12.48478	48205
12.49290	47686
12.50102	46342
12.50915	48195
12.51727	47043
12.52540	52417
12.53352	50309
12.54163	45671
12.54977	44850
12.55788	47635
12.56602	44095
12.57413	47559
12.58225	44734
12.59038	45364
12.59850	45022
12.60662	41811
12.61475	47293
12.62287	42545
12.63100	45939
12.63912	44776
12.64723	46104
12.65537	45324
12.66348	45267
12.67162	45332
12.67973	43664
12.68785	46598
12.69598	45941
12.70410	46222
12.71222	42648
12.72035	45129
12.72847	44745
12.73660	45999
12.74472	45074
12.75283	47855
12.76097	47035
12.76908	46334
12.77722	43740
12.78533	42943
12.79345	42027
12.80158	39769
12.80970	41131
12.81783	45839
12.82595	42550
12.83407	44902
12.84220	44043
12.85032	44179
12.85843	44453
12.86657	40850
12.87468	45149
12.88282	46265
12.89093	42807
12.89905	42296
12.90718	41177
12.91530	39196
12.92343	44963
12.93155	39925
12.93967	43033
12.94780	49326
12.95592	59650
12.96405	78556
12.97217	110680
12.98028	139994
12.98842	164755
12.99653	162548
13.00465	147611
13.01278	116531
13.02090	89607
13.02903	67434
13.03715	65346
13.04527	79726
13.05340	122008
13.06152	194592
13.06965	260806
13.07777	301378
13.08588	289528
13.09402	234995
13.10213	169485
13.11025	105942
13.11838	77761
13.12650	66495
13.13463	60906
13.14275	62348
13.15087	62411
13.15900	56974
13.16712	53009
13.17525	51344
13.18337	49646
13.19148	53983
13.19962	47910
13.20773	49721
13.21587	50769
13.22398	46800
13.23210	44018
13.24023	45772
13.24835	44982
13.25647	44534
13.26460	45149
13.27272	47208
13.28085	48788
13.28897	45617
13.29708	43543
13.30522	46493
13.31333	46894
13.32147	45174
13.32958	41622
13.33770	46174
13.34583	42315
13.35395	42926
13.36208	42604
13.37020	44224
13.37832	44889
13.38645	42431
13.39457	45146
13.40268	41107
13.41082	43147
13.41893	41383
13.42707	41592
13.43518	39187
13.44330	45742
13.45143	40903
13.45955	45031
13.46768	40935
13.47580	42857
13.48392	41368
13.49205	41139
13.50017	42223
13.50828	38713
13.51642	38366
13.52453	38636
13.53267	43572
13.54078	38000
13.54890	43806
13.55703	39272
13.56515	40401
13.57328	46789
13.58140	51728
13.58952	59414
13.59765	62199
13.60577	63198
13.61390	60731
13.62202	50082
13.63013	47418
13.63827	40835
13.64638	43091
13.65450	43864
13.66263	36554
13.67075	40427
13.67888	42171
13.68700	38813
13.69512	38220
13.70325	36005
13.71137	41666
13.71950	39858
13.72762	38265
13.73573	36611
13.74387	39060
13.75198	40799
13.76010	37980
13.76823	37683
13.77635	39079
13.78448	36038
13.79260	39042
13.80072	40578
13.80885	38767
13.81697	35263
13.82510	37411
13.83322	38468
13.84133	39862
13.84947	39278
13.85758	41781
13.86572	42052
13.87383	41179
13.88195	41762
13.89008	37716
13.89820	39956
13.90632	40355
13.91445	41348
13.92257	36421
13.93070	35935
13.93882	36447
13.94693	34742
13.95507	35167
13.96318	38837
13.97132	40365
13.97943	46528
13.98755	47510
13.99568	51739
14.00380	51200
14.01193	51167
14.02005	47066
14.02817	46154
14.03630	46505
14.04442	45661
14.05253	40886
14.06067	38927
14.06878	37669
14.07692	40123
14.08503	42197
14.09315	49328
14.10128	72721
14.10940	118369
14.11753	203010
14.12565	335430
14.13377	458547
14.14190	504838
14.15002	471277
14.15813	374646
14.16627	291963
14.17438	233194
14.18252	198442
14.19063	180117
14.19875	169926
14.20688	165462
14.21500	153411
14.22313	144336
14.23125	138177
14.23937	134402
14.24750	125000
14.25562	126314
14.26375	120745
14.27187	109173
14.27998	99976
14.28812	87978
14.29623	73024
14.30435	59502
14.31248	55880
14.32060	45500
14.32873	43743
14.33685	46480
14.34497	49746
14.35310	44137
14.36122	44204
14.36935	45959
14.37747	41508
14.38558	38439
14.39372	42936
14.40183	44961
14.40997	44373
14.41808	43881
14.42620	47721
14.43433	45394
14.44245	45402
14.45057	42625
14.45870	41684
14.46682	41017
14.47495	41051
14.48307	40731
14.49118	40766
14.49932	45048
14.50743	43587
14.51557	37096
14.52368	36929
14.53180	40971
14.53993	41184
14.54805	42314
14.55617	41153
14.56430	38703
14.57242	41095
14.58055	39789
14.58867	43947
14.59678	39326
14.60492	44248
14.61303	42079
14.62117	36542
14.62928	39750
14.63740	38339
14.64553	37021
14.65365	37956
14.66178	36668
14.66990	39430
14.67802	37898
14.68615	37333
14.69427	43169
14.70238	34397
14.71052	35648
14.71863	36080
14.72677	37787
14.73488	36502
14.74300	34693
14.75113	34954
14.75925	36878
14.76738	36234
14.77550	35063
14.78362	38107
14.79175	35205
14.79987	35008
14.80798	37364
14.81612	37586
14.82423	36317
14.83237	39077
14.84048	34670
14.84860	37211
14.85673	37071
14.86485	37579
14.87298	37591
14.88110	35478
14.88922	36648
14.89735	38038
14.90547	35979
14.91360	37872
14.92172	39213
14.92983	37415
14.93797	36226
14.94608	35391
14.95420	38461
14.96233	38737
14.97045	37018
14.97858	39461
14.98670	36900
14.99482	43308
15.00295	41403
15.01107	36478
15.01920	40993
15.02732	34831
15.03543	34828
15.04357	37796
15.05168	36082
15.05982	36676
15.06793	37203
15.07605	35363
15.08418	36113
15.09230	37209
15.10042	41332
15.10855	37111
15.11667	35048
15.12480	37483
15.13292	33896
15.14103	35865
15.14917	32284
15.15728	34100
15.16542	33937
15.17353	32955
15.18165	34803
15.18978	36317
15.19790	34182
15.20603	33517
15.21415	33156
15.22227	32340
15.23040	33515
15.23852	33038
15.24663	33121
15.25477	32204
15.26288	29877
15.27102	38011
15.27913	36799
15.28725	34889
15.29538	38441
15.30350	37695
15.31163	38286
15.31975	37727
15.32787	36268
15.33600	39300
15.34412	36181
15.35223	36713
15.36037	35011
15.36848	34398
15.37662	34709
15.38473	36171
15.39285	36496
15.40098	38718
15.40910	40512
15.41723	43220
15.42535	43692
15.43347	42212
15.44160	40230
15.44972	40548
15.45785	34068
15.46597	33664
15.47408	33353
15.48222	33998
15.49033	29258
15.49845	36537
15.50658	32103
15.51470	31984
15.52283	35124
15.53095	29817
15.53907	30925
15.54720	35776
15.55532	36373
15.56345	29726
15.57157	32117
15.57968	32615
15.58782	34109
15.59593	31431
15.60405	31181
15.61218	33502
15.62030	29582
15.62843	33213
15.63655	33078
15.64467	32268
15.65280	30343
15.66092	30759
15.66905	33134
15.67717	28849
15.68528	33574
15.69342	31810
15.70153	31304
15.70967	32514
15.71778	32226
15.72590	33926
15.73403	31580
15.74215	33138
15.75027	35998
15.75840	36017
15.76652	39205
15.77465	41964
15.78277	45695
15.79088	47567
15.79902	44301
15.80713	45196
15.81527	45390
15.82338	39107
15.83150	42424
15.83963	41708
15.84775	39950
15.85588	40890
15.86400	41113
15.87212	43325
15.88025	34725
15.88837	36242
15.89648	38753
15.90462	36366
15.91273	38275
15.92087	39804
15.92898	36289
15.93710	31361
15.94523	39563
15.95335	36369
15.96148	30820
15.96960	33302
15.97772	34228
15.98585	35262
15.99397	38717
16.00208	34423
16.01022	38576
16.01833	41990
16.02647	41965
16.03458	34852
16.04270	37462
16.05083	34401
16.05895	33543
16.06708	35632
16.07520	36356
16.08332	35970
16.09145	33947
16.09957	33344
16.10770	31527
16.11582	33990
16.12393	34807
16.13207	37036
16.14018	34382
16.14830	35747
16.15643	36377
16.16455	35631
16.17268	37220
16.18080	33252
16.18892	37890
16.19705	34328
16.20517	35685
16.21330	36006
16.22142	36762
16.22953	35833
16.23767	35516
16.24578	34675
16.25392	33166
16.26203	34662
16.27015	37305
16.27828	35239
16.28640	34404
16.29452	33527
16.30265	34624
16.31077	38127
16.31890	38908
16.32702	37268
16.33513	39154
16.34327	37073
16.35138	36654
16.35952	42208
16.36763	40533
16.37575	39073
16.38388	37427
16.39200	36559
16.40012	35339
16.40825	34633
16.41637	36698
16.42450	41014
16.43262	38561
16.44073	36777
16.44887	36535
16.45698	36046
16.46512	37628
16.47323	34263
16.48135	38709
16.48948	32688
16.49760	34304
16.50573	41102
16.51385	36166
16.52197	35755
16.53010	35309
16.53822	33060
16.54633	36978
16.55447	32906
16.56258	38216
16.57072	37712
16.57883	37311
16.58695	34491
16.59508	35306
16.60320	39360
16.61133	36144
16.61945	35148
16.62757	35122
16.63570	36701
16.64382	36957
16.65193	32630
16.66007	33160
16.66818	34201
16.67632	35940
16.68443	36066
16.69255	34526
16.70068	35459
16.70880	34775
16.71693	33096
16.72505	36629
16.73317	35918
16.74130	33240
16.74942	33147
16.75755	35693
16.76567	40452
16.77378	34261
16.78192	32074
16.79003	36295
16.79815	35291
16.80628	34787
16.81440	37477
16.82253	37459
16.83065	37199
16.83877	37539
16.84690	36317
16.85502	41776
16.86315	37664
16.87127	35684
16.87938	38600
16.88752	36277
16.89563	34361
16.90377	33904
16.91188	37774
16.92000	39089
16.92813	38702
16.93625	35696
16.94437	36916
16.95250	34264
16.96062	36029
16.96875	37769
16.97687	35830
16.98498	34427
16.99312	37684
17.00123	35937
17.00937	40917
17.01748	33894
17.02560	35118
17.03373	35970
17.04185	33543
17.04997	38216
17.05810	38990
17.06622	37163
17.07435	35379
17.08247	38622
17.09058	34319
17.09872	35258
17.10683	37112
17.11497	38357
17.12308	35785
17.13120	39154
17.13933	38435
17.14745	40930
17.15558	36640
17.16370	37259
17.17182	35040
17.17995	36812
17.18807	39317
17.19618	34917
17.20432	35914
17.21243	39841
17.22057	37969
17.22868	36246
17.23680	38520
17.24493	43350
17.25305	38108
17.26118	39038
17.26930	41264
17.27742	38087
17.28555	42130
17.29367	38641
17.30180	43781
17.30992	39004
17.31803	41016
17.32617	39446
17.33428	39468
17.34240	37923
17.35053	41734
17.35865	43160
17.36678	44495
17.37490	43822
17.38302	44767
17.39115	42128
17.39927	41021
17.40740	42975
17.41552	41845
17.42363	41875
17.43177	44180
17.43988	43718
17.44800	44238
17.45613	42805
17.46425	41317
17.47238	38599
17.48050	42096
17.48862	41247
17.49675	41130
17.50487	43728
17.51300	40616
17.52112	43577
17.52923	41740
17.53737	40330
17.54548	40909
17.55362	43757
17.56173	43061
17.56985	42610
17.57798	42612
17.58610	43163
17.59422	43574
17.60235	41252
17.61047	39907
17.61860	38517
17.62672	38592
17.63483	38629
17.64297	38837
17.65108	38507
17.65922	44355
17.66733	40645
17.67545	42553
17.68358	44369
17.69170	43478
17.69982	40633
17.70795	42795
17.71607	42516
17.72420	43185
17.73232	41528
17.74043	41860
17.74857	39298
17.75668	40578
17.76482	42194
17.77293	40580
17.78105	42861
17.78918	42212
17.79730	43244
17.80543	43028
17.81355	39896
17.82167	44863
17.82980	39265
17.83792	45330
17.84603	44003
17.85417	38494
17.86228	42580
17.87042	38126
17.87853	35678
17.88665	37105
17.89478	39272
17.90290	38713
17.91103	42894
17.91915	44248
17.92727	38033
17.93540	37945
17.94352	37356
17.95165	38395
17.95977	38240
17.96788	35525
17.97602	37798
17.98413	41159
17.99225	39208
18.00038	37817
18.00850	38675
18.01663	42781
18.02475	40327
18.03287	39215
18.04100	38832
18.04912	40734
18.05725	39721
18.06537	41291
18.07348	39079
18.08162	42532
18.08973	40282
18.09785	38556
18.10598	38114
18.11410	40646
18.12223	40714
18.13035	39013
18.13847	41833
18.14660	38861
18.15472	38515
18.16285	40170
18.17097	37981
18.17908	36175
18.18722	37443
18.19533	43448
18.20347	42263
18.21158	40286
18.21970	38460
18.22783	40829
18.23595	40914
18.24407	41840
18.25220	43697
18.26032	41703
18.26845	39655
18.27657	38448
18.28468	36011
18.29282	37658
18.30093	37594
18.30907	38952
18.31718	37127
18.32530	35930
18.33343	36061
18.34155	39212
18.34968	36004
18.35780	37141
18.36592	35552
18.37405	36310
18.38217	34563
18.39028	40495
18.39842	36722
18.40653	36850
18.41467	32424
18.42278	36320
18.43090	37147
18.43903	36191
18.44715	34818
18.45528	37057
18.46340	37177
18.47152	34573
18.47965	36306
18.48777	38426
18.49588	37978
18.50402	39964
18.51213	42641
18.52027	41492
18.52838	36774
18.53650	38991
18.54463	37245
18.55275	44753
18.56088	39346
18.56900	46921
18.57712	41821
18.58525	43788
18.59337	45561
18.60150	47015
18.60962	42888
18.61773	40822
18.62587	40577
18.63398	40597
18.64210	36906
18.65023	39979
18.65835	34614
18.66648	36310
18.67460	37681
18.68272	34624
18.69085	36153
18.69897	37807
18.70710	36611
18.71522	33190
18.72333	37440
18.73147	35523
18.73958	35939
18.74772	34613
18.75583	36463
18.76395	38451
18.77208	39054
18.78020	38638
18.78832	35505
18.79645	35724
18.80457	38216
18.81270	39271
18.82082	37779
18.82893	36142
18.83707	36410
18.84518	33071
18.85332	38287
18.86143	37958
18.86955	38356
18.87768	54717
18.88580	86927
18.89392	213425
18.90205	541554
18.91017	1330754
18.91830	2929903
18.92642	4860101
18.93453	6533785
18.94267	7056764
18.95078	6157314
18.95892	4877024
18.96703	3502208
18.97515	2409334
18.98328	1595555
18.99140	1097209
18.99953	796124
19.00765	591555
19.01577	457585
19.02390	381689
19.03202	310581
19.04013	263317
19.04827	221010
19.05638	195445
19.06452	178281
19.07263	165112
19.08075	148729
19.08888	135266
19.09700	132223
19.10513	122515
19.11325	118158
19.12137	114185
19.12950	107244
19.13762	100587
19.14573	103462
19.15387	102165
19.16198	97086
19.17012	92099
19.17823	88738
19.18635	84752
19.19448	83231
19.20260	85112
19.21073	85010
19.21885	81002
19.22697	80538
19.23510	75800
19.24322	75360
19.25135	71100
19.25947	81189
19.26758	71909
19.27572	76997
19.28383	78610
19.29195	77465
19.30008	82591
19.30820	76138
19.31633	71081
19.32445	76381
19.33257	68901
19.34070	67575
19.34882	62901
19.35695	63329
19.36507	62853
19.37318	62101
19.38132	63131
19.38943	65331
19.39757	81677
19.40568	113730
19.41380	174458
19.42193	249675
19.43005	313948
19.43817	340730
19.44630	312972
19.45442	247218
19.46255	168001
19.47067	127859
19.47878	88393
19.48692	75578
19.49503	71064
19.50317	60353
19.51128	65198
19.51940	61054
19.52753	59269
19.53565	61411
19.54377	57590
19.55190	56764
19.56002	51826
19.56815	51884
19.57627	50802
19.58438	47878
19.59252	54394
19.60063	62099
19.60877	79563
19.61688	134086
19.62500	207362
19.63313	325142
19.64125	427204
19.64938	480954
19.65750	491182
19.66562	443271
19.67375	359230
19.68187	266496
19.68998	205810
19.69812	171698
19.70623	138237
19.71437	123008
19.72248	106421
19.73060	92575
19.73873	80459
19.74685	71401
19.75498	71102
19.76310	67185
19.77122	63947
19.77935	60068
19.78747	60779
19.79560	61949
19.80372	63247
19.81183	56373
19.81997	54576
19.82808	55798
19.83620	52840
19.84433	49242
19.85245	54787
19.86058	59175
19.86870	56521
19.87682	63031
19.88495	68290
19.89307	72993
19.90120	78156
19.90932	81205
19.91743	78795
19.92557	74196
19.93368	77628
19.94180	71714
19.94993	71845
19.95805	65232
19.96618	61784
19.97430	63353
19.98242	61846
19.99055	61750
19.99867	63222
20.00680	63548
20.01492	60782
20.02303	60659
20.03117	60322
20.03928	59436
20.04742	59270
20.05553	54110
20.06365	46001
20.07178	49514
20.07990	49042
20.08802	50441
20.09615	49768
20.10427	49621
20.11240	48630
20.12052	47141
20.12863	51260
20.13677	46266
20.14488	46407
20.15302	48717
20.16113	47916
20.16925	51083
20.17738	47465
20.18550	43337
20.19362	50672
20.20175	57558
20.20987	79416
20.21800	115140
20.22612	180286
20.23423	243384
20.24237	298335
20.25048	327439
20.25862	334100
20.26673	290022
20.27485	240816
20.28298	192468
20.29110	167360
20.29923	124038
20.30735	105064
20.31547	88059
20.32360	74647
20.33172	68568
20.33983	63021
20.34797	60688
20.35608	65206
20.36422	68364
20.37233	76917
20.38045	94536
20.38858	112339
20.39670	125555
20.40483	143390
20.41295	147059
20.42107	139331
20.42920	126899
20.43732	110527
20.44545	92909
20.45357	87809
20.46168	69819
20.46982	66506
20.47793	58146
20.48605	56568
20.49418	52963
20.50230	54093
20.51043	51936
20.51855	49462
20.52667	48490
20.53480	52676
20.54292	47692
20.55105	46140
20.55917	48663
20.56728	43371
20.57542	51454
20.58353	44904
20.59167	44867
20.59978	46872
20.60790	50031
20.61603	45700
20.62415	46280
20.63227	42232
20.64040	44666
20.64852	45718
20.65665	40788
20.66477	45800
20.67288	41363
20.68102	42972
20.68913	45136
20.69727	49389
20.70538	43654
20.71350	42134
20.72163	46223
20.72975	42237
20.73787	40973
20.74600	41521
20.75412	42522
20.76225	41746
20.77037	37244
20.77848	40809
20.78662	41502
20.79473	44078
20.80287	38039
20.81098	38271
20.81910	39237
20.82723	38969
20.83535	38551
20.84348	42379
20.85160	41729
20.85972	44022
20.86785	41331
20.87597	41222
20.88408	38019
20.89222	38479
20.90033	39358
20.90847	37779
20.91658	38635
20.92470	39457
20.93283	38220
20.94095	35436
20.94908	38640
20.95720	42134
20.96532	39178
20.97345	37502
20.98157	37505
20.98968	39867
20.99782	40154
21.00593	39709
21.01407	40177
21.02218	37786
21.03030	42815
21.03843	35985
21.04655	39051
21.05468	36785
21.06280	36554
21.07092	37195
21.07905	37403
21.08717	38812
21.09530	40314
21.10342	40344
21.11153	40357
21.11967	43314
21.12778	33997
21.13590	39686
21.14403	40430
21.15215	37755
21.16028	40717
21.16840	40009
21.17652	43776
21.18465	40680
21.19277	38546
21.20090	38762
21.20902	37584
21.21713	43007
21.22527	39521
21.23338	46213
21.24152	37698
21.24963	42469
21.25775	41807
21.26588	41604
21.27400	40557
21.28212	41034
21.29025	48101
21.29837	44537
21.30650	49735
21.31462	71081
21.32273	95374
21.33087	136282
21.33898	175123
21.34712	206919
21.35523	228732
21.36335	215331
21.37148	183768
21.37960	152338
21.38772	119998
21.39585	97056
21.40397	81504
21.41210	70944
21.42022	61415
21.42833	56616
21.43647	59310
21.44458	54507
21.45272	56185
21.46083	47909
21.46895	49658
21.47708	49078
21.48520	48609
21.49333	48543
21.50145	45879
21.50957	42835
21.51770	45912
21.52582	47212
21.53393	48190
21.54207	53415
21.55018	64981
21.55832	83046
21.56643	105957
21.57455	132906
21.58268	150858
21.59080	157296
21.59893	141254
21.60705	127063
21.61517	102062
21.62330	85133
21.63142	71770
21.63955	66225
21.64767	59042
21.65578	53642
21.66392	53463
21.67203	51571
21.68015	49944
21.68828	52662
21.69640	45443
21.70453	46686
21.71265	46197
21.72077	47356
21.72890	49431
21.73702	50022
21.74515	55744
21.75327	71874
21.76138	88678
21.76952	112946
21.77763	133539
21.78575	132260
21.79388	118498
21.80200	112264
21.81013	90144
21.81825	75223
21.82637	67045
21.83450	56079
21.84262	56808
21.85075	49680
21.85887	49326
21.86698	50907
21.87512	44489
21.88323	42643
21.89137	42335
21.89948	41486
21.90760	40901
21.91573	44189
21.92385	41911
21.93197	41309
21.94010	40857
21.94822	41850
21.95635	42904
21.96447	40507
21.97258	41500
21.98072	38183
21.98883	42738
21.99697	41425
22.00508	40217
22.01320	40983
22.02133	45292
22.02945	41519
22.03757	39673
22.04570	41002
22.05382	40213
22.06195	41576
22.07007	43458
22.07818	37998
22.08632	41476
22.09443	40677
22.10257	40077
22.11068	39969
22.11880	39363
22.12693	37800
22.13505	46446
22.14318	44250
22.15130	54575
22.15942	57992
22.16755	64140
22.17567	63255
22.18378	62931
22.19192	59807
22.20003	52767
22.20817	46769
22.21628	42349
22.22440	40398
22.23253	43743
22.24065	36962
22.24878	41299
22.25690	36989
22.26502	37654
22.27315	37957
22.28127	40225
22.28940	39156
22.29752	40710
22.30563	37215
22.31377	35860
22.32188	36721
22.33000	39617
22.33813	35286
22.34625	34254
22.35438	38862
22.36250	36849
22.37062	34231
22.37875	33877
22.38687	36223
22.39500	36526
22.40312	35748
22.41123	36193
22.41937	33320
22.42748	37680
22.43560	35342
22.44373	35298
22.45185	33168
22.45998	36483
22.46810	30632
22.47622	34275
22.48435	38048
22.49247	36770
22.50060	35136
22.50872	33698
22.51683	35278
22.52497	34413
22.53308	39313
22.54122	32647
22.54933	34715
22.55745	36165
22.56558	35108
22.57370	34958
22.58182	35470
22.58995	32911
22.59807	32848
22.60620	32902
22.61432	32653
22.62243	36190
22.63057	31519
22.63868	28592
22.64682	33086
22.65493	33700
22.66305	33102
22.67118	37314
22.67930	35613
22.68743	33481
22.69555	36565
22.70367	36164
22.71180	34157
22.71992	35627
22.72803	39093
22.73617	33746
22.74428	34053
22.75242	34063
22.76053	35365
22.76865	31859
22.77678	33104
22.78490	32784
22.79303	39136
22.80115	31157
22.80927	34026
22.81740	30318
22.82552	33239
22.83363	33307
22.84177	33285
22.84988	35855
22.85802	35962
22.86613	35714
22.87425	39584
22.88238	44387
22.89050	47797
22.89863	57325
22.90675	62083
22.91487	67347
22.92300	73181
22.93112	79869
22.93925	83227
22.94737	75451
22.95548	70673
22.96362	71274
22.97173	60378
22.97985	61336
22.98798	55344
22.99610	50729
23.00423	46911
23.01235	45618
23.02047	39079
23.02860	36965
23.03672	34489
23.04485	37981
23.05297	36987
23.06108	40304
23.06922	42420
23.07733	47616
23.08547	54304
23.09358	56461
23.10170	61792
23.10983	62624
23.11795	56986
23.12607	49406
23.13420	41071
23.14232	40706
23.15045	41214
23.15857	37900
23.16668	35643
23.17482	35628
23.18293	36486
23.19107	34001
23.19918	33244
23.20730	32029
23.21543	30927
23.22355	35738
23.23167	35679
23.23980	33248
23.24792	34048
23.25605	36965
23.26417	35493
23.27228	34677
23.28042	32924
23.28853	31526
23.29667	31027
23.30478	33659
23.31290	34268
23.32103	31487
23.32915	32511
23.33728	31019
23.34540	32467
23.35352	33858
23.36165	35845
23.36977	37632
23.37788	36021
23.38602	42232
23.39413	40462
23.40227	41783
23.41038	44865
23.41850	46952
23.42663	44303
23.43475	44554
23.44288	43441
23.45100	43131
23.45912	43108
23.46725	44088
23.47537	43895
23.48348	44224
23.49162	40016
23.49973	42735
23.50787	47407
23.51598	40689
23.52410	44690
23.53223	36881
23.54035	38787
23.54848	40098
23.55660	40683
23.56472	36927
23.57285	41518
23.58097	40206
23.58910	37954
23.59722	39724
23.60533	43945
23.61347	37045
23.62158	35097
23.62970	37944
23.63783	36387
23.64595	37866
23.65408	45011
23.66220	42739
23.67032	43664
23.67845	42026
23.68657	44088
23.69470	38275
23.70282	38233
23.71093	52980
23.71907	90920
23.72718	220013
23.73532	553559
23.74343	1260980
23.75155	2347542
23.75968	3452802
23.76780	4284831
23.77592	4374261
23.78405	3980892
23.79217	3212663
23.80030	2417928
23.80842	1772552
23.81653	1315748
23.82467	1009271
23.83278	764638
23.84092	610921
23.84903	515077
23.85715	450427
23.86528	376313
23.87340	345038
23.88152	302299
23.88965	272110
23.89777	251860
23.90590	233347
23.91402	214840
23.92213	211722
23.93027	193981
23.93838	183697
23.94652	177120
23.95463	169112
23.96275	162787
23.97088	157484
23.97900	147272
23.98713	140937
23.99525	134595
24.00337	131806
24.01150	130941
24.01962	130252
24.02773	128612
24.03587	138409
24.04398	135697
24.05212	138655
24.06023	137901
24.06835	138500
24.07648	131015
24.08460	115693
24.09273	112080
24.10085	108478
24.10897	105518
24.11710	108863
24.12522	116098
24.13335	121296
24.14147	126693
24.14958	121270
24.15772	115967
24.16583	109614
24.17395	101965
24.18208	101508
24.19020	91087
24.19833	87781
24.20645	89034
24.21457	82501
24.22270	82008
24.23082	79066
24.23895	76145
24.24707	78015
24.25518	74420
24.26332	72905
24.27143	76132
24.27955	81010
24.28768	99712
24.29580	124102
24.30393	163519
24.31205	196855
24.32017	224544
24.32830	206133
24.33642	162410
24.34455	127235
24.35267	98338
24.36078	80432
24.36892	74203
24.37703	71561
24.38517	67918
24.39328	72850
24.40140	79657
24.40953	84740
24.41765	103335
24.42577	112524
24.43390	112831
24.44202	110102
24.45015	108975
24.45827	94102
24.46638	85862
24.47452	76217
24.48263	72665
24.49077	71596
24.49888	66164
24.50700	61891
24.51513	64845
24.52325	60915
24.53137	60609
24.53950	61315
24.54762	56238
24.55575	62203
24.56387	59757
24.57198	58057
24.58012	60146
24.58823	59303
24.59637	58062
24.60448	59787
24.61260	59680
24.62073	59620
24.62885	55934
24.63698	63493
24.64510	59244
24.65322	68053
24.66135	65571
24.66947	60068
24.67758	59275
24.68572	59799
24.69383	57185
24.70197	52729
24.71008	52275
24.71820	51155
24.72633	50190
24.73445	54221
24.74258	49843
24.75070	50201
24.75882	50406
24.76695	49415
24.77507	47433
24.78320	49256
24.79132	49636
24.79943	48084
24.80757	47105
24.81568	48763
24.82380	50536
24.83193	47820
24.84005	46687
24.84818	51205
24.85630	47187
24.86442	45200
24.87255	45123
24.88067	48963
24.88880	46915
24.89692	50207
24.90503	47208
24.91317	44310
24.92128	43046
24.92940	46120
24.93753	44574
24.94565	47820
24.95378	43552
24.96190	39684
24.97002	44204
24.97815	45746
24.98627	46917
24.99440	45243
25.00252	38937
25.01063	49719
25.01877	45719
25.02688	42270
25.03502	45717
25.04313	45944
25.05125	45044
25.05938	45002
25.06750	41374
25.07562	43973
25.08375	45910
25.09187	44875
25.10000	42006
25.10812	40618
25.11623	42925
25.12437	50120
25.13248	48352
25.14062	50447
25.14873	50445
25.15685	53891
25.16498	51354
25.17310	47533
25.18123	43666
25.18935	48452
25.19747	44839
25.20560	45145
25.21372	45508
25.22183	46121
25.22997	46672
25.23808	45735
25.24622	41680
25.25433	43422
25.26245	42154
25.27058	42635
25.27870	47966
25.28683	51876
25.29495	55320
25.30307	60222
25.31120	60351
25.31932	59895
25.32743	56463
25.33557	55959
25.34368	52441
25.35182	50591
25.35993	47672
25.36805	49252
25.37618	55298
25.38430	56696
25.39243	60261
25.40055	60968
25.40867	56639
25.41680	50434
25.42492	47893
25.43305	52166
25.44117	48049
25.44928	47520
25.45742	47342
25.46553	46867
25.47365	44219
25.48178	42690
25.48990	45192
25.49803	42092
25.50615	42829
25.51427	44638
25.52240	39166
25.53052	44124
25.53865	42495
25.54677	39686
25.55488	42917
25.56302	40809
25.57113	41165
25.57925	39532
25.58738	44096
25.59550	43243
25.60363	41272
25.61175	42561
25.61987	40581
25.62800	40769
25.63612	37213
25.64425	38490
25.65237	39021
25.66048	42608
25.66862	40295
25.67673	39871
25.68487	41662
25.69298	42014
25.70110	44110
25.70923	47259
25.71735	47834
25.72547	44667
25.73360	48852
25.74172	41684
25.74985	42105
25.75797	42882
25.76608	42308
25.77422	41832
25.78233	39316
25.79047	40283
25.79858	43227
25.80670	39129
25.81483	38068
25.82295	37604
25.83108	40280
25.83920	37764
25.84732	37083
25.85545	41992
25.86357	36204
25.87168	42876
25.87982	37062
25.88793	35923
25.89607	38844
25.90418	38423
25.91230	38033
25.92043	40404
25.92855	41598
25.93668	44175
25.94480	43935
25.95292	44180
25.96105	45677
25.96917	41423
25.97730	43839
25.98542	39748
25.99353	38404
26.00167	38726
26.00978	41558
26.01790	39580
26.02603	39076
26.03415	39060
26.04228	40051
26.05040	44118
26.05852	40755
26.06665	38634
26.07477	38907
26.08290	39175
26.09102	42757
26.09913	41603
26.10727	43429
26.11538	46805
26.12350	53605
26.13163	54647
26.13975	52324
26.14788	53065
26.15600	54437
26.16412	51047
26.17225	48680
26.18037	50939
26.18850	43159
26.19662	42248
26.20473	40232
26.21287	40815
26.22098	39271
26.22912	38898
26.23723	43542
26.24535	37736
26.25348	40281
26.26160	38926
26.26972	39697
26.27785	45827
26.28597	46291
26.29410	46382
26.30222	51410
26.31033	50789
26.31847	46480
26.32658	44788
26.33472	41038
26.34283	40477
26.35095	41107
26.35908	38586
26.36720	37865
26.37532	40184
26.38345	37078
26.39157	38972
26.39970	39781
26.40782	38264
26.41593	40129
26.42407	38855
26.43218	37068
26.44032	36841
26.44843	37992
26.45655	37949
26.46468	38352
26.47280	38886
26.48093	39149
26.48905	42097
26.49717	38512
26.50530	38903
26.51342	37472
26.52153	42075
26.52967	37035
26.53778	37172
26.54592	41238
26.55403	35650
26.56215	39382
26.57028	39952
26.57840	40490
26.58653	47436
26.59465	41311
26.60277	46668
26.61090	45258
26.61902	40379
26.62715	37867
26.63527	46564
26.64338	41040
26.65152	45711
26.65963	46684
26.66775	42644
26.67588	43153
26.68400	47567
26.69213	45445
26.70025	44454
26.70837	44718
26.71650	43413
26.72462	45926
26.73275	47959
26.74087	44280
26.74898	46146
26.75712	46834
26.76523	50499
26.77335	46654
26.78148	47862
26.78960	44329
26.79773	45048
26.80585	43965
26.81397	40222
26.82210	41756
26.83022	42131
26.83835	40020
26.84647	39246
26.85458	40743
26.86272	38647
26.87083	43168
26.87897	46119
26.88708	49132
26.89520	44569
26.90333	48333
26.91145	46033
26.91957	54810
26.92770	76379
26.93582	126518
26.94395	254826
26.95207	487503
26.96018	892878
26.96832	1549965
26.97643	2274357
26.98457	2792390
26.99268	2984124
27.00080	2878663
27.00893	2548382
27.01705	2138092
27.02518	1604942
27.03330	1224404
27.04142	942258
27.04955	718700
27.05767	595925
27.06578	480500
27.07392	407971
27.08203	350748
27.09017	303850
27.09828	269985
27.10640	238062
27.11453	223202
27.12265	208459
27.13078	190352
27.13890	171605
27.14702	158961
27.15515	153203
27.16327	151752
27.17138	142433
27.17952	137634
27.18763	134792
27.19577	123053
27.20388	115832
27.21200	117193
27.22013	104142
27.22825	101501
27.23638	103854
27.24450	103243
27.25262	100340
27.26075	96228
27.26887	92784
27.27700	88532
27.28512	86602
27.29323	84991
27.30137	83539
27.30948	79712
27.31760	87219
27.32573	86030
27.33385	79414
27.34198	77659
27.35010	76250
27.35822	80591
27.36635	72869
27.37447	73411
27.38260	72755
27.39072	75455
27.39883	73316
27.40697	74869
27.41508	73983
27.42320	78199
27.43133	76788
27.43945	72369
27.44758	75054
27.45570	73828
27.46382	71986
27.47195	74448
27.48007	72198
27.48820	71221
27.49632	68792
27.50443	72015
27.51257	73594
27.52068	76013
27.52882	68074
27.53693	65328
27.54505	63819
27.55318	59754
27.56130	60214
27.56942	58308
27.57755	59216
27.58567	58612
27.59380	55441
27.60192	54270
27.61003	57953
27.61817	56398
27.62628	54806
27.63442	53748
27.64253	54384
27.65065	52513
27.65878	54525
27.66690	54434
27.67503	52259
27.68315	56158
27.69127	54122
27.69940	55736
27.70752	53518
27.71563	54781
27.72377	52287
27.73188	50370
27.74002	53427
27.74813	51221
27.75625	49365
27.76438	50863
27.77250	50844
27.78063	46081
27.78875	53345
27.79687	52040
27.80500	51714
27.81312	57207
27.82123	52995
27.82937	54781
27.83748	51805
27.84562	55470
27.85373	54585
27.86185	52004
27.86998	55342
27.87810	47804
27.88623	47720
27.89435	52647
27.90247	49989
27.91060	44878
27.91872	47993
27.92685	45552
27.93497	48465
27.94308	49773
27.95122	47326
27.95933	46894
27.96745	45791
27.97558	44873
27.98370	41534
27.99183	42891
27.99995	44398
28.00807	46361
28.01620	42946
28.02432	45137
28.03245	45059
28.04057	46977
28.04868	46404
28.05682	46202
28.06493	47064
28.07307	46812
28.08118	48267
28.08930	52621
28.09743	61915
28.10555	63488
28.11367	66126
28.12180	64523
28.12992	58077
28.13805	59397
28.14617	52154
28.15428	48495
28.16242	44237
28.17053	49009
28.17867	47073
28.18678	43836
28.19490	44614
28.20303	47273
28.21115	43049
28.21927	45339
28.22740	53151
28.23552	63393
28.24365	86125
28.25177	124663
28.25988	175723
28.26802	255325
28.27613	348463
28.28427	425794
28.29238	526881
28.30050	623533
28.30863	655042
28.31675	688207
28.32488	690015
28.33300	661913
28.34112	636635
28.34925	587454
28.35737	527909
28.36548	459244
28.37362	433092
28.38173	370634
28.38987	325694
28.39798	290689
28.40610	251897
28.41423	232859
28.42235	204731
28.43048	187415
28.43860	180043
28.44672	166448
28.45485	151737
28.46297	143115
28.47108	136651
28.47922	122881
28.48733	123823
28.49547	115111
28.50358	117826
28.51170	114660
28.51983	105824
28.52795	99718
28.53608	95884
28.54420	91938
28.55232	91937
28.56045	90813
28.56857	94360
28.57670	85751
28.58482	86864
28.59293	85942
28.60107	85657
28.60918	81598
28.61730	87239
28.62543	83239
28.63355	88871
28.64168	96227
28.64980	106831
28.65792	117872
28.66605	125578
28.67417	141915
28.68230	143826
28.69042	142630
28.69853	130487
28.70667	109720
28.71478	92983
28.72292	80409
28.73103	76217
28.73915	67375
28.74728	69213
28.75540	69761
28.76352	64429
28.77165	66034
28.77977	65702
28.78790	63337
28.79602	62068
28.80413	61464
28.81227	64523
28.82038	60310
28.82852	59337
28.83663	58328
28.84475	66145
28.85288	60251
28.86100	60882
28.86912	58413
28.87725	55065
28.88537	56908
28.89350	59719
28.90162	62040
28.90973	59993
28.91787	60769
28.92598	62231
28.93412	66108
28.94223	61428
28.95035	64891
28.95848	61406
28.96660	59090
28.97473	56523
28.98285	54407
28.99097	56174
28.99910	55103
29.00722	58539
29.01533	57648
29.02347	58378
29.03158	55618
29.03972	54038
29.04783	55375
29.05595	53897
29.06408	52318
29.07220	51650
29.08033	52383
29.08845	51592
29.09657	54570
29.10470	48610
29.11282	51783
29.12095	52902
29.12907	53296
29.13718	50159
29.14532	52165
29.15343	51542
29.16155	52942
29.16968	53247
29.17780	53265
29.18593	55818
29.19405	55216
29.20217	56822
29.21030	55360
29.21842	50385
29.22655	49091
29.23467	49882
29.24278	51606
29.25092	51135
29.25903	50769
29.26715	49451
29.27528	50332
29.28340	52260
29.29153	50300
29.29965	52440
29.30777	53622
29.31590	47508
29.32402	47107
29.33215	50029
29.34027	51305
29.34838	50856
29.35652	49882
29.36463	49785
29.37277	51532
29.38088	51576
29.38900	55406
29.39713	59991
29.40525	56715
29.41337	53728
29.42150	50963
29.42962	52283
29.43775	48129
29.44587	54118
29.45398	47286
29.46212	51746
29.47023	49012
29.47837	56363
29.48648	54365
29.49460	56739
29.50273	60255
29.51085	57809
29.51898	55491
29.52710	52985
29.53522	53629
29.54335	51082
29.55147	53213
29.55958	51006
29.56772	50990
29.57583	44481
29.58397	44716
29.59208	46225
29.60020	46415
29.60833	46686
29.61645	48922
29.62458	49360
29.63270	50892
29.64082	48766
29.64895	44232
29.65707	49559
29.66518	43588
29.67332	42972
29.68143	47882
29.68957	44296
29.69768	44746
29.70580	45049
29.71393	45969
29.72205	41212
29.73018	40382
29.73830	39732
29.74642	42294
29.75455	43901
29.76267	43204
29.77080	41601
29.77892	39276
29.78703	40667
29.79517	42666
29.80328	40041
29.81140	43154
29.81953	39267
29.82765	46260
29.83578	44391
29.84390	44340
29.85202	52228
29.86015	63091
29.86827	72012
29.87640	100638
29.88452	136223
29.89263	159554
29.90077	197508
29.90888	227448
29.91700	260605
29.92513	275125
29.93325	293880
29.94138	304150
29.94950	297561
29.95762	306114
29.96575	304998
29.97387	302750
29.98200	292534
29.99012	267983
29.99823	263035
30.00637	239950
30.01448	217756
30.02262	211364
30.03073	199542
30.03885	184327
30.04698	177141
30.05510	161531
30.06322	158334
30.07135	142610
30.07947	130820
30.08760	128812
30.09572	115912
30.10383	111749
30.11197	101096
30.12008	99969
30.12822	90415
30.13633	92596
30.14445	91887
30.15258	84304
30.16070	80478
30.16883	76398
30.17695	78236
30.18507	76070
30.19320	77704
30.20132	71359
30.20943	64309
30.21757	68038
30.22568	69544
30.23382	71699
30.24193	67417
30.25005	65535
30.25818	63651
30.26630	62663
30.27443	66164
30.28255	63587
30.29067	62614
30.29880	60724
30.30692	61053
30.31503	62713
30.32317	61252
30.33128	55836
30.33942	56666
30.34753	55386
30.35565	60500
30.36378	59910
30.37190	58349
30.38003	56944
30.38815	58146
30.39627	54782
30.40440	53784
30.41252	55205
30.42065	55164
30.42877	52169
30.43688	53539
30.44502	53991
30.45313	52967
30.46125	51547
30.46938	52234
30.47750	54982
30.48563	51541
30.49375	55376
30.50187	59192
30.51000	53899
30.51812	53739
30.52625	53858
30.53437	50098
30.54248	47302
30.55062	48526
30.55873	52993
30.56687	50192
30.57498	51808
30.58310	50443
30.59123	51679
30.59935	47457
30.60747	52891
30.61560	50497
30.62372	47321
30.63185	46580
30.63997	47951
30.64808	43276
30.65622	47270
30.66433	44957
30.67247	50170
30.68058	46503
30.68870	49167
30.69683	46718
30.70495	45869
30.71307	45132
30.72120	50771
30.72932	52020
30.73745	73146
30.74557	124857
30.75368	315666
30.76182	757080
30.76993	1624831
30.77807	2903554
30.78618	4295925
30.79430	5223443
30.80243	5655932
30.81055	5067265
30.81868	3852753
30.82680	2468633
30.83492	1473211
30.84305	762978
30.85117	423177
30.85928	246563
30.86742	166179
30.87553	136453
30.88367	116183
30.89178	101751
30.89990	96444
30.90803	88684
30.91615	89586
30.92428	78993
30.93240	84084
30.94052	77191
30.94865	76418
30.95677	67738
30.96488	67576
30.97302	67839
30.98113	64680
30.98927	62211
30.99738	65128
31.00550	62562
31.01363	61932
31.02175	62482
31.02988	60566
31.03800	63264
31.04612	60793
31.05425	61832
31.06237	68426
31.07050	65380
31.07862	76691
31.08673	78195
31.09487	79080
31.10298	72872
31.11110	66961
31.11923	62527
31.12735	58177
31.13548	58873
31.14360	61348
31.15172	63189
31.15985	72073
31.16797	90633
31.17610	127023
31.18422	156331
31.19233	184875
31.20047	205663
31.20858	208029
31.21672	186735
31.22483	157709
31.23295	120210
31.24108	98357
31.24920	76231
31.25732	67795
31.26545	57919
31.27357	56644
31.28170	61010
31.28982	54182
31.29793	54477
31.30607	57798
31.31418	65398
31.32232	55442
31.33043	61707
31.33855	55280
31.34668	53935
31.35480	51629
31.36293	47317
31.37105	53208
31.37917	46806
31.38730	50899
31.39542	48974
31.40353	48731
31.41167	49352
31.41978	49024
31.42792	48086
31.43603	46382
31.44415	47432
31.45228	46309
31.46040	48576
31.46853	45035
31.47665	46783
31.48477	47618
31.49290	46230
31.50102	47664
31.50913	45636
31.51727	45512
31.52538	45176
31.53352	47984
31.54163	47929
31.54975	46957
31.55788	46061
31.56600	43870
31.57413	52579
31.58225	49525
31.59037	47490
31.59850	45771
31.60662	46698
31.61475	47541
31.62287	46720
31.63098	48417
31.63912	49755
31.64723	47954
31.65535	46114
31.66348	44245
31.67160	46904
31.67973	49753
31.68785	44667
31.69597	40272
31.70410	42918
31.71222	41779
31.72035	41312
31.72847	48747
31.73658	43112
31.74472	43276
31.75283	45630
31.76095	47643
31.76908	51316
31.77720	53076
31.78533	57484
31.79345	62023
31.80157	65617
31.80970	71169
31.81782	82267
31.82595	99449
31.83407	120735
31.84218	142172
31.85032	160276
31.85843	180030
31.86657	195639
31.87468	192891
31.88280	205671
31.89093	194096
31.89905	185333
31.90717	189694
31.91530	174014
31.92342	166581
31.93155	157120
31.93967	148512
31.94778	152781
31.95592	143703
31.96403	139207
31.97217	133361
31.98028	129545
31.98840	121799
31.99653	109128
32.00465	106818
32.01278	92735
32.02090	91277
32.02902	86281
32.03715	90073
32.04527	80245
32.05338	76480
32.06152	73071
32.06963	75769
32.07777	71438
32.08588	69434
32.09400	67616
32.10213	68371
32.11025	64933
32.11838	62294
32.12650	64526
32.13462	60032
32.14275	59466
32.15087	58322
32.15898	57882
32.16712	58669
32.17523	60484
32.18337	57098
32.19148	59332
32.19960	61849
32.20773	51945
32.21585	55532
32.22398	56545
32.23210	54794
32.24022	54776
32.24835	58272
32.25647	51389
32.26460	51402
32.27272	56457
32.28083	56801
32.28897	50923
32.29708	55483
32.30520	54773
32.31333	53586
32.32145	56384
32.32958	52644
32.33770	52798
32.34582	53305
32.35395	55937
32.36207	56816
32.37020	51760
32.37832	52786
32.38643	51122
32.39457	52265
32.40268	53216
32.41082	50332
32.41893	52752
32.42705	56406
32.43518	51335
32.44330	51276
32.45142	50252
32.45955	49023
32.46767	53793
32.47580	49151
32.48392	50321
32.49203	46804
32.50017	49407
32.50828	48797
32.51642	49933
32.52453	49508
32.53265	51973
32.54078	56821
32.54890	63455
32.55702	75317
32.56515	84594
32.57327	92999
32.58140	90084
32.58952	84573
32.59763	73225
32.60577	62715
32.61388	55962
32.62202	52728
32.63013	52413
32.63825	51403
32.64638	51841
32.65450	47075
32.66263	53091
32.67075	53211
32.67887	53472
32.68700	54253
32.69512	52959
32.70323	59012
32.71137	56056
32.71948	58402
32.72762	53326
32.73573	51695
32.74385	57652
32.75198	46680
32.76010	44419
32.76823	45418
32.77635	46459
32.78447	43952
32.79260	48968
32.80072	50447
32.80883	50508
32.81697	44656
32.82508	50673
32.83322	48396
32.84133	49917
32.84945	46001
32.85758	47561
32.86570	48982
32.87383	48155
32.88195	49236
32.89007	47682
32.89820	46883
32.90632	47481
32.91445	49019
32.92257	47590
32.93068	47537
32.93882	48542
32.94693	49863
32.95505	51077
32.96318	49645
32.97130	50541
32.97943	47622
32.98755	46653
32.99567	48792
33.00380	46292
33.01192	47206
33.02005	45527
33.02817	42845
33.03628	45206
33.04442	45911
33.05253	47926
33.06067	51370
33.06878	52499
33.07690	56110
33.08503	60160
33.09315	63196
33.10127	67027
33.10940	63332
33.11752	59457
33.12565	60610
33.13377	57638
33.14188	50401
33.15002	46893
33.15813	48156
33.16627	48153
33.17438	44969
33.18250	48527
33.19063	47001
33.19875	48004
33.20687	51121
33.21500	49150
33.22312	44415
33.23125	46036
33.23937	44970
33.24748	44279
33.25562	41822
33.26373	46401
33.27187	51648
33.27998	45865
33.28810	53130
33.29623	49556
33.30435	47983
33.31248	50581
33.32060	48873
33.32872	46339
33.33685	52571
33.34497	52149
33.35308	51494
33.36122	44483
33.36933	45266
33.37747	49456
33.38558	43774
33.39370	43985
33.40183	45528
33.40995	46010
33.41808	46622
33.42620	46735
33.43432	48120
33.44245	45167
33.45057	49568
33.45870	48193
33.46682	50384
33.47493	47671
33.48307	45988
33.49118	44652
33.49930	48830
33.50743	45078
33.51555	42287
33.52368	45366
33.53180	47322
33.53992	45614
33.54805	45371
33.55617	52604
33.56430	49417
33.57242	45411
33.58053	44760
33.58867	47002
33.59678	45500
33.60490	44015
33.61303	46792
33.62115	43072
33.62928	46384
33.63740	48622
33.64552	47832
33.65365	43762
33.66177	47399
33.66990	45506
33.67802	48734
33.68613	44799
33.69427	45361
33.70238	47524
33.71052	48747
33.71863	50524
33.72675	47558
33.73488	47528
33.74300	49756
33.75112	53495
33.75925	47996
33.76737	48021
33.77550	45710
33.78362	50220
33.79173	46332
33.79987	45068
33.80798	45701
33.81612	49280
33.82423	46358
33.83235	48897
33.84048	51396
33.84860	50124
33.85673	48380
33.86485	49558
33.87297	47821
33.88110	49148
33.88922	48816
33.89733	48551
33.90547	50845
33.91358	49149
33.92172	49762
33.92983	50036
33.93795	45535
33.94608	41961
33.95420	45999
33.96233	43999
33.97045	45804
33.97857	46089
33.98670	51973
33.99482	44663
34.00293	47376
34.01107	46504
34.01918	45055
34.02732	45139
34.03543	44912
34.04355	46128
34.05168	47990
34.05980	47716
34.06793	49058
34.07605	46440
34.08417	45257
34.09230	45901
34.10042	46493
34.10855	43243
34.11667	50706
34.12478	46841
34.13292	45529
34.14103	44736
34.14915	47431
34.15728	46735
34.16540	44304
34.17353	44949
34.18165	45886
34.18977	44124
34.19790	48009
34.20602	46784
34.21415	52046
34.22227	48358
34.23038	49146
34.23852	44186
34.24663	48856
34.25475	45155
34.26288	44159
34.27100	52168
34.27913	46175
34.28725	43244
34.29537	47070
34.30350	46493
34.31162	49712
34.31975	44489
34.32787	45526
34.33598	44825
34.34412	45185
34.35223	44678
34.36037	47712
34.36848	49139
34.37660	46875
34.38473	46578
34.39285	42139
34.40097	47056
34.40910	51900
34.41722	56958
34.42535	73528
34.43347	88098
34.44158	115040
34.44972	138705
34.45783	156557
34.46597	164301
34.47408	178134
34.48220	166926
34.49033	164518
34.49845	153241
34.50658	137233
34.51470	123921
34.52282	106755
34.53095	105577
34.53907	101991
34.54718	88418
34.55532	91678
34.56343	84740
34.57157	82485
34.57968	76663
34.58780	73567
34.59593	68909
34.60405	67748
34.61218	69420
34.62030	70128
34.62842	71633
34.63655	71235
34.64467	68914
34.65278	63955
34.66092	60893
34.66903	63121
34.67717	60046
34.68528	60005
34.69340	60179
34.70153	62562
34.70965	63476
34.71778	58716
34.72590	57120
34.73402	57560
34.74215	57185
34.75027	64816
34.75840	57522
34.76652	56121
34.77463	58925
34.78277	60014
34.79088	56608
34.79900	55557
34.80713	54920
34.81525	54781
34.82338	57781
34.83150	58280
34.83962	55062
34.84775	59270
34.85587	57798
34.86400	56466
34.87212	58037
34.88023	57609
34.88837	54281
34.89648	54647
34.90462	59052
34.91273	57200
34.92085	58868
34.92898	57214
34.93710	55950
34.94522	51285
34.95335	55561
34.96147	54928
34.96960	54493
34.97772	59036
34.98583	54098
34.99397	58016
35.00208	56588
35.01022	51672
35.01833	53660
35.02645	54654
35.03458	55054
35.04270	58541
35.05082	60484
35.05895	63050
35.06707	61765
35.07520	60160
35.08332	58353
35.09143	51172
35.09957	56971
35.10768	55340
35.11582	56310
35.12393	54466
35.13205	55315
35.14018	57896
35.14830	55567
35.15643	50977
35.16455	54545
35.17267	56228
35.18080	54558
35.18892	56122
35.19703	50643
35.20517	55400
35.21328	52351
35.22142	53893
35.22953	57877
35.23765	54078
35.24578	57856
35.25390	58767
35.26203	55811
35.27015	55347
35.27827	53856
35.28640	56340
35.29452	52894
35.30263	54107
35.31077	50539
35.31888	56241
35.32702	49084
35.33513	49856
35.34325	53664
35.35138	52037
35.35950	51573
35.36763	55353
35.37575	52279
35.38387	51318
35.39200	55877
35.40012	54299
35.40825	59031
35.41637	60990
35.42448	56520
35.43262	60605
35.44073	66466
35.44885	65197
35.45698	68188
35.46510	68473
35.47323	64762
35.48135	61872
35.48947	62204
35.49760	62439
35.50572	59388
35.51385	62294
35.52197	52262
35.53008	57082
35.53822	59626
35.54633	59967
35.55447	69567
35.56258	68453
35.57070	71502
35.57883	75802
35.58695	67384
35.59507	65203
35.60320	65013
35.61132	60104
35.61945	60115
35.62757	61805
35.63568	55136
35.64382	56750
35.65193	54363
35.66007	55787
35.66818	60211
35.67630	55615
35.68443	53798
35.69255	57391
35.70067	54721
35.70880	57555
35.71692	60056
35.72505	57139
35.73317	59056
35.74128	60260
35.74942	59789
35.75753	55823
35.76567	54597
35.77378	55302
35.78190	58223
35.79003	56211
35.79815	55564
35.80628	59204
35.81440	59052
35.82252	60608
35.83065	65514
35.83877	57679
35.84688	58670
35.85502	57835
35.86313	57159
35.87127	61285
35.87938	57844
35.88750	61108
35.89563	53856
35.90375	59213
35.91188	58268
35.92000	53662
35.92812	58508
35.93625	56962
35.94437	58223
35.95250	56147
35.96062	56501
35.96873	58609
35.97687	61978
35.98498	68054
35.99310	71951
36.00123	72629
36.00935	76846
36.01748	80868
36.02560	76645
36.03372	71932
36.04185	69283
36.04997	64198
36.05810	68133
36.06622	67636
36.07433	64863
36.08247	62874
36.09058	63584
36.09870	64923
36.10683	58407
36.11495	68187
36.12308	60551
36.13120	61809
36.13932	58286
36.14745	57940
36.15557	60179
36.16370	63384
36.17182	64903
36.17993	60894
36.18807	72127
36.19618	74747
36.20432	92777
36.21243	103152
36.22055	110242
36.22868	103543
36.23680	90167
36.24492	86920
36.25305	76230
36.26117	70179
36.26930	70762
36.27742	66559
36.28553	64814
36.29367	68130
36.30178	65340
36.30992	65176
36.31803	64592
36.32615	63220
36.33428	60355
36.34240	59428
36.35052	64640
36.35865	59771
36.36677	59762
36.37490	67668
36.38302	67640
36.39113	64033
36.39927	66155
36.40738	64066
36.41552	66471
36.42363	64092
36.43175	62607
36.43988	61886
36.44800	60803
36.45613	64579
36.46425	61137
36.47237	64569
36.48050	62110
36.48862	61583
36.49673	64051
36.50487	62987
36.51298	65726
36.52112	65713
36.52923	64632
36.53735	71426
36.54548	69689
36.55360	72323
36.56173	76743
36.56985	71316
36.57797	70588
36.58610	66911
36.59422	68183
36.60235	70719
36.61047	66694
36.61858	70309
36.62672	67617
36.63483	69591
36.64295	68139
36.65108	65321
36.65920	64418
36.66733	66821
36.67545	73264
36.68357	71025
36.69170	67810
36.69982	68861
36.70795	68651
36.71607	68139
36.72418	65269
36.73232	69939
36.74043	70735
36.74857	68089
36.75668	68576
36.76480	69675
36.77293	66216
36.78105	67088
36.78917	66568
36.79730	66463
36.80542	69676
36.81355	71365
36.82167	69822
36.82978	67668
36.83792	70127
36.84603	68768
36.85417	68716
36.86228	67131
36.87040	74192
36.87853	70373
36.88665	66715
36.89477	71174
36.90290	70446
36.91102	75140
36.91915	75018
36.92727	67516
36.93538	71719
36.94352	73123
36.95163	66516
36.95977	73162
36.96788	70135
36.97600	67640
36.98413	67594
36.99225	67148
37.00038	70557
37.00850	73704
37.01662	72626
37.02475	72127
37.03287	75141
37.04098	72045
37.04912	73288
37.05723	68734
37.06537	68306
37.07348	72132
37.08160	75290
37.08973	77131
37.09785	74146
37.10598	78517
37.11410	72597
37.12222	70135
37.13035	74063
37.13847	68374
37.14658	70479
37.15472	75749
37.16283	75937
37.17097	84308
37.17908	72927
37.18720	77092
37.19533	73802
37.20345	79117
37.21158	76907
37.21970	91922
37.22782	102190
37.23595	120257
37.24407	138633
37.25220	165019
37.26032	168682
37.26843	179750
37.27657	179126
37.28468	167828
37.29280	147244
37.30093	138855
37.30905	130237
37.31718	125946
37.32530	109107
37.33342	108031
37.34155	105923
37.34967	101121
37.35780	96675
37.36592	99707
37.37403	101433
37.38217	96213
37.39028	91168
37.39842	91066
37.40653	89255
37.41465	85632
37.42278	89884
37.43090	85466
37.43902	84315
37.44715	90549
37.45527	84222
37.46340	83715
37.47152	81493
37.47963	85049
37.48777	83648
