C:\MassHunter\GCMS\1\data\JTB-E02\BACandBLUE\JTB-E18-012-11.D Wed Jun 19 11:29:49 2019
Start of data points
2.09537	88208
2.10350	80005
2.11162	85494
2.11975	84159
2.12787	86729
2.13598	80659
2.14412	82882
2.15223	81949
2.16037	78259
2.16848	79408
2.17660	78148
2.18473	76790
2.19285	77194
2.20097	73705
2.20910	73954
2.21722	76075
2.22535	78914
2.23347	74925
2.24158	75480
2.24972	74701
2.25783	73645
2.26597	108877
2.27408	520191
2.28220	1295571
2.29033	869234
2.29845	397665
2.30658	286590
2.31470	243487
2.32282	217220
2.33095	191649
2.33907	183442
2.34718	176502
2.35532	160507
2.36343	149659
2.37157	142556
2.37968	143285
2.38780	141860
2.39593	138949
2.40405	133604
2.41218	128984
2.42030	129137
2.42842	130479
2.43655	127864
2.44467	126437
2.45278	128529
2.46092	119197
2.46903	122373
2.47717	117546
2.48528	121468
2.49340	145534
2.50153	155760
2.50965	133836
2.51778	123495
2.52590	119510
2.53402	118462
2.54215	118288
2.55027	124569
2.55840	183641
2.56652	269871
2.57463	210507
2.58277	163271
2.59088	153008
2.59900	155509
2.60713	418996
2.61525	1140748
2.62338	1081717
2.63150	573577
2.63962	365534
2.64775	281938
2.65587	222720
2.66400	207301
2.67212	178389
2.68023	160758
2.68837	156635
2.69648	146216
2.70462	142743
2.71273	136835
2.72085	131597
2.72898	132477
2.73710	124424
2.74522	128845
2.75335	124890
2.76147	117062
2.76960	124250
2.77772	147791
2.78583	311970
2.79397	440346
2.80208	313649
2.81022	226287
2.81833	215818
2.82645	212083
2.83458	195255
2.84270	170157
2.85082	162035
2.85895	148946
2.86707	141869
2.87520	135228
2.88332	135321
2.89143	127833
2.89957	123691
2.90768	118405
2.91582	117883
2.92393	120197
2.93205	119012
2.94018	113405
2.94830	113634
2.95643	116834
2.96455	126146
2.97267	133679
2.98080	123332
2.98892	122763
2.99703	116772
3.00517	124410
3.01328	116177
3.02142	119736
3.02953	108616
3.03765	108029
3.04578	103658
3.05390	101205
3.06203	111113
3.07015	116100
3.07827	178643
3.08640	860541
3.09452	2786923
3.10265	4262908
3.11077	5337236
3.11888	5283519
3.12702	3460116
3.13513	2218922
3.14325	1657805
3.15138	1307349
3.15950	1052675
3.16763	889669
3.17575	792395
3.18387	763458
3.19200	1041853
3.20012	1370480
3.20825	1198446
3.21637	882787
3.22448	717482
3.23262	626877
3.24073	547263
3.24885	485293
3.25698	437861
3.26510	394366
3.27323	371359
3.28135	362570
3.28947	569388
3.29760	1688755
3.30572	4525957
3.31385	7239664
3.32197	7211376
3.33008	5133188
3.33822	3322584
3.34633	2352047
3.35447	1771830
3.36258	1467288
3.37070	1221034
3.37883	1055353
3.38695	941808
3.39507	850103
3.40320	755883
3.41132	718766
3.41945	667461
3.42757	629167
3.43568	596685
3.44382	581306
3.45193	549111
3.46007	529997
3.46818	533908
3.47630	551766
3.48443	535320
3.49255	502853
3.50067	467565
3.50880	446919
3.51692	443693
3.52505	427456
3.53317	434299
3.54128	435657
3.54942	425039
3.55753	410544
3.56567	399641
3.57378	441053
3.58190	478560
3.59003	459033
3.59815	415020
3.60628	392903
3.61440	388213
3.62252	402350
3.63065	393546
3.63877	409566
3.64688	407726
3.65502	392298
3.66313	633501
3.67127	2404512
3.67938	6767029
3.68750	9438962
3.69563	7352275
3.70375	4387296
3.71188	2979593
3.72000	2401788
3.72812	2036099
3.73625	1762378
3.74437	1572692
3.75250	1414328
3.76062	1282807
3.76873	1174801
3.77687	1101600
3.78498	1014826
3.79310	966272
3.80123	997803
3.80935	1326753
3.81748	2014192
3.82560	2277808
3.83372	1820923
3.84185	1354916
3.84997	1171808
3.85810	1031564
3.86622	950620
3.87433	870736
3.88247	815258
3.89058	762783
3.89870	712821
3.90683	693268
3.91495	678781
3.92308	739142
3.93120	818387
3.93932	856461
3.94745	1053144
3.95557	2468540
3.96370	6009910
3.97182	9099796
3.97993	8379184
3.98807	5262507
3.99618	4205759
4.00432	9498338
4.01243	2.268549E+07
4.02055	3.33974E+07
4.02868	3.149704E+07
4.03680	1.889729E+07
4.04492	9132842
4.05305	5078159
4.06117	3415769
4.06930	2588863
4.07742	2095686
4.08553	1751648
4.09367	1497710
4.10178	1345165
4.10992	1213401
4.11803	1103096
4.12615	1024859
4.13428	959801
4.14240	950362
4.15053	978782
4.15865	963013
4.16677	902669
4.17490	853925
4.18302	822472
4.19113	780112
4.19927	737682
4.20738	800839
4.21552	1686348
4.22363	4953719
4.23175	1.053859E+07
4.23988	1.442751E+07
4.24800	1.364205E+07
4.25613	9298027
4.26425	5633701
4.27237	3834249
4.28050	2828823
4.28862	2201603
4.29673	1807504
4.30487	1524406
4.31298	1330758
4.32112	1198286
4.32923	1083230
4.33735	997385
4.34548	936097
4.35360	884405
4.36173	885879
4.36985	879817
4.37797	854662
4.38610	802483
4.39422	735119
4.40235	699046
4.41047	661454
4.41858	651056
4.42672	615298
4.43483	586947
4.44295	570711
4.45108	565949
4.45920	548673
4.46733	537058
4.47545	523930
4.48357	514605
4.49170	510551
4.49982	503544
4.50795	487885
4.51607	485970
4.52418	466944
4.53232	449775
4.54043	453131
4.54855	447492
4.55668	442631
4.56480	442284
4.57293	431870
4.58105	413874
4.58917	405705
4.59730	402279
4.60542	396185
4.61355	404605
4.62167	405040
4.62978	465140
4.63792	594514
4.64603	718584
4.65417	723216
4.66228	601528
4.67040	503360
4.67853	455166
4.68665	451701
4.69477	429170
4.70290	401522
4.71102	379006
4.71915	375333
4.72727	367012
4.73538	365369
4.74352	360526
4.75163	349120
4.75977	341408
4.76788	330347
4.77600	326165
4.78413	340396
4.79225	446401
4.80038	763858
4.80850	1195565
4.81662	1365280
4.82475	1156919
4.83287	870720
4.84098	744504
4.84912	671252
4.85723	631635
4.86537	582305
4.87348	536622
4.88160	481463
4.88973	464533
4.89785	436315
4.90598	416633
4.91410	389652
4.92222	393822
4.93035	409424
4.93847	561154
4.94660	1088612
4.95472	2249678
4.96283	3736332
4.97097	4585440
4.97908	4237531
4.98720	3264362
4.99533	2286206
5.00345	1625337
5.01158	1249936
5.01970	1040960
5.02782	923799
5.03595	899868
5.04407	911935
5.05220	901929
5.06032	807226
5.06843	733625
5.07657	680362
5.08468	635561
5.09280	607806
5.10093	574621
5.10905	546342
5.11718	519207
5.12530	512234
5.13342	515116
5.14155	495443
5.14967	492281
5.15780	515570
5.16592	555183
5.17403	578600
5.18217	556183
5.19028	523225
5.19842	514922
5.20653	521093
5.21465	522477
5.22278	505504
5.23090	496506
5.23902	474149
5.24715	459898
5.25527	433632
5.26340	421803
5.27152	394310
5.27963	378908
5.28777	357023
5.29588	359801
5.30402	360129
5.31213	334404
5.32025	347206
5.32838	356646
5.33650	386366
5.34462	402307
5.35275	397148
5.36087	384978
5.36900	352425
5.37712	352431
5.38523	349652
5.39337	359280
5.40148	366290
5.40962	368456
5.41773	351563
5.42585	339463
5.43398	320068
5.44210	319369
5.45023	327173
5.45835	330041
5.46647	324096
5.47460	314860
5.48272	308333
5.49083	303295
5.49897	292823
5.50708	293086
5.51522	301885
5.52333	316339
5.53145	316296
5.53958	317183
5.54770	301794
5.55583	293764
5.56395	334150
5.57207	393509
5.58020	442263
5.58832	428834
5.59645	382460
5.60457	336520
5.61268	310988
5.62082	296644
5.62893	306030
5.63705	304480
5.64518	321203
5.65330	313244
5.66143	303007
5.66955	294055
5.67767	285322
5.68580	310288
5.69392	331846
5.70205	337450
5.71017	331367
5.71828	301110
5.72642	283243
5.73453	281091
5.74265	273015
5.75078	250112
5.75890	259635
5.76703	251762
5.77515	242397
5.78327	244944
5.79140	249413
5.79952	243151
5.80765	236486
5.81577	238415
5.82388	243054
5.83202	238363
5.84013	236695
5.84827	243246
5.85638	242625
5.86450	239953
5.87263	239120
5.88075	229988
5.88887	231880
5.89700	227588
5.90512	220963
5.91325	205822
5.92137	184608
5.92948	178643
5.93762	177440
5.94573	182459
5.95387	200980
5.96198	215817
5.97010	245852
5.97823	268099
5.98635	300991
5.99448	334125
6.00260	325986
6.01072	290419
6.01885	253014
6.02697	233714
6.03508	213201
6.04322	203079
6.05133	190167
6.05947	178417
6.06758	171083
6.07570	168605
6.08383	168888
6.09195	167830
6.10008	170660
6.10820	184532
6.11632	191671
6.12445	210323
6.13257	247989
6.14068	340359
6.14882	416577
6.15693	467572
6.16507	402551
6.17318	315564
6.18130	268830
6.18943	236090
6.19755	230952
6.20568	222340
6.21380	214437
6.22192	216164
6.23005	210016
6.23817	206919
6.24630	196321
6.25442	201381
6.26253	207555
6.27067	214636
6.27878	202507
6.28690	204176
6.29503	201261
6.30315	195696
6.31128	203915
6.31940	219751
6.32752	240259
6.33565	312694
6.34377	378791
6.35190	400563
6.36002	353653
6.36813	294952
6.37627	244245
6.38438	230181
6.39250	232774
6.40063	218654
6.40875	225085
6.41688	207262
6.42500	215638
6.43312	205948
6.44125	209317
6.44937	208571
6.45750	199750
6.46562	205734
6.47373	199419
6.48187	212180
6.48998	203577
6.49812	199352
6.50623	214148
6.51435	206610
6.52248	208744
6.53060	208850
6.53872	206374
6.54685	207576
6.55497	209778
6.56310	209495
6.57122	236013
6.57933	271373
6.58747	307669
6.59558	309052
6.60372	288678
6.61183	245320
6.61995	232908
6.62808	223647
6.63620	222911
6.64433	236219
6.65245	264816
6.66057	394598
6.66870	622830
6.67682	819140
6.68493	829268
6.69307	648525
6.70118	469476
6.70932	374939
6.71743	293595
6.72555	254540
6.73368	233182
6.74180	225187
6.74993	205889
6.75805	204563
6.76617	189970
6.77430	178923
6.78242	170747
6.79053	162626
6.79867	162796
6.80678	158423
6.81492	164412
6.82303	154216
6.83115	153704
6.83928	151647
6.84740	163261
6.85553	186456
6.86365	201965
6.87177	224614
6.87990	220441
6.88802	183821
6.89615	150153
6.90427	122188
6.91238	115237
6.92052	109361
6.92863	97134
6.93675	99341
6.94488	90340
6.95300	99145
6.96113	104796
6.96925	105544
6.97737	124567
6.98550	133160
6.99362	132902
7.00175	127567
7.00987	119707
7.01798	105370
7.02612	100569
7.03423	98131
7.04237	91261
7.05048	92227
7.05860	98531
7.06673	103013
7.07485	104107
7.08297	106908
7.09110	105920
7.09922	97682
7.10735	90756
7.11547	88836
7.12358	89281
7.13172	92692
7.13983	103524
7.14797	149371
7.15608	226659
7.16420	319821
7.17233	373311
7.18045	331121
7.18857	277156
7.19670	236450
7.20482	324460
7.21295	647743
7.22107	1286631
7.22918	1813420
7.23732	1889290
7.24543	1431000
7.25357	885085
7.26168	515803
7.26980	331310
7.27793	226568
7.28605	165976
7.29418	138411
7.30230	125057
7.31042	127284
7.31855	122584
7.32667	121596
7.33478	128101
7.34292	137443
7.35103	134621
7.35917	131586
7.36728	118237
7.37540	113407
7.38353	117697
7.39165	117201
7.39978	114239
7.40790	115905
7.41602	115767
7.42415	122590
7.43227	112046
7.44040	111886
7.44852	106689
7.45663	105271
7.46477	105549
7.47288	105665
7.48100	100805
7.48913	95659
7.49725	93487
7.50538	92858
7.51350	92625
7.52162	99952
7.52975	118546
7.53787	179625
7.54600	270916
7.55412	412828
7.56223	562983
7.57037	670780
7.57848	669569
7.58660	574324
7.59473	428972
7.60285	292435
7.61098	205946
7.61910	155675
7.62722	130538
7.63535	117546
7.64347	103317
7.65160	101363
7.65972	93698
7.66783	87875
7.67597	94808
7.68408	86844
7.69222	90315
7.70033	86406
7.70845	88846
7.71658	87572
7.72470	89281
7.73282	86685
7.74095	90428
7.74907	88011
7.75720	89912
7.76532	94571
7.77343	96889
7.78157	99882
7.78968	96265
7.79782	106253
7.80593	111421
7.81405	115852
7.82218	114132
7.83030	109089
7.83842	97995
7.84655	93119
7.85467	89423
7.86280	90327
7.87092	88545
7.87903	95314
7.88717	106191
7.89528	106985
7.90342	104781
7.91153	105900
7.91965	99401
7.92778	106317
7.93590	111903
7.94403	125852
7.95215	140544
7.96027	135093
7.96840	132462
7.97652	120402
7.98463	101237
7.99277	91481
8.00088	89740
8.00902	85042
8.01713	78257
8.02525	77384
8.03338	82773
8.04150	81221
8.04963	81396
8.05775	82079
8.06587	77271
8.07400	74906
8.08212	74387
8.09025	73341
8.09837	72872
8.10648	73507
8.11462	71730
8.12273	70496
8.13085	77836
8.13898	91655
8.14710	97257
8.15523	106698
8.16335	116037
8.17147	102464
8.17960	93357
8.18772	83388
8.19585	81561
8.20397	78353
8.21208	79394
8.22022	77111
8.22833	75948
8.23645	76505
8.24458	75728
8.25270	77435
8.26083	75434
8.26895	68777
8.27707	73749
8.28520	71599
8.29332	68989
8.30145	68395
8.30957	68939
8.31768	71836
8.32582	75128
8.33393	78564
8.34207	78162
8.35018	75885
8.35830	77696
8.36643	75718
8.37455	77319
8.38267	79542
8.39080	79572
8.39892	79502
8.40705	77184
8.41517	77431
8.42328	71571
8.43142	67984
8.43953	65355
8.44767	69736
8.45578	66257
8.46390	65097
8.47203	65929
8.48015	66538
8.48828	63226
8.49640	65447
8.50452	65304
8.51265	75082
8.52077	94402
8.52888	161896
8.53702	271504
8.54513	409234
8.55327	477298
8.56138	419531
8.56950	299994
8.57763	193471
8.58575	137214
8.59388	113918
8.60200	134742
8.61012	156360
8.61825	161723
8.62637	151955
8.63448	134798
8.64262	107657
8.65073	97381
8.65887	82442
8.66698	81551
8.67510	76631
8.68323	75822
8.69135	80566
8.69948	77421
8.70760	79074
8.71572	85145
8.72385	80993
8.73197	80014
8.74010	76200
8.74822	82060
8.75633	103132
8.76447	197071
8.77258	404371
8.78070	760999
8.78883	1118165
8.79695	1336102
8.80508	1220593
8.81320	918370
8.82132	599343
8.82945	390670
8.83757	296456
8.84570	270431
8.85382	262330
8.86193	239778
8.87007	227156
8.87818	208681
8.88630	199654
8.89443	177998
8.90255	176361
8.91068	163838
8.91880	169046
8.92692	163781
8.93505	179756
8.94317	193331
8.95130	197566
8.95942	192699
8.96753	178999
8.97567	165389
8.98378	158366
8.99192	160769
9.00003	155624
9.00815	154737
9.01628	142394
9.02440	136436
9.03252	124213
9.04065	121586
9.04877	119116
9.05690	112638
9.06502	114957
9.07313	114991
9.08127	110694
9.08938	114196
9.09752	119279
9.10563	131476
9.11375	145109
9.12188	156840
9.13000	153534
9.13813	152535
9.14625	141357
9.15437	124588
9.16250	121161
9.17062	113276
9.17873	105567
9.18687	103192
9.19498	107571
9.20312	103385
9.21123	105569
9.21935	104198
9.22748	98698
9.23560	97134
9.24373	104633
9.25185	106871
9.25997	104746
9.26810	104511
9.27622	97954
9.28433	90774
9.29247	99227
9.30058	94255
9.30872	99165
9.31683	99472
9.32495	86969
9.33308	86197
9.34120	90223
9.34933	85660
9.35745	88249
9.36557	84320
9.37370	79386
9.38182	80009
9.38995	81019
9.39807	85249
9.40618	85277
9.41432	93041
9.42243	101961
9.43055	119062
9.43868	133658
9.44680	140859
9.45493	146110
9.46305	128168
9.47117	117236
9.47930	101985
9.48742	88999
9.49555	85703
9.50367	92016
9.51178	96317
9.51992	107960
9.52803	122989
9.53617	130421
9.54428	124846
9.55240	117587
9.56053	103218
9.56865	97975
9.57677	86217
9.58490	76283
9.59302	76082
9.60115	73203
9.60927	69847
9.61738	73928
9.62552	61209
9.63363	56618
9.64177	56793
9.64988	55472
9.65800	55946
9.66613	55404
9.67425	55730
9.68237	52658
9.69050	51932
9.69862	51763
9.70675	52196
9.71487	51070
9.72298	54701
9.73112	56773
9.73923	50749
9.74737	52300
9.75548	50706
9.76360	51436
9.77173	47774
9.77985	47647
9.78798	48535
9.79610	41706
9.80422	46467
9.81235	47532
9.82047	45006
9.82858	46716
9.83672	46927
9.84483	46078
9.85297	44189
9.86108	51075
9.86920	54490
9.87733	49128
9.88545	55510
9.89358	56024
9.90170	50407
9.90982	49275
9.91795	52183
9.92607	59524
9.93418	78348
9.94232	123621
9.95043	182829
9.95857	244387
9.96668	273528
9.97480	261419
9.98293	198580
9.99105	151028
9.99918	124164
10.00730	106638
10.01542	100298
10.02355	89384
10.03167	85069
10.03980	76618
10.04792	70238
10.05603	70233
10.06417	65304
10.07228	68899
10.08040	66975
10.08853	68734
10.09665	67940
10.10478	63043
10.11290	62910
10.12102	67053
10.12915	60557
10.13727	64000
10.14540	60331
10.15352	58757
10.16163	58037
10.16977	55198
10.17788	53679
10.18602	54146
10.19413	50817
10.20225	53991
10.21038	55113
10.21850	53176
10.22662	56889
10.23475	58160
10.24287	63759
10.25100	70705
10.25912	94909
10.26723	182276
10.27537	409212
10.28348	893886
10.29162	1615261
10.29973	2489858
10.30785	3463465
10.31598	5000846
10.32410	7368784
10.33223	9835528
10.34035	1.139199E+07
10.34847	1.059746E+07
10.35660	8146802
10.36472	5436532
10.37283	3754632
10.38097	2825031
10.38908	2100129
10.39722	1535159
10.40533	1090423
10.41345	797205
10.42158	610641
10.42970	529934
10.43783	474524
10.44595	425501
10.45407	392537
10.46220	376105
10.47032	357460
10.47843	316394
10.48657	294934
10.49468	284300
10.50282	258228
10.51093	250587
10.51905	238588
10.52718	226174
10.53530	217227
10.54343	219595
10.55155	211355
10.55967	201525
10.56780	192533
10.57592	189124
10.58405	182483
10.59217	176230
10.60028	179543
10.60842	158767
10.61653	148489
10.62465	153567
10.63278	148265
10.64090	141077
10.64903	139757
10.65715	130247
10.66527	132148
10.67340	127819
10.68152	125070
10.68965	123932
10.69777	128427
10.70588	117684
10.71402	122087
10.72213	123782
10.73025	119955
10.73838	113541
10.74650	118628
10.75463	115415
10.76275	115695
10.77087	113644
10.77900	105660
10.78712	98811
10.79525	103525
10.80337	99173
10.81148	95197
10.81962	103131
10.82773	103563
10.83587	96177
10.84398	94068
10.85210	86244
10.86023	86197
10.86835	83906
10.87647	83461
10.88460	88507
10.89272	80297
10.90085	79745
10.90897	82181
10.91708	79401
10.92522	82358
10.93333	76794
10.94147	77819
10.94958	83107
10.95770	76368
10.96583	78189
10.97395	78620
10.98208	78940
10.99020	78835
10.99832	80127
11.00645	77502
11.01457	75801
11.02268	73282
11.03082	71058
11.03893	73990
11.04707	69139
11.05518	65625
11.06330	67935
11.07143	72442
11.07955	72972
11.08768	71373
11.09580	73889
11.10392	75216
11.11205	72688
11.12017	70092
11.12828	69608
11.13642	61528
11.14453	62502
11.15267	57144
11.16078	58264
11.16890	65047
11.17703	61777
11.18515	63299
11.19328	65719
11.20140	70236
11.20952	63503
11.21765	63531
11.22577	52311
11.23390	59185
11.24202	53432
11.25013	47336
11.25827	47223
11.26638	47708
11.27450	47370
11.28263	49755
11.29075	50328
11.29888	56807
11.30700	63324
11.31512	91367
11.32325	161672
11.33137	266612
11.33950	388948
11.34762	522286
11.35573	566629
11.36387	521663
11.37198	406052
11.38012	290817
11.38823	203850
11.39635	156045
11.40448	131540
11.41260	116210
11.42072	108265
11.42885	95372
11.43697	81705
11.44510	80234
11.45322	70262
11.46133	68685
11.46947	67756
11.47758	69394
11.48572	80663
11.49383	93657
11.50195	107228
11.51008	120862
11.51820	117454
11.52632	110518
11.53445	100071
11.54257	94505
11.55070	82479
11.55882	76397
11.56693	71325
11.57507	74537
11.58318	70169
11.59132	78423
11.59943	82867
11.60755	113319
11.61568	137189
11.62380	159747
11.63193	157700
11.64005	141080
11.64817	113451
11.65630	95793
11.66442	79821
11.67253	74042
11.68067	71211
11.68878	71709
11.69692	74412
11.70503	77343
11.71315	81795
11.72128	74502
11.72940	75347
11.73753	66535
11.74565	61905
11.75377	60096
11.76190	54841
11.77002	56954
11.77813	56215
11.78627	53996
11.79438	54483
11.80252	52505
11.81063	54411
11.81875	56204
11.82688	55860
11.83500	54249
11.84313	56566
11.85125	56526
11.85937	51716
11.86750	54121
11.87562	52671
11.88375	53665
11.89187	47603
11.89998	46139
11.90812	48696
11.91623	50763
11.92435	58135
11.93248	62752
11.94060	64671
11.94873	59990
11.95685	52060
11.96497	53717
11.97310	61894
11.98122	109934
11.98935	213809
11.99747	407643
12.00558	700288
12.01372	875780
12.02183	935319
12.02997	795057
12.03808	579137
12.04620	376547
12.05433	259747
12.06245	190553
12.07057	168752
12.07870	144066
12.08682	130645
12.09495	125875
12.10307	124341
12.11118	117958
12.11932	125172
12.12743	132864
12.13557	135683
12.14368	148380
12.15180	146718
12.15993	132268
12.16805	118467
12.17617	107952
12.18430	93962
12.19242	90552
12.20055	94379
12.20867	85413
12.21678	87149
12.22492	83297
12.23303	85464
12.24117	79188
12.24928	82436
12.25740	79103
12.26553	76706
12.27365	74143
12.28178	74008
12.28990	73769
12.29802	72804
12.30615	71797
12.31427	67580
12.32238	71593
12.33052	64736
12.33863	64734
12.34677	65795
12.35488	64531
12.36300	64925
12.37113	64972
12.37925	66612
12.38738	66066
12.39550	69451
12.40362	74118
12.41175	95030
12.41987	105683
12.42800	113415
12.43612	112260
12.44423	109626
12.45237	94001
12.46048	88829
12.46860	79755
12.47673	75480
12.48485	67792
12.49298	70963
12.50110	68152
12.50922	69578
12.51735	69280
12.52547	75118
12.53360	122713
12.54172	208103
12.54983	404686
12.55797	692303
12.56608	997157
12.57420	1090961
12.58233	958059
12.59045	675043
12.59858	411029
12.60670	257310
12.61482	174713
12.62295	140848
12.63107	120811
12.63920	106429
12.64732	101007
12.65543	93371
12.66357	88044
12.67168	85708
12.67982	79709
12.68793	74308
12.69605	69821
12.70418	66984
12.71230	61908
12.72042	65949
12.72855	70900
12.73667	71024
12.74480	73608
12.75292	74091
12.76103	72371
12.76917	62292
12.77728	60925
12.78542	56582
12.79353	49847
12.80165	54097
12.80978	51277
12.81790	53517
12.82602	49045
12.83415	47797
12.84227	48473
12.85040	46184
12.85852	44403
12.86663	48682
12.87477	46437
12.88288	46028
12.89102	44358
12.89913	45857
12.90725	42094
12.91538	42223
12.92350	42736
12.93163	45176
12.93975	49466
12.94787	54127
12.95600	77964
12.96412	136459
12.97223	236354
12.98037	359184
12.98848	425182
12.99662	412719
13.00473	316768
13.01285	231131
13.02098	152891
13.02910	112902
13.03723	92512
13.04535	78365
13.05347	69106
13.06160	59653
13.06972	62175
13.07785	61496
13.08597	55573
13.09408	56959
13.10222	57436
13.11033	54444
13.11845	53733
13.12658	53738
13.13470	50157
13.14283	50390
13.15095	50206
13.15907	50215
13.16720	51470
13.17532	49365
13.18345	54172
13.19157	51886
13.19968	53543
13.20782	57672
13.21593	56797
13.22405	57682
13.23218	55863
13.24030	59731
13.24843	55491
13.25655	54532
13.26467	54674
13.27280	47913
13.28092	46181
13.28905	44668
13.29717	42512
13.30528	43212
13.31342	39460
13.32153	42265
13.32967	42320
13.33778	41443
13.34590	44216
13.35403	39690
13.36215	39429
13.37027	40888
13.37840	43131
13.38652	37609
13.39465	38799
13.40277	39133
13.41088	38870
13.41902	41798
13.42713	40391
13.43527	38180
13.44338	41150
13.45150	38851
13.45963	39653
13.46775	39919
13.47588	34750
13.48400	39996
13.49212	39487
13.50025	39929
13.50837	38205
13.51648	41761
13.52462	44758
13.53273	42384
13.54087	38161
13.54898	38816
13.55710	38511
13.56523	40034
13.57335	40696
13.58148	42764
13.58960	40744
13.59772	44248
13.60585	48233
13.61397	46238
13.62208	51239
13.63022	54253
13.63833	52145
13.64647	48190
13.65458	44117
13.66270	41234
13.67083	38346
13.67895	40429
13.68708	37897
13.69520	40967
13.70332	35108
13.71145	39757
13.71957	38284
13.72770	47412
13.73582	75611
13.74393	164286
13.75207	408286
13.76018	878313
13.76830	1684167
13.77643	2532553
13.78455	3045101
13.79268	2954639
13.80080	2510337
13.80892	1694403
13.81705	1109314
13.82517	789573
13.83330	640093
13.84142	564614
13.84953	517315
13.85767	470614
13.86578	416526
13.87392	353807
13.88203	304921
13.89015	265015
13.89828	239615
13.90640	222062
13.91452	206697
13.92265	190431
13.93077	186794
13.93890	188316
13.94702	180363
13.95513	193490
13.96327	208688
13.97138	248778
13.97952	300628
13.98763	336644
13.99575	352378
14.00388	300926
14.01200	251957
14.02012	214068
14.02825	187065
14.03637	166673
14.04450	159091
14.05262	153037
14.06073	145961
14.06887	150945
14.07698	151650
14.08512	141667
14.09323	143658
14.10135	138352
14.10948	139630
14.11760	136764
14.12573	157561
14.13385	149245
14.14197	171390
14.15010	197528
14.15822	217517
14.16633	223057
14.17447	212907
14.18258	218674
14.19072	244761
14.19883	314089
14.20695	379590
14.21508	428487
14.22320	434957
14.23133	386845
14.23945	321912
14.24757	267830
14.25570	239967
14.26382	212070
14.27193	194633
14.28007	175461
14.28818	152323
14.29632	138841
14.30443	127535
14.31255	130986
14.32068	115806
14.32880	112800
14.33693	109730
14.34505	101492
14.35317	110031
14.36130	98748
14.36942	91697
14.37755	82740
14.38567	74095
14.39378	70655
14.40192	71522
14.41003	73084
14.41815	78660
14.42628	82748
14.43440	78754
14.44253	74856
14.45065	73087
14.45877	68454
14.46690	66582
14.47502	65184
14.48315	67816
14.49127	68754
14.49938	67758
14.50752	71421
14.51563	71704
14.52377	81294
14.53188	84653
14.54000	86821
14.54813	81669
14.55625	70705
14.56437	61682
14.57250	57163
14.58062	62603
14.58875	57177
14.59687	49625
14.60498	51048
14.61312	50198
14.62123	51283
14.62937	48714
14.63748	50441
14.64560	50261
14.65373	49415
14.66185	43541
14.66997	47629
14.67810	44741
14.68622	43339
14.69435	45222
14.70247	43893
14.71058	45645
14.71872	47807
14.72683	51397
14.73497	51192
14.74308	52719
14.75120	58440
14.75933	58108
14.76745	56270
14.77558	62442
14.78370	64415
14.79182	97112
14.79995	216844
14.80807	567993
14.81618	1318784
14.82432	2518462
14.83243	3759813
14.84057	4466706
14.84868	4339225
14.85680	3475820
14.86493	2327890
14.87305	1430854
14.88118	888994
14.88930	600072
14.89742	439605
14.90555	359113
14.91367	306872
14.92180	268045
14.92992	242253
14.93803	221260
14.94617	212293
14.95428	206752
14.96240	209654
14.97053	226120
14.97865	223417
14.98678	220123
14.99490	202876
15.00302	173088
15.01115	160447
15.01927	147979
15.02740	133208
15.03552	124681
15.04363	119160
15.05177	114800
15.05988	101602
15.06800	109635
15.07613	104911
15.08425	101611
15.09238	91423
15.10050	95245
15.10862	92146
15.11675	90479
15.12487	94750
15.13300	96722
15.14112	100541
15.14923	106597
15.15737	109435
15.16548	97615
15.17362	82171
15.18173	79302
15.18985	68521
15.19798	62963
15.20610	60143
15.21422	61694
15.22235	54596
15.23047	55168
15.23860	51358
15.24672	50004
15.25483	47113
15.26297	48967
15.27108	51143
15.27922	49069
15.28733	45616
15.29545	49414
15.30358	47111
15.31170	43852
15.31982	47107
15.32795	45510
15.33607	41013
15.34420	48341
15.35232	41366
15.36043	43906
15.36857	44491
15.37668	45043
15.38482	45286
15.39293	47914
15.40105	58760
15.40918	59938
15.41730	74729
15.42543	73472
15.43355	75718
15.44167	63659
15.44980	57970
15.45792	51903
15.46603	50553
15.47417	53880
15.48228	66083
15.49042	80182
15.49853	102089
15.50665	118286
15.51478	129186
15.52290	127434
15.53103	124171
15.53915	130200
15.54727	123187
15.55540	123035
15.56352	119412
15.57165	103452
15.57977	85732
15.58788	67124
15.59602	59157
15.60413	49797
15.61225	48295
15.62038	50493
15.62850	43780
15.63663	49217
15.64475	47159
15.65287	50431
15.66100	44474
15.66912	43030
15.67725	43516
15.68537	40262
15.69348	40739
15.70162	37530
15.70973	38915
15.71787	39011
15.72598	41500
15.73410	40643
15.74223	43387
15.75035	46856
15.75847	61446
15.76660	96623
15.77472	146949
15.78285	223872
15.79097	307313
15.79908	331500
15.80722	316075
15.81533	250431
15.82347	182662
15.83158	128072
15.83970	99736
15.84783	80576
15.85595	75313
15.86407	70667
15.87220	68778
15.88032	62820
15.88845	63517
15.89657	62807
15.90468	62160
15.91282	56977
15.92093	59134
15.92907	56859
15.93718	57250
15.94530	62323
15.95343	72390
15.96155	98161
15.96968	131496
15.97780	157822
15.98592	184408
15.99405	179078
16.00217	154995
16.01028	127416
16.01842	106080
16.02653	94891
16.03467	83608
16.04278	77800
16.05090	77105
16.05903	70147
16.06715	65326
16.07528	61264
16.08340	58821
16.09152	56231
16.09965	55851
16.10777	60827
16.11588	52846
16.12402	54932
16.13213	59439
16.14027	59372
16.14838	59843
16.15650	63311
16.16463	59487
16.17275	55621
16.18088	55979
16.18900	55423
16.19712	55883
16.20525	49400
16.21337	50530
16.22150	49537
16.22962	46857
16.23773	50010
16.24587	49054
16.25398	49188
16.26210	45647
16.27023	44912
16.27835	46591
16.28648	48052
16.29460	51260
16.30272	56584
16.31085	57406
16.31897	55853
16.32710	56457
16.33522	56610
16.34333	64891
16.35147	76539
16.35958	109968
16.36772	153254
16.37583	200510
16.38395	243287
16.39208	242414
16.40020	206734
16.40832	159580
16.41645	123094
16.42457	98398
16.43270	88804
16.44082	80614
16.44893	98162
16.45707	157906
16.46518	299363
16.47332	544472
16.48143	797690
16.48955	987424
16.49768	994160
16.50580	799176
16.51392	558326
16.52205	361498
16.53017	244502
16.53830	178073
16.54642	135311
16.55453	122737
16.56267	103836
16.57078	96441
16.57892	99003
16.58703	103257
16.59515	95533
16.60328	105965
16.61140	111493
16.61953	122070
16.62765	120946
16.63577	111284
16.64390	102508
16.65202	91121
16.66013	82479
16.66827	74324
16.67638	76484
16.68452	69507
16.69263	66280
16.70075	62306
16.70888	63633
16.71700	60524
16.72513	56520
16.73325	54490
16.74137	57426
16.74950	56625
16.75762	59088
16.76575	64537
16.77387	63717
16.78198	62173
16.79012	57828
16.79823	56155
16.80635	54276
16.81448	53572
16.82260	47690
16.83073	47355
16.83885	47550
16.84697	46170
16.85510	45286
16.86322	46310
16.87135	43353
16.87947	46906
16.88758	42621
16.89572	42511
16.90383	46389
16.91195	42087
16.92008	43477
16.92820	43853
16.93633	41700
16.94445	39504
16.95257	42697
16.96070	42241
16.96882	42476
16.97695	41025
16.98507	44475
16.99318	41964
17.00132	41823
17.00943	42893
17.01757	41224
17.02568	44737
17.03380	45959
17.04193	47442
17.05005	52935
17.05817	56550
17.06630	53581
17.07442	54345
17.08255	53020
17.09067	51672
17.09878	55614
17.10692	62431
17.11503	66058
17.12317	72893
17.13128	79372
17.13940	77833
17.14753	75342
17.15565	64670
17.16377	64105
17.17190	56556
17.18002	50248
17.18815	49600
17.19627	45276
17.20438	40921
17.21252	40161
17.22063	39787
17.22877	41964
17.23688	41705
17.24500	43323
17.25313	44824
17.26125	44164
17.26938	43862
17.27750	43515
17.28562	44760
17.29375	38558
17.30187	44729
17.30998	42503
17.31812	51202
17.32623	55178
17.33437	62202
17.34248	72538
17.35060	79763
17.35873	95580
17.36685	98459
17.37498	100325
17.38310	92716
17.39122	84327
17.39935	75321
17.40747	65775
17.41560	62816
17.42372	61590
17.43183	57576
17.43997	62534
17.44808	54328
17.45620	58291
17.46433	52801
17.47245	51968
17.48058	52408
17.48870	46196
17.49682	47222
17.50495	47820
17.51307	50435
17.52120	48080
17.52932	48026
17.53743	44789
17.54557	49763
17.55368	48277
17.56180	56900
17.56993	79698
17.57805	124624
17.58618	197278
17.59430	298948
17.60242	434603
17.61055	561480
17.61867	594581
17.62680	545139
17.63492	436464
17.64303	348295
17.65117	287248
17.65928	269970
17.66742	279712
17.67553	280411
17.68365	261735
17.69178	227989
17.69990	187707
17.70802	151540
17.71615	127187
17.72427	109232
17.73240	97800
17.74052	89753
17.74863	81229
17.75677	79738
17.76488	72750
17.77302	73356
17.78113	80405
17.78925	87412
17.79738	109032
17.80550	175497
17.81363	280403
17.82175	448842
17.82987	607454
17.83800	680377
17.84612	650292
17.85423	543128
17.86237	407816
17.87048	296302
17.87862	236248
17.88673	186710
17.89485	156251
17.90298	137870
17.91110	118085
17.91923	103505
17.92735	104105
17.93547	92157
17.94360	86808
17.95172	88231
17.95983	82683
17.96797	80542
17.97608	77126
17.98422	79312
17.99233	73984
18.00045	75991
18.00858	73353
18.01670	77357
18.02483	86301
18.03295	96696
18.04107	116059
18.04920	123060
18.05732	143854
18.06545	222767
18.07357	399592
18.08168	689681
18.08982	1068674
18.09793	1398272
18.10605	1545727
18.11418	1376741
18.12230	1101553
18.13043	804867
18.13855	609301
18.14667	465407
18.15480	397537
18.16292	348663
18.17105	313796
18.17917	278855
18.18728	265487
18.19542	243737
18.20353	249596
18.21167	278631
18.21978	347158
18.22790	434396
18.23603	498013
18.24415	520905
18.25227	514064
18.26040	535158
18.26852	523873
18.27665	521231
18.28477	499366
18.29288	478356
18.30102	463951
18.30913	455453
18.31727	453399
18.32538	439882
18.33350	444679
18.34163	426011
18.34975	413916
18.35787	411554
18.36600	410880
18.37412	403588
18.38225	420715
18.39037	441580
18.39848	510942
18.40662	616727
18.41473	773832
18.42287	912834
18.43098	1003446
18.43910	955408
18.44723	844807
18.45535	733590
18.46348	651232
18.47160	617339
18.47972	624821
18.48785	622140
18.49597	598160
18.50408	541698
18.51222	501612
18.52033	438362
18.52847	397124
18.53658	368607
18.54470	354414
18.55283	339294
18.56095	327540
18.56908	323226
18.57720	321908
18.58532	312854
18.59345	320404
18.60157	319951
18.60968	303726
18.61782	304358
18.62593	301244
18.63407	302039
18.64218	293884
18.65030	285768
18.65843	287982
18.66655	275017
18.67468	269702
18.68280	266227
18.69092	266963
18.69905	264712
18.70717	269473
18.71530	259459
18.72342	264001
18.73153	256270
18.73967	239292
18.74778	246696
18.75590	235083
18.76403	228125
18.77215	234611
18.78028	224734
18.78840	217416
18.79652	217414
18.80465	219267
18.81277	214731
18.82090	211247
18.82902	220538
18.83713	210548
18.84527	211424
18.85338	205767
18.86152	205562
18.86963	206189
18.87775	200397
18.88588	193914
18.89400	196406
18.90212	193600
18.91025	191684
18.91837	189319
18.92650	188720
18.93462	205703
18.94273	200217
18.95087	202125
18.95898	205605
18.96712	204871
18.97523	198560
18.98335	197694
18.99148	184163
18.99960	187864
19.00772	179301
19.01585	173749
19.02397	166966
19.03210	169876
19.04022	169621
19.04833	166781
19.05647	161502
19.06458	165719
19.07272	180614
19.08083	203977
19.08895	252381
19.09708	316245
19.10520	378373
19.11333	423676
19.12145	419970
19.12957	376216
19.13770	306900
19.14582	264764
19.15393	219938
19.16207	199900
19.17018	186635
19.17832	182810
19.18643	171144
19.19455	168365
19.20268	161315
19.21080	155147
19.21893	155681
19.22705	149268
19.23517	143221
19.24330	142987
19.25142	143208
19.25955	137824
19.26767	140815
19.27578	136093
19.28392	137919
19.29203	139953
19.30015	139544
19.30828	139736
19.31640	134745
19.32453	132923
19.33265	135347
19.34077	143857
19.34890	142822
19.35702	148556
19.36515	180444
19.37327	201387
19.38138	216262
19.38952	218048
19.39763	198748
19.40575	180136
19.41388	165534
19.42200	140260
19.43013	131982
19.43825	132146
19.44637	130933
19.45450	127600
19.46262	132770
19.47075	132233
19.47887	136642
19.48698	154996
19.49512	183417
19.50323	238657
19.51137	275715
19.51948	306833
19.52760	288674
19.53573	253201
19.54385	206775
19.55197	171775
19.56010	145879
19.56822	131284
19.57635	127777
19.58447	120803
19.59258	115259
19.60072	113175
19.60883	114470
19.61697	108696
19.62508	106904
19.63320	111407
19.64133	126444
19.64945	157099
19.65757	192187
19.66570	242584
19.67382	286125
19.68195	315838
19.69007	327516
19.69818	309296
19.70632	293538
19.71443	246604
19.72257	225945
19.73068	196497
19.73880	180715
19.74693	162197
19.75505	146950
19.76318	133416
19.77130	130197
19.77942	131263
19.78755	128752
19.79567	140505
19.80378	141343
19.81192	143236
19.82003	140009
19.82817	133594
19.83628	126903
19.84440	118232
19.85253	133784
19.86065	195783
19.86878	378839
19.87690	774062
19.88502	1540481
19.89315	2480141
19.90127	3489913
19.90940	4023414
19.91752	3853075
19.92563	3111007
19.93377	2297864
19.94188	1626871
19.95000	1147894
19.95813	895968
19.96625	760784
19.97438	662399
19.98250	600974
19.99062	551263
19.99875	520512
20.00687	484149
20.01500	456420
20.02312	432737
20.03123	416057
20.03937	382391
20.04748	352368
20.05560	302568
20.06373	262431
20.07185	223333
20.07998	204492
20.08810	185418
20.09622	186260
20.10435	167505
20.11247	157187
20.12060	149603
20.12872	134073
20.13683	132425
20.14497	124667
20.15308	123874
20.16122	133110
20.16933	143752
20.17745	166953
20.18558	186514
20.19370	203596
20.20182	218645
20.20995	211337
20.21807	199535
20.22620	182331
20.23432	170070
20.24243	163752
20.25057	163952
20.25868	184384
20.26682	228867
20.27493	284674
20.28305	328695
20.29118	343800
20.29930	332098
20.30743	304100
20.31555	262447
20.32367	212728
20.33180	176307
20.33992	154178
20.34803	139156
20.35617	114812
20.36428	107687
20.37242	96968
20.38053	92261
20.38865	86247
20.39678	87226
20.40490	84744
20.41303	85041
20.42115	90924
20.42927	94228
20.43740	103382
20.44552	107233
20.45363	119030
20.46177	118147
20.46988	131265
20.47802	137129
20.48613	133004
20.49425	118950
20.50238	106500
20.51050	101830
20.51863	85412
20.52675	86700
20.53487	80183
20.54300	78563
20.55112	82021
20.55925	78418
20.56737	80420
20.57548	75354
20.58362	74647
20.59173	75382
20.59985	72817
20.60798	68851
20.61610	67713
20.62423	72052
20.63235	66473
20.64047	64882
20.64860	69698
20.65672	67539
20.66485	71454
20.67297	71023
20.68108	72305
20.68922	71994
20.69733	66222
20.70545	63977
20.71358	64161
20.72170	64815
20.72983	64968
20.73795	64099
20.74607	62229
20.75420	66026
20.76232	70378
20.77045	66638
20.77857	68733
20.78668	84548
20.79482	107087
20.80293	146070
20.81107	210149
20.81918	262124
20.82730	293484
20.83543	270395
20.84355	230286
20.85167	172794
20.85980	125732
20.86792	90512
20.87605	78864
20.88417	69435
20.89228	72332
20.90042	70645
20.90853	71555
20.91667	68706
20.92478	67111
20.93290	64476
20.94103	70162
20.94915	68292
20.95728	68986
20.96540	69061
20.97352	63410
20.98165	69851
20.98977	66110
20.99788	63648
21.00602	56312
21.01413	61059
21.02227	60971
21.03038	57974
21.03850	61135
21.04663	63447
21.05475	62256
21.06288	70261
21.07100	67527
21.07912	67310
21.08725	72150
21.09537	65427
21.10350	68669
21.11162	60324
21.11973	61652
21.12787	65476
21.13598	65349
21.14410	80767
21.15223	92440
21.16035	105391
21.16848	115334
21.17660	115327
21.18472	103629
21.19285	93541
21.20097	84276
21.20910	76713
21.21722	76179
21.22533	66237
21.23347	68992
21.24158	65517
21.24970	66673
21.25783	63244
21.26595	61793
21.27408	57300
21.28220	62085
21.29032	60724
21.29845	56256
21.30657	57431
21.31470	57602
21.32282	51704
21.33093	59771
21.33907	53449
21.34718	54337
21.35532	57196
21.36343	53650
21.37155	57057
21.37968	56815
21.38780	61655
21.39592	75049
21.40405	79214
21.41217	93015
21.42030	96158
21.42842	92331
21.43653	86706
21.44467	81379
21.45278	75138
21.46092	71410
21.46903	69144
21.47715	67072
21.48528	63083
21.49340	63843
21.50152	61605
21.50965	57056
21.51777	58000
21.52590	58424
21.53402	57414
21.54213	58724
21.55027	53481
21.55838	56778
21.56652	52713
21.57463	57698
21.58275	61925
21.59088	71629
21.59900	67960
21.60713	72344
21.61525	77297
21.62337	76517
21.63150	81519
21.63962	95336
21.64773	96746
21.65587	94192
21.66398	105362
21.67212	103245
21.68023	97713
21.68835	93183
21.69648	82242
21.70460	81192
21.71273	72975
21.72085	64190
21.72897	63666
21.73710	66663
21.74522	61959
21.75335	57777
21.76147	61874
21.76958	58063
21.77772	69631
21.78583	63741
21.79395	65494
21.80208	66893
21.81020	71296
21.81833	78520
21.82645	77423
21.83457	83193
21.84270	89031
21.85082	86989
21.85895	81668
21.86707	78457
21.87518	72639
21.88332	65729
21.89143	62999
21.89955	57851
21.90768	63113
21.91580	58078
21.92393	57049
21.93205	52971
21.94017	54799
21.94830	54347
21.95642	51659
21.96455	49638
21.97267	53793
21.98078	50908
21.98892	47468
21.99703	49419
22.00517	44811
22.01328	44532
22.02140	48815
22.02953	48659
22.03765	54136
22.04577	55085
22.05390	51124
22.06202	54513
22.07015	48961
22.07827	47832
22.08638	49574
22.09452	48488
22.10263	48691
22.11077	48145
22.11888	47239
22.12700	48730
22.13513	48150
22.14325	49294
22.15138	52578
22.15950	52985
22.16762	52116
22.17575	51714
22.18387	50547
22.19198	50988
22.20012	53497
22.20823	45942
22.21637	52032
22.22448	56519
22.23260	54523
22.24073	48503
22.24885	56977
22.25698	53621
22.26510	47616
22.27322	49018
22.28135	51805
22.28947	56084
22.29758	58441
22.30572	60605
22.31383	61268
22.32197	58471
22.33008	58818
22.33820	60392
22.34633	59983
22.35445	59666
22.36258	56422
22.37070	55901
22.37882	63227
22.38695	61611
22.39507	74640
22.40320	91152
22.41132	112848
22.41943	128054
22.42757	146874
22.43568	144112
22.44380	133798
22.45193	116084
22.46005	94316
22.46818	85914
22.47630	77329
22.48442	78177
22.49255	82895
22.50067	92493
22.50880	93391
22.51692	92487
22.52503	90277
22.53317	84090
22.54128	83730
22.54940	81319
22.55753	74901
22.56565	72246
22.57378	65578
22.58190	65596
22.59002	52655
22.59815	56688
22.60627	53146
22.61440	53735
22.62252	47889
22.63063	47194
22.63877	49501
22.64688	47980
22.65502	49182
22.66313	54848
22.67125	49653
22.67938	50574
22.68750	52342
22.69562	56773
22.70375	58001
22.71187	58454
22.72000	63580
22.72812	66662
22.73623	63542
22.74437	58314
22.75248	61230
22.76062	56595
22.76873	54785
22.77685	55509
22.78498	55699
22.79310	62739
22.80123	74976
22.80935	79223
22.81747	82499
22.82560	86193
22.83372	84612
22.84183	76446
22.84997	72651
22.85808	67901
22.86622	77075
22.87433	83274
22.88245	90910
22.89058	100763
22.89870	112547
22.90683	125867
22.91495	137465
22.92307	149938
22.93120	165416
22.93932	172308
22.94743	169578
22.95557	148660
22.96368	133143
22.97182	126453
22.97993	118990
22.98805	111332
22.99618	110633
23.00430	110498
23.01243	105428
23.02055	104241
23.02867	94831
23.03680	92760
23.04492	90119
23.05305	88776
23.06117	90741
23.06928	90181
23.07742	90044
23.08553	89596
23.09365	88197
23.10178	84082
23.10990	82662
23.11803	82495
23.12615	82423
23.13427	75107
23.14240	77850
23.15052	80406
23.15865	76596
23.16677	80339
23.17488	81620
23.18302	80192
23.19113	76837
23.19927	80591
23.20738	77340
23.21550	82993
23.22363	70158
23.23175	76085
23.23987	72178
23.24800	71665
23.25612	79883
23.26425	82506
23.27237	82196
23.28048	83677
23.28862	84644
23.29673	74234
23.30487	74271
23.31298	73930
23.32110	75767
23.32923	77042
23.33735	82491
23.34547	102847
23.35360	125497
23.36172	172897
23.36985	248702
23.37797	327281
23.38608	439864
23.39422	547325
23.40233	630086
23.41047	709863
23.41858	764477
23.42670	770480
23.43483	789063
23.44295	774825
23.45108	735387
23.45920	717941
23.46732	645254
23.47545	606590
23.48357	567989
23.49168	527493
23.49982	476695
23.50793	445788
23.51607	411797
23.52418	376842
23.53230	346189
23.54043	319744
23.54855	299705
23.55668	301371
23.56480	269431
23.57292	269624
23.58105	264648
23.58917	277052
23.59728	300617
23.60542	305129
23.61353	312567
23.62167	306455
23.62978	268275
23.63790	248619
23.64603	223043
23.65415	219484
23.66228	222901
23.67040	241699
23.67852	235640
23.68665	216301
23.69477	198706
23.70290	171735
23.71102	155449
23.71913	152230
23.72727	138780
23.73538	127714
23.74350	131236
23.75163	159873
23.75975	228243
23.76788	396450
23.77600	685221
23.78412	1124974
23.79225	1581867
23.80037	1940411
23.80850	2059118
23.81662	1844195
23.82473	1505876
23.83287	1190300
23.84098	910443
23.84912	729958
23.85723	588851
23.86535	505075
23.87348	437241
23.88160	373175
23.88972	341019
23.89785	316805
23.90597	285369
23.91410	274571
23.92222	263751
23.93033	244919
23.93847	236591
23.94658	210998
23.95472	198329
23.96283	191530
23.97095	178373
23.97908	165656
23.98720	172063
23.99532	171861
24.00345	197908
24.01157	289355
24.01970	460502
24.02782	702940
24.03593	952496
24.04407	1062038
24.05218	1013361
24.06032	763128
24.06843	531921
24.07655	357241
24.08468	245966
24.09280	186235
24.10093	153472
24.10905	144268
24.11717	134178
24.12530	129947
24.13342	130895
24.14153	129548
24.14967	132361
24.15778	129460
24.16592	130540
24.17403	116123
24.18215	122519
24.19028	119235
24.19840	120480
24.20653	117701
24.21465	113832
24.22277	115953
24.23090	113662
24.23902	110530
24.24715	100822
24.25527	101963
24.26338	90338
24.27152	89895
24.27963	89403
24.28775	84105
24.29588	88237
24.30400	92123
24.31213	85280
24.32025	86250
24.32837	83517
24.33650	88936
24.34462	106278
24.35275	118254
24.36087	134556
24.36898	154758
24.37712	166142
24.38523	190005
24.39335	220736
24.40148	245855
24.40960	263284
24.41773	256345
24.42585	238905
24.43397	207676
24.44210	192565
24.45022	192717
24.45835	199073
24.46647	199092
24.47458	208123
24.48272	230885
24.49083	249248
24.49897	271401
24.50708	278058
24.51520	283042
24.52333	284238
24.53145	289049
24.53957	298401
24.54770	290083
24.55582	289869
24.56395	285472
24.57207	279221
24.58018	282726
24.58832	267136
24.59643	267482
24.60457	260293
24.61268	268751
24.62080	254786
24.62893	253167
24.63705	248359
24.64518	248899
24.65330	246230
24.66142	237451
24.66955	244289
24.67767	236592
24.68578	239954
24.69392	232143
24.70203	224848
24.71017	222394
24.71828	220188
24.72640	211481
24.73453	210234
24.74265	216339
24.75078	208284
24.75890	209432
24.76702	212053
24.77515	207787
24.78327	207509
24.79138	205276
24.79952	197962
24.80763	190227
24.81577	186861
24.82388	169708
24.83200	156468
24.84013	151676
24.84825	163245
24.85638	196489
24.86450	241472
24.87262	312404
24.88075	407608
24.88887	496295
24.89700	565990
24.90512	549612
24.91323	491249
24.92137	386903
24.92948	278807
24.93760	194731
24.94573	142705
24.95385	120261
24.96198	98040
24.97010	94169
24.97822	86496
24.98635	80912
24.99447	83844
25.00260	82730
25.01072	79464
25.01883	76725
25.02697	75301
25.03508	74272
25.04320	77456
25.05133	72703
25.05945	76516
25.06758	73451
25.07570	70912
25.08382	73890
25.09195	84591
25.10007	110546
25.10820	186848
25.11632	380915
25.12443	756967
25.13257	1401380
25.14068	2134744
25.14882	2639534
25.15693	2744780
25.16505	2412844
25.17318	1764412
25.18130	1122394
25.18942	656739
25.19755	383964
25.20567	228082
25.21380	158700
25.22192	125714
25.23003	110185
25.23817	114929
25.24628	142309
25.25442	173093
25.26253	236334
25.27065	323400
25.27878	398937
25.28690	431493
25.29503	451491
25.30315	436918
25.31127	429670
25.31940	408556
25.32752	409937
25.33563	412281
25.34377	414754
25.35188	402874
25.36002	385661
25.36813	387993
25.37625	382780
25.38438	383947
25.39250	382973
25.40063	385343
25.40875	378117
25.41687	367235
25.42500	372496
25.43312	366932
25.44123	357445
25.44937	365243
25.45748	355676
25.46562	367255
25.47373	357428
25.48185	350209
25.48998	355107
25.49810	345615
25.50623	333036
25.51435	325910
25.52247	332519
25.53060	315474
25.53872	326186
25.54685	317698
25.55497	317954
25.56308	309021
25.57122	302399
25.57933	293504
25.58745	291761
25.59558	303013
25.60370	293941
25.61183	295114
25.61995	288264
25.62807	286932
25.63620	289142
25.64432	288119
25.65245	285550
25.66057	281967
25.66868	267475
25.67682	260368
25.68493	256094
25.69307	254588
25.70118	250321
25.70930	254510
25.71743	239649
25.72555	238441
25.73367	245962
25.74180	227261
25.74992	226124
25.75805	227649
25.76617	228295
25.77428	221370
25.78242	228216
25.79053	223300
25.79867	228245
25.80678	226194
25.81490	218256
25.82303	222693
25.83115	227470
25.83927	230553
25.84740	237752
25.85552	236420
25.86365	240682
25.87177	226718
25.87988	215646
25.88802	198805
25.89613	197129
25.90427	182033
25.91238	179593
25.92050	181520
25.92863	178275
25.93675	167991
25.94488	164074
25.95300	167411
25.96112	168740
25.96925	159582
25.97737	159326
25.98548	155688
25.99362	150722
26.00173	151600
26.00987	149708
26.01798	146607
26.02610	140071
26.03423	137854
26.04235	139978
26.05048	139035
26.05860	138063
26.06672	131375
26.07485	137928
26.08297	138804
26.09108	138994
26.09922	135428
26.10733	134660
26.11547	133651
26.12358	131980
26.13170	126354
26.13983	130241
26.14795	133449
26.15608	139948
26.16420	135088
26.17232	134493
26.18045	129300
26.18857	125942
26.19670	121258
26.20482	118125
26.21293	113129
26.22107	113128
26.22918	109237
26.23730	102595
26.24543	111644
26.25355	106242
26.26168	104599
26.26980	107398
26.27792	106010
26.28605	100405
26.29417	96685
26.30230	91264
26.31042	94861
26.31853	96339
26.32667	100700
26.33478	87571
26.34292	95319
26.35103	94522
26.35915	93487
26.36728	95927
26.37540	99411
26.38352	109406
26.39165	109841
26.39977	121846
26.40790	124577
26.41602	121663
26.42413	118091
26.43227	102876
26.44038	100782
26.44852	96181
26.45663	92168
26.46475	96226
26.47288	87438
26.48100	85155
26.48913	87335
26.49725	88452
26.50537	88946
26.51350	83979
26.52162	79054
26.52973	76022
26.53787	75255
26.54598	73171
26.55412	75246
26.56223	75023
26.57035	71565
26.57848	71648
26.58660	70149
26.59473	72063
26.60285	73591
26.61097	71000
26.61910	74090
26.62722	68304
26.63533	69173
26.64347	71226
26.65158	71703
26.65972	76513
26.66783	75940
26.67595	78065
26.68408	73922
26.69220	80381
26.70033	71950
26.70845	70233
26.71657	67489
26.72470	66146
26.73282	62899
26.74095	67875
26.74907	62946
26.75718	67172
26.76532	65739
26.77343	64167
26.78155	65098
26.78968	64682
26.79780	64545
26.80593	62203
26.81405	66364
26.82217	61696
26.83030	63441
26.83842	64971
26.84655	65691
26.85467	65615
26.86278	58803
26.87092	62181
26.87903	62318
26.88715	59144
26.89528	62701
26.90340	62858
26.91153	57685
26.91965	55528
26.92777	54954
26.93590	57655
26.94402	56793
26.95215	54853
26.96027	58907
26.96838	67011
26.97652	71030
26.98463	94177
26.99277	129719
27.00088	177756
27.00900	247161
27.01713	319014
27.02525	404461
27.03337	430819
27.04150	457951
27.04962	417360
27.05775	371948
27.06587	328123
27.07398	274297
27.08212	229553
27.09023	195352
27.09837	179369
27.10648	160810
27.11460	154842
27.12273	146234
27.13085	136889
27.13898	129021
27.14710	125228
27.15522	119502
27.16335	122358
27.17147	112812
27.17958	120901
27.18772	115326
27.19583	116377
27.20397	108463
27.21208	103632
27.22020	107266
27.22833	106134
27.23645	95425
27.24458	91136
27.25270	91100
27.26082	101617
27.26895	93703
27.27707	85997
27.28518	82239
27.29332	80276
27.30143	75063
27.30957	74903
27.31768	72983
27.32580	75440
27.33393	75291
27.34205	72443
27.35018	70721
27.35830	70341
27.36642	72479
27.37455	64875
27.38267	69708
27.39080	68793
27.39892	72421
27.40703	65116
27.41517	64974
27.42328	65340
27.43140	64926
27.43953	64880
27.44765	65017
27.45578	59892
27.46390	63896
27.47202	61400
27.48015	60475
27.48827	56879
27.49640	61725
27.50452	61102
27.51263	62644
27.52077	61922
27.52888	63033
27.53702	59834
27.54513	62073
27.55325	57258
27.56138	61554
27.56950	63189
27.57762	70032
27.58575	73218
27.59387	80357
27.60200	82885
27.61012	81431
27.61823	83844
27.62637	74929
27.63448	74095
27.64262	65882
27.65073	56360
27.65885	55468
27.66698	58208
27.67510	54404
27.68322	57553
27.69135	55378
27.69947	59459
27.70760	53664
27.71572	54184
27.72383	52485
27.73197	55497
27.74008	50145
27.74822	49285
27.75633	50646
27.76445	50838
27.77258	58267
27.78070	53202
27.78883	54103
27.79695	55193
27.80507	60299
27.81320	56938
27.82132	55942
27.82943	54864
27.83757	52384
27.84568	55083
27.85382	58412
27.86193	55259
27.87005	56104
27.87818	56402
27.88630	50539
27.89443	49825
27.90255	53409
27.91067	54415
27.91880	50964
27.92692	51429
27.93503	46964
27.94317	50040
27.95128	50262
27.95942	46760
27.96753	48825
27.97565	51266
27.98378	46347
27.99190	48857
28.00003	45716
28.00815	50220
28.01627	52652
28.02440	55227
28.03252	55094
28.04065	58935
28.04877	64597
28.05688	65815
28.06502	61659
28.07313	61513
28.08125	60065
28.08938	60198
28.09750	59770
28.10563	66538
28.11375	55221
28.12187	52087
28.13000	55240
28.13812	49892
28.14625	50998
28.15437	50661
28.16248	49696
28.17062	49884
28.17873	49046
28.18687	53884
28.19498	62610
28.20310	68850
28.21123	77277
28.21935	84923
28.22747	84067
28.23560	82620
28.24372	79015
28.25185	76217
28.25997	67602
28.26808	57493
28.27622	54436
28.28433	54897
28.29247	60891
28.30058	62457
28.30870	59323
28.31683	68124
28.32495	76361
28.33307	87168
28.34120	94350
28.34932	110537
28.35745	113775
28.36557	126251
28.37368	135675
28.38182	148476
28.38993	156274
28.39807	167638
28.40618	159781
28.41430	151568
28.42243	151808
28.43055	141602
28.43868	135827
28.44680	123457
28.45492	122531
28.46305	113650
28.47117	108551
28.47928	96718
28.48742	99970
28.49553	92233
28.50367	95268
28.51178	88699
28.51990	82273
28.52803	82690
28.53615	75454
28.54428	79397
28.55240	73029
28.56052	73272
28.56865	68824
28.57677	66015
28.58490	66589
28.59302	66117
28.60113	64107
28.60927	67272
28.61738	65605
28.62550	67921
28.63363	67369
28.64175	70308
28.64988	71189
28.65800	73209
28.66612	78698
28.67425	72261
28.68237	76881
28.69050	70397
28.69862	68651
28.70673	64363
28.71487	61811
28.72298	65604
28.73110	56679
28.73923	61205
28.74735	60964
28.75548	70150
28.76360	75295
28.77172	79869
28.77985	89752
28.78797	86508
28.79610	77514
28.80422	80697
28.81233	74036
28.82047	66697
28.82858	67616
28.83672	61781
28.84483	58156
28.85295	57783
28.86108	55869
28.86920	61984
28.87732	61772
28.88545	66951
28.89357	67360
28.90170	71021
28.90982	72880
28.91793	70711
28.92607	64237
28.93418	58786
28.94232	58405
28.95043	56461
28.95855	57130
28.96668	60259
28.97480	62186
28.98292	60455
28.99105	59103
28.99917	51461
29.00730	56174
29.01542	53943
29.02353	47797
29.03167	48723
29.03978	52396
29.04792	53322
29.05603	49267
29.06415	52900
29.07228	52107
29.08040	52610
29.08853	53829
29.09665	56402
29.10477	58681
29.11290	49825
29.12102	52840
29.12913	51079
29.13727	49858
29.14538	50377
29.15352	49813
29.16163	54087
29.16975	51500
29.17788	53922
29.18600	56246
29.19413	65524
29.20225	77234
29.21037	90431
29.21850	102049
29.22662	95488
29.23475	98358
29.24287	105673
29.25098	117291
29.25912	139452
29.26723	151230
29.27535	166346
29.28348	151751
29.29160	130468
29.29973	111684
29.30785	81451
29.31597	66070
29.32410	60779
29.33222	56984
29.34035	49858
29.34847	54224
29.35658	51071
29.36472	47708
29.37283	46836
29.38095	53192
29.38908	48733
29.39720	51712
29.40533	51001
29.41345	51914
29.42157	56110
29.42970	58991
29.43782	53054
29.44595	65050
29.45407	49055
29.46218	51266
29.47032	52908
29.47843	52788
29.48657	49956
29.49468	54575
29.50280	53370
29.51093	53569
29.51905	53767
29.52717	54146
29.53530	56543
29.54342	52602
29.55155	47680
29.55967	48564
29.56778	50712
29.57592	47637
29.58403	46967
29.59217	44730
29.60028	46622
29.60840	44129
29.61653	42210
29.62465	46721
29.63278	45795
29.64090	44504
29.64902	44969
29.65715	47068
29.66527	48342
29.67338	45917
29.68152	48263
29.68963	51060
29.69777	52901
29.70588	51018
29.71400	52832
29.72213	51916
29.73025	50968
29.73838	50069
29.74650	43704
29.75462	45878
29.76275	50034
29.77087	43151
29.77898	42967
29.78712	44127
29.79523	47223
29.80337	43520
29.81148	43467
29.81960	44227
29.82773	41223
29.83585	42613
29.84398	45539
29.85210	49182
29.86022	45385
29.86835	44613
29.87647	50957
29.88460	58851
29.89272	70753
29.90083	79487
29.90897	86275
29.91708	82371
29.92520	79184
29.93333	64429
29.94145	59608
29.94958	56070
29.95770	54620
29.96582	54071
29.97395	58909
29.98207	66589
29.99020	70678
29.99832	78344
30.00643	83830
30.01457	80809
30.02268	92149
30.03082	97982
30.03893	93586
30.04705	99777
30.05518	95369
30.06330	96309
30.07142	95358
30.07955	97270
30.08767	96618
30.09580	96022
30.10392	92127
30.11203	85733
30.12017	82173
30.12828	85964
30.13642	80177
30.14453	79014
30.15265	77084
30.16078	72243
30.16890	73760
30.17702	79183
30.18515	74081
30.19327	74319
30.20140	71810
30.20952	74320
30.21763	66995
30.22577	67130
30.23388	68725
30.24202	63235
30.25013	56378
30.25825	57098
30.26638	57048
30.27450	56923
30.28263	55344
30.29075	52719
30.29887	56150
30.30700	54278
30.31512	55024
30.32323	52554
30.33137	54227
30.33948	53768
30.34762	54326
30.35573	52659
30.36385	56775
30.37198	51390
30.38010	50148
30.38823	50721
30.39635	54496
30.40447	46169
30.41260	49148
30.42072	52853
30.42883	48683
30.43697	45337
30.44508	50003
30.45322	49885
30.46133	46995
30.46945	51630
30.47758	45243
30.48570	44474
30.49383	45449
30.50195	47566
30.51007	45403
30.51820	44267
30.52632	49527
30.53445	47314
30.54257	42941
30.55068	50157
30.55882	50380
30.56693	44723
30.57505	46489
30.58318	45563
30.59130	53293
30.59943	53381
30.60755	64411
30.61567	73531
30.62380	77778
30.63192	82833
30.64005	85726
30.64817	88862
30.65628	84314
30.66442	90203
30.67253	90061
30.68067	91075
30.68878	94946
30.69690	93144
30.70503	97095
30.71315	98206
30.72127	99932
30.72940	94778
30.73752	100905
30.74565	101267
30.75377	99981
30.76188	98807
30.77002	106903
30.77813	113792
30.78627	125943
30.79438	132980
30.80250	156508
30.81063	173161
30.81875	178387
30.82687	160395
30.83500	152497
30.84312	139370
30.85125	128222
30.85937	115066
30.86748	112716
30.87562	112556
30.88373	101656
30.89187	102888
30.89998	104802
30.90810	98092
30.91623	98430
30.92435	99636
30.93248	101963
30.94060	100569
30.94872	98540
30.95685	100200
30.96497	102228
30.97308	99959
30.98122	94671
30.98933	93369
30.99747	89302
31.00558	91674
31.01370	91244
31.02183	97966
31.02995	98782
31.03808	99035
31.04620	89993
31.05432	91603
31.06245	94351
31.07057	94539
31.07870	99686
31.08682	104324
31.09493	114220
31.10307	117394
31.11118	121479
31.11930	117012
31.12743	107800
31.13555	106148
31.14368	93616
31.15180	91928
31.15992	93558
31.16805	92683
31.17617	89566
31.18430	90542
31.19242	99022
31.20053	114315
31.20867	122074
31.21678	136976
31.22490	152921
31.23303	155273
31.24115	138128
31.24928	126131
31.25740	118213
31.26552	95897
31.27365	88572
31.28177	86984
31.28990	84643
31.29802	81177
31.30613	77549
31.31427	75315
31.32238	77211
31.33052	72849
31.33863	75407
31.34675	73685
31.35488	73874
31.36300	72584
31.37112	74057
31.37925	77307
31.38737	75574
31.39550	77766
31.40362	74950
31.41173	70990
31.41987	70331
31.42798	66902
31.43612	71014
31.44423	67182
31.45235	72632
31.46048	60611
31.46860	63087
31.47672	63873
31.48485	64964
31.49297	63578
31.50110	61575
31.50922	64946
31.51733	66820
31.52547	66503
31.53358	67080
31.54172	65718
31.54983	63913
31.55795	61430
31.56608	63304
31.57420	64543
31.58233	64598
31.59045	58808
31.59857	57431
31.60670	58599
31.61482	65495
31.62293	61194
31.63107	58467
31.63918	60556
31.64732	59351
31.65543	60969
31.66355	64175
31.67168	64798
31.67980	60649
31.68793	63168
31.69605	62162
31.70417	60608
31.71230	55690
31.72042	60877
31.72855	53000
31.73667	58866
31.74478	53551
31.75292	55494
31.76103	54682
31.76915	53667
31.77728	52578
31.78540	55407
31.79353	55035
31.80165	57082
31.80977	57660
31.81790	54666
31.82602	58346
31.83415	58992
31.84227	53380
31.85038	55700
31.85852	57990
31.86663	54326
31.87477	62891
31.88288	59510
31.89100	59537
31.89913	66102
31.90725	69192
31.91537	73526
31.92350	80191
31.93162	82195
31.93975	82796
31.94787	83946
31.95598	95447
31.96412	92439
31.97223	94480
31.98037	97806
31.98848	101689
31.99660	102343
32.00473	96023
32.01285	102109
32.02097	98228
32.02910	90989
32.03722	91374
32.04535	91769
32.05347	89867
32.06158	89311
32.06972	83881
32.07783	81349
32.08597	80813
32.09408	74423
32.10220	72828
32.11033	71731
32.11845	68539
32.12658	72279
32.13470	66486
32.14282	65627
32.15095	64541
32.15907	62134
32.16718	59190
32.17532	66140
32.18343	62940
32.19157	61416
32.19968	62489
32.20780	63784
32.21593	62086
32.22405	60119
32.23218	54066
32.24030	60475
32.24842	59020
32.25655	57807
32.26467	60793
32.27278	66565
32.28092	61479
32.28903	59667
32.29717	61318
32.30528	58675
32.31340	55838
32.32153	58136
32.32965	54563
32.33778	53046
32.34590	54514
32.35402	56899
32.36215	54441
32.37027	56167
32.37840	55811
32.38652	53134
32.39463	56077
32.40277	54752
32.41088	53313
32.41900	52560
32.42713	53611
32.43525	53990
32.44338	57374
32.45150	52308
32.45962	51529
32.46775	52023
32.47587	46797
32.48400	50741
32.49212	50222
32.50023	51861
32.50837	53118
32.51648	50236
32.52462	52048
32.53273	52124
32.54085	51889
32.54898	54735
32.55710	52825
32.56522	53871
32.57335	54752
32.58147	50447
32.58960	52311
32.59772	49317
32.60583	51711
32.61397	46152
32.62208	46799
32.63022	50024
32.63833	47884
32.64645	56111
32.65458	58593
32.66270	65492
32.67082	66008
32.67895	70610
32.68707	68224
32.69520	60984
32.70332	61892
32.71143	58965
32.71957	55434
32.72768	51267
32.73582	55665
32.74393	51793
32.75205	52667
32.76018	51933
32.76830	49392
32.77643	46599
32.78455	49251
32.79267	49880
32.80080	47303
32.80892	48611
32.81703	50118
32.82517	51171
32.83328	50095
32.84142	48863
32.84953	49231
32.85765	47202
32.86578	48863
32.87390	45508
32.88203	47443
32.89015	50011
32.89827	46775
32.90640	54153
32.91452	55433
32.92265	50614
32.93077	47480
32.93888	60414
32.94702	48542
32.95513	46519
32.96325	52229
32.97138	55079
32.97950	60625
32.98763	64813
32.99575	71189
33.00387	74501
33.01200	75673
33.02012	77354
33.02825	70910
33.03637	67016
33.04448	60982
33.05262	58544
33.06073	56195
33.06885	61179
33.07698	67530
33.08510	69582
33.09323	70253
33.10135	76934
33.10947	81480
33.11760	76723
33.12572	83492
33.13385	84008
33.14197	76530
33.15008	70061
33.15822	59303
33.16633	58357
33.17447	59235
33.18258	52523
33.19070	54249
33.19883	61081
33.20695	56045
33.21507	55803
33.22320	53800
33.23132	57660
33.23945	56434
33.24757	51892
33.25568	48074
33.26382	50931
33.27193	50587
33.28007	50314
33.28818	50913
33.29630	50835
33.30443	47947
33.31255	47424
33.32067	50072
33.32880	49367
33.33692	51845
33.34505	52356
33.35317	55118
33.36128	54693
33.36942	56019
33.37753	51967
33.38567	53912
33.39378	53758
33.40190	54986
33.41003	47449
33.41815	50765
33.42628	53503
33.43440	50193
33.44252	49252
33.45065	50520
33.45877	52176
33.46688	49254
33.47502	45283
33.48313	50758
33.49127	53049
33.49938	53382
33.50750	51765
33.51563	56220
33.52375	53602
33.53188	53368
33.54000	58216
33.54812	59898
33.55625	59780
33.56437	60404
33.57250	61036
33.58062	58835
33.58873	54703
33.59687	53669
33.60498	54395
33.61310	52183
33.62123	51304
33.62935	49122
33.63748	54570
33.64560	54940
33.65372	53189
33.66185	54654
33.66997	49960
33.67810	52387
33.68622	51865
33.69433	55051
33.70247	52209
33.71058	49487
33.71870	49708
33.72683	49038
33.73495	51537
33.74308	52121
33.75120	51847
33.75932	49357
33.76745	48400
33.77557	42847
33.78370	48616
33.79182	50748
33.79993	46013
33.80807	49167
33.81618	56120
33.82432	53662
33.83243	50659
33.84055	49009
33.84868	51496
33.85680	53415
33.86492	51739
33.87305	50504
33.88117	53858
33.88930	58760
33.89742	54191
33.90553	53048
33.91367	52752
33.92178	55597
33.92992	50954
33.93803	54831
33.94615	56172
33.95428	50437
33.96240	50730
33.97053	49904
33.97865	52780
33.98677	53546
33.99490	49587
34.00302	51457
34.01113	48603
34.01927	53057
34.02738	49000
34.03552	51387
34.04363	50697
34.05175	51008
34.05988	51311
34.06800	49678
34.07613	50346
34.08425	53099
34.09237	48829
34.10050	48469
34.10862	48853
34.11673	50490
34.12487	53044
34.13298	52919
34.14112	45967
34.14923	51335
34.15735	52829
34.16548	54394
34.17360	51961
34.18173	56654
34.18985	53345
34.19797	55786
34.20610	52221
34.21422	51458
34.22235	48940
34.23047	52097
34.23858	51684
34.24672	47316
34.25483	53327
34.26295	49637
34.27108	50519
34.27920	49855
34.28733	47320
34.29545	52646
34.30357	51355
34.31170	51072
34.31982	52104
34.32795	53451
34.33607	48646
34.34418	52606
34.35232	51727
34.36043	54291
34.36857	51842
34.37668	52617
34.38480	55742
34.39293	51915
34.40105	55885
34.40917	56805
34.41730	53960
34.42542	49600
34.43355	50309
34.44167	53048
34.44978	46194
34.45792	48699
34.46603	47773
34.47417	48938
34.48228	51035
34.49040	54086
34.49853	54643
34.50665	55436
34.51477	59819
34.52290	68093
34.53102	71673
34.53915	79591
34.54727	88306
34.55538	92927
34.56352	95255
34.57163	95610
34.57977	89470
34.58788	85615
34.59600	90309
34.60413	84357
34.61225	77574
34.62038	74327
34.62850	73302
34.63662	71434
34.64475	67438
34.65287	65103
34.66098	62186
34.66912	64955
34.67723	61607
34.68537	57414
34.69348	59603
34.70160	62646
34.70973	57850
34.71785	61771
34.72598	59231
34.73410	56233
34.74222	61044
34.75035	56566
34.75847	54715
34.76658	58077
34.77472	56978
34.78283	61317
34.79097	59542
34.79908	58592
34.80720	57593
34.81533	62765
34.82345	61794
34.83158	61970
34.83970	58917
34.84782	56175
34.85595	59525
34.86407	66823
34.87220	59176
34.88032	57925
34.88843	58761
34.89657	54658
34.90468	57105
34.91280	63960
34.92093	60988
34.92905	63436
34.93718	60062
34.94530	62836
34.95342	64522
34.96155	63101
34.96967	69583
34.97780	67159
34.98592	66864
34.99403	69818
35.00217	65447
35.01028	65102
35.01842	63703
35.02653	59937
35.03465	60352
35.04278	54952
35.05090	61102
35.05902	56035
35.06715	59875
35.07527	54402
35.08340	54069
35.09152	56881
35.09963	56202
35.10777	54247
35.11588	56474
35.12402	61424
35.13213	54100
35.14025	59203
35.14838	54463
35.15650	56922
35.16462	58482
35.17275	59959
35.18087	59877
35.18900	55637
35.19712	61583
35.20523	58552
35.21337	54540
35.22148	52766
35.22962	51018
35.23773	54939
35.24585	57765
35.25398	55996
35.26210	53982
35.27023	58912
35.27835	62461
35.28647	57769
35.29460	60084
35.30272	55726
35.31083	54559
35.31897	55092
35.32708	56209
35.33522	54815
35.34333	52004
35.35145	52146
35.35958	52263
35.36770	56890
35.37583	58307
35.38395	55024
35.39207	55004
35.40020	54953
35.40832	55464
35.41645	55218
35.42457	59781
35.43268	56353
35.44082	58587
35.44893	58181
35.45705	62544
35.46518	57533
35.47330	58371
35.48143	59308
35.48955	60367
35.49767	60246
35.50580	57831
35.51392	57543
35.52205	60401
35.53017	57653
35.53828	55208
35.54642	57436
35.55453	62165
35.56265	57187
35.57078	58049
35.57890	57231
35.58703	53908
35.59515	55955
35.60327	58151
35.61140	58352
35.61952	53671
35.62765	59994
35.63577	55526
35.64388	58441
35.65202	56814
35.66013	54787
35.66827	59417
35.67638	62210
35.68450	64528
35.69263	60136
35.70075	60348
35.70887	57530
35.71700	57395
35.72512	60335
35.73325	66215
35.74137	64191
35.74948	68778
35.75762	67412
35.76573	70156
35.77387	71088
35.78198	68678
35.79010	67066
35.79823	63999
35.80635	62061
35.81447	59837
35.82260	61626
35.83072	61521
35.83885	59165
35.84697	55301
35.85508	56042
35.86322	57755
35.87133	58466
35.87947	60727
35.88758	52769
35.89570	59131
35.90383	59781
35.91195	52190
35.92008	56447
35.92820	55677
35.93632	55900
35.94445	53500
35.95257	56612
35.96068	53646
35.96882	57427
35.97693	55251
35.98507	57249
35.99318	57717
36.00130	58330
36.00943	59883
36.01755	58865
36.02568	61789
36.03380	62874
36.04192	60957
36.05005	61664
36.05817	61856
36.06630	59831
36.07442	62728
36.08253	61358
36.09067	57310
36.09878	60075
36.10690	58316
36.11503	61270
36.12315	63780
36.13128	59506
36.13940	62873
36.14752	62782
36.15565	64540
36.16377	66063
36.17190	68163
36.18002	71943
36.18813	73068
36.19627	75297
36.20438	78252
36.21250	76069
36.22063	76220
36.22875	80191
36.23688	79477
36.24500	79421
36.25312	81927
36.26125	82387
36.26937	82530
36.27750	81708
36.28562	90787
36.29373	90773
36.30187	95182
36.30998	99821
36.31812	98927
36.32623	97304
36.33435	96734
36.34248	94606
36.35060	92286
36.35872	87254
36.36685	90369
36.37497	91023
36.38310	85115
36.39122	86785
36.39933	86591
36.40747	92708
36.41558	92526
36.42372	92795
36.43183	86003
36.43995	87070
36.44808	84381
36.45620	81592
36.46433	81862
36.47245	87622
36.48057	84068
36.48870	79506
36.49682	81223
36.50493	84266
36.51307	81923
36.52118	85384
36.52932	80475
36.53743	81324
36.54555	80197
36.55368	79438
36.56180	80036
36.56993	85073
36.57805	75279
36.58617	78878
36.59430	76866
36.60242	83069
36.61053	77797
36.61867	79516
36.62678	78233
36.63492	79814
36.64303	77984
36.65115	80221
36.65928	81202
36.66740	82209
36.67553	83731
36.68365	78246
36.69177	77299
36.69990	78009
36.70802	80445
36.71615	80535
36.72427	78976
36.73238	79509
36.74052	79617
36.74863	73790
36.75675	77175
36.76488	78239
36.77300	75943
36.78113	76139
36.78925	75319
36.79737	76851
36.80550	75188
36.81362	77933
36.82175	74962
36.82987	77637
36.83798	73453
36.84612	79485
36.85423	68831
36.86235	75295
36.87048	73515
36.87860	72483
36.88673	75240
36.89485	74092
36.90297	74980
36.91110	72067
36.91922	73920
36.92735	75687
36.93547	77281
36.94358	76256
36.95172	82603
36.95983	90630
36.96797	86568
36.97608	92273
36.98420	89262
36.99233	85960
37.00045	83950
37.00857	76835
37.01670	76435
37.02482	77641
37.03295	74434
37.04107	76300
37.04918	77825
37.05732	74419
37.06543	67562
37.07357	71202
37.08168	70287
37.08980	79199
37.09793	79547
37.10605	75881
37.11418	72898
37.12230	76002
37.13042	74955
37.13855	71515
37.14667	73596
37.15478	71120
37.16292	72770
37.17103	77864
37.17917	75289
37.18728	71112
37.19540	71884
37.20353	72436
37.21165	77079
37.21978	74397
37.22790	71503
37.23602	71006
37.24415	74811
37.25227	71470
37.26040	71434
37.26852	73098
37.27663	69711
37.28477	72414
37.29288	75524
37.30100	71301
37.30913	72421
37.31725	79906
37.32538	88738
37.33350	87712
37.34162	99080
37.34975	109916
37.35787	107608
37.36600	104932
37.37412	108304
37.38223	100864
37.39037	101034
37.39848	101585
37.40660	96111
37.41473	93840
37.42285	91669
37.43098	92651
37.43910	92485
37.44722	89542
37.45535	93212
37.46347	86386
37.47160	87810
37.47972	83914
37.48783	87045
