C:\MassHunter\GCMS\1\data\JTB-E02\BACandBLUE\JTB-E18-008-13.D Wed May 15 17:31:21 2019
Start of data points
2.09540	55012
2.10352	58909
2.11165	62571
2.11977	53930
2.12788	59351
2.13602	59596
2.14413	60144
2.15227	58533
2.16038	56510
2.16850	56730
2.17663	51208
2.18475	54920
2.19287	51238
2.20100	51728
2.20912	47923
2.21725	49321
2.22537	49252
2.23348	50922
2.24162	48396
2.24973	47080
2.25787	45732
2.26598	49603
2.27410	153508
2.28223	1022810
2.29035	1423050
2.29848	609834
2.30660	320792
2.31472	260836
2.32285	226441
2.33097	198290
2.33908	183972
2.34722	180138
2.35533	155979
2.36347	142898
2.37158	134325
2.37970	124511
2.38783	130923
2.39595	128818
2.40408	118614
2.41220	116695
2.42032	112511
2.42845	116972
2.43657	119643
2.44470	112450
2.45282	111209
2.46093	112913
2.46907	109819
2.47718	100060
2.48530	100802
2.49343	104668
2.50155	135260
2.50968	119613
2.51780	116844
2.52592	108439
2.53405	103780
2.54217	100991
2.55030	105891
2.55842	122138
2.56653	216847
2.57467	220409
2.58278	152079
2.59090	127375
2.59903	122728
2.60715	121680
2.61528	175762
2.62340	232766
2.63152	203115
2.63965	159024
2.64777	134522
2.65590	123891
2.66402	112916
2.67213	111713
2.68027	109413
2.68838	103883
2.69652	106184
2.70463	95520
2.71275	101594
2.72088	101715
2.72900	105877
2.73712	100581
2.74525	100916
2.75337	99433
2.76150	103899
2.76962	93528
2.77773	113959
2.78587	459083
2.79398	1361154
2.80212	1328241
2.81023	703274
2.81835	491420
2.82648	419820
2.83460	374476
2.84272	366891
2.85085	303885
2.85897	245570
2.86710	215118
2.87522	199603
2.88333	180253
2.89147	168791
2.89958	163147
2.90772	149198
2.91583	147584
2.92395	138067
2.93208	129976
2.94020	121615
2.94833	125178
2.95645	115436
2.96457	126755
2.97270	123796
2.98082	112848
2.98893	112949
2.99707	120440
3.00518	125678
3.01332	137810
3.02143	135853
3.02955	132067
3.03768	117135
3.04580	115168
3.05393	110905
3.06205	114674
3.07017	123156
3.07830	129148
3.08642	240872
3.09455	993486
3.10267	2141017
3.11078	2724633
3.11892	2969494
3.12703	2234413
3.13515	1407469
3.14328	1028569
3.15140	797676
3.15953	648922
3.16765	558829
3.17577	517211
3.18390	503004
3.19202	727375
3.20015	1318801
3.20827	1463074
3.21638	1045908
3.22452	790062
3.23263	653583
3.24077	571954
3.24888	478494
3.25700	430789
3.26513	389489
3.27325	356153
3.28137	328255
3.28950	363376
3.29762	757214
3.30575	2084544
3.31387	3885081
3.32198	4373943
3.33012	3277560
3.33823	2110958
3.34637	1480512
3.35448	1148656
3.36260	984997
3.37073	850664
3.37885	768502
3.38697	697321
3.39510	640565
3.40322	568772
3.41135	552148
3.41947	524680
3.42758	489859
3.43572	483542
3.44383	492502
3.45197	478627
3.46008	447145
3.46820	442540
3.47633	441503
3.48445	444350
3.49258	424615
3.50070	400001
3.50882	384574
3.51695	368061
3.52507	373453
3.53318	383631
3.54132	393860
3.54943	391733
3.55757	384198
3.56568	367567
3.57380	340811
3.58193	337619
3.59005	334410
3.59818	320355
3.60630	326013
3.61442	312029
3.62255	325086
3.63067	346244
3.63878	420712
3.64692	470113
3.65503	448541
3.66317	518775
3.67128	1857952
3.67940	7388835
3.68753	1.396383E+07
3.69565	1.33996E+07
3.70378	8368005
3.71190	5152573
3.72002	3891397
3.72815	3196852
3.73627	2710240
3.74440	2389469
3.75252	2137253
3.76063	1915521
3.76877	1739919
3.77688	1591485
3.78500	1479386
3.79313	1390787
3.80125	1339099
3.80938	1464894
3.81750	1947568
3.82562	2347101
3.83375	2116029
3.84187	1671515
3.85000	1403798
3.85812	1251480
3.86623	1140746
3.87437	1073103
3.88248	985618
3.89062	952832
3.89873	919459
3.90685	869629
3.91498	855944
3.92310	893139
3.93122	1032272
3.93935	1100071
3.94747	1072529
3.95560	1204693
3.96372	2072401
3.97183	3252017
3.97997	3445275
3.98808	2553438
3.99622	1696536
4.00433	1626424
4.01245	2557779
4.02058	3791067
4.02870	3845019
4.03682	2724288
4.04495	1742270
4.05307	1234550
4.06120	1014787
4.06932	870404
4.07743	794584
4.08557	744638
4.09368	694647
4.10182	654539
4.10993	636806
4.11805	610495
4.12618	585114
4.13430	561685
4.14243	559729
4.15055	570910
4.15867	604355
4.16680	590717
4.17492	555251
4.18303	550373
4.19117	519678
4.19928	501695
4.20742	528880
4.21553	1075440
4.22365	3559972
4.23178	8842836
4.23990	1.348534E+07
4.24803	1.373993E+07
4.25615	9875953
4.26427	6129032
4.27240	4183507
4.28052	3122863
4.28865	2418454
4.29677	1938170
4.30488	1612127
4.31302	1419526
4.32113	1238775
4.32925	1142357
4.33738	1070662
4.34550	1011742
4.35363	958382
4.36175	943853
4.36987	1012038
4.37800	995160
4.38612	934478
4.39425	816824
4.40237	715430
4.41048	666034
4.41862	623600
4.42673	591303
4.43485	577167
4.44298	557413
4.45110	542230
4.45923	514316
4.46735	507112
4.47547	488146
4.48360	483977
4.49172	478212
4.49985	473934
4.50797	454365
4.51608	433887
4.52422	440667
4.53233	435564
4.54047	425580
4.54858	437733
4.55670	436658
4.56483	425537
4.57295	414849
4.58107	386666
4.58920	381042
4.59732	376682
4.60545	359695
4.61357	365587
4.62168	381115
4.62982	457418
4.63793	642765
4.64607	898011
4.65418	985967
4.66230	830099
4.67043	645606
4.67855	551749
4.68667	504460
4.69480	464471
4.70292	423602
4.71105	383603
4.71917	365940
4.72728	349936
4.73542	341047
4.74353	333221
4.75167	334677
4.75978	322152
4.76790	316951
4.77603	305342
4.78415	319706
4.79228	336928
4.80040	459337
4.80852	659585
4.81665	787955
4.82477	708723
4.83288	579035
4.84102	512118
4.84913	496542
4.85727	492212
4.86538	468284
4.87350	406580
4.88163	372879
4.88975	353864
4.89788	342412
4.90600	328056
4.91412	323339
4.92225	314186
4.93037	321276
4.93850	406277
4.94662	697589
4.95473	1373432
4.96287	2295535
4.97098	2811135
4.97910	2606718
4.98723	1943444
4.99535	1338201
5.00348	944949
5.01160	773762
5.01972	674003
5.02785	644171
5.03597	659785
5.04410	732204
5.05222	751910
5.06033	710434
5.06847	614892
5.07658	569655
5.08470	531667
5.09283	483502
5.10095	482913
5.10908	464007
5.11720	455373
5.12532	442418
5.13345	433983
5.14157	425018
5.14970	427618
5.15782	454799
5.16593	531358
5.17407	607070
5.18218	620785
5.19032	582795
5.19843	542048
5.20655	551111
5.21468	594221
5.22280	614454
5.23092	588302
5.23905	520371
5.24717	494689
5.25530	442708
5.26342	404282
5.27153	375211
5.27967	355057
5.28778	335746
5.29592	329754
5.30403	324315
5.31215	315787
5.32028	314683
5.32840	320046
5.33653	325159
5.34465	347563
5.35277	353131
5.36090	335061
5.36902	322489
5.37713	317789
5.38527	307718
5.39338	334802
5.40152	364385
5.40963	380051
5.41775	371582
5.42588	344158
5.43400	324851
5.44213	313076
5.45025	325587
5.45837	340588
5.46650	365433
5.47462	342815
5.48273	322963
5.49087	290588
5.49898	292607
5.50712	272189
5.51523	276513
5.52335	279014
5.53148	281957
5.53960	271372
5.54773	278520
5.55585	316774
5.56397	423368
5.57210	616813
5.58022	774435
5.58835	787663
5.59647	687708
5.60458	528287
5.61272	412381
5.62083	354242
5.62895	319278
5.63708	311084
5.64520	303028
5.65333	299487
5.66145	284626
5.66957	278355
5.67770	285556
5.68582	295009
5.69395	323825
5.70207	328885
5.71018	326883
5.71832	304045
5.72643	293944
5.73455	270202
5.74268	263325
5.75080	253571
5.75893	246767
5.76705	245470
5.77517	248440
5.78330	235297
5.79142	229171
5.79955	236021
5.80767	237065
5.81578	238221
5.82392	229545
5.83203	234735
5.84017	225628
5.84828	238222
5.85640	236083
5.86453	236082
5.87265	223533
5.88077	225922
5.88890	218348
5.89702	226999
5.90515	225714
5.91327	206967
5.92138	204825
5.92952	203479
5.93763	201859
5.94577	194437
5.95388	199885
5.96200	223885
5.97013	289581
5.97825	400813
5.98638	571482
5.99450	670136
6.00262	637308
6.01075	514292
6.01887	373605
6.02698	297567
6.03512	249588
6.04323	238874
6.05137	218518
6.05948	207580
6.06760	195387
6.07573	192557
6.08385	187102
6.09198	186658
6.10010	192273
6.10822	188182
6.11635	205114
6.12447	224517
6.13258	276905
6.14072	386288
6.14883	512101
6.15697	567416
6.16508	509147
6.17320	396187
6.18133	302847
6.18945	264881
6.19758	246280
6.20570	234525
6.21382	220754
6.22195	226713
6.23007	214756
6.23820	210236
6.24632	198592
6.25443	227673
6.26257	248465
6.27068	261624
6.27880	248773
6.28693	227902
6.29505	209517
6.30318	196489
6.31130	192486
6.31942	195604
6.32755	229472
6.33567	280879
6.34380	338303
6.35192	365522
6.36003	322508
6.36817	265202
6.37628	235806
6.38442	222201
6.39253	209830
6.40065	195426
6.40878	195773
6.41690	195111
6.42502	182581
6.43315	186176
6.44127	185963
6.44940	193928
6.45752	190929
6.46563	189018
6.47377	192699
6.48188	186316
6.49002	196258
6.49813	182753
6.50625	190584
6.51438	186125
6.52250	194425
6.53062	199144
6.53875	197809
6.54687	187374
6.55500	195561
6.56312	226577
6.57123	315723
6.57937	475980
6.58748	626208
6.59562	641954
6.60373	545317
6.61185	377848
6.61998	291428
6.62810	254052
6.63623	232536
6.64435	223368
6.65247	297449
6.66060	533057
6.66872	985648
6.67683	1435680
6.68497	1548666
6.69308	1455561
6.70122	970791
6.70933	633292
6.71745	479710
6.72558	399362
6.73370	356502
6.74183	315999
6.74995	290414
6.75807	271546
6.76620	255039
6.77432	250894
6.78245	242567
6.79057	233256
6.79868	223686
6.80682	213768
6.81493	205439
6.82305	190680
6.83118	184034
6.83930	184427
6.84743	180821
6.85555	182860
6.86367	179108
6.87180	162784
6.87992	154223
6.88805	134962
6.89617	136919
6.90428	116998
6.91242	117229
6.92053	112748
6.92865	110760
6.93678	106739
6.94490	99356
6.95303	98506
6.96115	101346
6.96927	112477
6.97740	131588
6.98552	153904
6.99365	169714
7.00177	167827
7.00988	138730
7.01802	132830
7.02613	119038
7.03427	120437
7.04238	117207
7.05050	124738
7.05863	146101
7.06675	171000
7.07487	206603
7.08300	243592
7.09112	234281
7.09925	207406
7.10737	179491
7.11548	147962
7.12362	130800
7.13173	118191
7.13987	120748
7.14798	143816
7.15610	178837
7.16423	235752
7.17235	259505
7.18047	240285
7.18860	231448
7.19672	311505
7.20485	631279
7.21297	1305641
7.22108	2062846
7.22922	2339993
7.23733	1936627
7.24547	1313947
7.25358	760074
7.26170	461774
7.26983	284708
7.27795	193326
7.28608	143488
7.29420	129886
7.30232	122416
7.31045	123754
7.31857	119025
7.32668	119577
7.33482	127823
7.34293	131832
7.35107	131197
7.35918	126897
7.36730	129269
7.37543	123898
7.38355	110370
7.39168	109409
7.39980	104086
7.40792	110412
7.41605	108169
7.42417	104280
7.43230	100656
7.44042	99915
7.44853	100598
7.45667	107273
7.46478	103154
7.47290	110537
7.48103	110043
7.48915	98514
7.49728	98429
7.50540	92869
7.51352	94638
7.52165	111135
7.52977	174081
7.53790	349742
7.54602	706460
7.55413	1350626
7.56227	2228725
7.57038	3004055
7.57850	3365635
7.58663	3218186
7.59475	2571922
7.60288	1792128
7.61100	1146359
7.61912	710416
7.62725	466687
7.63537	326789
7.64350	265236
7.65162	212565
7.65973	173799
7.66787	161040
7.67598	136473
7.68412	122452
7.69223	118986
7.70035	109284
7.70848	102247
7.71660	108635
7.72472	111978
7.73285	124351
7.74097	129690
7.74910	149758
7.75722	161290
7.76533	169087
7.77347	163691
7.78158	161950
7.78972	154469
7.79783	155476
7.80595	166749
7.81408	173555
7.82220	169662
7.83033	161660
7.83845	143563
7.84657	133032
7.85470	129441
7.86282	132527
7.87093	137151
7.87907	150558
7.88718	164446
7.89532	183622
7.90343	193322
7.91155	177030
7.91968	160963
7.92780	137824
7.93593	142081
7.94405	158099
7.95217	170685
7.96030	176177
7.96842	168074
7.97653	144861
7.98467	121789
7.99278	104599
8.00092	98211
8.00903	90959
8.01715	90225
8.02528	88594
8.03340	87828
8.04153	85558
8.04965	85813
8.05777	81753
8.06590	84926
8.07402	81641
8.08215	82650
8.09027	81609
8.09838	79164
8.10652	77752
8.11463	78662
8.12275	78040
8.13088	84653
8.13900	91827
8.14713	114520
8.15525	130153
8.16337	137649
8.17150	136264
8.17962	114183
8.18775	99364
8.19587	90432
8.20398	83984
8.21212	79676
8.22023	79810
8.22835	82873
8.23648	78335
8.24460	82369
8.25273	83260
8.26085	78263
8.26897	75809
8.27710	71501
8.28522	71406
8.29335	69824
8.30147	72512
8.30958	76492
8.31772	77845
8.32583	82898
8.33397	91890
8.34208	88702
8.35020	86895
8.35833	78316
8.36645	75069
8.37457	72544
8.38270	69095
8.39082	72374
8.39895	72662
8.40707	68132
8.41518	68364
8.42332	65617
8.43143	68109
8.43957	64581
8.44768	68621
8.45580	65449
8.46393	63259
8.47205	64639
8.48018	63280
8.48830	65519
8.49642	64726
8.50455	66184
8.51267	79027
8.52078	133263
8.52892	240253
8.53703	428112
8.54517	576636
8.55328	575115
8.56140	463425
8.56953	301542
8.57765	176754
8.58578	124142
8.59390	101300
8.60202	103398
8.61015	96048
8.61827	98905
8.62640	96065
8.63452	92650
8.64263	88769
8.65077	78743
8.65888	78760
8.66700	78993
8.67513	71759
8.68325	77951
8.69138	74425
8.69950	81722
8.70762	77488
8.71575	83190
8.72387	78369
8.73200	81493
8.74012	69064
8.74823	74446
8.75637	85556
8.76448	138630
8.77260	274750
8.78073	498897
8.78885	769531
8.79698	908180
8.80510	855837
8.81322	633141
8.82135	424150
8.82947	285934
8.83760	208754
8.84572	187388
8.85383	192033
8.86197	173593
8.87008	163157
8.87822	165576
8.88633	165570
8.89445	150936
8.90258	146291
8.91070	146138
8.91882	140785
8.92695	150247
8.93507	166865
8.94320	182311
8.95132	182157
8.95943	180006
8.96757	169973
8.97568	170610
8.98382	182428
8.99193	197395
9.00005	191932
9.00818	180542
9.01630	166233
9.02442	151530
9.03255	140668
9.04067	121652
9.04880	124656
9.05692	116954
9.06503	118077
9.07317	113240
9.08128	109147
9.08942	117828
9.09753	128751
9.10565	157600
9.11378	193449
9.12190	226499
9.13003	235782
9.13815	227798
9.14627	189395
9.15440	158457
9.16252	137169
9.17063	126281
9.17877	121077
9.18688	113468
9.19502	115478
9.20313	111416
9.21125	108597
9.21938	112010
9.22750	103457
9.23563	109130
9.24375	106828
9.25187	103546
9.26000	107731
9.26812	104432
9.27625	105944
9.28437	102007
9.29248	104118
9.30062	100192
9.30873	98161
9.31685	97761
9.32498	88864
9.33310	93120
9.34123	92611
9.34935	92606
9.35747	94307
9.36560	95176
9.37372	91543
9.38185	95253
9.38997	95905
9.39808	98013
9.40622	105591
9.41433	127451
9.42245	158487
9.43058	199150
9.43870	250657
9.44683	279269
9.45495	292905
9.46307	266059
9.47120	227087
9.47932	174510
9.48745	141634
9.49557	117954
9.50368	113793
9.51182	119987
9.51993	142432
9.52807	160391
9.53618	176843
9.54430	175445
9.55243	153028
9.56055	132583
9.56867	107215
9.57680	90887
9.58492	79934
9.59305	79410
9.60117	78767
9.60928	69712
9.61742	66671
9.62553	63733
9.63367	65311
9.64178	66493
9.64990	65611
9.65803	65919
9.66615	68233
9.67428	65294
9.68240	61496
9.69052	60016
9.69865	60324
9.70677	57281
9.71488	59213
9.72302	61397
9.73113	58270
9.73927	56158
9.74738	55123
9.75550	54318
9.76363	52303
9.77175	54202
9.77988	56023
9.78800	52232
9.79612	52015
9.80425	49888
9.81237	48343
9.82048	51835
9.82862	58493
9.83673	54178
9.84487	52867
9.85298	53306
9.86110	55729
9.86923	51686
9.87735	56191
9.88548	55429
9.89360	55141
9.90172	56307
9.90985	56154
9.91797	62674
9.92610	62389
9.93422	81420
9.94233	129842
9.95047	204484
9.95858	318110
9.96670	421891
9.97483	442270
9.98295	416344
9.99108	327755
9.99920	230493
10.00732	159311
10.01545	114761
10.02357	93369
10.03170	75196
10.03982	76032
10.04793	77557
10.05607	81961
10.06418	90667
10.07230	89898
10.08043	97177
10.08855	94265
10.09668	90063
10.10480	97982
10.11292	86939
10.12105	83254
10.12917	78338
10.13730	83393
10.14542	75837
10.15353	75372
10.16167	69858
10.16978	73253
10.17792	72198
10.18603	66455
10.19415	66631
10.20228	64284
10.21040	65096
10.21852	69784
10.22665	71597
10.23477	77642
10.24290	87645
10.25102	104015
10.25913	149187
10.26727	317931
10.27538	740783
10.28352	1558850
10.29163	2823147
10.29975	4399433
10.30788	6414357
10.31600	9335467
10.32413	1.407201E+07
10.33225	1.942093E+07
10.34037	2.340164E+07
10.34850	2.31385E+07
10.35662	1.843385E+07
10.36473	1.184156E+07
10.37287	7314576
10.38098	5179531
10.38912	4130826
10.39723	3177656
10.40535	2276353
10.41348	1530454
10.42160	1089173
10.42973	845840
10.43785	759270
10.44597	738672
10.45410	729481
10.46222	703091
10.47033	654141
10.47847	588302
10.48658	528054
10.49472	475382
10.50283	450391
10.51095	404575
10.51908	384571
10.52720	370062
10.53533	379108
10.54345	366038
10.55157	354555
10.55970	350079
10.56782	323025
10.57595	292814
10.58407	282270
10.59218	260656
10.60032	256024
10.60843	239007
10.61655	229422
10.62468	220131
10.63280	208222
10.64093	205799
10.64905	200096
10.65717	193776
10.66530	191135
10.67342	183311
10.68155	182650
10.68967	184822
10.69778	184994
10.70592	194126
10.71403	191449
10.72217	192953
10.73028	182802
10.73840	167677
10.74653	160750
10.75465	163040
10.76277	148744
10.77090	145428
10.77902	138694
10.78715	136104
10.79527	138160
10.80338	145790
10.81152	156885
10.81963	166172
10.82777	165667
10.83588	162027
10.84400	147641
10.85213	133484
10.86025	120159
10.86837	118804
10.87650	113308
10.88462	115366
10.89275	106439
10.90087	105786
10.90898	105766
10.91712	106695
10.92523	104643
10.93337	103104
10.94148	100055
10.94960	102504
10.95773	97973
10.96585	97449
10.97398	100504
10.98210	97633
10.99022	104856
10.99835	110998
11.00647	114171
11.01458	123212
11.02272	121346
11.03083	127364
11.03897	108592
11.04708	104006
11.05520	95798
11.06333	96042
11.07145	98360
11.07958	104125
11.08770	109909
11.09582	122130
11.10395	127541
11.11207	129445
11.12020	124329
11.12832	110990
11.13643	95815
11.14457	89309
11.15268	80385
11.16080	80906
11.16893	79849
11.17705	79315
11.18518	85361
11.19330	87975
11.20142	77919
11.20955	79018
11.21767	72052
11.22580	77875
11.23392	66193
11.24203	72971
11.25017	63555
11.25828	62077
11.26640	59558
11.27453	57042
11.28265	57435
11.29078	58389
11.29890	77177
11.30702	133382
11.31515	283400
11.32327	633178
11.33140	1206616
11.33952	1958507
11.34763	2632123
11.35577	2863394
11.36388	2633896
11.37202	2058434
11.38013	1424535
11.38825	963189
11.39638	692191
11.40450	544425
11.41262	479984
11.42075	420620
11.42887	372459
11.43700	325021
11.44512	283365
11.45323	249093
11.46137	226777
11.46948	203156
11.47762	196645
11.48573	204322
11.49385	222353
11.50198	235602
11.51010	230886
11.51822	228152
11.52635	206444
11.53447	189803
11.54260	173270
11.55072	160264
11.55883	155198
11.56697	151570
11.57508	148279
11.58322	150169
11.59133	149656
11.59945	167155
11.60758	189973
11.61570	216349
11.62383	233486
11.63195	225146
11.64007	188523
11.64820	156996
11.65632	132120
11.66443	116704
11.67257	104478
11.68068	110224
11.68882	115682
11.69693	121261
11.70505	128585
11.71318	129407
11.72130	126651
11.72943	118249
11.73755	103255
11.74567	97532
11.75380	88968
11.76192	87857
11.77005	81191
11.77817	80291
11.78628	73144
11.79442	78583
11.80253	68929
11.81065	66924
11.81878	68290
11.82690	69737
11.83503	69740
11.84315	66738
11.85127	67674
11.85940	67880
11.86752	67325
11.87565	69713
11.88377	66094
11.89188	61815
11.90002	65793
11.90813	63715
11.91625	66927
11.92438	71820
11.93250	68461
11.94063	75995
11.94875	70510
11.95687	71086
11.96500	66738
11.97312	68437
11.98125	67229
11.98937	74928
11.99748	88455
12.00562	111794
12.01373	130358
12.02187	129348
12.02998	117663
12.03810	104805
12.04623	87914
12.05435	78823
12.06247	78316
12.07060	77702
12.07872	81887
12.08685	86874
12.09497	101983
12.10308	123366
12.11122	182707
12.11933	292456
12.12747	478686
12.13558	690710
12.14370	837999
12.15183	857964
12.15995	732970
12.16808	544834
12.17620	364430
12.18432	247379
12.19245	197818
12.20057	178618
12.20868	176919
12.21682	172102
12.22493	153111
12.23307	138960
12.24118	134334
12.24930	122395
12.25743	112656
12.26555	110739
12.27368	102917
12.28180	106548
12.28992	95980
12.29805	95588
12.30617	93212
12.31428	92941
12.32242	78634
12.33053	88297
12.33867	84309
12.34678	82687
12.35490	80613
12.36303	78718
12.37115	84149
12.37928	75492
12.38740	85851
12.39552	80090
12.40365	89080
12.41177	107405
12.41990	117376
12.42802	125768
12.43613	133278
12.44427	125225
12.45238	113742
12.46050	102870
12.46863	101507
12.47675	99174
12.48488	90697
12.49300	91732
12.50112	87696
12.50925	87608
12.51737	84039
12.52550	83760
12.53362	96988
12.54173	106642
12.54987	140465
12.55798	174444
12.56610	194130
12.57423	203004
12.58235	178518
12.59048	156176
12.59860	125309
12.60672	113036
12.61485	106036
12.62297	100805
12.63110	97012
12.63922	93094
12.64733	92273
12.65547	87292
12.66358	79657
12.67172	76301
12.67983	71590
12.68795	69479
12.69608	72426
12.70420	71993
12.71232	62498
12.72045	66202
12.72857	70622
12.73670	71360
12.74482	72316
12.75293	68755
12.76107	75642
12.76918	66559
12.77732	69515
12.78543	60877
12.79355	57657
12.80168	56988
12.80980	57342
12.81793	58940
12.82605	56422
12.83417	52458
12.84230	53482
12.85042	45217
12.85853	49429
12.86667	46986
12.87478	49317
12.88292	47006
12.89103	53562
12.89915	49341
12.90728	47893
12.91540	47628
12.92353	50726
12.93165	48285
12.93977	47578
12.94790	47575
12.95602	53566
12.96413	48975
12.97227	57281
12.98038	52980
12.98852	54367
12.99663	52390
13.00475	52769
13.01288	49015
13.02100	50803
13.02913	53408
13.03725	48881
13.04537	47904
13.05350	50164
13.06162	44085
13.06975	46477
13.07787	46227
13.08598	54423
13.09412	50348
13.10223	44410
13.11035	45039
13.11848	43107
13.12660	44953
13.13473	46699
13.14285	46905
13.15097	51204
13.15910	48305
13.16722	49047
13.17535	50586
13.18347	48488
13.19158	50689
13.19972	57682
13.20783	55848
13.21597	55550
13.22408	59082
13.23220	59616
13.24033	58858
13.24845	53651
13.25657	52179
13.26470	55632
13.27282	54418
13.28095	49249
13.28907	47987
13.29718	46169
13.30532	44952
13.31343	47559
13.32157	42931
13.32968	43790
13.33780	43499
13.34593	41588
13.35405	43285
13.36217	42708
13.37030	40474
13.37842	43770
13.38655	41244
13.39467	39888
13.40278	42376
13.41092	43480
13.41903	44029
13.42717	41529
13.43528	45315
13.44340	42135
13.45153	43454
13.45965	47951
13.46778	48141
13.47590	47562
13.48402	53987
13.49215	51863
13.50027	49345
13.50838	42701
13.51652	46238
13.52463	47360
13.53277	47537
13.54088	45712
13.54900	49467
13.55713	46257
13.56525	48349
13.57338	48222
13.58150	51462
13.58962	56856
13.59775	68059
13.60587	75214
13.61398	78040
13.62212	80912
13.63023	74470
13.63837	69270
13.64648	63053
13.65460	55265
13.66273	47589
13.67085	49030
13.67898	44543
13.68710	42620
13.69522	41863
13.70335	41832
13.71147	41858
13.71960	45056
13.72772	44658
13.73583	48050
13.74397	56371
13.75208	89720
13.76020	155490
13.76833	256242
13.77645	360610
13.78458	477081
13.79270	496176
13.80082	483303
13.80895	456336
13.81707	460171
13.82520	485088
13.83332	540119
13.84143	586232
13.84957	583049
13.85768	519503
13.86582	425266
13.87393	336176
13.88205	266258
13.89018	214044
13.89830	177826
13.90642	143941
13.91455	130189
13.92267	118359
13.93080	108375
13.93892	101619
13.94703	102696
13.95517	92563
13.96328	94436
13.97142	96249
13.97953	97614
13.98765	103343
13.99578	103779
14.00390	103915
14.01203	100483
14.02015	95876
14.02827	88194
14.03640	88906
14.04452	84451
14.05263	82913
14.06077	93779
14.06888	79346
14.07702	76098
14.08513	79870
14.09325	76504
14.10138	76850
14.10950	72213
14.11763	71582
14.12575	69319
14.13387	71405
14.14200	77142
14.15012	81066
14.15823	88983
14.16637	96666
14.17448	112507
14.18262	114839
14.19073	145562
14.19885	188633
14.20698	248656
14.21510	288481
14.22323	301962
14.23135	275375
14.23947	247604
14.24760	240357
14.25572	229486
14.26385	220395
14.27197	210431
14.28008	184241
14.28822	163381
14.29633	136363
14.30445	136129
14.31258	113540
14.32070	110785
14.32883	111919
14.33695	107853
14.34507	102806
14.35320	103429
14.36132	88177
14.36945	89087
14.37757	78154
14.38568	67375
14.39382	69912
14.40193	68510
14.41005	69985
14.41818	71782
14.42630	76596
14.43443	75308
14.44255	81751
14.45067	70730
14.45880	65393
14.46692	65328
14.47505	63515
14.48317	60698
14.49128	59114
14.49942	65243
14.50753	62420
14.51567	61543
14.52378	61873
14.53190	64638
14.54003	66099
14.54815	65955
14.55627	60632
14.56440	58622
14.57252	57053
14.58065	60518
14.58877	57234
14.59688	50476
14.60502	49068
14.61313	51820
14.62127	49469
14.62938	45163
14.63750	48286
14.64563	44807
14.65375	47813
14.66188	49206
14.67000	39671
14.67812	43339
14.68625	46860
14.69437	44825
14.70248	45789
14.71062	47229
14.71873	45822
14.72687	48598
14.73498	48295
14.74310	50958
14.75123	52799
14.75935	55298
14.76748	54302
14.77560	57897
14.78372	69144
14.79185	111880
14.79997	259386
14.80808	666838
14.81622	1517376
14.82433	2848289
14.83247	4129826
14.84058	4850489
14.84870	4540450
14.85683	3543647
14.86495	2300735
14.87308	1415703
14.88120	868168
14.88932	608267
14.89745	476433
14.90557	387333
14.91370	337596
14.92182	305318
14.92993	278967
14.93807	263706
14.94618	244907
14.95430	220751
14.96243	196762
14.97055	196757
14.97868	179967
14.98680	169904
14.99492	158907
15.00305	160479
15.01117	147666
15.01930	143027
15.02742	141221
15.03553	146388
15.04367	142153
15.05178	140188
15.05992	129588
15.06803	130643
15.07615	124955
15.08428	108823
15.09240	106813
15.10052	108039
15.10865	102491
15.11677	101544
15.12490	101477
15.13302	112177
15.14113	118945
15.14927	121645
15.15738	119972
15.16552	108193
15.17363	92469
15.18175	83890
15.18988	71219
15.19800	71858
15.20612	60989
15.21425	58773
15.22237	62208
15.23050	63240
15.23862	59717
15.24673	57258
15.25487	55947
15.26298	59274
15.27112	62259
15.27923	54023
15.28735	51046
15.29548	50195
15.30360	51307
15.31173	51403
15.31985	46138
15.32797	48446
15.33610	46014
15.34422	47022
15.35233	49873
15.36047	47912
15.36858	45261
15.37672	48957
15.38483	49363
15.39295	48009
15.40108	48553
15.40920	47808
15.41733	49003
15.42545	47231
15.43357	49882
15.44170	47334
15.44982	49673
15.45793	54527
15.46607	67459
15.47418	93875
15.48232	151308
15.49043	234409
15.49855	336488
15.50668	422013
15.51480	480898
15.52293	469085
15.53105	408940
15.53917	340388
15.54730	311275
15.55542	259377
15.56355	224502
15.57167	188481
15.57978	156412
15.58792	125292
15.59603	105383
15.60415	95133
15.61228	85154
15.62040	81855
15.62853	75781
15.63665	72246
15.64477	69008
15.65290	67195
15.66102	65296
15.66915	62693
15.67727	59492
15.68538	60872
15.69352	59024
15.70163	59427
15.70977	51560
15.71788	54706
15.72600	56030
15.73413	53360
15.74225	54292
15.75037	61592
15.75850	76139
15.76662	108650
15.77475	174431
15.78287	247614
15.79098	303772
15.79912	345538
15.80723	323976
15.81537	250043
15.82348	171646
15.83160	139106
15.83973	105367
15.84785	90541
15.85597	85070
15.86410	79570
15.87222	77892
15.88035	74569
15.88847	75688
15.89658	78549
15.90472	78035
15.91283	76375
15.92097	72514
15.92908	68650
15.93720	70798
15.94533	69078
15.95345	67667
15.96158	63111
15.96970	65953
15.97782	73842
15.98595	78615
15.99407	75162
16.00218	76724
16.01032	71604
16.01843	84634
16.02657	75722
16.03468	81158
16.04280	75273
16.05093	73001
16.05905	71168
16.06718	64406
16.07530	61796
16.08342	57931
16.09155	58489
16.09967	52846
16.10780	53513
16.11592	56541
16.12403	61888
16.13217	65810
16.14028	67674
16.14840	72601
16.15653	80923
16.16465	75930
16.17278	73234
16.18090	58673
16.18902	59521
16.19715	59727
16.20527	65129
16.21340	58967
16.22152	56158
16.22963	52834
16.23777	56840
16.24588	55836
16.25400	54935
16.26213	52510
16.27025	53437
16.27838	54539
16.28650	59063
16.29462	64588
16.30275	73565
16.31087	71306
16.31900	74431
16.32712	71618
16.33523	70572
16.34337	64104
16.35148	64537
16.35962	70673
16.36773	76941
16.37585	86530
16.38398	90949
16.39210	98704
16.40022	83460
16.40835	74095
16.41647	69948
16.42460	61435
16.43272	64165
16.44083	64516
16.44897	88869
16.45708	156357
16.46522	291722
16.47333	511152
16.48145	771329
16.48958	931240
16.49770	912944
16.50582	720101
16.51395	487753
16.52207	315222
16.53020	214883
16.53832	162719
16.54643	129704
16.55457	114767
16.56268	107580
16.57082	97007
16.57893	93859
16.58705	89623
16.59518	94780
16.60330	90605
16.61143	92225
16.61955	92488
16.62767	92622
16.63580	87308
16.64392	78700
16.65203	77579
16.66017	76043
16.66828	70556
16.67642	71354
16.68453	65665
16.69265	62386
16.70078	65357
16.70890	59758
16.71703	56760
16.72515	61662
16.73327	57476
16.74140	57464
16.74952	56051
16.75765	61801
16.76577	61892
16.77388	62975
16.78202	63965
16.79013	63163
16.79825	55482
16.80638	51904
16.81450	49043
16.82263	51941
16.83075	44488
16.83887	49077
16.84700	52675
16.85512	50965
16.86325	45225
16.87137	45867
16.87948	46698
16.88762	44495
16.89573	49639
16.90385	42330
16.91198	43312
16.92010	42592
16.92823	48561
16.93635	44466
16.94447	49056
16.95260	47116
16.96072	45809
16.96885	42918
16.97697	44709
16.98508	42724
16.99322	48644
17.00133	43112
17.00947	43408
17.01758	49267
17.02570	45766
17.03383	45800
17.04195	49665
17.05007	49643
17.05820	48704
17.06632	52916
17.07445	51374
17.08257	56243
17.09068	59592
17.09882	79110
17.10693	93187
17.11507	114213
17.12318	123832
17.13130	125295
17.13943	120407
17.14755	122704
17.15568	110974
17.16380	96986
17.17192	84000
17.18005	75850
17.18817	68118
17.19628	62656
17.20442	57763
17.21253	56101
17.22067	48251
17.22878	51128
17.23690	53302
17.24503	52482
17.25315	49916
17.26128	51357
17.26940	51754
17.27752	51676
17.28565	49844
17.29377	50399
17.30188	47503
17.31002	47626
17.31813	53777
17.32627	66157
17.33438	68864
17.34250	76073
17.35063	86069
17.35875	100763
17.36688	93979
17.37500	93676
17.38312	90178
17.39125	85691
17.39937	81115
17.40750	83601
17.41562	84257
17.42373	79401
17.43187	82325
17.43998	85551
17.44810	84068
17.45623	81691
17.46435	71034
17.47248	67560
17.48060	60769
17.48872	58502
17.49685	62221
17.50497	53222
17.51310	56257
17.52122	50590
17.52933	52011
17.53747	52337
17.54558	54887
17.55372	52783
17.56183	63245
17.56995	82481
17.57808	124548
17.58620	183895
17.59432	289956
17.60245	398586
17.61057	487780
17.61870	531989
17.62682	489801
17.63493	396962
17.64307	298134
17.65118	217595
17.65932	174168
17.66743	147839
17.67555	133562
17.68368	125564
17.69180	111282
17.69992	109597
17.70805	102594
17.71617	99835
17.72430	93951
17.73242	98283
17.74053	98322
17.74867	91800
17.75678	91907
17.76492	89112
17.77303	79005
17.78115	77709
17.78928	74245
17.79740	69014
17.80553	60613
17.81365	60732
17.82177	68290
17.82990	66920
17.83802	81581
17.84613	84592
17.85427	98658
17.86238	107520
17.87052	110436
17.87863	114063
17.88675	103478
17.89488	87827
17.90300	75062
17.91113	64113
17.91925	61360
17.92737	52500
17.93550	55257
17.94362	55016
17.95173	55201
17.95987	51718
17.96798	51980
17.97612	49675
17.98423	50022
17.99235	51952
18.00048	52850
18.00860	54872
18.01673	60290
18.02485	77709
18.03297	98171
18.04110	117503
18.04922	118209
18.05735	114307
18.06547	99793
18.07358	92986
18.08172	95626
18.08983	92552
18.09795	98703
18.10608	103538
18.11420	106798
18.12233	109244
18.13045	108718
18.13857	106940
18.14670	106250
18.15482	100588
18.16295	95593
18.17107	88782
18.17918	83101
18.18732	82002
18.19543	75463
18.20357	69586
18.21168	72455
18.21980	66886
18.22793	68609
18.23605	64037
18.24417	60998
18.25230	64948
18.26042	63046
18.26855	63993
18.27667	65420
18.28478	66552
18.29292	57898
18.30103	55445
18.30917	51252
18.31728	48536
18.32540	49261
18.33353	45724
18.34165	44361
18.34977	43482
18.35790	43574
18.36602	45641
18.37415	41059
18.38227	46732
18.39038	47277
18.39852	49945
18.40663	54503
18.41477	56884
18.42288	71049
18.43100	89531
18.43913	118835
18.44725	133304
18.45538	150646
18.46350	168659
18.47162	171119
18.47975	199891
18.48787	207656
18.49598	202291
18.50412	180741
18.51223	150491
18.52037	120995
18.52848	102465
18.53660	91550
18.54473	75110
18.55285	68991
18.56098	65005
18.56910	61904
18.57722	61926
18.58535	63239
18.59347	66040
18.60160	69841
18.60972	69443
18.61783	80421
18.62597	85607
18.63408	92668
18.64220	91009
18.65033	87895
18.65845	79198
18.66658	73760
18.67470	69543
18.68282	61516
18.69095	60483
18.69907	58002
18.70720	57405
18.71532	55936
18.72343	54560
18.73157	57515
18.73968	59004
18.74780	51584
18.75593	51844
18.76405	51402
18.77218	47617
18.78030	48940
18.78842	49984
18.79655	50411
18.80467	48959
18.81280	47655
18.82092	47972
18.82903	49873
18.83717	47298
18.84528	45264
18.85342	50575
18.86153	51294
18.86965	56714
18.87778	66033
18.88590	66866
18.89402	71395
18.90215	71809
18.91027	61996
18.91840	65457
18.92652	61329
18.93463	59073
18.94277	58270
18.95088	65869
18.95902	62301
18.96713	66505
18.97525	63533
18.98338	63426
18.99150	64778
18.99962	55349
19.00775	53946
19.01587	53028
19.02400	54644
19.03212	52181
19.04023	53250
19.04837	53280
19.05648	56032
19.06462	74731
19.07273	127936
19.08085	263684
19.08898	510872
19.09710	877604
19.10523	1251441
19.11335	1549208
19.12147	1529445
19.12960	1245812
19.13772	871907
19.14583	590404
19.15397	395670
19.16208	272507
19.17022	211426
19.17833	167974
19.18645	148062
19.19458	130923
19.20270	114484
19.21083	109020
19.21895	101003
19.22707	85350
19.23520	84590
19.24332	88538
19.25145	93437
19.25957	105489
19.26768	106394
19.27582	112173
19.28393	115011
19.29205	128065
19.30018	128619
19.30830	130334
19.31643	135363
19.32455	128703
19.33267	133657
19.34080	127148
19.34892	127030
19.35705	139621
19.36517	149293
19.37328	172484
19.38142	175587
19.38953	180647
19.39767	167694
19.40578	155001
19.41390	144173
19.42203	131921
19.43015	120294
19.43827	120375
19.44640	117982
19.45452	113283
19.46265	116168
19.47077	120728
19.47888	118516
19.48702	126377
19.49513	137965
19.50327	184255
19.51138	223252
19.51950	256971
19.52763	273030
19.53575	254034
19.54387	225816
19.55200	185363
19.56012	165460
19.56825	140240
19.57637	129451
19.58448	121737
19.59262	118186
19.60073	104213
19.60887	114679
19.61698	97968
19.62510	104514
19.63323	103211
19.64135	111368
19.64948	145604
19.65760	192889
19.66572	250031
19.67385	300135
19.68197	331332
19.69008	364153
19.69822	351385
19.70633	308362
19.71447	282483
19.72258	239023
19.73070	215869
19.73883	197087
19.74695	174092
19.75508	165563
19.76320	153984
19.77132	148941
19.77945	152828
19.78757	173841
19.79568	196017
19.80382	208999
19.81193	220751
19.82007	206509
19.82818	194987
19.83630	168410
19.84443	147354
19.85255	128889
19.86068	116194
19.86880	119643
19.87692	120878
19.88505	130308
19.89317	165055
19.90130	192455
19.90942	226244
19.91753	247334
19.92567	271600
19.93378	277980
19.94190	277193
19.95003	266207
19.95815	254681
19.96628	241437
19.97440	238979
19.98252	227435
19.99065	224934
19.99877	221569
20.00690	207660
20.01502	210862
20.02313	214285
20.03127	213556
20.03938	206503
20.04752	202152
20.05563	195701
20.06375	216711
20.07188	242376
20.08000	277334
20.08812	303992
20.09625	320489
20.10437	312533
20.11250	277623
20.12062	239266
20.12873	201267
20.13687	181223
20.14498	201144
20.15312	259214
20.16123	404033
20.16935	637216
20.17748	985861
20.18560	1443275
20.19372	1838200
20.20185	2045754
20.20997	2049680
20.21810	1846556
20.22622	1506118
20.23433	1221496
20.24247	1006770
20.25058	949849
20.25872	1047897
20.26683	1205985
20.27495	1415814
20.28308	1533888
20.29120	1517223
20.29933	1357040
20.30745	1124301
20.31557	866171
20.32370	633250
20.33182	482252
20.33993	351794
20.34807	280245
20.35618	227340
20.36432	188285
20.37243	158512
20.38055	144010
20.38868	132369
20.39680	122359
20.40493	117073
20.41305	112166
20.42117	106836
20.42930	101884
20.43742	111816
20.44555	115066
20.45367	119355
20.46178	119673
20.46992	122526
20.47803	117731
20.48615	108014
20.49428	106251
20.50240	99986
20.51053	87134
20.51865	87796
20.52677	80796
20.53490	79494
20.54302	75595
20.55115	74488
20.55927	76288
20.56738	73276
20.57552	72712
20.58363	75106
20.59175	75553
20.59988	71199
20.60800	72222
20.61613	75865
20.62425	72535
20.63237	76102
20.64050	73481
20.64862	76274
20.65675	82415
20.66487	76567
20.67298	78340
20.68112	70855
20.68923	76143
20.69737	68114
20.70548	65535
20.71360	59585
20.72173	70860
20.72985	62631
20.73797	65056
20.74610	68717
20.75422	67966
20.76235	72313
20.77047	74407
20.77858	84937
20.78672	105621
20.79483	152065
20.80297	236541
20.81108	336869
20.81920	447851
20.82733	509603
20.83545	482309
20.84357	391356
20.85170	286347
20.85982	200922
20.86795	135133
20.87607	113701
20.88418	97182
20.89232	95115
20.90043	98992
20.90857	103836
20.91668	108335
20.92480	116653
20.93293	138899
20.94105	143427
20.94918	139186
20.95730	130199
20.96542	121471
20.97355	106937
20.98167	92292
20.98978	83843
20.99792	76280
21.00603	75442
21.01417	76320
21.02228	78819
21.03040	73687
21.03853	73389
21.04665	76534
21.05478	76561
21.06290	76464
21.07102	68702
21.07915	71522
21.08727	68471
21.09540	67928
21.10352	71621
21.11163	61492
21.11977	58968
21.12788	71394
21.13600	88761
21.14413	116835
21.15225	153313
21.16038	195612
21.16850	237690
21.17662	253077
21.18475	222772
21.19287	185885
21.20100	143893
21.20912	119605
21.21723	101882
21.22537	89518
21.23348	83754
21.24160	83272
21.24973	76586
21.25785	74596
21.26598	81416
21.27410	69536
21.28222	66296
21.29035	68379
21.29847	68365
21.30660	69040
21.31472	65939
21.32283	62651
21.33097	68029
21.33908	64305
21.34722	64512
21.35533	68702
21.36345	63632
21.37158	62815
21.37970	66077
21.38782	67444
21.39595	76748
21.40407	85125
21.41220	90567
21.42032	88591
21.42843	98099
21.43657	88742
21.44468	82824
21.45282	79383
21.46093	79387
21.46905	73120
21.47718	70503
21.48530	69050
21.49343	64935
21.50155	62014
21.50967	63257
21.51780	63164
21.52592	60199
21.53403	60309
21.54217	63786
21.55028	60274
21.55842	63320
21.56653	61526
21.57465	63473
21.58278	65463
21.59090	70641
21.59903	77243
21.60715	77431
21.61527	76593
21.62340	83520
21.63152	85802
21.63963	98399
21.64777	103128
21.65588	104318
21.66402	106950
21.67213	103163
21.68025	109955
21.68838	103630
21.69650	99560
21.70463	90013
21.71275	88759
21.72087	80980
21.72900	71581
21.73712	68411
21.74525	64157
21.75337	61933
21.76148	66503
21.76962	67481
21.77773	62524
21.78585	64975
21.79398	68970
21.80210	69162
21.81023	70826
21.81835	75565
21.82647	80143
21.83460	75259
21.84272	85028
21.85085	88836
21.85897	89505
21.86708	87593
21.87522	83189
21.88333	75084
21.89147	75052
21.89958	67926
21.90770	66844
21.91583	60945
21.92395	64148
21.93207	60030
21.94020	55895
21.94832	53676
21.95645	64371
21.96457	57127
21.97268	53915
21.98082	51667
21.98893	48130
21.99707	48064
22.00518	51373
22.01330	51428
22.02143	51278
22.02955	55264
22.03767	56167
22.04580	52586
22.05392	58234
22.06205	55622
22.07017	57492
22.07828	53308
22.08642	54792
22.09453	55840
22.10267	53990
22.11078	56100
22.11890	55652
22.12703	47211
22.13515	48812
22.14328	48790
22.15140	54409
22.15952	49921
22.16765	47995
22.17577	49438
22.18388	47608
22.19202	49604
22.20013	47411
22.20827	53209
22.21638	53137
22.22450	51087
22.23263	51885
22.24075	54291
22.24888	50848
22.25700	54057
22.26512	57450
22.27325	59135
22.28137	60899
22.28948	64148
22.29762	68747
22.30573	70864
22.31387	70350
22.32198	70518
22.33010	68172
22.33823	61006
22.34635	62921
22.35448	62485
22.36260	61466
22.37072	58287
22.37885	59304
22.38697	66296
22.39510	80606
22.40322	100785
22.41133	130483
22.41947	158943
22.42758	177101
22.43570	178430
22.44383	166273
22.45195	148267
22.46008	121591
22.46820	104119
22.47632	97187
22.48445	102716
22.49257	105204
22.50070	117028
22.50882	129045
22.51693	135608
22.52507	140864
22.53318	147208
22.54132	132978
22.54943	124814
22.55755	107824
22.56568	102846
22.57380	93700
22.58192	87903
22.59005	83716
22.59817	81927
22.60630	80478
22.61442	70610
22.62253	64171
22.63067	60795
22.63878	61657
22.64692	57644
22.65503	58570
22.66315	65597
22.67128	61272
22.67940	63400
22.68752	66097
22.69565	67161
22.70377	72420
22.71190	81118
22.72002	83445
22.72813	86240
22.73627	77193
22.74438	77513
22.75252	71400
22.76063	66747
22.76875	60947
22.77688	62730
22.78500	71703
22.79313	72515
22.80125	76305
22.80937	87998
22.81750	91948
22.82562	89007
22.83373	88851
22.84187	83234
22.84998	80875
22.85812	79654
22.86623	91397
22.87435	103075
22.88248	125207
22.89060	156696
22.89873	176154
22.90685	200005
22.91497	199197
22.92310	207496
22.93122	197722
22.93935	200560
22.94747	181756
22.95558	158344
22.96372	154665
22.97183	143063
22.97995	132806
22.98808	119202
22.99620	121683
23.00433	116414
23.01245	118300
23.02057	107567
23.02870	104600
23.03682	113049
23.04495	110055
23.05307	108655
23.06118	106295
23.06932	120104
23.07743	114903
23.08555	110641
23.09368	115030
23.10180	108539
23.10993	106964
23.11805	112367
23.12617	104918
23.13430	99514
23.14242	105669
23.15055	100402
23.15867	99296
23.16678	99865
23.17492	96966
23.18303	96730
23.19117	92796
23.19928	94744
23.20740	91420
23.21553	93577
23.22365	88496
23.23177	90084
23.23990	96702
23.24802	95518
23.25615	102006
23.26427	101051
23.27238	105906
23.28052	104664
23.28863	100026
23.29677	99273
23.30488	92871
23.31300	94697
23.32113	95472
23.32925	98080
23.33737	106961
23.34550	117330
23.35362	141261
23.36175	158381
23.36987	167475
23.37798	181447
23.38612	175060
23.39423	159480
23.40237	141550
23.41048	128405
23.41860	112650
23.42673	107010
23.43485	108158
23.44298	107163
23.45110	96218
23.45922	96929
23.46735	92858
23.47547	93215
23.48358	93085
23.49172	89923
23.49983	86981
23.50797	88397
23.51608	88089
23.52420	86760
23.53233	82658
23.54045	87765
23.54858	87401
23.55670	93729
23.56482	108589
23.57295	126531
23.58107	173612
23.58920	229454
23.59732	300277
23.60543	353378
23.61357	369497
23.62168	354762
23.62980	285335
23.63793	235779
23.64605	198572
23.65418	171723
23.66230	165386
23.67042	158714
23.67855	154613
23.68667	143428
23.69480	130494
23.70292	122625
23.71103	111414
23.71917	99546
23.72728	96142
23.73540	96066
23.74353	98579
23.75165	118042
23.75978	189146
23.76790	353423
23.77602	648901
23.78415	1115575
23.79227	1657841
23.80040	2022092
23.80852	2108935
23.81663	1915828
23.82477	1555900
23.83288	1204757
23.84102	942279
23.84913	725483
23.85725	584377
23.86538	480640
23.87350	414103
23.88162	364230
23.88975	325313
23.89787	301897
23.90600	281378
23.91412	266266
23.92223	267116
23.93037	249537
23.93848	226644
23.94662	211745
23.95473	204190
23.96285	184249
23.97098	171064
23.97910	161657
23.98723	157166
23.99535	152709
24.00347	160262
24.01160	170713
24.01972	208490
24.02783	248923
24.03597	308177
24.04408	322700
24.05222	302074
24.06033	254760
24.06845	207096
24.07658	164831
24.08470	139652
24.09283	125356
24.10095	118143
24.10907	112457
24.11720	105924
24.12532	118266
24.13343	129887
24.14157	152578
24.14968	168158
24.15782	176933
24.16593	181399
24.17405	175146
24.18218	170098
24.19030	155011
24.19843	153432
24.20655	153515
24.21467	147380
24.22280	138844
24.23092	123655
24.23905	119885
24.24717	119580
24.25528	98140
24.26342	95404
24.27153	89088
24.27965	87737
24.28778	81847
24.29590	90007
24.30403	83788
24.31215	88394
24.32027	88864
24.32840	87284
24.33652	90445
24.34465	87224
24.35277	84713
24.36088	82470
24.36902	76626
24.37713	80396
24.38527	87637
24.39338	109981
24.40150	119322
24.40963	143408
24.41775	139232
24.42587	129468
24.43400	112773
24.44212	94005
24.45025	83136
24.45837	76165
24.46648	76239
24.47462	73765
24.48273	76894
24.49087	84609
24.49898	83786
24.50710	91219
24.51523	103230
24.52335	101854
24.53147	108317
24.53960	114726
24.54772	121708
24.55585	131487
24.56397	131180
24.57208	131157
24.58022	129903
24.58833	111630
24.59647	99010
24.60458	91204
24.61270	85384
24.62083	80930
24.62895	78714
24.63708	76534
24.64520	77234
24.65332	73491
24.66145	82186
24.66957	88339
24.67768	94229
24.68582	110787
24.69393	111862
24.70207	109101
24.71018	120528
24.71830	118426
24.72643	122794
24.73455	122915
24.74268	124991
24.75080	134477
24.75892	124038
24.76705	131375
24.77517	132336
24.78330	135923
24.79142	140935
24.79953	143524
24.80767	145714
24.81578	148816
24.82390	149805
24.83203	154568
24.84015	163614
24.84828	181572
24.85640	222581
24.86452	267430
24.87265	352711
24.88077	446446
24.88890	529236
24.89702	597880
24.90513	598659
24.91327	528022
24.92138	439017
24.92950	328473
24.93763	250376
24.94575	199272
24.95388	161845
24.96200	147898
24.97012	127458
24.97825	127148
24.98637	132144
24.99450	124155
25.00262	125617
25.01073	116310
25.01887	117837
25.02698	115486
25.03512	113203
25.04323	111245
25.05135	117270
25.05948	111635
25.06760	109674
25.07572	113875
25.08385	108424
25.09197	122075
25.10010	146618
25.10822	241483
25.11633	458572
25.12447	899635
25.13258	1571252
25.14072	2308009
25.14883	2908011
25.15695	3072737
25.16508	2742547
25.17320	2135218
25.18132	1440700
25.18945	919899
25.19757	583668
25.20570	377332
25.21382	263349
25.22193	222164
25.23007	193028
25.23818	188991
25.24632	214262
25.25443	260764
25.26255	334034
25.27068	399373
25.27880	418785
25.28693	425027
25.29505	381914
25.30317	311724
25.31130	254829
25.31942	211648
25.32753	176060
25.33567	160730
25.34378	148587
25.35192	137940
25.36003	127322
25.36815	114380
25.37628	112282
25.38440	107211
25.39253	100548
25.40065	102756
25.40877	105620
25.41690	100725
25.42502	94925
25.43315	101190
25.44127	94984
25.44938	97930
25.45752	92514
25.46563	95356
25.47375	102760
25.48188	99519
25.49000	97487
25.49813	97450
25.50625	97873
25.51437	90669
25.52250	87994
25.53062	87091
25.53875	81140
25.54687	81584
25.55498	77517
25.56312	74281
25.57123	76336
25.57935	69168
25.58748	71135
25.59560	70004
25.60373	66053
25.61185	66853
25.61997	66899
25.62810	71798
25.63622	70388
25.64435	69974
25.65247	78516
25.66058	76435
25.66872	74866
25.67683	69121
25.68497	62595
25.69308	60163
25.70120	64697
25.70933	67134
25.71745	61013
25.72557	60868
25.73370	58981
25.74182	56457
25.74995	59925
25.75807	60441
25.76618	58102
25.77432	64333
25.78243	69873
25.79057	69323
25.79868	69436
25.80680	75408
25.81493	65983
25.82305	63028
25.83118	69060
25.83930	71716
25.84742	71105
25.85555	68809
25.86367	77083
25.87178	71944
25.87992	67673
25.88803	67239
25.89617	67709
25.90428	65901
25.91240	59756
25.92053	66364
25.92865	71065
25.93678	76524
25.94490	91008
25.95302	100734
25.96115	106870
25.96927	111954
25.97738	115052
25.98552	110044
25.99363	112182
26.00177	110165
26.00988	111416
26.01800	117679
26.02613	113483
26.03425	114819
26.04238	114385
26.05050	113152
26.05862	119702
26.06675	118308
26.07487	123590
26.08300	125200
26.09112	117885
26.09923	123101
26.10737	127959
26.11548	129189
26.12360	128843
26.13173	132083
26.13985	139667
26.14798	139632
26.15610	148256
26.16422	142551
26.17235	145759
26.18047	141012
26.18860	133317
26.19672	133181
26.20483	125324
26.21297	121867
26.22108	117100
26.22920	118157
26.23733	115001
26.24545	116087
26.25358	113855
26.26170	115272
26.26982	106238
26.27795	110407
26.28607	105170
26.29420	106510
26.30232	104606
26.31043	103264
26.31857	104368
26.32668	103209
26.33482	108427
26.34293	111641
26.35105	129182
26.35918	160443
26.36730	217475
26.37542	320272
26.38355	468833
26.39167	621793
26.39980	779179
26.40792	828735
26.41603	804611
26.42417	703558
26.43228	546166
26.44042	391310
26.44853	285175
26.45665	207331
26.46478	168047
26.47290	153123
26.48103	128513
26.48915	124393
26.49727	121632
26.50540	122825
26.51352	108187
26.52163	100891
26.52977	98434
26.53788	99401
26.54602	97945
26.55413	100322
26.56225	92204
26.57038	91445
26.57850	95636
26.58663	95383
26.59475	95646
26.60287	86293
26.61100	88355
26.61912	92186
26.62723	91100
26.63537	89873
26.64348	85751
26.65162	86689
26.65973	83705
26.66785	83678
26.67598	84978
26.68410	87308
26.69223	79891
26.70035	82197
26.70847	81419
26.71660	79331
26.72472	74971
26.73285	74027
26.74097	75559
26.74908	72559
26.75722	75715
26.76533	73296
26.77345	76347
26.78158	72955
26.78970	75310
26.79783	80144
26.80595	78270
26.81407	73493
26.82220	80793
26.83032	76080
26.83845	72302
26.84657	70008
26.85468	70360
26.86282	68484
26.87093	65405
26.87907	68738
26.88718	66479
26.89530	65258
26.90343	64350
26.91155	63917
26.91967	60147
26.92780	60772
26.93592	58181
26.94405	61716
26.95217	59912
26.96028	61126
26.96842	64556
26.97653	82234
26.98467	100407
26.99278	135178
27.00090	189966
27.00903	256783
27.01715	347789
27.02527	426372
27.03340	464736
27.04152	465653
27.04965	437525
27.05777	387922
27.06588	319861
27.07402	269135
27.08213	239625
27.09027	204154
27.09838	177141
27.10650	166032
27.11463	152466
27.12275	138650
27.13088	136123
27.13900	132176
27.14712	130851
27.15525	124242
27.16337	126611
27.17148	133347
27.17962	137671
27.18773	148487
27.19587	159540
27.20398	151898
27.21210	145600
27.22023	136977
27.22835	128869
27.23648	116994
27.24460	106115
27.25272	96474
27.26085	98329
27.26897	90208
27.27710	88492
27.28522	84846
27.29333	81488
27.30147	84688
27.30958	87702
27.31770	86190
27.32583	82993
27.33395	79678
27.34208	81299
27.35020	85539
27.35832	75245
27.36645	81339
27.37457	82179
27.38270	86589
27.39082	81050
27.39893	76395
27.40707	70030
27.41518	73430
27.42330	73664
27.43143	72625
27.43955	70621
27.44768	73191
27.45580	74936
27.46392	67934
27.47205	67318
27.48017	67712
27.48830	66771
27.49642	66893
27.50453	65891
27.51267	62147
27.52078	64392
27.52892	62503
27.53703	68135
27.54515	66022
27.55328	71282
27.56140	72446
27.56952	72725
27.57765	74083
27.58577	78681
27.59390	86280
27.60202	89793
27.61013	93412
27.61827	92892
27.62638	84183
27.63452	80748
27.64263	75964
27.65075	68771
27.65888	64657
27.66700	69340
27.67512	68603
27.68325	72093
27.69137	74538
27.69950	76318
27.70762	73737
27.71573	72078
27.72387	65080
27.73198	62958
27.74012	60828
27.74823	58151
27.75635	56630
27.76448	64438
27.77260	61994
27.78073	68299
27.78885	75213
27.79697	74699
27.80510	76711
27.81322	74729
27.82133	70547
27.82947	65336
27.83758	65365
27.84572	59533
27.85383	61957
27.86195	58925
27.87008	56309
27.87820	59779
27.88633	56231
27.89445	59296
27.90257	52548
27.91070	54619
27.91882	57130
27.92695	55562
27.93507	55545
27.94318	54027
27.95132	53591
27.95943	55068
27.96755	54169
27.97568	56844
27.98380	56515
27.99193	58918
28.00005	58160
28.00817	61479
28.01630	70797
28.02442	75901
28.03255	84884
28.04067	104359
28.04878	114236
28.05692	116880
28.06503	122695
28.07315	107177
28.08128	94518
28.08940	77534
28.09753	70843
28.10565	67007
28.11377	61824
28.12190	60385
28.13002	56179
28.13815	55919
28.14627	52997
28.15438	57021
28.16252	55244
28.17063	54666
28.17877	54022
28.18688	54762
28.19500	64693
28.20313	71729
28.21125	83156
28.21937	88534
28.22750	91914
28.23562	89001
28.24375	87085
28.25187	77777
28.25998	68734
28.26812	64134
28.27623	64399
28.28437	60840
28.29248	60154
28.30060	64046
28.30873	67577
28.31685	74487
28.32498	79555
28.33310	90863
28.34122	106468
28.34935	103600
28.35747	116790
28.36558	125001
28.37372	140342
28.38183	148963
28.38997	155909
28.39808	150321
28.40620	159111
28.41433	161695
28.42245	140605
28.43058	137382
28.43870	125973
28.44682	123145
28.45495	118619
28.46307	115843
28.47118	108693
28.47932	105618
28.48743	104558
28.49557	111074
28.50368	112577
28.51180	108860
28.51993	109197
28.52805	100297
28.53618	93157
28.54430	88680
28.55242	79652
28.56055	79266
28.56867	72619
28.57680	69610
28.58492	70669
28.59303	69554
28.60117	69319
28.60928	67651
28.61740	69149
28.62553	75943
28.63365	74125
28.64178	80535
28.64990	85598
28.65802	89632
28.66615	86163
28.67427	86170
28.68240	87599
28.69052	81279
28.69863	76991
28.70677	69662
28.71488	68168
28.72300	67393
28.73113	63269
28.73925	61754
28.74738	60654
28.75550	66067
28.76362	78919
28.77175	78673
28.77987	87394
28.78800	90981
28.79612	87616
28.80423	89619
28.81237	85646
28.82048	77381
28.82862	74091
28.83673	72725
28.84485	65862
28.85298	66643
28.86110	63118
28.86922	63757
28.87735	66872
28.88547	69930
28.89360	70595
28.90172	73696
28.90983	76037
28.91797	70325
28.92608	71712
28.93422	73716
28.94233	71173
28.95045	69983
28.95858	66058
28.96670	71980
28.97483	67754
28.98295	61842
28.99107	59844
28.99920	59645
29.00732	59047
29.01543	55538
29.02357	50884
29.03168	52484
29.03982	55108
29.04793	55665
29.05605	53159
29.06418	58380
29.07230	57804
29.08043	63234
29.08855	61084
29.09667	61125
29.10480	61734
29.11292	59389
29.12105	55529
29.12917	52078
29.13728	53171
29.14542	50442
29.15353	54456
29.16165	54650
29.16978	55152
29.17790	55861
29.18603	55822
29.19415	65700
29.20227	74845
29.21040	80658
29.21852	92028
29.22665	96017
29.23477	101316
29.24288	108385
29.25102	123450
29.25913	143818
29.26725	161871
29.27538	169664
29.28350	160628
29.29163	152244
29.29975	119417
29.30787	93940
29.31600	82516
29.32412	66274
29.33225	66937
29.34037	58358
29.34848	56925
29.35662	53568
29.36473	57564
29.37287	58054
29.38098	55407
29.38910	52153
29.39723	57910
29.40535	58589
29.41347	54835
29.42160	58257
29.42972	61578
29.43785	66650
29.44597	66514
29.45408	60160
29.46222	56945
29.47033	58840
29.47847	56074
29.48658	60530
29.49470	58286
29.50283	60236
29.51095	65809
29.51907	68351
29.52720	67067
29.53532	61507
29.54345	62112
29.55157	60656
29.55968	58377
29.56782	51302
29.57593	51740
29.58407	51077
29.59218	51534
29.60030	54825
29.60843	50546
29.61655	52798
29.62468	52321
29.63280	50608
29.64092	53143
29.64905	51277
29.65717	54273
29.66528	49930
29.67342	53292
29.68153	52595
29.68967	56350
29.69778	56484
29.70590	57149
29.71403	53466
29.72215	50786
29.73028	51290
29.73840	55775
29.74652	56821
29.75465	51892
29.76277	53433
29.77090	52475
29.77902	48583
29.78713	48942
29.79527	46892
29.80338	41844
29.81150	43279
29.81963	46981
29.82775	47725
29.83588	48785
29.84400	47546
29.85212	47042
29.86025	51818
29.86837	55273
29.87650	68749
29.88462	84992
29.89273	106565
29.90087	139186
29.90898	144958
29.91710	140286
29.92523	117597
29.93335	95626
29.94148	79941
29.94960	67649
29.95772	59105
29.96585	60903
29.97397	64240
29.98210	64792
29.99022	70989
29.99833	81190
30.00647	81719
30.01458	92273
30.02272	93136
30.03083	94698
30.03895	92251
30.04708	102675
30.05520	99293
30.06332	102098
30.07145	98745
30.07957	102679
30.08770	98553
30.09582	100226
30.10393	96011
30.11207	90749
30.12018	91623
30.12832	89626
30.13643	77770
30.14455	81523
30.15268	82393
30.16080	80987
30.16893	80644
30.17705	80898
30.18517	80229
30.19330	86507
30.20142	85781
30.20953	81324
30.21767	84952
30.22578	78998
30.23392	79201
30.24203	73664
30.25015	65037
30.25828	63512
30.26640	61289
30.27453	58623
30.28265	63218
30.29077	60193
30.29890	53816
30.30702	58626
30.31513	57045
30.32327	56315
30.33138	55782
30.33952	57335
30.34763	53312
30.35575	59112
30.36388	54346
30.37200	58451
30.38013	53533
30.38825	54406
30.39637	55914
30.40450	53499
30.41262	55822
30.42075	52592
30.42887	50532
30.43698	49240
30.44512	53420
30.45323	53961
30.46135	49872
30.46948	51654
30.47760	53490
30.48573	52887
30.49385	56601
30.50197	47884
30.51010	54519
30.51822	53775
30.52635	52882
30.53447	49643
30.54258	48980
30.55072	53091
30.55883	52804
30.56695	52091
30.57508	51419
30.58320	55355
30.59133	52983
30.59945	55106
30.60757	52443
30.61570	55674
30.62382	53785
30.63195	52802
30.64007	52145
30.64818	51985
30.65632	53222
30.66443	47550
30.67257	46926
30.68068	45484
30.68880	46134
30.69693	47859
30.70505	55512
30.71317	51885
30.72130	43772
30.72942	52466
30.73755	50918
30.74567	51610
30.75378	54786
30.76192	47932
30.77003	51921
30.77817	54563
30.78628	69014
30.79440	86319
30.80253	109268
30.81065	130513
30.81878	138930
30.82690	129962
30.83502	104929
30.84315	92984
30.85127	78703
30.85938	67857
30.86752	63310
30.87563	64801
30.88377	65203
30.89188	62215
30.90000	61122
30.90813	59105
30.91625	56734
30.92438	58982
30.93250	54158
30.94062	52646
30.94875	48943
30.95687	51373
30.96498	55058
30.97312	50325
30.98123	49373
30.98937	45803
30.99748	49808
31.00560	47523
31.01373	51175
31.02185	45261
31.02998	49455
31.03810	52952
31.04622	54956
31.05435	53470
31.06247	49851
31.07060	52263
31.07872	55404
31.08683	60805
31.09497	62290
31.10308	77009
31.11120	74479
31.11933	72656
31.12745	67877
31.13558	65665
31.14370	61625
31.15182	64383
31.15995	62556
31.16807	63395
31.17620	70205
31.18432	74986
31.19243	83533
31.20057	98859
31.20868	122022
31.21682	149309
31.22493	159589
31.23305	162298
31.24118	150729
31.24930	139096
31.25742	118529
31.26555	97734
31.27367	83771
31.28180	73646
31.28992	62877
31.29803	61936
31.30617	61717
31.31428	64949
31.32242	66826
31.33053	64376
31.33865	63838
31.34678	60953
31.35490	63478
31.36302	64008
31.37115	61418
31.37927	64010
31.38740	63109
31.39552	64652
31.40363	60301
31.41177	62900
31.41988	66526
31.42802	71390
31.43613	64586
31.44425	64121
31.45238	62406
31.46050	62148
31.46863	60181
31.47675	67488
31.48487	66882
31.49300	65938
31.50112	67711
31.50923	69275
31.51737	71696
31.52548	70021
31.53362	67109
31.54173	65518
31.54985	67913
31.55798	70657
31.56610	67486
31.57423	68879
31.58235	68537
31.59047	71048
31.59860	63214
31.60672	62299
31.61483	64253
31.62297	59977
31.63108	57199
31.63922	58985
31.64733	59110
31.65545	58766
31.66358	60489
31.67170	58497
31.67983	62140
31.68795	59798
31.69607	59067
31.70420	58669
31.71232	56913
31.72045	53308
31.72857	60817
31.73668	55054
31.74482	55206
31.75293	52940
31.76105	50329
31.76918	51075
31.77730	55354
31.78543	51804
31.79355	53999
31.80167	58298
31.80980	58454
31.81792	59173
31.82605	59078
31.83417	56045
31.84228	60091
31.85042	58020
31.85853	55940
31.86667	56965
31.87478	57342
31.88290	60561
31.89103	62370
31.89915	61810
31.90727	62426
31.91540	60904
31.92352	69118
31.93165	71275
31.93977	74492
31.94788	73632
31.95602	85692
31.96413	84924
31.97227	91047
31.98038	90658
31.98850	98965
31.99663	98937
32.00475	93760
32.01287	97419
32.02100	98774
32.02912	93866
32.03725	97266
32.04537	90512
32.05348	84577
32.06162	87648
32.06973	80657
32.07787	81394
32.08598	78775
32.09410	83058
32.10223	77101
32.11035	69118
32.11848	72989
32.12660	69373
32.13472	65212
32.14285	66822
32.15097	64881
32.15908	61993
32.16722	66176
32.17533	62158
32.18347	60416
32.19158	63068
32.19970	62211
32.20783	57692
32.21595	56444
32.22408	63714
32.23220	59611
32.24032	59058
32.24845	62714
32.25657	58414
32.26470	67752
32.27282	60478
32.28093	59995
32.28907	63065
32.29718	63443
32.30530	62262
32.31343	59852
32.32155	56534
32.32968	56891
32.33780	58540
32.34592	66015
32.35405	60484
32.36217	64049
32.37030	60583
32.37842	58005
32.38653	62083
32.39467	58398
32.40278	56956
32.41090	55792
32.41903	55045
32.42715	57757
32.43528	58302
32.44340	53043
32.45152	49990
32.45965	50242
32.46777	54002
32.47590	51758
32.48402	52158
32.49213	53956
32.50027	51322
32.50838	50432
32.51652	48158
32.52463	52858
32.53275	52994
32.54088	52463
32.54900	49327
32.55712	50881
32.56525	49314
32.57337	49432
32.58150	53670
32.58962	51985
32.59773	48346
32.60587	47543
32.61398	48358
32.62212	52350
32.63023	51918
32.63835	49605
32.64648	53790
32.65460	59180
32.66273	65867
32.67085	67641
32.67897	68809
32.68710	70844
32.69522	67540
32.70333	71050
32.71147	58772
32.71958	59353
32.72772	64475
32.73583	59285
32.74395	58606
32.75208	54490
32.76020	57521
32.76833	50086
32.77645	48963
32.78457	49932
32.79270	51518
32.80082	48143
32.80893	48959
32.81707	54663
32.82518	52880
32.83332	55351
32.84143	50870
32.84955	51329
32.85768	50061
32.86580	52292
32.87393	56037
32.88205	57423
32.89017	58674
32.89830	59798
32.90642	61756
32.91455	69070
32.92267	67270
32.93078	62921
32.93892	65120
32.94703	58967
32.95515	56354
32.96328	59698
32.97140	57470
32.97953	64985
32.98765	71142
32.99577	85467
33.00390	95621
33.01202	95847
33.02015	96486
33.02827	80951
33.03638	76087
33.04452	72050
33.05263	66943
33.06075	59439
33.06888	68027
33.07700	69762
33.08513	70553
33.09325	77267
33.10137	83489
33.10950	89536
33.11762	93811
33.12575	91753
33.13387	95555
33.14198	83662
33.15012	78605
33.15823	71302
33.16637	65929
33.17448	62351
33.18260	56776
33.19073	57236
33.19885	60534
33.20697	57694
33.21510	60456
33.22322	59929
33.23135	54747
33.23947	58304
33.24758	66186
33.25572	59190
33.26383	57980
33.27197	57099
33.28008	57014
33.28820	54163
33.29633	57385
33.30445	53098
33.31258	63309
33.32070	59337
33.32882	59193
33.33695	57150
33.34507	57779
33.35318	61758
33.36132	63755
33.36943	63439
33.37757	62384
33.38568	64168
33.39380	58412
33.40193	58399
33.41005	54005
33.41818	55259
33.42630	51976
33.43442	51545
33.44255	53543
33.45067	54540
33.45878	55466
33.46692	53138
33.47503	56620
33.48317	52860
33.49128	51235
33.49940	54048
33.50753	62337
33.51565	55606
33.52378	57568
33.53190	59017
33.54002	54747
33.54815	61820
33.55627	58190
33.56440	56822
33.57252	60293
33.58063	55881
33.58877	54970
33.59688	51731
33.60500	53016
33.61313	53628
33.62125	53314
33.62938	56835
33.63750	54984
33.64562	52099
33.65375	53413
33.66187	59976
33.67000	60175
33.67812	56134
33.68623	59052
33.69437	57440
33.70248	50807
33.71062	53274
33.71873	51932
33.72685	49073
33.73498	48787
33.74310	54151
33.75122	51880
33.75935	51969
33.76747	51326
33.77560	48738
33.78372	49325
33.79183	52442
33.79997	52606
33.80808	48881
33.81622	45160
33.82433	53157
33.83245	51373
33.84058	56023
33.84870	54349
33.85682	54874
33.86495	53685
33.87307	57045
33.88120	53046
33.88932	55822
33.89743	53479
33.90557	56240
33.91368	57637
33.92182	58323
33.92993	55257
33.93805	54125
33.94618	57751
33.95430	58793
33.96243	53913
33.97055	54740
33.97867	54801
33.98680	57560
33.99492	52908
34.00303	52482
34.01117	49399
34.01928	52389
34.02742	51080
34.03553	52620
34.04365	56030
34.05178	52796
34.05990	55365
34.06803	61556
34.07615	60592
34.08427	55870
34.09240	55580
34.10052	55592
34.10863	50533
34.11677	51852
34.12488	49325
34.13302	51427
34.14113	51982
34.14925	56856
34.15738	53024
34.16550	56800
34.17363	55908
34.18175	50313
34.18987	51432
34.19800	55977
34.20612	60503
34.21425	55956
34.22237	57947
34.23048	53512
34.23862	54092
34.24673	53197
34.25485	56134
34.26298	49861
34.27110	54359
34.27923	47983
34.28735	52349
34.29547	53573
34.30360	59284
34.31172	56429
34.31985	50884
34.32797	55892
34.33608	57721
34.34422	55626
34.35233	52768
34.36047	56845
34.36858	56572
34.37670	54334
34.38483	51763
34.39295	57120
34.40107	53560
34.40920	55114
34.41732	55346
34.42545	50649
34.43357	52068
34.44168	54798
34.44982	53655
34.45793	50229
34.46607	50476
34.47418	55708
34.48230	51750
34.49043	53423
34.49855	52227
34.50668	55129
34.51480	59518
34.52292	64046
34.53105	68730
34.53917	73872
34.54728	80820
34.55542	89310
34.56353	96813
34.57167	95383
34.57978	98232
34.58790	89574
34.59603	91068
34.60415	85544
34.61228	78877
34.62040	74724
34.62852	74854
34.63665	71355
34.64477	73170
34.65288	68129
34.66102	63748
34.66913	65598
34.67727	63623
34.68538	64473
34.69350	62120
34.70163	61535
34.70975	56561
34.71788	61670
34.72600	59779
34.73412	65474
34.74225	59283
34.75037	58211
34.75850	59415
34.76662	65360
34.77473	62071
34.78287	62659
34.79098	64044
34.79910	62811
34.80723	61551
34.81535	56878
34.82348	56758
34.83160	59896
34.83972	56744
34.84785	58889
34.85597	61420
34.86410	61841
34.87222	59837
34.88033	60313
34.88847	58508
34.89658	55965
34.90470	61184
34.91283	58086
34.92095	57822
34.92908	56661
34.93720	60209
34.94532	62070
34.95345	62809
34.96157	64688
34.96970	67911
34.97782	68962
34.98593	66622
34.99407	68754
35.00218	68849
35.01032	67383
35.01843	62207
35.02655	63597
35.03468	61057
35.04280	64795
35.05092	60275
35.05905	64049
35.06717	60107
35.07530	63092
35.08342	59452
35.09153	61421
35.09967	58733
35.10778	56355
35.11592	56932
35.12403	59218
35.13215	55553
35.14028	59607
35.14840	60389
35.15653	65279
35.16465	57471
35.17277	60696
35.18090	62008
35.18902	61258
35.19713	61326
35.20527	57557
35.21338	58795
35.22152	56317
35.22963	56470
35.23775	58436
35.24588	57700
35.25400	56281
35.26213	59514
35.27025	56248
35.27837	60795
35.28650	62460
35.29462	59154
35.30273	57063
35.31087	60943
35.31898	58119
35.32712	56786
35.33523	60374
35.34335	63473
35.35148	57859
35.35960	61926
35.36773	58405
35.37585	63903
35.38397	55673
35.39210	62703
35.40022	60932
35.40835	67147
35.41647	68330
35.42458	76995
35.43272	78852
35.44083	75872
35.44895	71811
35.45708	73147
35.46520	74604
35.47333	70227
35.48145	67002
35.48957	66881
35.49770	65303
35.50582	65628
35.51395	65165
35.52207	58188
35.53018	62900
35.53832	59453
35.54643	58601
35.55457	54451
35.56268	57020
35.57080	60852
35.57893	62033
35.58705	62123
35.59517	58242
35.60330	56692
35.61142	59759
35.61955	58769
35.62767	62189
35.63578	57904
35.64392	50900
35.65203	57686
35.66017	57146
35.66828	61689
35.67640	59640
35.68453	61179
35.69265	63843
35.70077	60569
35.70890	62156
35.71702	60967
35.72515	63229
35.73327	67053
35.74138	69695
35.74952	74034
35.75763	71593
35.76577	73907
35.77388	77591
35.78200	77837
35.79013	74282
35.79825	73000
35.80638	64133
35.81450	64544
35.82262	63472
35.83075	63136
35.83887	61270
35.84698	63536
35.85512	63127
35.86323	63610
35.87137	65203
35.87948	60263
35.88760	58277
35.89573	58251
35.90385	60732
35.91198	60171
35.92010	62110
35.92822	61842
35.93635	60773
35.94447	61174
35.95258	63133
35.96072	56089
35.96883	59883
35.97697	60235
35.98508	60549
35.99320	61102
36.00133	60641
36.00945	65674
36.01758	67674
36.02570	67154
36.03382	73237
36.04195	71271
36.05007	73352
36.05820	67208
36.06632	65478
36.07443	59985
36.08257	67442
36.09068	61286
36.09880	63429
36.10693	59285
36.11505	62961
36.12318	68468
36.13130	62036
36.13942	69762
36.14755	70101
36.15567	70575
36.16380	64598
36.17192	69479
36.18003	62724
36.18817	66824
36.19628	65503
36.20442	65060
36.21253	61858
36.22065	63063
36.22878	59911
36.23690	62704
36.24502	63298
36.25315	64979
36.26127	59943
36.26940	63982
36.27752	62012
36.28563	66569
36.29377	64099
36.30188	70892
36.31002	72987
36.31813	80805
36.32625	77424
36.33438	83567
36.34250	78175
36.35062	70836
36.35875	68401
36.36687	68315
36.37500	65455
36.38312	66405
36.39123	64329
36.39937	68246
36.40748	63623
36.41562	64185
36.42373	64531
36.43185	69299
36.43998	62361
36.44810	64812
36.45623	62449
36.46435	63056
36.47247	66714
36.48060	60464
36.48872	66231
36.49683	60637
36.50497	66723
36.51308	59494
36.52122	65507
36.52933	66059
36.53745	57606
36.54558	64961
36.55370	62800
36.56183	62986
36.56995	60175
36.57807	60797
36.58620	63582
36.59432	65247
36.60245	58392
36.61057	70541
36.61868	69230
36.62682	68951
36.63493	61714
36.64305	67768
36.65118	65005
36.65930	67074
36.66743	65294
36.67555	68323
36.68367	67161
36.69180	65828
36.69992	69980
36.70805	69101
36.71617	66945
36.72428	69987
36.73242	70305
36.74053	69651
36.74865	67247
36.75678	68598
36.76490	70062
36.77303	67838
36.78115	71444
36.78927	67686
36.79740	66382
36.80552	68041
36.81365	67471
36.82177	67169
36.82988	69104
36.83802	61505
36.84613	61894
36.85427	68586
36.86238	69894
36.87050	65375
36.87863	67694
36.88675	65325
36.89487	66270
36.90300	61642
36.91112	64409
36.91925	64505
36.92737	65594
36.93548	70066
36.94362	72967
36.95173	77242
36.95987	85928
36.96798	89230
36.97610	89326
36.98423	87368
36.99235	78272
37.00048	80365
37.00860	74584
37.01672	73321
37.02485	78096
37.03297	69573
37.04108	70023
37.04922	68193
37.05733	68322
37.06547	67008
37.07358	72561
37.08170	74692
37.08983	77662
37.09795	74461
37.10608	76233
37.11420	77292
37.12232	76446
37.13045	72776
37.13857	74708
37.14668	71041
37.15482	73915
37.16293	71157
37.17107	70501
37.17918	73756
37.18730	73227
37.19543	77570
37.20355	66717
37.21168	70964
37.21980	72806
37.22792	70655
37.23605	69442
37.24417	69844
37.25230	66893
37.26042	70323
37.26853	67700
37.27667	67527
37.28478	70866
37.29290	69413
37.30103	69466
37.30915	67875
37.31728	70764
37.32540	74865
37.33352	77443
37.34165	84874
37.34977	92084
37.35790	89389
37.36602	96910
37.37413	100073
37.38227	94406
37.39038	93320
37.39850	91381
37.40663	92693
37.41475	87336
37.42288	84561
37.43100	85533
37.43912	85832
37.44725	89531
37.45537	89269
37.46350	83770
37.47162	85231
37.47973	78661
37.48787	82240
