Z:\data\JTB-E02\BACandBLUE\JTB-E02-195-11.D Wed Feb 20 14:16:06 2019
Start of data points
2.09517,177174
2.10328,173361
2.11142,180127
2.11953,184005
2.12765,186124
2.13578,187905
2.14390,179994
2.15202,184347
2.16015,178548
2.16827,187359
2.17640,178743
2.18452,173574
2.19263,159581
2.20077,164641
2.20888,157216
2.21702,154572
2.22513,147083
2.23325,150026
2.24138,140502
2.24950,134462
2.25763,311084
2.26575,1653127
2.27387,2860522
2.28200,3061932
2.29012,1834656
2.29823,1025082
2.30637,769017
2.31448,651241
2.32262,579934
2.33073,521972
2.33885,465343
2.34698,427196
2.35510,381891
2.36323,361079
2.37135,353483
2.37947,332552
2.38760,325206
2.39572,309121
2.40383,292176
2.41197,313711
2.42008,327918
2.42822,308701
2.43633,283526
2.44445,263037
2.45258,270851
2.46070,250475
2.46883,239380
2.47695,234279
2.48507,230949
2.49320,241042
2.50132,235925
2.50945,226785
2.51757,222313
2.52568,215073
2.53382,214401
2.54193,223996
2.55005,223176
2.55818,216478
2.56630,215090
2.57443,200487
2.58255,200307
2.59067,200249
2.59880,200339
2.60692,230933
2.61505,262973
2.62317,245565
2.63128,225001
2.63942,219008
2.64753,210122
2.65567,205727
2.66378,199287
2.67190,198084
2.68003,191046
2.68815,186300
2.69627,176336
2.70440,180485
2.71252,178803
2.72065,175375
2.72877,180089
2.73688,164893
2.74502,172376
2.75313,169379
2.76127,170712
2.76938,171022
2.77750,162409
2.78563,160214
2.79375,171441
2.80187,161650
2.81000,170184
2.81812,165178
2.82625,168802
2.83437,158900
2.84248,156806
2.85062,167216
2.85873,163977
2.86687,153953
2.87498,171368
2.88310,157296
2.89123,158971
2.89935,156525
2.90748,153251
2.91560,146899
2.92372,148718
2.93185,154568
2.93997,151480
2.94808,144838
2.95622,147474
2.96433,155109
2.97247,153047
2.98058,145084
2.98870,144667
2.99683,143039
3.00495,153256
3.01308,150500
3.02120,143155
3.02932,145990
3.03745,152406
3.04557,139450
3.05370,136595
3.06182,139730
3.06993,144792
3.07807,138466
3.08618,143018
3.09430,143146
3.10243,168483
3.11055,181767
3.11868,187969
3.12680,173383
3.13492,161591
3.14305,149939
3.15117,144206
3.15930,142725
3.16742,139059
3.17553,139657
3.18367,142029
3.19178,132493
3.19990,138847
3.20803,131167
3.21615,124483
3.22428,133080
3.23240,128395
3.24052,125925
3.24865,133824
3.25677,129469
3.26490,123960
3.27302,137750
3.28113,213551
3.28927,722260
3.29738,2384893
3.30552,5323541
3.31363,7784530
3.32175,7766506
3.32988,6202659
3.33800,4665105
3.34612,3605158
3.35425,2871643
3.36237,2402530
3.37050,2037997
3.37862,1782511
3.38673,1571135
3.39487,1391253
3.40298,1266768
3.41112,1153058
3.41923,1064573
3.42735,988917
3.43548,913664
3.44360,859730
3.45172,815573
3.45985,776647
3.46797,754346
3.47610,725286
3.48422,695360
3.49233,671135
3.50047,636550
3.50858,613489
3.51672,596375
3.52483,589691
3.53295,558892
3.54108,554245
3.54920,527868
3.55733,504505
3.56545,499692
3.57357,489638
3.58170,494713
3.58982,482147
3.59793,484400
3.60607,459275
3.61418,465810
3.62232,445383
3.63043,453526
3.63855,443506
3.64668,428261
3.65480,424531
3.66293,400781
3.67105,395522
3.67917,403037
3.68730,405194
3.69542,399881
3.70355,396547
3.71167,397433
3.71978,388794
3.72792,383938
3.73603,378101
3.74415,373546
3.75228,370147
3.76040,365218
3.76853,352817
3.77665,356110
3.78477,349127
3.79290,343778
3.80102,350660
3.80915,353321
3.81727,333967
3.82538,341376
3.83352,337713
3.84163,341536
3.84975,345469
3.85788,324187
3.86600,326521
3.87413,314038
3.88225,318101
3.89037,315678
3.89850,322964
3.90662,311482
3.91475,307309
3.92287,308364
3.93098,306626
3.93912,314933
3.94723,300595
3.95537,306658
3.96348,285120
3.97160,297285
3.97973,299329
3.98785,297640
3.99597,289123
4.00410,285013
4.01222,281454
4.02035,280212
4.02847,289312
4.03658,281236
4.04472,280724
4.05283,280833
4.06097,287008
4.06908,279468
4.07720,280002
4.08533,277771
4.09345,278106
4.10158,276448
4.10970,278381
4.11782,273839
4.12595,270428
4.13407,291677
4.14218,320900
4.15032,356665
4.15843,346948
4.16657,327362
4.17468,301105
4.18280,289837
4.19093,283771
4.19905,289709
4.20718,548584
4.21530,1551739
4.22342,3904915
4.23155,6684405
4.23967,7678285
4.24778,6286222
4.25592,4216531
4.26403,2874759
4.27217,2027987
4.28028,1582183
4.28840,1285826
4.29653,1060606
4.30465,901045
4.31278,777231
4.32090,719525
4.32902,621457
4.33715,589832
4.34527,539624
4.35340,505297
4.36152,485515
4.36963,462686
4.37777,437512
4.38588,428012
4.39400,409158
4.40213,384215
4.41025,380405
4.41838,348066
4.42650,348426
4.43462,335206
4.44275,340303
4.45087,329966
4.45900,326892
4.46712,322503
4.47523,309969
4.48337,309935
4.49148,303928
4.49960,293623
4.50773,290058
4.51585,301290
4.52398,279022
4.53210,285410
4.54022,278576
4.54835,274829
4.55647,279238
4.56460,268947
4.57272,275496
4.58083,263420
4.58897,273654
4.59708,260160
4.60522,258382
4.61333,261431
4.62145,262802
4.62958,255177
4.63770,258790
4.64582,252895
4.65395,253900
4.66207,252352
4.67020,250474
4.67832,248444
4.68643,239851
4.69457,245161
4.70268,246223
4.71082,241310
4.71893,238717
4.72705,238428
4.73518,230952
4.74330,241536
4.75143,244716
4.75955,236754
4.76767,239974
4.77580,230841
4.78392,234550
4.79203,232221
4.80017,231767
4.80828,229829
4.81642,229224
4.82453,222894
4.83265,223340
4.84078,222917
4.84890,227355
4.85703,225057
4.86515,241819
4.87327,232343
4.88140,232167
4.88952,231054
4.89763,226245
4.90577,222915
4.91388,216975
4.92202,229930
4.93013,263023
4.93825,410853
4.94638,888882
4.95450,1766614
4.96263,2861044
4.97075,3452483
4.97887,3371631
4.98700,2851974
4.99512,2181607
5.00325,1715793
5.01137,1385269
5.01948,1167989
5.02762,1023016
5.03573,929297
5.04385,837373
5.05198,778569
5.06010,722491
5.06823,684266
5.07635,665091
5.08447,630304
5.09260,603453
5.10072,584006
5.10885,573687
5.11697,562446
5.12508,534489
5.13322,535716
5.14133,509279
5.14947,512306
5.15758,502578
5.16570,486299
5.17383,477642
5.18195,474738
5.19007,469015
5.19820,458623
5.20632,463090
5.21445,452216
5.22257,455311
5.23068,440292
5.23882,456953
5.24693,447246
5.25507,443849
5.26318,431924
5.27130,416461
5.27943,399729
5.28755,393354
5.29567,402021
5.30380,384454
5.31192,370675
5.32005,385283
5.32817,381598
5.33628,387349
5.34442,369671
5.35253,361679
5.36067,365961
5.36878,362406
5.37690,368522
5.38503,354993
5.39315,358704
5.40128,343704
5.40940,347196
5.41752,344320
5.42565,339619
5.43377,336572
5.44188,330686
5.45002,338999
5.45813,334844
5.46627,342459
5.47438,333777
5.48250,321859
5.49063,322778
5.49875,334465
5.50688,327385
5.51500,316877
5.52312,322992
5.53125,315487
5.53937,306956
5.54748,319443
5.55562,319017
5.56373,310625
5.57187,333903
5.57998,355853
5.58810,387491
5.59623,404929
5.60435,384661
5.61248,358096
5.62060,349098
5.62872,336993
5.63685,345627
5.64497,343920
5.65310,329834
5.66122,313418
5.66933,319894
5.67747,324583
5.68558,328234
5.69370,323014
5.70183,329261
5.70995,319450
5.71808,320644
5.72620,305839
5.73432,291272
5.74245,296707
5.75057,301815
5.75870,291925
5.76682,298893
5.77493,299973
5.78307,281252
5.79118,282292
5.79932,292555
5.80743,275785
5.81555,278484
5.82368,268943
5.83180,279854
5.83992,280558
5.84805,271079
5.85617,281595
5.86430,283300
5.87242,274812
5.88053,269667
5.88867,274539
5.89678,274472
5.90492,275196
5.91303,258736
5.92115,220884
5.92928,202019
5.93740,197919
5.94553,195237
5.95365,202678
5.96177,207535
5.96990,212249
5.97802,240467
5.98613,233632
5.99427,231141
6.00238,234067
6.01052,216254
6.01863,208844
6.02675,207072
6.03488,196368
6.04300,201333
6.05113,195428
6.05925,198337
6.06737,190607
6.07550,191090
6.08362,191964
6.09173,201484
6.09987,188023
6.10798,192573
6.11612,191437
6.12423,194860
6.13235,192615
6.14048,197033
6.14860,204281
6.15673,206946
6.16485,212445
6.17297,212694
6.18110,219319
6.18922,230803
6.19735,221575
6.20547,227923
6.21358,225516
6.22172,238988
6.22983,238630
6.23795,238767
6.24608,245795
6.25420,247015
6.26233,244403
6.27045,239530
6.27857,243062
6.28670,260890
6.29482,252849
6.30295,255809
6.31107,270942
6.31918,262916
6.32732,264586
6.33543,265838
6.34355,276799
6.35168,284375
6.35980,281984
6.36793,273563
6.37605,272110
6.38417,278391
6.39230,286591
6.40042,284154
6.40855,291620
6.41667,292337
6.42478,256929
6.43292,240354
6.44103,226790
6.44917,227133
6.45728,231454
6.46540,213271
6.47353,207649
6.48165,208940
6.48977,211292
6.49790,208491
6.50602,198509
6.51415,206299
6.52227,200869
6.53038,199622
6.53852,188990
6.54663,188795
6.55477,192200
6.56288,183888
6.57100,192419
6.57913,182162
6.58725,180544
6.59538,176965
6.60350,181475
6.61162,185150
6.61975,182126
6.62787,178194
6.63598,180513
6.64412,182857
6.65223,179203
6.66037,175815
6.66848,180266
6.67660,187111
6.68473,185239
6.69285,177994
6.70098,188681
6.70910,177906
6.71722,168337
6.72535,177750
6.73347,169165
6.74158,168774
6.74972,171483
6.75783,168466
6.76597,164949
6.77408,166991
6.78220,168499
6.79033,163811
6.79845,162866
6.80658,171652
6.81470,160931
6.82282,155370
6.83095,168322
6.83907,162340
6.84720,162923
6.85532,154403
6.86343,139072
6.87157,122464
6.87968,106101
6.88780,108617
6.89593,120123
6.90405,121451
6.91218,101515
6.92030,97192
6.92842,100316
6.93655,96928
6.94467,92545
6.95280,92330
6.96092,87997
6.96903,90681
6.97717,88906
6.98528,93371
6.99342,97907
7.00153,89882
7.00965,96069
7.01778,88251
7.02590,91263
7.03402,88630
7.04215,88016
7.05027,94771
7.05840,92306
7.06652,88773
7.07463,91748
7.08277,83723
7.09088,91690
7.09902,87583
7.10713,92208
7.11525,90369
7.12338,90436
7.13150,91164
7.13962,92235
7.14775,90622
7.15587,88391
7.16400,81622
7.17212,86854
7.18023,85659
7.18837,85581
7.19648,86567
7.20462,85902
7.21273,95244
7.22085,82259
7.22898,80383
7.23710,86085
7.24523,86181
7.25335,86027
7.26147,89861
7.26960,93613
7.27772,85796
7.28583,83808
7.29397,85722
7.30208,82935
7.31022,84467
7.31833,82291
7.32645,82065
7.33458,83119
7.34270,86260
7.35083,88633
7.35895,88130
7.36707,82135
7.37520,89525
7.38332,85272
7.39143,85799
7.39957,84294
7.40768,86569
7.41582,88156
7.42393,85689
7.43205,81770
7.44018,91133
7.44830,91749
7.45643,88267
7.46455,93027
7.47267,90756
7.48080,91897
7.48892,94899
7.49705,93291
7.50517,92461
7.51328,88561
7.52142,84905
7.52953,81333
7.53765,87967
7.54578,86281
7.55390,81485
7.56203,87703
7.57015,85634
7.57827,87145
7.58640,93118
7.59452,81842
7.60265,83042
7.61077,79924
7.61888,83174
7.62702,82412
7.63513,82853
7.64327,85898
7.65138,85438
7.65950,81496
7.66763,80914
7.67575,81487
7.68387,77242
7.69200,78759
7.70012,84613
7.70825,79981
7.71637,77358
7.72448,76518
7.73262,82357
7.74073,79830
7.74887,76695
7.75698,81413
7.76510,82820
7.77323,80721
7.78135,90020
7.78947,77728
7.79760,81412
7.80572,80319
7.81385,79469
7.82197,78672
7.83008,76393
7.83822,80633
7.84633,77278
7.85447,77008
7.86258,73317
7.87070,73388
7.87883,71362
7.88695,68975
7.89508,80148
7.90320,69118
7.91132,76205
7.91945,76169
7.92757,70743
7.93568,66351
7.94382,75149
7.95193,74545
7.96007,68225
7.96818,70401
7.97630,81385
7.98443,85223
7.99255,83833
8.00068,87020
8.00880,86456
8.01692,82550
8.02505,76335
8.03317,73294
8.04130,69914
8.04942,80913
8.05753,75112
8.06567,75005
8.07378,74265
8.08190,72969
8.09003,87109
8.09815,72327
8.10628,73954
8.11440,73642
8.12252,74996
8.13065,72504
8.13877,76729
8.14690,76935
8.15502,78155
8.16313,81520
8.17127,78425
8.17938,81301
8.18750,94987
8.19563,91407
8.20375,88680
8.21188,81520
8.22000,75003
8.22812,79643
8.23625,77187
8.24437,74885
8.25250,77635
8.26062,81568
8.26873,76408
8.27687,69511
8.28498,73298
8.29312,75063
8.30123,78705
8.30935,75470
8.31748,74287
8.32560,73971
8.33372,75436
8.34185,80427
8.34997,87365
8.35810,100010
8.36622,111972
8.37433,111863
8.38247,105528
8.39058,100941
8.39872,86888
8.40683,83737
8.41495,80148
8.42308,81787
8.43120,87604
8.43933,84670
8.44745,78774
8.45557,79421
8.46370,77266
8.47182,74641
8.47993,79051
8.48807,75970
8.49618,84965
8.50432,93775
8.51243,95349
8.52055,93329
8.52868,85766
8.53680,77672
8.54493,84722
8.55305,82191
8.56117,74597
8.56930,76427
8.57742,85368
8.58553,78624
8.59367,77312
8.60178,78365
8.60992,72781
8.61803,72134
8.62615,75351
8.63428,81628
8.64240,74396
8.65053,78129
8.65865,73606
8.66677,79662
8.67490,73437
8.68302,75970
8.69115,76282
8.69927,72162
8.70738,71944
8.71552,77278
8.72363,71825
8.73175,74772
8.73988,73184
8.74800,72274
8.75613,81080
8.76425,92239
8.77237,149219
8.78050,305187
8.78862,628604
8.79675,1037050
8.80487,1427680
8.81298,1575040
8.82112,1432644
8.82923,1163592
8.83735,859402
8.84548,655093
8.85360,534521
8.86173,454418
8.86985,401598
8.87797,368487
8.88610,341836
8.89422,323239
8.90235,293580
8.91047,285303
8.91858,272053
8.92672,270027
8.93483,260415
8.94297,245432
8.95108,245198
8.95920,243246
8.96733,230266
8.97545,230076
8.98357,215572
8.99170,221632
8.99982,227819
9.00795,214184
9.01607,208031
9.02418,206329
9.03232,205584
9.04043,202482
9.04857,196117
9.05668,204759
9.06480,193586
9.07293,195207
9.08105,190893
9.08918,183241
9.09730,177538
9.10542,174190
9.11355,178037
9.12167,186523
9.12978,180305
9.13792,183397
9.14603,180584
9.15417,172189
9.16228,172349
9.17040,170783
9.17853,174470
9.18665,169265
9.19478,167655
9.20290,156645
9.21102,168046
9.21915,172875
9.22727,158529
9.23538,154560
9.24352,157888
9.25163,158125
9.25977,155307
9.26788,159048
9.27600,152784
9.28413,151754
9.29225,150019
9.30038,143892
9.30850,149979
9.31662,143124
9.32475,143315
9.33287,152880
9.34100,145514
9.34912,150065
9.35723,148900
9.36537,139605
9.37348,142964
9.38160,136969
9.38973,139725
9.39785,134514
9.40598,139707
9.41410,130805
9.42222,133068
9.43035,127366
9.43847,122810
9.44660,121193
9.45472,127053
9.46283,126441
9.47097,129278
9.47908,123257
9.48722,127004
9.49533,118522
9.50345,120910
9.51158,122802
9.51970,122807
9.52782,121375
9.53595,128288
9.54407,123588
9.55220,117987
9.56032,124689
9.56843,115549
9.57657,98664
9.58468,92896
9.59282,84627
9.60093,93047
9.60905,97515
9.61718,96457
9.62530,95105
9.63342,91064
9.64155,83672
9.64967,84719
9.65780,79624
9.66592,79435
9.67403,74788
9.68217,73956
9.69028,68771
9.69842,70643
9.70653,75293
9.71465,67833
9.72278,73131
9.73090,70351
9.73903,65460
9.74715,65491
9.75527,68655
9.76340,60758
9.77152,66503
9.77963,63778
9.78777,72483
9.79588,64049
9.80402,69341
9.81213,68820
9.82025,69374
9.82838,65900
9.83650,69036
9.84463,67899
9.85275,69078
9.86087,64857
9.86900,70179
9.87712,71182
9.88523,66124
9.89337,66077
9.90148,68430
9.90962,69779
9.91773,65937
9.92585,65500
9.93398,63489
9.94210,58838
9.95023,60869
9.95835,65564
9.96647,65253
9.97460,70231
9.98272,72245
9.99085,83195
9.99897,92106
10.00708,96759
10.01522,95550
10.02333,96300
10.03145,91879
10.03958,98540
10.04770,92260
10.05583,93800
10.06395,88161
10.07207,91183
10.08020,85493
10.08832,87344
10.09645,77631
10.10457,79489
10.11268,74986
10.12082,75314
10.12893,78458
10.13707,75735
10.14518,72289
10.15330,69154
10.16143,73178
10.16955,71795
10.17767,75514
10.18580,78037
10.19392,70217
10.20205,73583
10.21017,65878
10.21828,64934
10.22642,68018
10.23453,69239
10.24267,75106
10.25078,73869
10.25890,70664
10.26703,70462
10.27515,73141
10.28328,70456
10.29140,66880
10.29952,72150
10.30765,71153
10.31577,78155
10.32388,76638
10.33202,77051
10.34013,77428
10.34827,76002
10.35638,79708
10.36450,77114
10.37263,75354
10.38075,70608
10.38888,72008
10.39700,76653
10.40512,76439
10.41325,68651
10.42137,76057
10.42948,70830
10.43762,69445
10.44573,68929
10.45387,68951
10.46198,70135
10.47010,68708
10.47823,66001
10.48635,67142
10.49448,68423
10.50260,62929
10.51072,62739
10.51885,67829
10.52697,67700
10.53510,66044
10.54322,66051
10.55133,64521
10.55947,68770
10.56758,67721
10.57570,65445
10.58383,62207
10.59195,65583
10.60008,62949
10.60820,69499
10.61632,65653
10.62445,68134
10.63257,65034
10.64070,70742
10.64882,64274
10.65693,66631
10.66507,68214
10.67318,66016
10.68130,62842
10.68943,68682
10.69755,71188
10.70568,68983
10.71380,62378
10.72192,70739
10.73005,68765
10.73817,67866
10.74630,65120
10.75442,73049
10.76253,68930
10.77067,68314
10.77878,66103
10.78692,70576
10.79503,72840
10.80315,73292
10.81128,68637
10.81940,61696
10.82752,65308
10.83565,63668
10.84377,62124
10.85190,63186
10.86002,64825
10.86813,65979
10.87627,63824
10.88438,61474
10.89252,61839
10.90063,66935
10.90875,63024
10.91688,64697
10.92500,58432
10.93312,66987
10.94125,58187
10.94937,65139
10.95750,70868
10.96562,66016
10.97373,65413
10.98187,64070
10.98998,72414
10.99812,62262
11.00623,64069
11.01435,61380
11.02248,60673
11.03060,59055
11.03873,58984
11.04685,56457
11.05497,58232
11.06310,61114
11.07122,62014
11.07933,58869
11.08747,62670
11.09558,53615
11.10372,57195
11.11183,58437
11.11995,55743
11.12808,55241
11.13620,56090
11.14433,55510
11.15245,57191
11.16057,56965
11.16870,55409
11.17682,55393
11.18495,59940
11.19307,60163
11.20118,66963
11.20932,66771
11.21743,66871
11.22555,74226
11.23368,72041
11.24180,67917
11.24993,61940
11.25805,59211
11.26617,57474
11.27430,55668
11.28242,54344
11.29055,54907
11.29867,55767
11.30678,61674
11.31492,56774
11.32303,60853
11.33117,61007
11.33928,62711
11.34740,60196
11.35553,61719
11.36365,59448
11.37177,54684
11.37990,52123
11.38802,58469
11.39615,55989
11.40427,57245
11.41238,53999
11.42052,57687
11.42863,59763
11.43677,53406
11.44488,52204
11.45300,57273
11.46113,52631
11.46925,53450
11.47737,52769
11.48550,53013
11.49362,53019
11.50175,50906
11.50987,55574
11.51798,49822
11.52612,51756
11.53423,49567
11.54237,49910
11.55048,52760
11.55860,56810
11.56673,53146
11.57485,57253
11.58298,52047
11.59110,55673
11.59922,53871
11.60735,59869
11.61547,53860
11.62358,56295
11.63172,54099
11.63983,51322
11.64797,51907
11.65608,49945
11.66420,50198
11.67233,50171
11.68045,54271
11.68858,53432
11.69670,55910
11.70482,52869
11.71295,56146
11.72107,61088
11.72918,56237
11.73732,61345
11.74543,61821
11.75357,57891
11.76168,59049
11.76980,56349
11.77793,59594
11.78605,59568
11.79418,58750
11.80230,56920
11.81042,54395
11.81855,63152
11.82667,57550
11.83480,52946
11.84292,52621
11.85103,57523
11.85917,55150
11.86728,58389
11.87540,64698
11.88353,61776
11.89165,60091
11.89978,53815
11.90790,55584
11.91602,54978
11.92415,56380
11.93227,57140
11.94040,56083
11.94852,55491
11.95663,51792
11.96477,54932
11.97288,53208
11.98102,54181
11.98913,52992
11.99725,52707
12.00538,55099
12.01350,52961
12.02162,51560
12.02975,51740
12.03787,51637
12.04600,56504
12.05412,57198
12.06223,55537
12.07037,57799
12.07848,52449
12.08662,52902
12.09473,54365
12.10285,51963
12.11098,56219
12.11910,53544
12.12722,49845
12.13535,51122
12.14347,56236
12.15160,54555
12.15972,55061
12.16783,61353
12.17597,61597
12.18408,64177
12.19222,60706
12.20033,62872
12.20845,61251
12.21658,59632
12.22470,66141
12.23283,60257
12.24095,58095
12.24907,66080
12.25720,62195
12.26532,58473
12.27343,59752
12.28157,60792
12.28968,59386
12.29782,58402
12.30593,63563
12.31405,59343
12.32218,61408
12.33030,58438
12.33843,60103
12.34655,63280
12.35467,59813
12.36280,59328
12.37092,56825
12.37905,65685
12.38717,71113
12.39528,87120
12.40342,121764
12.41153,166591
12.41965,198016
12.42778,208840
12.43590,204213
12.44403,171441
12.45215,136901
12.46027,107890
12.46840,99015
12.47652,88878
12.48465,90776
12.49277,77991
12.50088,73649
12.50902,69809
12.51713,73193
12.52525,65136
12.53338,66993
12.54150,68926
12.54963,65976
12.55775,66836
12.56587,63569
12.57400,62928
12.58212,61882
12.59025,63561
12.59837,59490
12.60648,56440
12.61462,64599
12.62273,58446
12.63087,65857
12.63898,57460
12.64710,59338
12.65523,60916
12.66335,64485
12.67147,63450
12.67960,62032
12.68772,66493
12.69585,62703
12.70397,60540
12.71208,62513
12.72022,64574
12.72833,64496
12.73647,67424
12.74458,66572
12.75270,74062
12.76083,70486
12.76895,70420
12.77707,67760
12.78520,72175
12.79332,73186
12.80145,70713
12.80957,68190
12.81768,68158
12.82582,67872
12.83393,70278
12.84207,62388
12.85018,58614
12.85830,59103
12.86643,62878
12.87455,64311
12.88268,59423
12.89080,62358
12.89892,58117
12.90705,61894
12.91517,57994
12.92328,54440
12.93142,57652
12.93953,59815
12.94767,55639
12.95578,54736
12.96390,56333
12.97203,58182
12.98015,59723
12.98828,58012
12.99640,55928
13.00452,57279
13.01265,62098
13.02077,53667
13.02890,57352
13.03702,61779
13.04513,55410
13.05327,61002
13.06138,56741
13.06950,51451
13.07763,51221
13.08575,56854
13.09388,54443
13.10200,54006
13.11012,51365
13.11825,55846
13.12637,54072
13.13450,55680
13.14262,50121
13.15073,52189
13.15887,52871
13.16698,57365
13.17510,57085
13.18323,50939
13.19135,55455
13.19948,56820
13.20760,58127
13.21572,62859
13.22385,62443
13.23197,67852
13.24010,59581
13.24822,61459
13.25633,61002
13.26447,55881
13.27258,68345
13.28072,55074
13.28883,57852
13.29695,55822
13.30508,53532
13.31320,56857
13.32132,58218
13.32945,57002
13.33757,51383
13.34570,53278
13.35382,49716
13.36193,53322
13.37007,52844
13.37818,52080
13.38632,53880
13.39443,51312
13.40255,51361
13.41068,55610
13.41880,50725
13.42693,48915
13.43505,46619
13.44317,52172
13.45130,51046
13.45942,55417
13.46753,52919
13.47567,49007
13.48378,51419
13.49192,54787
13.50003,51942
13.50815,50993
13.51628,54737
13.52440,52670
13.53253,46971
13.54065,48648
13.54877,50128
13.55690,47791
13.56502,49678
13.57313,48102
13.58127,52407
13.58938,48643
13.59752,49953
13.60563,48918
13.61375,55643
13.62188,49984
13.63000,47064
13.63813,50467
13.64625,51103
13.65437,49002
13.66250,46836
13.67062,46321
13.67875,54906
13.68687,50161
13.69498,46760
13.70312,48018
13.71123,49396
13.71935,56759
13.72748,51062
13.73560,47657
13.74373,46596
13.75185,46043
13.75997,46539
13.76810,50893
13.77622,49569
13.78435,49027
13.79247,47199
13.80058,55555
13.80872,47887
13.81683,51572
13.82497,50442
13.83308,45549
13.84120,52089
13.84933,51483
13.85745,52738
13.86557,54103
13.87370,50127
13.88182,49631
13.88995,50961
13.89807,48254
13.90618,49661
13.91432,45731
13.92243,50548
13.93057,51072
13.93868,54341
13.94680,56729
13.95493,56510
13.96305,55926
13.97117,51700
13.97930,49725
13.98742,55308
13.99555,51587
14.00367,52518
14.01178,51912
14.01992,52270
14.02803,49884
14.03617,49410
14.04428,50720
14.05240,51212
14.06053,50482
14.06865,56766
14.07678,55331
14.08490,55549
14.09302,55997
14.10115,57862
14.10927,52637
14.11738,54490
14.12552,57027
14.13363,50027
14.14177,55899
14.14988,53045
14.15800,53780
14.16613,55319
14.17425,56868
14.18238,68333
14.19050,90125
14.19862,134850
14.20675,226929
14.21487,334231
14.22298,417308
14.23112,441141
14.23923,419625
14.24737,384086
14.25548,345483
14.26360,291384
14.27173,278037
14.27985,249809
14.28798,226990
14.29610,215539
14.30422,205653
14.31235,188889
14.32047,180996
14.32860,162563
14.33672,155343
14.34483,153365
14.35297,138197
14.36108,131231
14.36920,110271
14.37733,92388
14.38545,84598
14.39358,73944
14.40170,71161
14.40982,61592
14.41795,62101
14.42607,63117
14.43420,59525
14.44232,59441
14.45043,60464
14.45857,59911
14.46668,61878
14.47482,59449
14.48293,57963
14.49105,60149
14.49918,58510
14.50730,56975
14.51542,52351
14.52355,55003
14.53167,58508
14.53980,63550
14.54792,54508
14.55603,59274
14.56417,63686
14.57228,56895
14.58042,57687
14.58853,55540
14.59665,58478
14.60478,56108
14.61290,62054
14.62102,56359
14.62915,57206
14.63727,56485
14.64540,52411
14.65352,55921
14.66163,54187
14.66977,54002
14.67788,54082
14.68602,54425
14.69413,54512
14.70225,51386
14.71038,53044
14.71850,57671
14.72663,53797
14.73475,55107
14.74287,57946
14.75100,60388
14.75912,55527
14.76723,55226
14.77537,52990
14.78348,49527
14.79162,52952
14.79973,46272
14.80785,54190
14.81598,55636
14.82410,58524
14.83223,69181
14.84035,77795
14.84847,86988
14.85660,89499
14.86472,93543
14.87285,92084
14.88097,95492
14.88908,97078
14.89722,93660
14.90533,86728
14.91345,90746
14.92158,87364
14.92970,87737
14.93783,82075
14.94595,90132
14.95407,90132
14.96220,83747
14.97032,82725
14.97845,79045
14.98657,85621
14.99468,80139
15.00282,83506
15.01093,81397
15.01905,84482
15.02718,76284
15.03530,78837
15.04343,75922
15.05155,80218
15.05967,85201
15.06780,81517
15.07592,79011
15.08405,75985
15.09217,74675
15.10028,77941
15.10842,73665
15.11653,73871
15.12467,80891
15.13278,68617
15.14090,76625
15.14903,69149
15.15715,64718
15.16527,67371
15.17340,61709
15.18152,57677
15.18965,62317
15.19777,58314
15.20588,61933
15.21402,59366
15.22213,58284
15.23027,59516
15.23838,62155
15.24650,59713
15.25463,59506
15.26275,55343
15.27087,56424
15.27900,52050
15.28712,50839
15.29525,53454
15.30337,54184
15.31148,55259
15.31962,55096
15.32773,49285
15.33587,55430
15.34398,54677
15.35210,55344
15.36023,54267
15.36835,54877
15.37648,52747
15.38460,48021
15.39272,56268
15.40085,52492
15.40897,57632
15.41708,57147
15.42522,55052
15.43333,55011
15.44147,53277
15.44958,49048
15.45770,50092
15.46583,50382
15.47395,47627
15.48208,49460
15.49020,55315
15.49832,53630
15.50645,54236
15.51457,54684
15.52270,60384
15.53082,53669
15.53893,56431
15.54707,54089
15.55518,52166
15.56330,54256
15.57143,55030
15.57955,54410
15.58768,51062
15.59580,54356
15.60392,50404
15.61205,50028
15.62017,53378
15.62830,51691
15.63642,52028
15.64453,51488
15.65267,52114
15.66078,47621
15.66890,48164
15.67703,52757
15.68515,52529
15.69328,51968
15.70140,53616
15.70952,47944
15.71765,48591
15.72577,57580
15.73390,51744
15.74202,49232
15.75013,53245
15.75827,54089
15.76638,53416
15.77452,52680
15.78263,55592
15.79075,51679
15.79888,52002
15.80700,55511
15.81512,58053
15.82325,56412
15.83137,50725
15.83950,53550
15.84762,55652
15.85573,61138
15.86387,52473
15.87198,51783
15.88012,51244
15.88823,51335
15.89635,47553
15.90448,52471
15.91260,53154
15.92073,55419
15.92885,48400
15.93697,51512
15.94510,53955
15.95322,53650
15.96133,55346
15.96947,49542
15.97758,55334
15.98572,53437
15.99383,57204
16.00195,57832
16.01008,64408
16.01820,75544
16.02633,92296
16.03445,97371
16.04257,101819
16.05070,112452
16.05882,114282
16.06693,113657
16.07507,108692
16.08318,103315
16.09132,100818
16.09943,103653
16.10755,96414
16.11568,89289
16.12380,82248
16.13193,87905
16.14005,88366
16.14817,86443
16.15630,82822
16.16442,76955
16.17255,82306
16.18067,80207
16.18878,87624
16.19692,81323
16.20503,77902
16.21315,79517
16.22128,73498
16.22940,71622
16.23753,82158
16.24565,78546
16.25377,77287
16.26190,70048
16.27002,76243
16.27815,72786
16.28627,81366
16.29438,74998
16.30252,72410
16.31063,75300
16.31875,77782
16.32688,76395
16.33500,73471
16.34313,74689
16.35125,78549
16.35937,77496
16.36750,67849
16.37562,67578
16.38375,64557
16.39187,63077
16.39998,62322
16.40812,61146
16.41623,61610
16.42437,64582
16.43248,60518
16.44060,61618
16.44873,58461
16.45685,62491
16.46497,57223
16.47310,63845
16.48122,60363
16.48935,60228
16.49747,62960
16.50558,63022
16.51372,65388
16.52183,58308
16.52997,62646
16.53808,64048
16.54620,66342
16.55433,60743
16.56245,56386
16.57058,57815
16.57870,61018
16.58682,55262
16.59495,58689
16.60307,56186
16.61118,57777
16.61932,54574
16.62743,60023
16.63557,56241
16.64368,57264
16.65180,52653
16.65993,54685
16.66805,53132
16.67618,56639
16.68430,57881
16.69242,52224
16.70055,49584
16.70867,49869
16.71680,55539
16.72492,58230
16.73303,54779
16.74117,54425
16.74928,55939
16.75740,55446
16.76553,53875
16.77365,55951
16.78178,51100
16.78990,51205
16.79802,51933
16.80615,57224
16.81427,48848
16.82240,47097
16.83052,47144
16.83863,49436
16.84677,45478
16.85488,50349
16.86300,48919
16.87113,43014
16.87925,51007
16.88738,50563
16.89550,49767
16.90362,49849
16.91175,47403
16.91987,46761
16.92800,55123
16.93612,50864
16.94423,47003
16.95237,51366
16.96048,50821
16.96862,47408
16.97673,53318
16.98485,49077
16.99298,47686
17.00110,56575
17.00922,47414
17.01735,48621
17.02547,49483
17.03360,51235
17.04172,46658
17.04983,49894
17.05797,50724
17.06608,52007
17.07422,48300
17.08233,48381
17.09045,49611
17.09858,46450
17.10670,46365
17.11482,46236
17.12295,51853
17.13107,49851
17.13920,51078
17.14732,52394
17.15543,57781
17.16357,55029
17.17168,49349
17.17982,46315
17.18793,51197
17.19605,49845
17.20418,54946
17.21230,46928
17.22043,47936
17.22855,50017
17.23667,48999
17.24480,48140
17.25292,50712
17.26103,52215
17.26917,49470
17.27728,50171
17.28542,54091
17.29353,50832
17.30165,47362
17.30978,48508
17.31790,45433
17.32603,51650
17.33415,49214
17.34227,47936
17.35040,55508
17.35852,56656
17.36665,61990
17.37477,66972
17.38288,68885
17.39102,78401
17.39913,64014
17.40725,64293
17.41538,67711
17.42350,64331
17.43163,68433
17.43975,62048
17.44787,61523
17.45600,65968
17.46412,63375
17.47225,66179
17.48037,64720
17.48848,57698
17.49662,57962
17.50473,58394
17.51285,56224
17.52098,63504
17.52910,53053
17.53723,55340
17.54535,59858
17.55347,66969
17.56160,64458
17.56972,62240
17.57785,58287
17.58597,63475
17.59408,61700
17.60222,56225
17.61033,55481
17.61847,55161
17.62658,52599
17.63470,55009
17.64283,54006
17.65095,51064
17.65907,48602
17.66720,54455
17.67532,56296
17.68345,61798
17.69157,56454
17.69968,56245
17.70782,56566
17.71593,59797
17.72407,60287
17.73218,57422
17.74030,56886
17.74843,57267
17.75655,61368
17.76468,61298
17.77280,56885
17.78092,53904
17.78905,59370
17.79717,52564
17.80528,61171
17.81342,58949
17.82153,56597
17.82967,50823
17.83778,53590
17.84590,55404
17.85403,54259
17.86215,55241
17.87028,62062
17.87840,52160
17.88652,54169
17.89465,58054
17.90277,53110
17.91088,51441
17.91902,50037
17.92713,53121
17.93527,53905
17.94338,51003
17.95150,52460
17.95963,48592
17.96775,54051
17.97588,55459
17.98400,46729
17.99212,50167
18.00025,50342
18.00837,51932
18.01650,50246
18.02462,52029
18.03273,50422
18.04087,52402
18.04898,59164
18.05710,49894
18.06523,52139
18.07335,54665
18.08148,64984
18.08960,81278
18.09772,96134
18.10585,117912
18.11397,130584
18.12210,147324
18.13022,153789
18.13833,152077
18.14647,151070
18.15458,145706
18.16270,140710
18.17083,139491
18.17895,147387
18.18708,133351
18.19520,128835
18.20332,125133
18.21145,129033
18.21957,124425
18.22770,117465
18.23582,120391
18.24393,119697
18.25207,115788
18.26018,119202
18.26832,113549
18.27643,110056
18.28455,101447
18.29268,87980
18.30080,80693
18.30892,74231
18.31705,74887
18.32517,70341
18.33330,65087
18.34142,69157
18.34953,69883
18.35767,63078
18.36578,63804
18.37392,67618
18.38203,66428
18.39015,65213
18.39828,62204
18.40640,59240
18.41453,64462
18.42265,64535
18.43077,58664
18.43890,57838
18.44702,62077
18.45513,61050
18.46327,57566
18.47138,57099
18.47952,59906
18.48763,58304
18.49575,59203
18.50388,56426
18.51200,54526
18.52013,57970
18.52825,61506
18.53637,58017
18.54450,53613
18.55262,56893
18.56073,52812
18.56887,57650
18.57698,60235
18.58512,61308
18.59323,55472
18.60135,58876
18.60948,58729
18.61760,61276
18.62573,59651
18.63385,59056
18.64197,55836
18.65010,60670
18.65822,54601
18.66635,57474
18.67447,59042
18.68258,59583
18.69072,55604
18.69883,49803
18.70695,53324
18.71508,56613
18.72320,47785
18.73133,53425
18.73945,55757
18.74757,49681
18.75570,54072
18.76382,51368
18.77195,50854
18.78007,53145
18.78818,49945
18.79632,49510
18.80443,53442
18.81257,50524
18.82068,51861
18.82880,57864
18.83693,48429
18.84505,58082
18.85317,53964
18.86130,52544
18.86942,60313
18.87755,56235
18.88567,55709
18.89378,52269
18.90192,52228
18.91003,54074
18.91817,52770
18.92628,50838
18.93440,52746
18.94253,51856
18.95065,53121
18.95877,49441
18.96690,52566
18.97502,52309
18.98315,50957
18.99127,51073
18.99938,49414
19.00752,57982
19.01563,54615
19.02377,51522
19.03188,53547
19.04000,49259
19.04813,54516
19.05625,55098
19.06438,52153
19.07250,52755
19.08062,56286
19.08875,58548
19.09687,57417
19.10498,60820
19.11312,66096
19.12123,72058
19.12937,71070
19.13748,72705
19.14560,68746
19.15373,63478
19.16185,71691
19.16998,69150
19.17810,65588
19.18622,66673
19.19435,62946
19.20247,61986
19.21060,62997
19.21872,61704
19.22683,58720
19.23497,59327
19.24308,58541
19.25120,61890
19.25933,60973
19.26745,61392
19.27558,63558
19.28370,67116
19.29182,70809
19.29995,77230
19.30807,84550
19.31620,85128
19.32432,92512
19.33243,87216
19.34057,81848
19.34868,84496
19.35680,85163
19.36493,81456
19.37305,82714
19.38118,77492
19.38930,85662
19.39742,85582
19.40555,81557
19.41367,82624
19.42180,75635
19.42992,78535
19.43803,81519
19.44617,81345
19.45428,77646
19.46242,79427
19.47053,75631
19.47865,81191
19.48678,91242
19.49490,121481
19.50302,172398
19.51115,247823
19.51927,352764
19.52740,427818
19.53552,440697
19.54363,394800
19.55177,309976
19.55988,212044
19.56802,139705
19.57613,119248
19.58425,97041
19.59238,92590
19.60050,88191
19.60862,81698
19.61675,84480
19.62487,86601
19.63300,84782
19.64112,110163
19.64923,136267
19.65737,201567
19.66548,310127
19.67362,430424
19.68173,533004
19.68985,560005
19.69798,516486
19.70610,435784
19.71423,343502
19.72235,256855
19.73047,222981
19.73860,187177
19.74672,160011
19.75483,136749
19.76297,120025
19.77108,108397
19.77922,108851
19.78733,96527
19.79545,89620
19.80358,90187
19.81170,89313
19.81983,83119
19.82795,84196
19.83607,73648
19.84420,86316
19.85232,81901
19.86045,74821
19.86857,77556
19.87668,77245
19.88482,84587
19.89293,91554
19.90105,108763
19.90918,117227
19.91730,138617
19.92543,145482
19.93355,159085
19.94167,146424
19.94980,146281
19.95792,140043
19.96605,130031
19.97417,128737
19.98228,126118
19.99042,125144
19.99853,120801
20.00665,118003
20.01478,110247
20.02290,113547
20.03103,105536
20.03915,110838
20.04727,104812
20.05540,99886
20.06352,88531
20.07165,88189
20.07977,77665
20.08788,78426
20.09602,80624
20.10413,78690
20.11227,72953
20.12038,74616
20.12850,75889
20.13663,75523
20.14475,72918
20.15287,75632
20.16100,75204
20.16912,72432
20.17725,77456
20.18537,79931
20.19348,73878
20.20162,71189
20.20973,70193
20.21787,74985
20.22598,74642
20.23410,73329
20.24223,78784
20.25035,88794
20.25848,115240
20.26660,142934
20.27472,202696
20.28285,277374
20.29097,348305
20.29908,384277
20.30722,409297
20.31533,375082
20.32347,321351
20.33158,272429
20.33970,231538
20.34783,186264
20.35595,152751
20.36408,128642
20.37220,123828
20.38032,117158
20.38845,105191
20.39657,110751
20.40468,110258
20.41282,114107
20.42093,119616
20.42907,131956
20.43718,156169
20.44530,182698
20.45343,199337
20.46155,223965
20.46968,213670
20.47780,198389
20.48592,182266
20.49405,159711
20.50217,143137
20.51030,121511
20.51842,115689
20.52653,106718
20.53467,104098
20.54278,98900
20.55090,99401
20.55903,104659
20.56715,97922
20.57528,90472
20.58340,99275
20.59152,91967
20.59965,97173
20.60777,96767
20.61590,96421
20.62402,92533
20.63213,87675
20.64027,91849
20.64838,90072
20.65650,89756
20.66463,96011
20.67275,89904
20.68088,92132
20.68900,86388
20.69712,87048
20.70525,89973
20.71337,87970
20.72150,90861
20.72962,85595
20.73773,87942
20.74587,89881
20.75398,83950
20.76212,91906
20.77023,91872
20.77835,89696
20.78648,87029
20.79460,85337
20.80272,85772
20.81085,81542
20.81897,82687
20.82710,90472
20.83522,88626
20.84333,84429
20.85147,90037
20.85958,87149
20.86772,86414
20.87583,84771
20.88395,80716
20.89208,85840
20.90020,85188
20.90833,82336
20.91645,81736
20.92457,87788
20.93270,83989
20.94082,82902
20.94893,85050
20.95707,75655
20.96518,84072
20.97332,83341
20.98143,80456
20.98955,83392
20.99768,87609
21.00580,84047
21.01393,81688
21.02205,80610
21.03017,78318
21.03830,82067
21.04642,79174
21.05455,86529
21.06267,77702
21.07078,76543
21.07892,80851
21.08703,85881
21.09515,79463
21.10328,82495
21.11140,78011
21.11953,78672
21.12765,81824
21.13577,77825
21.14390,82859
21.15202,82887
21.16015,87039
21.16827,90407
21.17638,87729
21.18452,88056
21.19263,83781
21.20075,82579
21.20888,89924
21.21700,82419
21.22513,81130
21.23325,92808
21.24137,83920
21.24950,86841
21.25762,84310
21.26575,83865
21.27387,85504
21.28198,82043
21.29012,82114
21.29823,83298
21.30637,80266
21.31448,84879
21.32260,89821
21.33073,79006
21.33885,81949
21.34697,73780
21.35510,77928
21.36322,79358
21.37135,76158
21.37947,79306
21.38758,75460
21.39572,77369
21.40383,81871
21.41197,82606
21.42008,77609
21.42820,79063
21.43633,81542
21.44445,79057
21.45257,77460
21.46070,82432
21.46882,86024
21.47695,79647
21.48507,80397
21.49318,80328
21.50132,74879
21.50943,77121
21.51757,75007
21.52568,78692
21.53380,76511
21.54193,75829
21.55005,74241
21.55818,78992
21.56630,77034
21.57442,81952
21.58255,85238
21.59067,73806
21.59878,80049
21.60692,77424
21.61503,81058
21.62317,91552
21.63128,103431
21.63940,130818
21.64753,169926
21.65565,185908
21.66378,194376
21.67190,185472
21.68002,165154
21.68815,141583
21.69627,128668
21.70440,107897
21.71252,92551
21.72063,85203
21.72877,79230
21.73688,79873
21.74500,80550
21.75313,79316
21.76125,76036
21.76938,74935
21.77750,75674
21.78562,78109
21.79375,75736
21.80187,82442
21.81000,86643
21.81812,80558
21.82623,92362
21.83437,107791
21.84248,133614
21.85060,154132
21.85873,166189
21.86685,167240
21.87498,145682
21.88310,124839
21.89122,106092
21.89935,101751
21.90747,94010
21.91560,77125
21.92372,75505
21.93183,74527
21.93997,71764
21.94808,75008
21.95622,78013
21.96433,75873
21.97245,73800
21.98058,73773
21.98870,67318
21.99682,67853
22.00495,71550
22.01307,69284
22.02120,69643
22.02932,65216
22.03743,65815
22.04557,71115
22.05368,68033
22.06182,68899
22.06993,70339
22.07805,72656
22.08618,76247
22.09430,76430
22.10243,73909
22.11055,79748
22.11867,79590
22.12680,82129
22.13492,80207
22.14303,75559
22.15117,76136
22.15928,73822
22.16742,75972
22.17553,73043
22.18365,76476
22.19178,79918
22.19990,77432
22.20803,71210
22.21615,74070
22.22427,80810
22.23240,91296
22.24052,98571
22.24863,102412
22.25677,100329
22.26488,103360
22.27302,89089
22.28113,85052
22.28925,75631
22.29738,69552
22.30550,68152
22.31363,68010
22.32175,66312
22.32987,70445
22.33800,70824
22.34612,67240
22.35425,69318
22.36237,68561
22.37048,69527
22.37862,64491
22.38673,70519
22.39485,67481
22.40298,65703
22.41110,67150
22.41923,58195
22.42735,70498
22.43547,68003
22.44360,67474
22.45172,69908
22.45985,76434
22.46797,72646
22.47608,73568
22.48422,73185
22.49233,77476
22.50045,73233
22.50858,73233
22.51670,71776
22.52483,69818
22.53295,68789
22.54107,68473
22.54920,68949
22.55732,68252
22.56545,68946
22.57357,67043
22.58168,65447
22.58982,70227
22.59793,68238
22.60607,60215
22.61418,60642
22.62230,64634
22.63043,64525
22.63855,61156
22.64667,63155
22.65480,62785
22.66292,61103
22.67105,64979
22.67917,65608
22.68728,65046
22.69542,63004
22.70353,62685
22.71167,64504
22.71978,64533
22.72790,64069
22.73603,68617
22.74415,69430
22.75228,77153
22.76040,67248
22.76852,63754
22.77665,61670
22.78477,65237
22.79288,69192
22.80102,61742
22.80913,63072
22.81727,68734
22.82538,65682
22.83350,69356
22.84163,64359
22.84975,63023
22.85788,71634
22.86600,71773
22.87412,76814
22.88225,68074
22.89037,74306
22.89848,75133
22.90662,72289
22.91473,81762
22.92287,97110
22.93098,107056
22.93910,125582
22.94723,153881
22.95535,159689
22.96348,166404
22.97160,165394
22.97972,153625
22.98785,143381
22.99597,135405
23.00410,124667
23.01222,122782
23.02033,112240
23.02847,110809
23.03658,95913
23.04470,100493
23.05283,83506
23.06095,79953
23.06908,81373
23.07720,77255
23.08532,81867
23.09345,78164
23.10157,77210
23.10970,78535
23.11782,71071
23.12593,67948
23.13407,67467
23.14218,68954
23.15032,71324
23.15843,68406
23.16655,67013
23.17468,65450
23.18280,66536
23.19092,72145
23.19905,73568
23.20717,66110
23.21530,67999
23.22342,65640
23.23153,61826
23.23967,59035
23.24778,65423
23.25592,64573
23.26403,63338
23.27215,65281
23.28028,65215
23.28840,65733
23.29652,65044
23.30465,68181
23.31277,67932
23.32090,68176
23.32902,64917
23.33713,65330
23.34527,64563
23.35338,68579
23.36152,66220
23.36963,64521
23.37775,69058
23.38588,68004
23.39400,66949
23.40213,73195
23.41025,69328
23.41837,69460
23.42650,70597
23.43462,68775
23.44273,74707
23.45087,66372
23.45898,71584
23.46712,70175
23.47523,70632
23.48335,65301
23.49148,69832
23.49960,74541
23.50773,70789
23.51585,74846
23.52397,75499
23.53210,72289
23.54022,70529
23.54833,68210
23.55647,72418
23.56458,73134
23.57272,75232
23.58083,78330
23.58895,78652
23.59708,76865
23.60520,73245
23.61333,79004
23.62145,80276
23.62957,79660
23.63770,79022
23.64582,74042
23.65395,84585
23.66207,80313
23.67018,80385
23.67832,84670
23.68643,92929
23.69455,89901
23.70268,94718
23.71080,90314
23.71893,92218
23.72705,95625
23.73517,88846
23.74330,98211
23.75142,120773
23.75955,223900
23.76767,527616
23.77578,1190209
23.78392,2528830
23.79203,4131199
23.80017,5176198
23.80828,5480428
23.81640,4917904
23.82453,3724797
23.83265,2645291
23.84077,1815700
23.84890,1280055
23.85702,924276
23.86515,715138
23.87327,614832
23.88138,509727
23.88952,448510
23.89763,406589
23.90577,370065
23.91388,334595
23.92200,315324
23.93013,297695
23.93825,280785
23.94637,269600
23.95450,248740
23.96262,239518
23.97075,241863
23.97887,231519
23.98698,220446
23.99512,221398
24.00323,210388
24.01137,202241
24.01948,202537
24.02760,200181
24.03573,195723
24.04385,187431
24.05198,183814
24.06010,188805
24.06822,181268
24.07635,181207
24.08447,186302
24.09258,174645
24.10072,176942
24.10883,172772
24.11697,166555
24.12508,170736
24.13320,171873
24.14133,194783
24.14945,193862
24.15758,195313
24.16570,198986
24.17382,194910
24.18195,182764
24.19007,182795
24.19820,170935
24.20632,170307
24.21443,174779
24.22257,180014
24.23068,191543
24.23880,207390
24.24693,201562
24.25505,197018
24.26318,182964
24.27130,173009
24.27942,155190
24.28755,157671
24.29567,148219
24.30380,145699
24.31192,148029
24.32003,146948
24.32817,138327
24.33628,143348
24.34440,136784
24.35253,143067
24.36065,140717
24.36878,145624
24.37690,154753
24.38502,176704
24.39315,222778
24.40127,307386
24.40940,422017
24.41752,498434
24.42563,529324
24.43377,462380
24.44188,354436
24.45002,261278
24.45813,187719
24.46625,158200
24.47438,155653
24.48250,149585
24.49062,152139
24.49875,154837
24.50687,159827
24.51500,173753
24.52312,192019
24.53123,204608
24.53937,211541
24.54748,209237
24.55562,189528
24.56373,178887
24.57185,169367
24.57998,156989
24.58810,157712
24.59623,157958
24.60435,156990
24.61247,154432
24.62060,151731
24.62872,151047
24.63683,149222
24.64497,142015
24.65308,137713
24.66122,140384
24.66933,149910
24.67745,147931
24.68558,148361
24.69370,144988
24.70183,145866
24.70995,138559
24.71807,130499
24.72620,128622
24.73432,125784
24.74243,131953
24.75057,119550
24.75868,125367
24.76682,120638
24.77493,122349
24.78305,120354
24.79118,119470
24.79930,118714
24.80743,120553
24.81555,118021
24.82367,110895
24.83180,110120
24.83992,107980
24.84805,114310
24.85617,108238
24.86428,117947
24.87242,114854
24.88053,119819
24.88865,117782
24.89678,117039
24.90490,128501
24.91303,119888
24.92115,121007
24.92927,115049
24.93740,120767
24.94552,119593
24.95365,108470
24.96177,108920
24.96988,113694
24.97802,107825
24.98613,110781
24.99425,114558
25.00238,106217
25.01050,105325
25.01863,107351
25.02675,106737
25.03487,104638
25.04300,102667
25.05112,107107
25.05925,106404
25.06737,108647
25.07548,105628
25.08362,101494
25.09173,104157
25.09987,101079
25.10798,104295
25.11610,108230
25.12423,107385
25.13235,117586
25.14047,138424
25.14860,162069
25.15672,177990
25.16485,191059
25.17297,198783
25.18108,207925
25.18922,192575
25.19733,157007
25.20547,146999
25.21358,129527
25.22170,118823
25.22983,112631
25.23795,110863
25.24608,110155
25.25420,108078
25.26232,106359
25.27045,108846
25.27857,101307
25.28668,102889
25.29482,99566
25.30293,103589
25.31107,106019
25.31918,103970
25.32730,111696
25.33543,110213
25.34355,108355
25.35168,104887
25.35980,99822
25.36792,98632
25.37605,94981
25.38417,96455
25.39228,94536
25.40042,97509
25.40853,102339
25.41667,92419
25.42478,94042
25.43290,95685
25.44103,87974
25.44915,84521
25.45728,87944
25.46540,92902
25.47352,93973
25.48165,98943
25.48977,109566
25.49790,113283
25.50602,111532
25.51413,113245
25.52227,107811
25.53038,106329
25.53850,103356
25.54663,96180
25.55475,98709
25.56288,84846
25.57100,89982
25.57912,88952
25.58725,81582
25.59537,82656
25.60350,82953
25.61162,86151
25.61973,84689
25.62787,83301
25.63598,84054
25.64412,80600
25.65223,80671
25.66035,84354
25.66848,79007
25.67660,82329
25.68472,77803
25.69285,79743
25.70097,84227
25.70910,71772
25.71722,78498
25.72533,78741
25.73347,86786
25.74158,83231
25.74972,78843
25.75783,79656
25.76595,73983
25.77408,76765
25.78220,76289
25.79032,78522
25.79845,80603
25.80657,84260
25.81470,81224
25.82282,81951
25.83093,84144
25.83907,86532
25.84718,86476
25.85532,83090
25.86343,86357
25.87155,81231
25.87968,86321
25.88780,85154
25.89593,76770
25.90405,75872
25.91217,81575
25.92030,79076
25.92842,80039
25.93653,76306
25.94467,87724
25.95278,82993
25.96092,80522
25.96903,81909
25.97715,81874
25.98528,79232
25.99340,80284
26.00153,77905
26.00965,81583
26.01777,80518
26.02590,76650
26.03402,78027
26.04213,81511
26.05027,77795
26.05838,81274
26.06652,80868
26.07463,80273
26.08275,82590
26.09088,82984
26.09900,79356
26.10713,78520
26.11525,87636
26.12337,85746
26.13150,85125
26.13962,89999
26.14775,94500
26.15587,96899
26.16398,96033
26.17212,96797
26.18023,100225
26.18835,104577
26.19648,97721
26.20460,100311
26.21273,88379
26.22085,88027
26.22897,82141
26.23710,79287
26.24522,81819
26.25335,88406
26.26147,85921
26.26958,86708
26.27772,87956
26.28583,89111
26.29397,87559
26.30208,82649
26.31020,83996
26.31833,81443
26.32645,77204
26.33457,84901
26.34270,84909
26.35082,80467
26.35895,82696
26.36707,84172
26.37518,82699
26.38332,93349
26.39143,88231
26.39957,93928
26.40768,100241
26.41580,100148
26.42393,98768
26.43205,94901
26.44018,93630
26.44830,92211
26.45642,90587
26.46455,89721
26.47267,74312
26.48078,77094
26.48892,76920
26.49703,80595
26.50517,74361
26.51328,80408
26.52140,78232
26.52953,73785
26.53765,71859
26.54578,73191
26.55390,72419
26.56202,80836
26.57015,68292
26.57827,70919
26.58638,70507
26.59452,71810
26.60263,67516
26.61077,70793
26.61888,69055
26.62700,71257
26.63513,70015
26.64325,65845
26.65138,73777
26.65950,75854
26.66762,69295
26.67575,75585
26.68387,75386
26.69200,68955
26.70012,72786
26.70823,71901
26.71637,77256
26.72448,73990
26.73260,69009
26.74073,74510
26.74885,70703
26.75698,76019
26.76510,77062
26.77322,72146
26.78135,70866
26.78947,67794
26.79760,71195
26.80572,68805
26.81383,69014
26.82197,74719
26.83008,78876
26.83820,73951
26.84633,76578
26.85445,79833
26.86258,80910
26.87070,81464
26.87882,94141
26.88695,89369
26.89507,83240
26.90320,73812
26.91132,74666
26.91943,76408
26.92757,78025
26.93568,70949
26.94382,74665
26.95193,78142
26.96005,84074
26.96818,102751
26.97630,165974
26.98442,316035
26.99255,618158
27.00067,1252701
27.00880,2412115
27.01692,3987497
27.02503,5223403
27.03317,5368837
27.04128,4703842
27.04942,3708583
27.05753,2667616
27.06565,1887181
27.07378,1340975
27.08190,1010240
27.09003,766885
27.09815,613993
27.10627,550259
27.11440,495119
27.12252,418763
27.13063,381036
27.13877,350830
27.14688,343447
27.15502,311621
27.16313,297511
27.17125,263595
27.17938,257916
27.18750,252340
27.19563,249076
27.20375,232996
27.21187,231563
27.22000,220603
27.22812,204013
27.23623,200805
27.24437,196458
27.25248,184830
27.26062,171693
27.26873,177850
27.27685,171789
27.28498,164294
27.29310,165778
27.30123,149449
27.30935,151180
27.31747,154719
27.32560,149200
27.33372,138762
27.34185,143016
27.34997,142837
27.35808,140120
27.36622,137750
27.37433,135879
27.38245,128816
27.39058,138097
27.39870,125414
27.40683,127705
27.41495,133430
27.42307,121190
27.43120,123267
27.43932,123295
27.44745,125964
27.45557,118220
27.46368,121335
27.47182,115035
27.47993,112205
27.48807,110061
27.49618,105219
27.50430,114136
27.51243,112706
27.52055,110002
27.52867,111887
27.53680,120565
27.54492,108731
27.55305,115790
27.56117,116602
27.56928,119350
27.57742,109333
27.58553,104813
27.59367,103523
27.60178,102134
27.60990,102194
27.61803,107798
27.62615,110094
27.63427,101814
27.64240,106366
27.65052,104517
27.65865,109234
27.66677,92957
27.67488,97100
27.68302,94954
27.69113,99888
27.69927,95748
27.70738,100269
27.71550,98290
27.72363,97394
27.73175,95314
27.73988,94805
27.74800,90278
27.75612,95996
27.76425,97947
27.77237,94321
27.78048,89409
27.78862,88595
27.79673,99901
27.80487,95289
27.81298,92174
27.82110,90665
27.82923,95706
27.83735,92359
27.84548,93484
27.85360,92425
27.86172,95079
27.86985,96433
27.87797,88335
27.88608,95831
27.89422,95083
27.90233,92271
27.91047,93299
27.91858,89373
27.92670,83669
27.93483,93954
27.94295,85433
27.95108,85704
27.95920,87113
27.96732,88759
27.97545,83675
27.98357,89193
27.99170,83723
27.99982,93306
28.00793,95907
28.01607,88233
28.02418,82864
28.03230,84397
28.04043,90165
28.04855,89363
28.05668,90672
28.06480,88624
28.07292,86864
28.08105,92127
28.08917,84894
28.09730,85934
28.10542,82390
28.11353,84685
28.12167,87493
28.12978,83849
28.13792,81234
28.14603,85390
28.15415,83276
28.16228,84102
28.17040,87351
28.17852,86509
28.18665,82831
28.19477,83100
28.20290,91138
28.21102,94309
28.21913,99401
28.22727,114101
28.23538,116162
28.24352,110295
28.25163,102140
28.25975,99954
28.26788,97550
28.27600,91606
28.28412,94070
28.29225,94144
28.30037,93886
28.30850,108405
28.31662,152161
28.32473,184080
28.33287,254523
28.34098,354188
28.34912,474818
28.35723,554929
28.36535,661420
28.37348,709261
28.38160,723546
28.38973,669684
28.39785,622653
28.40597,552597
28.41410,474014
28.42222,408999
28.43033,342337
28.43847,301232
28.44658,262411
28.45472,233632
28.46283,217267
28.47095,199968
28.47908,192264
28.48720,181213
28.49533,177902
28.50345,165600
28.51157,154599
28.51970,150612
28.52782,148904
28.53595,154382
28.54407,151281
28.55218,137144
28.56032,132061
28.56843,124879
28.57655,137349
28.58468,129772
28.59280,126626
28.60093,129074
28.60905,119469
28.61717,121808
28.62530,125662
28.63342,120633
28.64155,119580
28.64967,117346
28.65778,123816
28.66592,126322
28.67403,123484
28.68215,129120
28.69028,121032
28.69840,118794
28.70653,116195
28.71465,111795
28.72277,109255
28.73090,117770
28.73902,109479
28.74715,108588
28.75527,116072
28.76338,143618
28.77152,173748
28.77963,214722
28.78777,267609
28.79588,282360
28.80400,271142
28.81213,237103
28.82025,179313
28.82837,142460
28.83650,124437
28.84462,110837
28.85275,109768
28.86087,99664
28.86898,104344
28.87712,99911
28.88523,97776
28.89337,95923
28.90148,99533
28.90960,89622
28.91773,95577
28.92585,106502
28.93398,100928
28.94210,91352
28.95022,100006
28.95835,100270
28.96647,102690
28.97458,102183
28.98272,103005
28.99083,112940
28.99897,102774
29.00708,99170
29.01520,98602
29.02333,101697
29.03145,103665
29.03958,94869
29.04770,92254
29.05582,102489
29.06395,91180
29.07207,94519
29.08018,91534
29.08832,91514
29.09643,94223
29.10457,90150
29.11268,99250
29.12080,93830
29.12893,97368
29.13705,96226
29.14518,91760
29.15330,93316
29.16142,95577
29.16955,98614
29.17767,101051
29.18580,97661
29.19392,108038
29.20203,104570
29.21017,103447
29.21828,104209
29.22640,102847
29.23453,100292
29.24265,101409
29.25078,106888
29.25890,100994
29.26702,95333
29.27515,100561
29.28327,100392
29.29140,101178
29.29952,103648
29.30763,97219
29.31577,100967
29.32388,97926
29.33200,96370
29.34013,98357
29.34825,101296
29.35638,99154
29.36450,94147
29.37262,93216
29.38075,100473
29.38887,94001
29.39700,91976
29.40512,93785
29.41323,96656
29.42137,100992
29.42948,95502
29.43762,95932
29.44573,101480
29.45385,97557
29.46198,98279
29.47010,93052
29.47822,93196
29.48635,99789
29.49447,97844
29.50260,104179
29.51072,107947
29.51883,105570
29.52697,113528
29.53508,106483
29.54322,104936
29.55133,92043
29.55945,89801
29.56758,93413
29.57570,91584
29.58383,91167
29.59195,83864
29.60007,83053
29.60820,86149
29.61632,87288
29.62443,79327
29.63257,87306
29.64068,89812
29.64882,85410
29.65693,85518
29.66505,81048
29.67318,87633
29.68130,86549
29.68943,78831
29.69755,90217
29.70567,89878
29.71380,89590
29.72192,84610
29.73003,92670
29.73817,94837
29.74628,87803
29.75442,86322
29.76253,82471
29.77065,81090
29.77878,80917
29.78690,83235
29.79503,73939
29.80315,79642
29.81127,86129
29.81940,75873
29.82752,77621
29.83565,78287
29.84377,82299
29.85188,80125
29.86002,82737
29.86813,81189
29.87625,77368
29.88438,83276
29.89250,86236
29.90063,87511
29.90875,93266
29.91687,92285
29.92500,89633
29.93312,91335
29.94125,87930
29.94937,95083
29.95748,99907
29.96562,109092
29.97373,121960
29.98187,148760
29.98998,176485
29.99810,205983
30.00623,231577
30.01435,273149
30.02247,288666
30.03060,318009
30.03872,311198
30.04685,310628
30.05497,302300
30.06308,268884
30.07122,263237
30.07933,251371
30.08747,230334
30.09558,206181
30.10370,189247
30.11183,196302
30.11995,166651
30.12807,160773
30.13620,145671
30.14432,138384
30.15245,145834
30.16057,137685
30.16868,138114
30.17682,128966
30.18493,130893
30.19307,117753
30.20118,123277
30.20930,119327
30.21743,123667
30.22555,115926
30.23368,114838
30.24180,119763
30.24992,104459
30.25805,108409
30.26617,112672
30.27428,115487
30.28242,110738
30.29053,117401
30.29867,116155
30.30678,116501
30.31490,118479
30.32303,127792
30.33115,122042
30.33928,129587
30.34740,132806
30.35552,136270
30.36365,146576
30.37177,155722
30.37988,157160
30.38802,154979
30.39613,159299
30.40427,156365
30.41238,173341
30.42050,176140
30.42863,182796
30.43675,184138
30.44488,195346
30.45300,196493
30.46112,208940
30.46925,218147
30.47737,220888
30.48550,223198
30.49362,245821
30.50173,252889
30.50987,260457
30.51798,270940
30.52610,281878
30.53423,288108
30.54235,279401
30.55048,283806
30.55860,275130
30.56672,278213
30.57485,263496
30.58297,257221
30.59110,258236
30.59922,236151
30.60733,230072
30.61547,211149
30.62358,208139
30.63172,192815
30.63983,189430
30.64795,182926
30.65608,163511
30.66420,171386
30.67232,163700
30.68045,148091
30.68857,150056
30.69670,143340
30.70482,127729
30.71293,125486
30.72107,130761
30.72918,119832
30.73732,120487
30.74543,114338
30.75355,114023
30.76168,109674
30.76980,104796
30.77793,106311
30.78605,103468
30.79417,107387
30.80230,107905
30.81042,107518
30.81853,112652
30.82667,107219
30.83478,118170
30.84292,103566
30.85103,103861
30.85915,98134
30.86728,97407
30.87540,94358
30.88353,89704
30.89165,90506
30.89977,83479
30.90790,95030
30.91602,85463
30.92413,85819
30.93227,84798
30.94038,86873
30.94852,84922
30.95663,83496
30.96475,86167
30.97288,85729
30.98100,84781
30.98913,85552
30.99725,81732
31.00537,89983
31.01350,83113
31.02162,90151
31.02975,89156
31.03787,96915
31.04598,93912
31.05412,93457
31.06223,98164
31.07035,89298
31.07848,91160
31.08660,89198
31.09473,94646
31.10285,105022
31.11097,116655
31.11910,112598
31.12722,108283
31.13535,118680
31.14347,102285
31.15158,107856
31.15972,96387
31.16783,103828
31.17595,102199
31.18408,109600
31.19220,124489
31.20033,158138
31.20845,197790
31.21657,232859
31.22470,280855
31.23282,296821
31.24095,299561
31.24907,272696
31.25718,226168
31.26532,178878
31.27343,145017
31.28157,124911
31.28968,108861
31.29780,105961
31.30593,99559
31.31405,93483
31.32217,97639
31.33030,92624
31.33842,89042
31.34655,92435
31.35467,85823
31.36278,84499
31.37092,88692
31.37903,84139
31.38717,83480
31.39528,86509
31.40340,85844
31.41153,84504
31.41965,88658
31.42778,88089
31.43590,96031
31.44402,101175
31.45215,93754
31.46027,90255
31.46838,86176
31.47652,88653
31.48463,86831
31.49277,88729
31.50088,87668
31.50900,80919
31.51713,87141
31.52525,85628
31.53338,82013
31.54150,83924
31.54962,79668
31.55775,79915
31.56587,85557
31.57398,84854
31.58212,85104
31.59023,81169
31.59837,81552
31.60648,82339
31.61460,82232
31.62273,78991
31.63085,83769
31.63898,86426
31.64710,84371
31.65522,85706
31.66335,88337
31.67147,90792
31.67960,87288
31.68772,79070
31.69583,85461
31.70397,85736
31.71208,85739
31.72020,84449
31.72833,80934
31.73645,81502
31.74458,80121
31.75270,81027
31.76082,78801
31.76895,78090
31.77707,84636
31.78520,82529
31.79332,82675
31.80143,87238
31.80957,81015
31.81768,90915
31.82582,84716
31.83393,88279
31.84205,88301
31.85018,91021
31.85830,87776
31.86642,89003
31.87455,92275
31.88267,96148
31.89080,92317
31.89892,91156
31.90703,93231
31.91517,95478
31.92328,110258
31.93142,126119
31.93953,141551
31.94765,161719
31.95578,183394
31.96390,207996
31.97202,245097
31.98015,230216
31.98827,241663
31.99640,230485
32.00452,226284
32.01263,235279
32.02077,213866
32.02888,201591
32.03702,185379
32.04513,187334
32.05325,173166
32.06138,163405
32.06950,162648
32.07763,160936
32.08575,167226
32.09387,177441
32.10200,177123
32.11012,169826
32.11823,166743
32.12637,161404
32.13448,146305
32.14262,156685
32.15073,138171
32.15885,132598
32.16698,147249
32.17510,137865
32.18323,133359
32.19135,134323
32.19947,134496
32.20760,134987
32.21572,142602
32.22383,136192
32.23197,137227
32.24008,140375
32.24822,146731
32.25633,141730
32.26445,146176
32.27258,146725
32.28070,139293
32.28883,143899
32.29695,139902
32.30507,133698
32.31320,133288
32.32132,127738
32.32945,125319
32.33757,127028
32.34568,122282
32.35382,124173
32.36193,122230
32.37005,119143
32.37818,121652
32.38630,120937
32.39443,120223
32.40255,110277
32.41067,114344
32.41880,110716
32.42692,111259
32.43505,108444
32.44317,112180
32.45128,106814
32.45942,108040
32.46753,110519
32.47567,103078
32.48378,99394
32.49190,99994
32.50003,99296
32.50815,107866
32.51627,100323
32.52440,99308
32.53252,106279
32.54065,102456
32.54877,102987
32.55688,101215
32.56502,104760
32.57313,106479
32.58127,100241
32.58938,97334
32.59750,104537
32.60563,101218
32.61375,96203
32.62187,95927
32.63000,98061
32.63812,98843
32.64625,107806
32.65437,116979
32.66248,147562
32.67062,198912
32.67873,226409
32.68687,255857
32.69498,258505
32.70310,238129
32.71123,187674
32.71935,150002
32.72748,128146
32.73560,114009
32.74372,112018
32.75185,113649
32.75997,106688
32.76808,105927
32.77622,104534
32.78433,99005
32.79247,98455
32.80058,91411
32.80870,94843
32.81683,93126
32.82495,99079
32.83308,96041
32.84120,100497
32.84932,103421
32.85745,100611
32.86557,97828
32.87370,96822
32.88182,95693
32.88993,97969
32.89807,96245
32.90618,103552
32.91430,104392
32.92243,104909
32.93055,101738
32.93868,101518
32.94680,98015
32.95492,100518
32.96305,108282
32.97117,101694
32.97930,95199
32.98742,98870
32.99553,99315
33.00367,107660
33.01178,97106
33.01990,98138
33.02803,101199
33.03615,98798
33.04428,98504
33.05240,99711
33.06052,94159
33.06865,101437
33.07677,99461
33.08490,104381
33.09302,102267
33.10113,114312
33.10927,116332
33.11738,137204
33.12552,148130
33.13363,159090
33.14175,159625
33.14988,145479
33.15800,129324
33.16612,124102
33.17425,107561
33.18237,117742
33.19050,103856
33.19862,105174
33.20673,107580
33.21487,116022
33.22298,108747
33.23112,110432
33.23923,119063
33.24735,114017
33.25548,110079
33.26360,104724
33.27172,110472
33.27985,104274
33.28797,106626
33.29610,104029
33.30422,107043
33.31233,110131
33.32047,109934
33.32858,109964
33.33672,103047
33.34483,99473
33.35295,108475
33.36108,110016
33.36920,108284
33.37733,100951
33.38545,104202
33.39357,113312
33.40170,102761
33.40982,109202
33.41793,99606
33.42607,105640
33.43418,109104
33.44232,104780
33.45043,108984
33.45855,110123
33.46668,110412
33.47480,103297
33.48293,103819
33.49105,107871
33.49917,111107
33.50730,108593
33.51542,121514
33.52355,117260
33.53167,125257
33.53978,130727
33.54792,126638
33.55603,125733
33.56415,128356
33.57228,135420
33.58040,134666
33.58853,130195
33.59665,128074
33.60477,138155
33.61290,140907
33.62102,138488
33.62915,137457
33.63727,145894
33.64538,148390
33.65352,143810
33.66163,140608
33.66975,147043
33.67788,143265
33.68600,153620
33.69413,148566
33.70225,148962
33.71037,152440
33.71850,150805
33.72662,159136
33.73475,159718
33.74287,158294
33.75098,150030
33.75912,159623
33.76723,154159
33.77537,154124
33.78348,163560
33.79160,165842
33.79973,172198
33.80785,167167
33.81597,164668
33.82410,169344
33.83222,162179
33.84035,156025
33.84847,166318
33.85658,161637
33.86472,163939
33.87283,156995
33.88097,165250
33.88908,159431
33.89720,155788
33.90533,159306
33.91345,152297
33.92158,160570
33.92970,158258
33.93782,153298
33.94595,152895
33.95407,154461
33.96218,160118
33.97032,153116
33.97843,153342
33.98657,153081
33.99468,142195
34.00280,156245
34.01093,143594
34.01905,140481
34.02718,142295
34.03530,137917
34.04342,140489
34.05155,144673
34.05967,141510
34.06778,140051
34.07592,134189
34.08403,145849
34.09217,142548
34.10028,141363
34.10840,140166
34.11653,146635
34.12465,152453
34.13278,146757
34.14090,152892
34.14902,162611
34.15715,161389
34.16527,161843
34.17340,166255
34.18152,169581
34.18963,174765
34.19777,178353
34.20588,179721
34.21400,188984
34.22213,196763
34.23025,202163
34.23838,203996
34.24650,207895
34.25462,206632
34.26275,219480
34.27087,217997
34.27900,217100
34.28712,245524
34.29523,238348
34.30337,237985
34.31148,241593
34.31962,245929
34.32773,240941
34.33585,231514
34.34398,236841
34.35210,234441
34.36022,233057
34.36835,212417
34.37647,211879
34.38460,209299
34.39272,211501
34.40083,217211
34.40897,205479
34.41708,197076
34.42522,193448
34.43333,196843
34.44145,199400
34.44958,194325
34.45770,191802
34.46582,192733
34.47395,191219
34.48207,189475
34.49020,188972
34.49832,191085
34.50643,186664
34.51457,189741
34.52268,188677
34.53082,204751
34.53893,226163
34.54705,247418
34.55518,285490
34.56330,293211
34.57143,306705
34.57955,314856
34.58767,302323
34.59580,284377
34.60392,266292
34.61203,248004
34.62017,229902
34.62828,220455
34.63642,217212
34.64453,203944
34.65265,205083
34.66078,197410
34.66890,200070
34.67703,186497
34.68515,183520
34.69327,185138
34.70140,185680
34.70952,179574
34.71763,177067
34.72577,178771
34.73388,179328
34.74202,174292
34.75013,171507
34.75825,173367
34.76638,163617
34.77450,160565
34.78263,164559
34.79075,163419
34.79887,171075
34.80700,163321
34.81512,163322
34.82325,173359
34.83137,167640
34.83948,170582
34.84762,176652
34.85573,176435
34.86385,177843
34.87198,189463
34.88010,191936
34.88823,196718
34.89635,208138
34.90447,199734
34.91260,205488
34.92072,213570
34.92885,223604
34.93697,229193
34.94508,236905
34.95322,245111
34.96133,259530
34.96947,268544
34.97758,271570
34.98570,278695
34.99383,272486
35.00195,284609
35.01007,279604
35.01820,271514
35.02632,269353
35.03445,263584
35.04257,250564
35.05068,238757
35.05882,238211
35.06693,218598
35.07507,216022
35.08318,208292
35.09130,197918
35.09943,203424
35.10755,189439
35.11567,189045
35.12380,190792
35.13192,175425
35.14005,185344
35.14817,184601
35.15628,188430
35.16442,191675
35.17253,191794
35.18067,191515
35.18878,187180
35.19690,177775
35.20503,177930
35.21315,169312
35.22128,156173
35.22940,152888
35.23752,150415
35.24565,153831
35.25377,145798
35.26188,150229
35.27002,155455
35.27813,156150
35.28627,160404
35.29438,153555
35.30250,154490
35.31063,149514
35.31875,152960
35.32688,146458
35.33500,141036
35.34312,143419
35.35125,138196
35.35937,144007
35.36750,144504
35.37562,145520
35.38373,142113
35.39187,142951
35.39998,146925
35.40810,139537
35.41623,143261
35.42435,145584
35.43248,144317
35.44060,145173
35.44872,143660
35.45685,152058
35.46497,153314
35.47310,153795
35.48122,158321
35.48933,150334
35.49747,152523
35.50558,155313
35.51370,146496
35.52183,146657
35.52995,146916
35.53808,141185
35.54620,138652
35.55432,140481
35.56245,149561
35.57057,147267
35.57870,137817
35.58682,143876
35.59493,149656
35.60307,144094
35.61118,141624
35.61932,142066
35.62743,148531
35.63555,146449
35.64368,148502
35.65180,141461
35.65992,148673
35.66805,141667
35.67617,142699
35.68430,153426
35.69242,162954
35.70053,175597
35.70867,172227
35.71678,168818
35.72492,171869
35.73303,164213
35.74115,160510
35.74928,163923
35.75740,159930
35.76552,173479
35.77365,167474
35.78177,168276
35.78990,160860
35.79802,169502
35.80613,163511
35.81427,169159
35.82238,157580
35.83052,161096
35.83863,158450
35.84675,169914
35.85488,160395
35.86300,173603
35.87113,162824
35.87925,164431
35.88737,164940
35.89550,163155
35.90362,155189
35.91173,167388
35.91987,173422
35.92798,169159
35.93612,162591
35.94423,159237
35.95235,162499
35.96048,159841
35.96860,161202
35.97673,156093
35.98485,159436
35.99297,154525
36.00110,159699
36.00922,157335
36.01735,160256
36.02547,168029
36.03358,167405
36.04172,174514
36.04983,174130
36.05795,181197
36.06608,188290
36.07420,188071
36.08233,178690
36.09045,183886
36.09857,181134
36.10670,181430
36.11482,174683
36.12295,170171
36.13107,163503
36.13918,168986
36.14732,170475
36.15543,172082
36.16357,170691
36.17168,167679
36.17980,169062
36.18793,167451
36.19605,169488
36.20417,175487
36.21230,179781
36.22042,174231
36.22855,172488
36.23667,164728
36.24478,163589
36.25292,155775
36.26103,156665
36.26917,157340
36.27728,160158
36.28540,152284
36.29353,165726
36.30165,179548
36.30977,214965
36.31790,269624
36.32602,335160
36.33415,383917
36.34227,383347
36.35038,351340
36.35852,292591
36.36663,262309
36.37477,222652
36.38288,210733
36.39100,207537
36.39913,213821
36.40725,211448
36.41538,198455
36.42350,195982
36.43162,184773
36.43975,169434
36.44787,168767
36.45598,166407
36.46412,169145
36.47223,159582
36.48037,157742
36.48848,158277
36.49660,161471
36.50473,157351
36.51285,159515
36.52098,158104
36.52910,162739
36.53722,150730
36.54535,152940
36.55347,162276
36.56158,152631
36.56972,149900
36.57783,153058
36.58597,147266
36.59408,159071
36.60220,155643
36.61033,161399
36.61845,161826
36.62658,158759
36.63470,164987
36.64282,169123
36.65095,164965
36.65907,170620
36.66720,166798
36.67532,164502
36.68343,164561
36.69157,174728
36.69968,170565
36.70780,163286
36.71593,163238
36.72405,173568
36.73218,174905
36.74030,171676
36.74842,175388
36.75655,167159
36.76467,174052
36.77280,173256
36.78092,165070
36.78903,168182
36.79717,169997
36.80528,171062
36.81342,162804
36.82153,161624
36.82965,171506
36.83778,169246
36.84590,165326
36.85402,164518
36.86215,161916
36.87027,169538
36.87840,169993
36.88652,165609
36.89463,168287
36.90277,163494
36.91088,171370
36.91902,160995
36.92713,165412
36.93525,157476
36.94338,157841
36.95150,158902
36.95962,160822
36.96775,161277
36.97587,163924
36.98400,169337
36.99212,163644
37.00023,167053
37.00837,160361
37.01648,162401
37.02462,165355
37.03273,168968
37.04085,161048
37.04898,164126
37.05710,169406
37.06523,167578
37.07335,169774
37.08147,168956
37.08960,174999
37.09772,178670
37.10583,166282
37.11397,173358
37.12208,175593
37.13022,174743
37.13833,172012
37.14645,168749
37.15458,164764
37.16270,171127
37.17083,176519
37.17895,166961
37.18707,178708
37.19520,168924
37.20332,178680
37.21145,172630
37.21957,173683
37.22768,180126
37.23582,181438
37.24393,184803
37.25205,182984
37.26018,174592
37.26830,171146
37.27643,175369
37.28455,178191
37.29267,176464
37.30080,175639
37.30892,179545
37.31705,179355
37.32517,186594
37.33328,186374
37.34142,188759
37.34953,210243
37.35765,221310
37.36578,238879
37.37390,266740
37.38203,274203
37.39015,284748
37.39827,261886
37.40640,257116
37.41452,252265
37.42265,239350
37.43077,240767
37.43888,229727
37.44702,224830
37.45513,235797
37.46327,224491
37.47138,224471
37.47950,228718
37.48763,218030
