D:\MassHunter\GCMS\1\data\JTB-E02\BACandSTRAW\JTB-E02-207-17.D Wed Mar 13 16:59:22 2019
Start of data points
2.09520	161727
2.10332	165388
2.11143	155278
2.11957	158551
2.12768	169151
2.13580	152760
2.14393	151226
2.15205	154640
2.16018	144199
2.16830	146431
2.17642	136192
2.18455	132893
2.19267	123182
2.20080	125872
2.20892	122718
2.21703	121801
2.22517	128063
2.23328	111579
2.24142	106722
2.24953	111329
2.25765	107074
2.26578	101485
2.27390	112101
2.28202	107730
2.29015	102323
2.29827	107934
2.30640	95584
2.31452	95081
2.32263	98416
2.33077	94279
2.33888	96693
2.34702	100500
2.35513	97288
2.36325	91952
2.37138	100208
2.37950	141151
2.38763	1172028
2.39575	5017817
2.40387	4816657
2.41200	2093985
2.42012	1266435
2.42823	1032526
2.43637	872325
2.44448	784152
2.45262	696776
2.46073	639181
2.46885	590420
2.47698	546371
2.48510	514016
2.49323	478241
2.50135	450827
2.50947	443244
2.51760	420382
2.52572	399397
2.53385	395840
2.54197	387645
2.55008	401318
2.55822	378499
2.56633	348852
2.57445	346961
2.58258	351532
2.59070	345350
2.59883	324462
2.60695	320738
2.61507	321129
2.62320	308576
2.63132	311356
2.63945	312015
2.64757	300311
2.65568	291004
2.66382	282516
2.67193	287411
2.68005	286188
2.68818	283735
2.69630	281167
2.70443	274089
2.71255	272302
2.72067	269392
2.72880	273157
2.73692	266147
2.74505	287309
2.75317	320625
2.76128	306007
2.76942	278388
2.77753	278738
2.78567	258119
2.79378	264153
2.80190	260654
2.81003	247115
2.81815	248978
2.82627	245963
2.83440	251279
2.84252	238418
2.85065	235532
2.85877	239776
2.86688	227983
2.87502	222938
2.88313	235999
2.89127	234048
2.89938	232371
2.90750	227277
2.91563	237224
2.92375	223863
2.93188	252806
2.94000	268250
2.94812	240950
2.95625	241090
2.96437	228928
2.97248	228228
2.98062	226559
2.98873	221517
2.99687	228097
3.00498	216380
3.01310	219034
3.02123	219113
3.02935	205020
3.03748	206509
3.04560	212527
3.05372	206602
3.06185	198398
3.06997	196128
3.07808	202584
3.08622	202083
3.09433	205150
3.10247	203035
3.11058	199060
3.11870	201138
3.12683	197722
3.13495	200518
3.14308	189185
3.15120	188405
3.15932	208433
3.16745	203257
3.17557	196229
3.18370	197259
3.19182	190307
3.19993	195108
3.20807	195917
3.21618	194001
3.22430	192416
3.23243	188898
3.24055	182594
3.24868	196860
3.25680	200210
3.26492	455491
3.27305	1865938
3.28117	3392001
3.28930	2683327
3.29742	1649501
3.30553	1237499
3.31367	1023682
3.32178	863709
3.32992	748266
3.33803	655205
3.34615	683560
3.35428	1740707
3.36240	4526057
3.37052	5165747
3.37865	3422740
3.38677	2374251
3.39490	1909763
3.40302	1594977
3.41113	1379461
3.41927	1220591
3.42738	1085753
3.43552	960472
3.44363	929949
3.45175	1319722
3.45988	3438221
3.46800	7216243
3.47612	8366346
3.48425	6133865
3.49237	3979860
3.50050	2924987
3.50862	2351734
3.51673	1966506
3.52487	1708775
3.53298	1494327
3.54112	1330461
3.54923	1209034
3.55735	1096257
3.56548	997169
3.57360	923204
3.58173	882103
3.58985	829701
3.59797	789259
3.60610	743401
3.61422	713742
3.62233	673923
3.63047	624247
3.63858	614323
3.64672	590713
3.65483	568510
3.66295	548203
3.67108	540241
3.67920	530159
3.68733	515667
3.69545	494722
3.70357	478473
3.71170	463263
3.71982	458963
3.72795	448209
3.73607	436023
3.74418	435700
3.75232	419040
3.76043	406373
3.76855	407119
3.77668	393559
3.78480	387498
3.79293	388767
3.80105	373912
3.80917	372222
3.81730	359324
3.82542	350246
3.83355	351416
3.84167	343421
3.84978	351539
3.85792	506408
3.86603	1006031
3.87417	1409909
3.88228	1128679
3.89040	744981
3.89853	593055
3.90665	513360
3.91477	476572
3.92290	445530
3.93102	426708
3.93915	391583
3.94727	414153
3.95538	390443
3.96352	391047
3.97163	553160
3.97977	1345151
3.98788	2732168
3.99600	2949892
4.00413	1832298
4.01225	1002548
4.02037	707975
4.02850	579285
4.03662	528396
4.04475	469336
4.05287	437834
4.06098	420149
4.06912	404400
4.07723	427613
4.08537	471517
4.09348	455275
4.10160	399738
4.10973	360951
4.11785	347545
4.12598	325441
4.13410	335206
4.14222	308364
4.15035	326445
4.15847	309167
4.16658	309569
4.17472	295800
4.18283	281994
4.19097	297227
4.19908	280938
4.20720	279383
4.21533	278111
4.22345	274881
4.23158	279470
4.23970	266067
4.24782	257730
4.25595	267305
4.26407	260767
4.27220	258677
4.28032	263240
4.28843	253767
4.29657	256303
4.30468	259802
4.31280	250024
4.32093	244526
4.32905	245666
4.33718	245260
4.34530	238368
4.35342	241298
4.36155	279618
4.36967	446906
4.37780	804520
4.38592	1014566
4.39403	828113
4.40217	546481
4.41028	397386
4.41840	333519
4.42653	311270
4.43465	288489
4.44278	273051
4.45090	283134
4.45902	326516
4.46715	407665
4.47527	413681
4.48340	364576
4.49152	313757
4.49963	284570
4.50777	272546
4.51588	253619
4.52402	237458
4.53213	240075
4.54025	242147
4.54838	237027
4.55650	243507
4.56462	237507
4.57275	229791
4.58087	224372
4.58900	229231
4.59712	220450
4.60523	220175
4.61337	208709
4.62148	216324
4.62962	210429
4.63773	208423
4.64585	214676
4.65398	209579
4.66210	201703
4.67023	202814
4.67835	210137
4.68647	208539
4.69460	202407
4.70272	202645
4.71083	208474
4.71897	200085
4.72708	211893
4.73522	198765
4.74333	195063
4.75145	197144
4.75958	210491
4.76770	209994
4.77583	217472
4.78395	212534
4.79207	202882
4.80020	207000
4.80832	191100
4.81643	197343
4.82457	186121
4.83268	209180
4.84082	211519
4.84893	203312
4.85705	203004
4.86518	199960
4.87330	188729
4.88143	191753
4.88955	192037
4.89767	196987
4.90580	192055
4.91392	189207
4.92205	187645
4.93017	190175
4.93828	189571
4.94642	180711
4.95453	184638
4.96265	184011
4.97078	184461
4.97890	184398
4.98703	179161
4.99515	181779
5.00327	172837
5.01140	175920
5.01952	184785
5.02765	206895
5.03577	213779
5.04388	209077
5.05202	201492
5.06013	197685
5.06827	188790
5.07638	199881
5.08450	210700
5.09263	218034
5.10075	206710
5.10887	200729
5.11700	187026
5.12512	206997
5.13325	253975
5.14137	418450
5.14948	848540
5.15762	1417545
5.16573	1741404
5.17387	1574594
5.18198	1269867
5.19010	1066015
5.19823	1522021
5.20635	4210465
5.21448	1.016323E+07
5.22260	1.530596E+07
5.23072	1.360619E+07
5.23885	7931705
5.24697	4141268
5.25508	2696701
5.26322	2089219
5.27133	1745359
5.27947	1525640
5.28758	1346914
5.29570	1232871
5.30383	1128203
5.31195	1054898
5.32008	1002047
5.32820	950674
5.33632	895391
5.34445	860978
5.35257	827281
5.36068	788146
5.36882	754554
5.37693	730355
5.38507	707994
5.39318	668991
5.40130	630412
5.40943	621759
5.41755	603943
5.42568	577797
5.43380	562889
5.44192	557576
5.45005	543191
5.45817	530599
5.46630	516031
5.47442	509379
5.48253	492361
5.49067	501226
5.49878	470511
5.50690	448566
5.51503	462840
5.52315	449502
5.53128	440150
5.53940	434319
5.54752	442887
5.55565	416345
5.56377	408684
5.57190	404161
5.58002	406180
5.58813	397963
5.59627	430347
5.60438	435751
5.61252	418232
5.62063	391411
5.62875	396039
5.63688	474825
5.64500	704402
5.65312	984812
5.66125	1074686
5.66937	894325
5.67750	638941
5.68562	492662
5.69373	438288
5.70187	412409
5.70998	405681
5.71812	390786
5.72623	385435
5.73435	361657
5.74248	347921
5.75060	346852
5.75872	324473
5.76685	334884
5.77497	316836
5.78310	306444
5.79122	306199
5.79933	316424
5.80747	351441
5.81558	479198
5.82372	765898
5.83183	1061117
5.83995	1057251
5.84808	847934
5.85620	588006
5.86433	443210
5.87245	387789
5.88057	353147
5.88870	342998
5.89682	324332
5.90493	329039
5.91307	312276
5.92118	315802
5.92932	301340
5.93743	286801
5.94555	283847
5.95368	291635
5.96180	321388
5.96993	338076
5.97805	335222
5.98617	325554
5.99430	305164
6.00242	289607
6.01055	276745
6.01867	273313
6.02678	262637
6.03492	266000
6.04303	256612
6.05115	255286
6.05928	246479
6.06740	237283
6.07553	218332
6.08365	213512
6.09177	224279
6.09990	203842
6.10802	204509
6.11615	207833
6.12427	198348
6.13238	203189
6.14052	201418
6.14863	198923
6.15675	211563
6.16488	346069
6.17300	802640
6.18113	1711121
6.18925	2676768
6.19737	2695231
6.20550	1867436
6.21362	1014736
6.22175	587802
6.22987	432556
6.23798	368622
6.24612	361590
6.25423	471673
6.26237	870763
6.27048	1589308
6.27860	2333754
6.28673	2381772
6.29485	1729219
6.30297	1015152
6.31110	601164
6.31922	465847
6.32735	372977
6.33547	352354
6.34358	325052
6.35172	301664
6.35983	289126
6.36797	297555
6.37608	290336
6.38420	271425
6.39233	262212
6.40045	260205
6.40858	248098
6.41670	244500
6.42482	236316
6.43295	231644
6.44107	233226
6.44918	222160
6.45732	230018
6.46543	223695
6.47357	224486
6.48168	221460
6.48980	220920
6.49793	222844
6.50605	226908
6.51418	220621
6.52230	231046
6.53042	261015
6.53855	291768
6.54667	330652
6.55480	296794
6.56292	274072
6.57103	242652
6.57917	230906
6.58728	238924
6.59540	229574
6.60353	234941
6.61165	232585
6.61978	237241
6.62790	236527
6.63602	246908
6.64415	238502
6.65227	244426
6.66040	245388
6.66852	242744
6.67663	242885
6.68477	246284
6.69288	253097
6.70100	251347
6.70913	255140
6.71725	259877
6.72538	251899
6.73350	260607
6.74162	270011
6.74975	269957
6.75787	267094
6.76600	258987
6.77412	267437
6.78223	270131
6.79037	270792
6.79848	277360
6.80662	263779
6.81473	269409
6.82285	274547
6.83098	278591
6.83910	284410
6.84722	288009
6.85535	308575
6.86347	366257
6.87160	446672
6.87972	472902
6.88783	428981
6.89597	385111
6.90408	347939
6.91222	334386
6.92033	328067
6.92845	325686
6.93658	331146
6.94470	392631
6.95283	511178
6.96095	637877
6.96907	626827
6.97720	537765
6.98532	487989
6.99343	442399
7.00157	393587
7.00968	360088
7.01782	359708
7.02593	341741
7.03405	340482
7.04218	340104
7.05030	310667
7.05843	310621
7.06655	262723
7.07467	234513
7.08280	228330
7.09092	216847
7.09903	202365
7.10717	200125
7.11528	203746
7.12342	192999
7.13153	185435
7.13965	184728
7.14778	197043
7.15590	185428
7.16403	201245
7.17215	188137
7.18027	181910
7.18840	173966
7.19652	182250
7.20465	176892
7.21277	157830
7.22088	164063
7.22902	155121
7.23713	162284
7.24525	171428
7.25338	164895
7.26150	185656
7.26963	230295
7.27775	257674
7.28587	259280
7.29400	223987
7.30212	190168
7.31025	164133
7.31837	146700
7.32648	138329
7.33462	133257
7.34273	131003
7.35087	127399
7.35898	129111
7.36710	134109
7.37523	124923
7.38335	122712
7.39147	123065
7.39960	121178
7.40772	123580
7.41585	126864
7.42397	131885
7.43208	128542
7.44022	119791
7.44833	117348
7.45647	114027
7.46458	118753
7.47270	116421
7.48083	121541
7.48895	119645
7.49707	117397
7.50520	112384
7.51332	115745
7.52145	112885
7.52957	111794
7.53768	115208
7.54582	116002
7.55393	119137
7.56207	127553
7.57018	127511
7.57830	131665
7.58643	117618
7.59455	119480
7.60268	117795
7.61080	111789
7.61892	107404
7.62705	106162
7.63517	107624
7.64328	104144
7.65142	117666
7.65953	115149
7.66767	115223
7.67578	107098
7.68390	107083
7.69203	102379
7.70015	110344
7.70828	112082
7.71640	107541
7.72452	110727
7.73265	111337
7.74077	105626
7.74890	105792
7.75702	105463
7.76513	105639
7.77327	123032
7.78138	124827
7.78950	137881
7.79763	134981
7.80575	118663
7.81388	113485
7.82200	111397
7.83012	104378
7.83825	103708
7.84637	99771
7.85450	105831
7.86262	95546
7.87073	101737
7.87887	100158
7.88698	98168
7.89512	94119
7.90323	99801
7.91135	102815
7.91948	101246
7.92760	107058
7.93572	121157
7.94385	119571
7.95197	112075
7.96010	112688
7.96822	101221
7.97633	97445
7.98447	99275
7.99258	91788
8.00072	92478
8.00883	90911
8.01695	93141
8.02508	91101
8.03320	87953
8.04132	86363
8.04945	87545
8.05757	87982
8.06570	88476
8.07382	89115
8.08193	83316
8.09007	88090
8.09818	80456
8.10632	92650
8.11443	85114
8.12255	78233
8.13068	85633
8.13880	99511
8.14693	119770
8.15505	181302
8.16317	250576
8.17130	334312
8.17942	394581
8.18753	446756
8.19567	532040
8.20378	590052
8.21192	539536
8.22003	405752
8.22815	275611
8.23628	174994
8.24440	139145
8.25253	121384
8.26065	116186
8.26877	115072
8.27690	117566
8.28502	114319
8.29315	101540
8.30127	95056
8.30938	98751
8.31752	96747
8.32563	95604
8.33375	92051
8.34188	92749
8.35000	97898
8.35813	97601
8.36625	100454
8.37437	94574
8.38250	103837
8.39062	94146
8.39875	94751
8.40687	98294
8.41498	102474
8.42312	109613
8.43123	117081
8.43935	111311
8.44748	99674
8.45560	96018
8.46373	94968
8.47185	92869
8.47997	99300
8.48810	103352
8.49622	101489
8.50435	94706
8.51247	93570
8.52058	90744
8.52872	90586
8.53683	107042
8.54497	96829
8.55308	110566
8.56120	89443
8.56933	94455
8.57745	97023
8.58557	91817
8.59370	87891
8.60182	88306
8.60995	91606
8.61807	86082
8.62618	83639
8.63432	85674
8.64243	85865
8.65057	89042
8.65868	89404
8.66680	88862
8.67493	92660
8.68305	91912
8.69118	89762
8.69930	87356
8.70742	84165
8.71555	94031
8.72367	90676
8.73178	88089
8.73992	89122
8.74803	82637
8.75617	100549
8.76428	116470
8.77240	144281
8.78053	171818
8.78865	164667
8.79678	152824
8.80490	119534
8.81302	102020
8.82115	96991
8.82927	87938
8.83738	89866
8.84552	89666
8.85363	86144
8.86177	87119
8.86988	78684
8.87800	91924
8.88613	80881
8.89425	92591
8.90238	107993
8.91050	121412
8.91862	128607
8.92675	124784
8.93487	120690
8.94300	105200
8.95112	92566
8.95923	94875
8.96737	93804
8.97548	87788
8.98360	94055
8.99173	100373
8.99985	93281
9.00798	118792
9.01610	187882
9.02422	293053
9.03235	404432
9.04047	492429
9.04860	458286
9.05672	380951
9.06483	300968
9.07297	241512
9.08108	206476
9.08922	187357
9.09733	188741
9.10545	196968
9.11358	211173
9.12170	200190
9.12982	184923
9.13795	178794
9.14607	177837
9.15420	167551
9.16232	170926
9.17043	154094
9.17857	157273
9.18668	144333
9.19482	152690
9.20293	160311
9.21105	160389
9.21918	165236
9.22730	157073
9.23543	161612
9.24355	146552
9.25167	137103
9.25980	142730
9.26792	128672
9.27603	132882
9.28417	134774
9.29228	134232
9.30042	131741
9.30853	129563
9.31665	145653
9.32478	133215
9.33290	138327
9.34103	128017
9.34915	128284
9.35727	124571
9.36540	119457
9.37352	117644
9.38163	117728
9.38977	103131
9.39788	114065
9.40602	112155
9.41413	118772
9.42225	119918
9.43038	130838
9.43850	118071
9.44663	116958
9.45475	120503
9.46287	110558
9.47100	118338
9.47912	110411
9.48725	107295
9.49537	108840
9.50348	100561
9.51162	103229
9.51973	108148
9.52785	106412
9.53598	118230
9.54410	109589
9.55223	112594
9.56035	109157
9.56847	110122
9.57660	102067
9.58472	100834
9.59285	105801
9.60097	107353
9.60908	104302
9.61722	114621
9.62533	123760
9.63347	115126
9.64158	105128
9.64970	103896
9.65783	97357
9.66595	95520
9.67407	102975
9.68220	90644
9.69032	87917
9.69845	90697
9.70657	93251
9.71468	91455
9.72282	93381
9.73093	102007
9.73907	96525
9.74718	88906
9.75530	84250
9.76343	89447
9.77155	82451
9.77967	86946
9.78780	76018
9.79592	81967
9.80405	75662
9.81217	73512
9.82028	68947
9.82842	69685
9.83653	68678
9.84467	62329
9.85278	64379
9.86090	76334
9.86903	74172
9.87715	85174
9.88528	93871
9.89340	86437
9.90152	77949
9.90965	82661
9.91777	69848
9.92588	78309
9.93402	73107
9.94213	75806
9.95027	72579
9.95838	73698
9.96650	80571
9.97463	140794
9.98275	402324
9.99088	1244570
9.99900	3193796
10.00712	6170728
10.01525	8916694
10.02337	9622092
10.03150	7869762
10.03962	4821025
10.04773	2382706
10.05587	1083556
10.06398	513696
10.07210	328807
10.08023	311478
10.08835	364303
10.09648	450382
10.10460	519256
10.11272	537567
10.12085	529821
10.12897	493767
10.13710	458786
10.14522	431855
10.15333	386103
10.16147	362139
10.16958	334321
10.17770	336915
10.18583	320322
10.19395	309192
10.20208	285953
10.21020	288181
10.21832	302868
10.22645	291510
10.23457	289855
10.24270	288470
10.25082	289730
10.25893	295973
10.26707	277638
10.27518	269091
10.28332	276431
10.29143	259697
10.29955	250404
10.30768	241379
10.31580	228247
10.32392	233131
10.33205	223234
10.34017	214181
10.34830	211994
10.35642	205131
10.36453	200716
10.37267	201268
10.38078	192117
10.38892	197603
10.39703	185929
10.40515	183905
10.41328	178550
10.42140	184723
10.42953	175354
10.43765	175701
10.44577	168944
10.45390	167455
10.46202	170491
10.47013	162110
10.47827	159791
10.48638	169908
10.49452	157577
10.50263	153983
10.51075	154786
10.51888	144330
10.52700	154553
10.53513	154973
10.54325	150496
10.55137	151914
10.55950	150853
10.56762	152232
10.57575	151170
10.58387	166711
10.59198	152658
10.60012	149460
10.60823	143101
10.61635	142775
10.62448	139079
10.63260	136959
10.64073	134246
10.64885	141449
10.65697	134070
10.66510	144762
10.67322	157714
10.68135	177479
10.68947	178279
10.69758	182375
10.70572	189264
10.71383	200288
10.72195	221155
10.73008	224831
10.73820	204472
10.74633	174156
10.75445	147304
10.76257	131301
10.77070	130990
10.77882	117344
10.78695	117472
10.79507	114207
10.80318	117119
10.81132	118698
10.81943	123443
10.82757	124984
10.83568	128192
10.84380	116879
10.85193	128076
10.86005	131227
10.86817	119968
10.87630	122796
10.88442	117315
10.89255	115727
10.90067	113727
10.90878	105722
10.91692	106885
10.92503	118466
10.93317	117029
10.94128	135006
10.94940	158452
10.95753	201119
10.96565	204843
10.97378	195148
10.98190	161193
10.99002	126744
10.99815	91235
11.00627	81267
11.01438	69114
11.02252	71510
11.03063	71660
11.03877	72160
11.04688	64728
11.05500	68974
11.06313	67289
11.07125	66648
11.07938	66472
11.08750	67785
11.09562	63157
11.10375	61597
11.11187	61943
11.11998	65819
11.12812	72558
11.13623	76347
11.14437	66404
11.15248	65865
11.16060	72576
11.16873	65007
11.17685	63203
11.18498	62458
11.19310	67286
11.20122	65361
11.20935	66089
11.21747	63561
11.22560	63433
11.23372	59516
11.24183	60409
11.24997	66681
11.25808	67563
11.26620	61530
11.27433	65172
11.28245	63976
11.29058	67444
11.29870	78347
11.30682	82634
11.31495	88345
11.32307	85740
11.33120	79571
11.33932	71712
11.34743	66021
11.35557	68850
11.36368	64501
11.37182	74510
11.37993	90250
11.38805	137719
11.39618	249455
11.40430	416449
11.41242	660530
11.42055	968319
11.42867	1283800
11.43680	1441014
11.44492	1293014
11.45303	980425
11.46117	599270
11.46928	337939
11.47742	206342
11.48553	165035
11.49365	151729
11.50178	152968
11.50990	154307
11.51802	153099
11.52615	140637
11.53427	140753
11.54240	122070
11.55052	127182
11.55863	113694
11.56677	110761
11.57488	108049
11.58302	109007
11.59113	99269
11.59925	98123
11.60738	97903
11.61550	103421
11.62363	86707
11.63175	91132
11.63987	90341
11.64800	92479
11.65612	90058
11.66423	84304
11.67237	82044
11.68048	80557
11.68862	85393
11.69673	84155
11.70485	82478
11.71298	84814
11.72110	77941
11.72923	80104
11.73735	72196
11.74547	78855
11.75360	76879
11.76172	74670
11.76985	74385
11.77797	72662
11.78608	77275
11.79422	74090
11.80233	85443
11.81045	79460
11.81858	85571
11.82670	103005
11.83483	101380
11.84295	100692
11.85107	99329
11.85920	89023
11.86732	79877
11.87545	77615
11.88357	78607
11.89168	83701
11.89982	80609
11.90793	88515
11.91607	91090
11.92418	97422
11.93230	88107
11.94043	84176
11.94855	86251
11.95667	79196
11.96480	80038
11.97292	74987
11.98105	75800
11.98917	66535
11.99728	63406
12.00542	67864
12.01353	67911
12.02167	74705
12.02978	81173
12.03790	77122
12.04603	75971
12.05415	73599
12.06227	73963
12.07040	74190
12.07852	70992
12.08665	77094
12.09477	75018
12.10288	76443
12.11102	77450
12.11913	75311
12.12727	78992
12.13538	74860
12.14350	66585
12.15163	73459
12.15975	69458
12.16788	71820
12.17600	60144
12.18412	62778
12.19225	59853
12.20037	59558
12.20848	57589
12.21662	60276
12.22473	53684
12.23287	57729
12.24098	57862
12.24910	52570
12.25723	55554
12.26535	58227
12.27348	65182
12.28160	56633
12.28972	58802
12.29785	52080
12.30597	60559
12.31410	57572
12.32222	56200
12.33033	59105
12.33847	71223
12.34658	61464
12.35470	60406
12.36283	63682
12.37095	63236
12.37908	56988
12.38720	56965
12.39532	67084
12.40345	78953
12.41157	104897
12.41970	139828
12.42782	155714
12.43593	145264
12.44407	131083
12.45218	102316
12.46032	78935
12.46843	63695
12.47655	58399
12.48468	60047
12.49280	59424
12.50092	61181
12.50905	59183
12.51717	54552
12.52530	59018
12.53342	53218
12.54153	54058
12.54967	65170
12.55778	52066
12.56592	51199
12.57403	54397
12.58215	54720
12.59028	56273
12.59840	66142
12.60652	106525
12.61465	180622
12.62277	308141
12.63090	454605
12.63902	534882
12.64713	506586
12.65527	372753
12.66338	235331
12.67152	148743
12.67963	108891
12.68775	100467
12.69588	91755
12.70400	81680
12.71213	79250
12.72025	74781
12.72837	73406
12.73650	79447
12.74462	68585
12.75273	71184
12.76087	67303
12.76898	69025
12.77712	65704
12.78523	67182
12.79335	66334
12.80148	66004
12.80960	65997
12.81773	66046
12.82585	62898
12.83397	67132
12.84210	73568
12.85022	63016
12.85835	71743
12.86647	60313
12.87458	58303
12.88272	59228
12.89083	59464
12.89895	59372
12.90708	62758
12.91520	59387
12.92333	69258
12.93145	56701
12.93957	57119
12.94770	54324
12.95582	63288
12.96395	56598
12.97207	55144
12.98018	64074
12.98832	55684
12.99643	57859
13.00455	61522
13.01268	57408
13.02080	56528
13.02893	55319
13.03705	55278
13.04517	54739
13.05330	49950
13.06142	50927
13.06955	55807
13.07767	49575
13.08578	54523
13.09392	54432
13.10203	58172
13.11017	66720
13.11828	62626
13.12640	62553
13.13453	58477
13.14265	59239
13.15077	62815
13.15890	74445
13.16702	87870
13.17515	97491
13.18327	108113
13.19138	105018
13.19952	90490
13.20763	74605
13.21577	67552
13.22388	59827
13.23200	61673
13.24013	54580
13.24825	53189
13.25638	53141
13.26450	57538
13.27262	48368
13.28075	50577
13.28887	47144
13.29698	50984
13.30512	47737
13.31323	48932
13.32137	51696
13.32948	53535
13.33760	52007
13.34573	56550
13.35385	57588
13.36198	68658
13.37010	54736
13.37822	55458
13.38635	53181
13.39447	51892
13.40260	51639
13.41072	48512
13.41883	61279
13.42697	50843
13.43508	60037
13.44320	54093
13.45133	48241
13.45945	50496
13.46758	66096
13.47570	55969
13.48382	52703
13.49195	55288
13.50007	51829
13.50820	50978
13.51632	51862
13.52443	51697
13.53257	51530
13.54068	57421
13.54880	55054
13.55693	49112
13.56505	48003
13.57318	50653
13.58130	52957
13.58942	55442
13.59755	44538
13.60567	50537
13.61380	42993
13.62192	48733
13.63003	56063
13.63817	56595
13.64628	47226
13.65442	46725
13.66253	45496
13.67065	50638
13.67878	49548
13.68690	46401
13.69502	48093
13.70315	41739
13.71127	46859
13.71940	52341
13.72752	46432
13.73563	48744
13.74377	45877
13.75188	47077
13.76002	42973
13.76813	45323
13.77625	48146
13.78438	44652
13.79250	42229
13.80063	47472
13.80875	44490
13.81687	39495
13.82500	50500
13.83312	42958
13.84123	44460
13.84937	45359
13.85748	41519
13.86562	45137
13.87373	45988
13.88185	53073
13.88998	43252
13.89810	43280
13.90623	43404
13.91435	39887
13.92247	43194
13.93060	43496
13.93872	45733
13.94683	42734
13.95497	41952
13.96308	43071
13.97122	51355
13.97933	43232
13.98745	44423
13.99558	50421
14.00370	63302
14.01183	99677
14.01995	119078
14.02807	142807
14.03620	151004
14.04432	135120
14.05245	92599
14.06057	86887
14.06868	61623
14.07682	66624
14.08493	55753
14.09305	61542
14.10118	56185
14.10930	67667
14.11743	54888
14.12555	49209
14.13367	52211
14.14180	51340
14.14992	48010
14.15805	44577
14.16617	47801
14.17428	48875
14.18242	50619
14.19053	55737
14.19867	64541
14.20678	74753
14.21490	73438
14.22303	79850
14.23115	65279
14.23927	63313
14.24740	59862
14.25552	53788
14.26365	53756
14.27177	51768
14.27988	50457
14.28802	45188
14.29613	48730
14.30427	48550
14.31238	52371
14.32050	47368
14.32863	51584
14.33675	52589
14.34487	49767
14.35300	49805
14.36112	54798
14.36925	49768
14.37737	47981
14.38548	54527
14.39362	46907
14.40173	47079
14.40987	44775
14.41798	46628
14.42610	48084
14.43423	45185
14.44235	47811
14.45048	50944
14.45860	64130
14.46672	74523
14.47485	104726
14.48297	138447
14.49108	160723
14.49922	163007
14.50733	152306
14.51547	147446
14.52358	127740
14.53170	124344
14.53983	117328
14.54795	121728
14.55608	132428
14.56420	135619
14.57232	133906
14.58045	124422
14.58857	103056
14.59670	95614
14.60482	91361
14.61293	83899
14.62107	81382
14.62918	73972
14.63730	75419
14.64543	72288
14.65355	79411
14.66168	85854
14.66980	88564
14.67792	82817
14.68605	75140
14.69417	71178
14.70230	60555
14.71042	53823
14.71853	48029
14.72667	49152
14.73478	49021
14.74292	62548
14.75103	53568
14.75915	59689
14.76728	50001
14.77540	55693
14.78352	50697
14.79165	51533
14.79977	48473
14.80790	44893
14.81602	45741
14.82413	51099
14.83227	49770
14.84038	47872
14.84852	55149
14.85663	48630
14.86475	47349
14.87288	50047
14.88100	50272
14.88912	53208
14.89725	45944
14.90537	47290
14.91350	50910
14.92162	50469
14.92973	48589
14.93787	49490
14.94598	59472
14.95412	48630
14.96223	45526
14.97035	46238
14.97848	47074
14.98660	47210
14.99473	43554
15.00285	47113
15.01097	54349
15.01910	44498
15.02722	44392
15.03533	48619
15.04347	46843
15.05158	43365
15.05972	45489
15.06783	45439
15.07595	40093
15.08408	49844
15.09220	49376
15.10033	41230
15.10845	45237
15.11657	41108
15.12470	45902
15.13282	45615
15.14095	41539
15.14907	54162
15.15718	45834
15.16532	49939
15.17343	45480
15.18155	43721
15.18968	45223
15.19780	43232
15.20593	40136
15.21405	51604
15.22217	42984
15.23030	40623
15.23842	46375
15.24655	53000
15.25467	60518
15.26278	71363
15.27092	77630
15.27903	74698
15.28715	68947
15.29528	69815
15.30340	58109
15.31153	55320
15.31965	46281
15.32777	55370
15.33590	49388
15.34402	49976
15.35215	51443
15.36027	46894
15.36838	50428
15.37652	52087
15.38463	47050
15.39277	46820
15.40088	53061
15.40900	46382
15.41713	47375
15.42525	44303
15.43337	48317
15.44150	45334
15.44962	46855
15.45775	47741
15.46587	45649
15.47398	46916
15.48212	51161
15.49023	50658
15.49837	47781
15.50648	47148
15.51460	44742
15.52273	43513
15.53085	46140
15.53898	46839
15.54710	44673
15.55522	45448
15.56335	44255
15.57147	48844
15.57958	44219
15.58772	52254
15.59583	46382
15.60397	40062
15.61208	43103
15.62020	44619
15.62833	44103
15.63645	39320
15.64458	43402
15.65270	46901
15.66082	41406
15.66895	44160
15.67707	39906
15.68518	41550
15.69332	38910
15.70143	40792
15.70957	41579
15.71768	46430
15.72580	39804
15.73393	40776
15.74205	38783
15.75018	44321
15.75830	42633
15.76642	42467
15.77455	42496
15.78267	44953
15.79080	50743
15.79892	40668
15.80703	40276
15.81517	40971
15.82328	41149
15.83140	43470
15.83953	43022
15.84765	42154
15.85578	49246
15.86390	52789
15.87202	55043
15.88015	40402
15.88827	46764
15.89640	41905
15.90452	41962
15.91263	41794
15.92077	43063
15.92888	37645
15.93702	42019
15.94513	42105
15.95325	40012
15.96138	47497
15.96950	40729
15.97762	45057
15.98575	47518
15.99387	46622
16.00200	48526
16.01012	46273
16.01823	51177
16.02637	43044
16.03448	39565
16.04262	45152
16.05073	41230
16.05885	46971
16.06698	49412
16.07510	41797
16.08323	39371
16.09135	42820
16.09947	47051
16.10760	43008
16.11572	47537
16.12383	40596
16.13197	41639
16.14008	38461
16.14822	39458
16.15633	43871
16.16445	41766
16.17258	46894
16.18070	39022
16.18883	48232
16.19695	45374
16.20507	44225
16.21320	45707
16.22132	52398
16.22943	60395
16.23757	60275
16.24568	61702
16.25382	55753
16.26193	50598
16.27005	45330
16.27818	44596
16.28630	42303
16.29443	45694
16.30255	42340
16.31067	47585
16.31880	50393
16.32692	54720
16.33505	62871
16.34317	71871
16.35128	71501
16.35942	72438
16.36753	57451
16.37565	53929
16.38378	48603
16.39190	44424
16.40003	46583
16.40815	50041
16.41627	52151
16.42440	59693
16.43252	64719
16.44065	67570
16.44877	65855
16.45688	73343
16.46502	66993
16.47313	52788
16.48127	50874
16.48938	51607
16.49750	45873
16.50563	46403
16.51375	46129
16.52187	45913
16.53000	42285
16.53812	42246
16.54625	48278
16.55437	49320
16.56248	45317
16.57062	44048
16.57873	42261
16.58687	41207
16.59498	44523
16.60310	42368
16.61123	46175
16.61935	44980
16.62747	46284
16.63560	44598
16.64372	43357
16.65185	44895
16.65997	45689
16.66808	42823
16.67622	43962
16.68433	44528
16.69247	43301
16.70058	46777
16.70870	45042
16.71683	51577
16.72495	46280
16.73308	40507
16.74120	43962
16.74932	44007
16.75745	43769
16.76557	42186
16.77368	41185
16.78182	40034
16.78993	43242
16.79807	48373
16.80618	45093
16.81430	48015
16.82243	46361
16.83055	55849
16.83868	49944
16.84680	49255
16.85492	46338
16.86305	45684
16.87117	46555
16.87930	50304
16.88742	48158
16.89553	47712
16.90367	45600
16.91178	45167
16.91990	42974
16.92803	46635
16.93615	45811
16.94428	49540
16.95240	43429
16.96052	43768
16.96865	48420
16.97677	46580
16.98490	45785
16.99302	47522
17.00113	44491
17.00927	46140
17.01738	49139
17.02550	48247
17.03363	44116
17.04175	44759
17.04988	42095
17.05800	50416
17.06612	41967
17.07425	51430
17.08237	44871
17.09050	55152
17.09862	56376
17.10673	49329
17.11487	47852
17.12298	43555
17.13112	43520
17.13923	45551
17.14735	45011
17.15548	55766
17.16360	53348
17.17172	65668
17.17985	61143
17.18797	62436
17.19610	61922
17.20422	53206
17.21233	52144
17.22047	45593
17.22858	45814
17.23672	42291
17.24483	42129
17.25295	41242
17.26108	45484
17.26920	46428
17.27733	48138
17.28545	42634
17.29357	41263
17.30170	41568
17.30982	41162
17.31793	42209
17.32607	40456
17.33418	40278
17.34232	47777
17.35043	43226
17.35855	40399
17.36668	41523
17.37480	41993
17.38293	45371
17.39105	38157
17.39917	41059
17.40730	41223
17.41542	38954
17.42355	40869
17.43167	35558
17.43978	37458
17.44792	37077
17.45603	47858
17.46415	39120
17.47228	40477
17.48040	41664
17.48853	39117
17.49665	40916
17.50477	41257
17.51290	42575
17.52102	39000
17.52915	49015
17.53727	38648
17.54538	45177
17.55352	52670
17.56163	43338
17.56975	44403
17.57788	42801
17.58600	38315
17.59413	49986
17.60225	46875
17.61037	40374
17.61850	48758
17.62662	43396
17.63475	40233
17.64287	43446
17.65098	40022
17.65912	40820
17.66723	40364
17.67537	42008
17.68348	43696
17.69160	46975
17.69973	38800
17.70785	43196
17.71597	39395
17.72410	48693
17.73222	41686
17.74035	42462
17.74847	40989
17.75658	41077
17.76472	43101
17.77283	43667
17.78097	49580
17.78908	51752
17.79720	52994
17.80533	50920
17.81345	51478
17.82158	46279
17.82970	58809
17.83782	48286
17.84595	46891
17.85407	45557
17.86218	47441
17.87032	47184
17.87843	51147
17.88657	49436
17.89468	47471
17.90280	47274
17.91093	44125
17.91905	43380
17.92718	49108
17.93530	42332
17.94342	41069
17.95155	46082
17.95967	51432
17.96778	42618
17.97592	46504
17.98403	43746
17.99217	43429
18.00028	46122
18.00840	44841
18.01653	43596
18.02465	44391
18.03278	38828
18.04090	41922
18.04902	52933
18.05715	43894
18.06527	44346
18.07340	44420
18.08152	52105
18.08963	50959
18.09777	54770
18.10588	55727
18.11400	49418
18.12213	48627
18.13025	48616
18.13838	52690
18.14650	44796
18.15462	47577
18.16275	47007
18.17087	41893
18.17900	44987
18.18712	46438
18.19523	42585
18.20337	45566
18.21148	51390
18.21962	43879
18.22773	43155
18.23585	44546
18.24398	48831
18.25210	47194
18.26022	44354
18.26835	47856
18.27647	47520
18.28460	46833
18.29272	44325
18.30083	42989
18.30897	49278
18.31708	47409
18.32522	46527
18.33333	41846
18.34145	47182
18.34958	41565
18.35770	45354
18.36582	46427
18.37395	47299
18.38207	53680
18.39020	44312
18.39832	45589
18.40643	45709
18.41457	47874
18.42268	41463
18.43082	42655
18.43893	52130
18.44705	52672
18.45518	43021
18.46330	41444
18.47143	43512
18.47955	53886
18.48767	45124
18.49580	42081
18.50392	43165
18.51203	45070
18.52017	52605
18.52828	48507
18.53642	46539
18.54453	54311
18.55265	56511
18.56078	46405
18.56890	55815
18.57703	48442
18.58515	44198
18.59327	46048
18.60140	47226
18.60952	48919
18.61765	49718
18.62577	51790
18.63388	41550
18.64202	43141
18.65013	43737
18.65825	43584
18.66638	41457
18.67450	39808
18.68263	43423
18.69075	43180
18.69887	42683
18.70700	47361
18.71512	49199
18.72325	50295
18.73137	57346
18.73948	56208
18.74762	55679
18.75573	57226
18.76387	67021
18.77198	56263
18.78010	56001
18.78823	60884
18.79635	59208
18.80447	55384
18.81260	60833
18.82072	56038
18.82885	52487
18.83697	58048
18.84508	62921
18.85322	50987
18.86133	59100
18.86947	52792
18.87758	51733
18.88570	49993
18.89383	52943
18.90195	49366
18.91007	52026
18.91820	49264
18.92632	54796
18.93445	56262
18.94257	57311
18.95068	58742
18.95882	58303
18.96693	60234
18.97507	59563
18.98318	56012
18.99130	50699
18.99943	53151
19.00755	54992
19.01568	59671
19.02380	64341
19.03192	69608
19.04005	70564
19.04817	75327
19.05628	60676
19.06442	57059
19.07253	54199
19.08067	49399
19.08878	49423
19.09690	45556
19.10503	43774
19.11315	44976
19.12128	50222
19.12940	46804
19.13752	44503
19.14565	49441
19.15377	44284
19.16190	52831
19.17002	44147
19.17813	52238
19.18627	40450
19.19438	42513
19.20250	45728
19.21063	53644
19.21875	51042
19.22688	46698
19.23500	42692
19.24312	43592
19.25125	43089
19.25937	45674
19.26750	41653
19.27562	45505
19.28373	40301
19.29187	42583
19.29998	47826
19.30810	44704
19.31623	42336
19.32435	40081
19.33248	41296
19.34060	42131
19.34872	38690
19.35685	47206
19.36497	42862
19.37310	45212
19.38122	38285
19.38933	43807
19.39747	45394
19.40558	39684
19.41372	43686
19.42183	44366
19.42995	44813
19.43808	42735
19.44620	42029
19.45432	46061
19.46245	45248
19.47057	42079
19.47870	42741
19.48682	38200
19.49493	43818
19.50307	39648
19.51118	44429
19.51932	42762
19.52743	48302
19.53555	47731
19.54368	51471
19.55180	60035
19.55993	72436
19.56805	73195
19.57617	72077
19.58430	69347
19.59242	78849
19.60053	64074
19.60867	63276
19.61678	67243
19.62492	73064
19.63303	67713
19.64115	60708
19.64928	58066
19.65740	64674
19.66553	52287
19.67365	51057
19.68177	47274
19.68990	49540
19.69802	50892
19.70613	54511
19.71427	61110
19.72238	57922
19.73052	61278
19.73863	63649
19.74675	54673
19.75488	50911
19.76300	49128
19.77113	53151
19.77925	55328
19.78737	69932
19.79550	93284
19.80362	107123
19.81175	122827
19.81987	120457
19.82798	109586
19.83612	88300
19.84423	67969
19.85235	53966
19.86048	54648
19.86860	49125
19.87673	45604
19.88485	54823
19.89297	49087
19.90110	48573
19.90922	49908
19.91735	43610
19.92547	47331
19.93358	45263
19.94172	45834
19.94983	49234
19.95797	44495
19.96608	52685
19.97420	44745
19.98233	46168
19.99045	44544
19.99857	54185
20.00670	59724
20.01482	66115
20.02295	91910
20.03107	157512
20.03918	265010
20.04732	387422
20.05543	510908
20.06357	554553
20.07168	489138
20.07980	409180
20.08793	306579
20.09605	220088
20.10418	180851
20.11230	133996
20.12042	120816
20.12855	107344
20.13667	90453
20.14478	78717
20.15292	81042
20.16103	72023
20.16917	64628
20.17728	62321
20.18540	63406
20.19353	57418
20.20165	57770
20.20978	66814
20.21790	64144
20.22602	52290
20.23415	60468
20.24227	57940
20.25038	53955
20.25852	55903
20.26663	51904
20.27477	54537
20.28288	50868
20.29100	51420
20.29913	49348
20.30725	44916
20.31538	47847
20.32350	46021
20.33162	48304
20.33975	47139
20.34787	48025
20.35600	57576
20.36412	67637
20.37223	65889
20.38037	83238
20.38848	80037
20.39660	88793
20.40473	84497
20.41285	84975
20.42098	80546
20.42910	76610
20.43722	72358
20.44535	73018
20.45347	70411
20.46160	70299
20.46972	69577
20.47783	66853
20.48597	68118
20.49408	63787
20.50222	66380
20.51033	61752
20.51845	61620
20.52658	56487
20.53470	56991
20.54282	50826
20.55095	60839
20.55907	52577
20.56720	54082
20.57532	59920
20.58343	57236
20.59157	79730
20.59968	112993
20.60782	186095
20.61593	249118
20.62405	299115
20.63218	312087
20.64030	285286
20.64842	231656
20.65655	187552
20.66467	140953
20.67280	109014
20.68092	93770
20.68903	79864
20.69717	71335
20.70528	69568
20.71342	60824
20.72153	73361
20.72965	63146
20.73778	54853
20.74590	58619
20.75403	60581
20.76215	74666
20.77027	85585
20.77840	107485
20.78652	128925
20.79463	126938
20.80277	126853
20.81088	127856
20.81902	93816
20.82713	97287
20.83525	75387
20.84338	68960
20.85150	67445
20.85963	65069
20.86775	56099
20.87587	56189
20.88400	53213
20.89212	54720
20.90025	51536
20.90837	55509
20.91648	51338
20.92462	51089
20.93273	51180
20.94085	53356
20.94898	50267
20.95710	50143
20.96523	47195
20.97335	47998
20.98147	46175
20.98960	44827
20.99772	50798
21.00585	45190
21.01397	43325
21.02208	43776
21.03022	44238
21.03833	41586
21.04645	41438
21.05458	50345
21.06270	43425
21.07083	47469
21.07895	43377
21.08707	44702
21.09520	43923
21.10332	44011
21.11145	45017
21.11957	45574
21.12768	42183
21.13582	41783
21.14393	43808
21.15207	43094
21.16018	41370
21.16830	47700
21.17643	42518
21.18455	54147
21.19267	42382
21.20080	42467
21.20892	41674
21.21705	48275
21.22517	62447
21.23328	86562
21.24142	151348
21.24953	278928
21.25767	393546
21.26578	513188
21.27390	526660
21.28203	453106
21.29015	313840
21.29828	219291
21.30640	137496
21.31452	101092
21.32265	86527
21.33077	74570
21.33888	71712
21.34702	63111
21.35513	61007
21.36327	58279
21.37138	51686
21.37950	51229
21.38763	48408
21.39575	48931
21.40388	50620
21.41200	48039
21.42012	54249
21.42825	48973
21.43637	49789
21.44450	54267
21.45262	52079
21.46073	50657
21.46887	50366
21.47698	52884
21.48510	47551
21.49323	47859
21.50135	48415
21.50948	46193
21.51760	46863
21.52572	46377
21.53385	46181
21.54197	49049
21.55010	45081
21.55822	44393
21.56633	47979
21.57447	42270
21.58258	46786
21.59070	50545
21.59883	46786
21.60695	49604
21.61508	48887
21.62320	50766
21.63132	51007
21.63945	52044
21.64757	50217
21.65570	48873
21.66382	51625
21.67193	44082
21.68007	54304
21.68818	58340
21.69632	50151
21.70443	46911
21.71255	48641
21.72068	48460
21.72880	50227
21.73692	56612
21.74505	51544
21.75317	56511
21.76130	49507
21.76942	46939
21.77753	46290
21.78567	44528
21.79378	47643
21.80192	49045
21.81003	44614
21.81815	48362
21.82628	43410
21.83440	48105
21.84253	46714
21.85065	44787
21.85877	42484
21.86690	44558
21.87502	45719
21.88313	48735
21.89127	45692
21.89938	47386
21.90752	54123
21.91563	47389
21.92375	50433
21.93188	60071
21.94000	68537
21.94813	94343
21.95625	107323
21.96437	111206
21.97250	110887
21.98062	89044
21.98873	81755
21.99687	67274
22.00498	62339
22.01312	57096
22.02123	50299
22.02935	51451
22.03748	51169
22.04560	48894
22.05373	56406
22.06185	50235
22.06997	45070
22.07810	44660
22.08622	46703
22.09435	52357
22.10247	45608
22.11058	46265
22.11872	51229
22.12683	50407
22.13495	57124
22.14308	69766
22.15120	85216
22.15933	106832
22.16745	112059
22.17557	107830
22.18370	99463
22.19182	78806
22.19995	64165
22.20807	58861
22.21618	57048
22.22432	57764
22.23243	60272
22.24057	54012
22.24868	60985
22.25680	52902
22.26493	54358
22.27305	52403
22.28117	54503
22.28930	53488
22.29742	50293
22.30555	48451
22.31367	50103
22.32178	49708
22.32992	54595
22.33803	49407
22.34617	47408
22.35428	45150
22.36240	48603
22.37053	46414
22.37865	49435
22.38677	55643
22.39490	56453
22.40302	47895
22.41115	46575
22.41927	44816
22.42738	43393
22.43552	44827
22.44363	51500
22.45177	52157
22.45988	51334
22.46800	52576
22.47613	49612
22.48425	56738
22.49238	52195
22.50050	45364
22.50862	54111
22.51675	46108
22.52487	56929
22.53298	56430
22.54112	61178
22.54923	67826
22.55737	78859
22.56548	93132
22.57360	98265
22.58173	102537
22.58985	105050
22.59798	86481
22.60610	77384
22.61422	72105
22.62235	63505
22.63047	64340
22.63860	57923
22.64672	55438
22.65483	50324
22.66297	50430
22.67108	56236
22.67920	49615
22.68733	50814
22.69545	48332
22.70358	49290
22.71170	47247
22.71982	52688
22.72795	58672
22.73607	60461
22.74420	48616
22.75232	49315
22.76043	46146
22.76857	47938
22.77668	47398
22.78482	45294
22.79293	48138
22.80105	56359
22.80918	57897
22.81730	60818
22.82542	52981
22.83355	47346
22.84167	58360
22.84980	52297
22.85792	49664
22.86603	47455
22.87417	49823
22.88228	48653
22.89042	45406
22.89853	44756
22.90665	47863
22.91478	50074
22.92290	49366
22.93102	51257
22.93915	49636
22.94727	44272
22.95540	47646
22.96352	54468
22.97163	50106
22.97977	46210
22.98788	46881
22.99602	49856
23.00413	49305
23.01225	46778
23.02038	46340
23.02850	47141
23.03663	44944
23.04475	50886
23.05287	42686
23.06100	46150
23.06912	43865
23.07723	47454
23.08537	49436
23.09348	47285
23.10162	57008
23.10973	45729
23.11785	53685
23.12598	46422
23.13410	47707
23.14223	52086
23.15035	44013
23.15847	48501
23.16660	59206
23.17472	47709
23.18285	53739
23.19097	62764
23.19908	59639
23.20722	58078
23.21533	57557
23.22345	53772
23.23158	52901
23.23970	50442
23.24783	55057
23.25595	47700
23.26407	44757
23.27220	46720
23.28032	51914
23.28845	49810
23.29657	46475
23.30468	44978
23.31282	45481
23.32093	48810
23.32905	50373
23.33718	63439
23.34530	56167
23.35343	57772
23.36155	61193
23.36967	59880
23.37780	59054
23.38592	61099
23.39405	63772
23.40217	60191
23.41028	58442
23.41842	56378
23.42653	56677
23.43467	62713
23.44278	64356
23.45090	84245
23.45903	82169
23.46715	93172
23.47527	109132
23.48340	119271
23.49152	112891
23.49965	105414
23.50777	94234
23.51588	103277
23.52402	86883
23.53213	85056
23.54027	81561
23.54838	85415
23.55650	68108
23.56463	61193
23.57275	56493
23.58088	56425
23.58900	57031
23.59712	56036
23.60525	49755
23.61337	54927
23.62148	50269
23.62962	53072
23.63773	60295
23.64587	48597
23.65398	51783
23.66210	49506
23.67023	49455
23.67835	46993
23.68648	56347
23.69460	46163
23.70272	47532
23.71085	45432
23.71897	46359
23.72710	49433
23.73522	45633
23.74333	46885
23.75147	46471
23.75958	45642
23.76770	50067
23.77583	46144
23.78395	56508
23.79208	54774
23.80020	52982
23.80832	44532
23.81645	47387
23.82457	46993
23.83270	48621
23.84082	45634
23.84893	45174
23.85707	45938
23.86518	45355
23.87330	42379
23.88143	42319
23.88955	45428
23.89768	42628
23.90580	44679
23.91392	48526
23.92205	44907
23.93017	45153
23.93830	46754
23.94642	45307
23.95453	43395
23.96267	49364
23.97078	53949
23.97892	49564
23.98703	45574
23.99515	46116
24.00328	44929
24.01140	43765
24.01952	45667
24.02765	53578
24.03577	47402
24.04390	51219
24.05202	48807
24.06013	50402
24.06827	61339
24.07638	51284
24.08452	54187
24.09263	56112
24.10075	52035
24.10888	54377
24.11700	54153
24.12513	52803
24.13325	53921
24.14137	59372
24.14950	54656
24.15762	58574
24.16573	59602
24.17387	63530
24.18198	69487
24.19012	66721
24.19823	67586
24.20635	65586
24.21448	67464
24.22260	86332
24.23073	158697
24.23885	452318
24.24697	1281388
24.25510	3093744
24.26322	5744112
24.27135	7770362
24.27947	8486870
24.28758	7934401
24.29572	6555482
24.30383	5012686
24.31195	3757443
24.32008	2792102
24.32820	2151120
24.33633	1696133
24.34445	1349322
24.35257	1073418
24.36070	870808
24.36882	711065
24.37695	572512
24.38507	478288
24.39318	418765
24.40132	366743
24.40943	323143
24.41755	299068
24.42568	266711
24.43380	238677
24.44193	227357
24.45005	214139
24.45817	200450
24.46630	176929
24.47442	168451
24.48255	160036
24.49067	148543
24.49878	135567
24.50692	133995
24.51503	133362
24.52317	127442
24.53128	135249
24.53940	134599
24.54753	130833
24.55565	124721
24.56377	114621
24.57190	101412
24.58002	103793
24.58815	97598
24.59627	97249
24.60438	90757
24.61252	89359
24.62063	86803
24.62877	85067
24.63688	82234
24.64500	87954
24.65313	85232
24.66125	84454
24.66938	87677
24.67750	94877
24.68562	99883
24.69375	106416
24.70187	123944
24.70998	135501
24.71812	129732
24.72623	128618
24.73437	111608
24.74248	98450
24.75060	83975
24.75873	85835
24.76685	79105
24.77498	75315
24.78310	76834
24.79122	78909
24.79935	83443
24.80747	86468
24.81558	93203
24.82372	95348
24.83183	100696
24.83997	90490
24.84808	83755
24.85620	76413
24.86433	84627
24.87245	70068
24.88058	66649
24.88870	71345
24.89682	64354
24.90495	65227
24.91307	63967
24.92120	69151
24.92932	66728
24.93743	66028
24.94557	63813
24.95368	65708
24.96180	62205
24.96993	66259
24.97805	61510
24.98618	70150
24.99430	60712
25.00242	56724
25.01055	59697
25.01867	59506
25.02680	60806
25.03492	57709
25.04303	57123
25.05117	65977
25.05928	60966
25.06742	61754
25.07553	60270
25.08365	60192
25.09178	61039
25.09990	60502
25.10802	68288
25.11615	61475
25.12427	68718
25.13240	62993
25.14052	59575
25.14863	66645
25.15677	71547
25.16488	75306
25.17302	74733
25.18113	84458
25.18925	68039
25.19738	66076
25.20550	67792
25.21362	61402
25.22175	59379
25.22987	60259
25.23800	54185
25.24612	58884
25.25423	61794
25.26237	68080
25.27048	56608
25.27862	57266
25.28673	60834
25.29485	61337
25.30298	54418
25.31110	66273
25.31923	53560
25.32735	57896
25.33547	58845
25.34360	57003
25.35172	57221
25.35983	54134
25.36797	57629
25.37608	55597
25.38422	54206
25.39233	55426
25.40045	55150
25.40858	52392
25.41670	55986
25.42483	56090
25.43295	54530
25.44107	54836
25.44920	52852
25.45732	59158
25.46545	54926
25.47357	53520
25.48168	52718
25.48982	56327
25.49793	53368
25.50605	61223
25.51418	69084
25.52230	58613
25.53043	54269
25.53855	56124
25.54667	61107
25.55480	58819
25.56292	58289
25.57105	57587
25.57917	63994
25.58728	55939
25.59542	55255
25.60353	56714
25.61167	58384
25.61978	59952
25.62790	60364
25.63603	63328
25.64415	70643
25.65227	67533
25.66040	64662
25.66852	62564
25.67665	60775
25.68477	60628
25.69288	63511
25.70102	55872
25.70913	55594
25.71727	55128
25.72538	51814
25.73350	65138
25.74163	51830
25.74975	54566
25.75787	54459
25.76600	55731
25.77412	58538
25.78225	64629
25.79037	68572
25.79848	69629
25.80662	79384
25.81473	75108
25.82287	74206
25.83098	66990
25.83910	76197
25.84723	65089
25.85535	63887
25.86348	61782
25.87160	52404
25.87972	58727
25.88785	52938
25.89597	59006
25.90408	56529
25.91222	59483
25.92033	57591
25.92847	57572
25.93658	59021
25.94470	55189
25.95283	50298
25.96095	53967
25.96908	55887
25.97720	54376
25.98532	55149
25.99345	49363
26.00157	50130
26.00970	50699
26.01782	52018
26.02593	52559
26.03407	53600
26.04218	50631
26.05030	54772
26.05843	53975
26.06655	47058
26.07468	48255
26.08280	50882
26.09092	54267
26.09905	54927
26.10717	58025
26.11530	59056
26.12342	52648
26.13153	50364
26.13967	50433
26.14778	52132
26.15590	58405
26.16403	52703
26.17215	54004
26.18028	48345
26.18840	48571
26.19652	54402
26.20465	55444
26.21277	46580
26.22090	50770
26.22902	51118
26.23713	54182
26.24527	48758
26.25338	53938
26.26152	54196
26.26963	53596
26.27775	47932
26.28588	46548
26.29400	52248
26.30212	53890
26.31025	54795
26.31837	60778
26.32650	64307
26.33462	69415
26.34273	80655
26.35087	86658
26.35898	94191
26.36712	94979
26.37523	94500
26.38335	87382
26.39148	77914
26.39960	75464
26.40773	67938
26.41585	75917
26.42397	73869
26.43210	74024
26.44022	81982
26.44833	85860
26.45647	70916
26.46458	73197
26.47272	62662
26.48083	56821
26.48895	57300
26.49708	53381
26.50520	50677
26.51333	62397
26.52145	52212
26.52957	50217
26.53770	52662
26.54582	51564
26.55393	56182
26.56207	58181
26.57018	64004
26.57832	52416
26.58643	55342
26.59455	56863
26.60268	53622
26.61080	54515
26.61893	53541
26.62705	62805
26.63517	65372
26.64330	58497
26.65142	64327
26.65955	65065
26.66767	73229
26.67578	77319
26.68392	71385
26.69203	69526
26.70015	66927
26.70828	69076
26.71640	64953
26.72453	63790
26.73265	62020
26.74077	58907
26.74890	56350
26.75702	52946
26.76515	53210
26.77327	52227
26.78138	55005
26.78952	53629
26.79763	54264
26.80577	52440
26.81388	53087
26.82200	50033
26.83013	49334
26.83825	51866
26.84637	52261
26.85450	53810
26.86262	50944
26.87075	50990
26.87887	51645
26.88698	52143
26.89512	49641
26.90323	50312
26.91137	56591
26.91948	50636
26.92760	57778
26.93573	50383
26.94385	52533
26.95198	45686
26.96010	50841
26.96822	54416
26.97635	54625
26.98447	51265
26.99258	54162
27.00072	63152
27.00883	59583
27.01697	54790
27.02508	57843
27.03320	56519
27.04133	55429
27.04945	54543
27.05758	51839
27.06570	52579
27.07382	52965
27.08195	52040
27.09007	53523
27.09818	54868
27.10632	56792
27.11443	57018
27.12257	57976
27.13068	52384
27.13880	58125
27.14693	59855
27.15505	59116
27.16318	59543
27.17130	57982
27.17942	64383
27.18755	64337
27.19567	63453
27.20380	58502
27.21192	67855
27.22003	59847
27.22817	58450
27.23628	56345
27.24440	61202
27.25253	59010
27.26065	58979
27.26878	63591
27.27690	59789
27.28502	58990
27.29315	57919
27.30127	59337
27.30940	58696
27.31752	58109
27.32563	61733
27.33377	61538
27.34188	57973
27.35002	56101
27.35813	56367
27.36625	58638
27.37438	58166
27.38250	58358
27.39062	66470
27.39875	71189
27.40687	89529
27.41500	139597
27.42312	263740
27.43123	506081
27.43937	871836
27.44748	1376162
27.45562	1888355
27.46373	2176890
27.47185	2214798
27.47998	2023357
27.48810	1743181
27.49622	1426375
27.50435	1169707
27.51247	945922
27.52060	777893
27.52872	643583
27.53683	503560
27.54497	404211
27.55308	338005
27.56122	280897
27.56933	248608
27.57745	214487
27.58558	185152
27.59370	171159
27.60183	159068
27.60995	152177
27.61807	134042
27.62620	126121
27.63432	115379
27.64243	111950
27.65057	105746
27.65868	103233
27.66682	102531
27.67493	107515
27.68305	110349
27.69118	108789
27.69930	99013
27.70743	95347
27.71555	96037
27.72367	100618
27.73180	86168
27.73992	83616
27.74805	79832
27.75617	79550
27.76428	85435
27.77242	78632
27.78053	81466
27.78865	76147
27.79678	71166
27.80490	76736
27.81303	74031
27.82115	79937
27.82927	81216
27.83740	81346
27.84552	74311
27.85365	73134
27.86177	71146
27.86988	69397
27.87802	72830
27.88613	74007
27.89425	68445
27.90238	68066
27.91050	63102
27.91863	65933
27.92675	68777
27.93487	66510
27.94300	68689
27.95112	75993
27.95925	65725
27.96737	65580
27.97548	66580
27.98362	61914
27.99173	62518
27.99987	63123
28.00798	71127
28.01610	69329
28.02423	59292
28.03235	61438
28.04047	60615
28.04860	58812
28.05672	62743
28.06485	58282
28.07297	61524
28.08108	63091
28.08922	66268
28.09733	65790
28.10547	64707
28.11358	60421
28.12170	63057
28.12983	61772
28.13795	59653
28.14608	62091
28.15420	65114
28.16232	59676
28.17045	60207
28.17857	60586
28.18668	65037
28.19482	58349
28.20293	58722
28.21107	61868
28.21918	59629
28.22730	58300
28.23543	59671
28.24355	65679
28.25168	67128
28.25980	60348
28.26792	58912
28.27605	62667
28.28417	56578
28.29230	53697
28.30042	64823
28.30853	61449
28.31667	68178
28.32478	67456
28.33290	61288
28.34103	64527
28.34915	65399
28.35728	63090
28.36540	58538
28.37352	61860
28.38165	55329
28.38977	61559
28.39790	64241
28.40602	59739
28.41413	60660
28.42227	57296
28.43038	67958
28.43850	56963
28.44663	67648
28.45475	63408
28.46288	59588
28.47100	60607
28.47912	61559
28.48725	63867
28.49537	65556
28.50350	68884
28.51162	71725
28.51973	85202
28.52787	85699
28.53598	70762
28.54412	67603
28.55223	74394
28.56035	63297
28.56848	63785
28.57660	58921
28.58472	58545
28.59285	62122
28.60097	63395
28.60910	59019
28.61722	61161
28.62533	60783
28.63347	61454
28.64158	66611
28.64972	60611
28.65783	61686
28.66595	60686
28.67408	63876
28.68220	61887
28.69033	68921
28.69845	77331
28.70657	97127
28.71470	138225
28.72282	169195
28.73093	233536
28.73907	277023
28.74718	303126
28.75532	329092
28.76343	345095
28.77155	343265
28.77968	362442
28.78780	355109
28.79593	361220
28.80405	336295
28.81217	303571
28.82030	293411
28.82842	280767
28.83653	275859
28.84467	258453
28.85278	235320
28.86092	224114
28.86903	215305
28.87715	195783
28.88528	185604
28.89340	174085
28.90153	169109
28.90965	164255
28.91777	150739
28.92590	135290
28.93402	147679
28.94215	135138
28.95027	120438
28.95838	117546
28.96652	112722
28.97463	110795
28.98275	109177
28.99088	98723
28.99900	103994
29.00713	93082
29.01525	101074
29.02337	98111
29.03150	86263
29.03962	87970
29.04775	81063
29.05587	85673
29.06398	91105
29.07212	89834
29.08023	92497
29.08837	96486
29.09648	105340
29.10460	101096
29.11273	91615
29.12085	92122
29.12897	80264
29.13710	82308
29.14522	76249
29.15335	74000
29.16147	79104
29.16958	73557
29.17772	79403
29.18583	85081
29.19397	84814
29.20208	82557
29.21020	86446
29.21833	77365
29.22645	73000
29.23457	74624
29.24270	71522
29.25082	69692
29.25895	72320
29.26707	66227
29.27518	64281
29.28332	66870
29.29143	64755
29.29957	65108
29.30768	66627
29.31580	60167
29.32393	70783
29.33205	68375
29.34018	68579
29.34830	67164
29.35642	68253
29.36455	63724
29.37267	66667
29.38078	61795
29.38892	66665
29.39703	64734
29.40517	57918
29.41328	70416
29.42140	61468
29.42953	65739
29.43765	65691
29.44578	73698
29.45390	69361
29.46202	61770
29.47015	61503
29.47827	58513
29.48640	65025
29.49452	69183
29.50263	67938
29.51077	73000
29.51888	67402
29.52700	64030
29.53513	64035
29.54325	63955
29.55138	62285
29.55950	69930
29.56762	65334
29.57575	71240
29.58387	62648
29.59200	59611
29.60012	65735
29.60823	70747
29.61637	60760
29.62448	66491
29.63262	66751
29.64073	64057
29.64885	61020
29.65698	61701
29.66510	59751
29.67322	63534
29.68135	63301
29.68947	65509
29.69760	63486
29.70572	64228
29.71383	68678
29.72197	61219
29.73008	62292
29.73822	64335
29.74633	67575
29.75445	74307
29.76258	63071
29.77070	61762
29.77882	63879
29.78695	64470
29.79507	75018
29.80320	70276
29.81132	72066
29.81943	66859
29.82757	62540
29.83568	63785
29.84382	61857
29.85193	62319
29.86005	61820
29.86818	67616
29.87630	61597
29.88443	64981
29.89255	63101
29.90067	62828
29.90880	70562
29.91692	64417
29.92503	60080
29.93317	60386
29.94128	61038
29.94942	65169
29.95753	62191
29.96565	63720
29.97378	63180
29.98190	66254
29.99003	65286
29.99815	70608
30.00627	64840
30.01440	66654
30.02252	67972
30.03065	71837
30.03877	78565
30.04688	75678
30.05502	72732
30.06313	79301
30.07125	69622
30.07938	73784
30.08750	66375
30.09563	70295
30.10375	77554
30.11187	85537
30.12000	76841
30.12812	86574
30.13625	83066
30.14437	89895
30.15248	87664
30.16062	87198
30.16873	93529
30.17685	95582
30.18498	97427
30.19310	97411
30.20123	96079
30.20935	98703
30.21747	94859
30.22560	98594
30.23372	112720
30.24185	98289
30.24997	100954
30.25808	100270
30.26622	103724
30.27433	104557
30.28247	103733
30.29058	103903
30.29870	105548
30.30683	116573
30.31495	130429
30.32307	149271
30.33120	163963
30.33932	191343
30.34745	185968
30.35557	206230
30.36368	206283
30.37182	209941
30.37993	218093
30.38807	211553
30.39618	217947
30.40430	210200
30.41243	200004
30.42055	202502
30.42868	200998
30.43680	202609
30.44492	195293
30.45305	196197
30.46117	182661
30.46928	172812
30.47742	167646
30.48553	150778
30.49367	145916
30.50178	137755
30.50990	133377
30.51803	122949
30.52615	134520
30.53428	126669
30.54240	111820
30.55052	111944
30.55865	110680
30.56677	108984
30.57488	107284
30.58302	102986
30.59113	102039
30.59927	99624
30.60738	108454
30.61550	98170
30.62363	94049
30.63175	94226
30.63988	93026
30.64800	91545
30.65612	91669
30.66425	89199
30.67237	90742
30.68050	91742
30.68862	93090
30.69673	81064
30.70487	80331
30.71298	82462
30.72110	81106
30.72923	82728
30.73735	79551
30.74548	85454
30.75360	75380
30.76172	76148
30.76985	75086
30.77797	71100
30.78610	76009
30.79422	79659
30.80233	73888
30.81047	73393
30.81858	76676
30.82672	76348
30.83483	71796
30.84295	83371
30.85108	79521
30.85920	72038
30.86732	74607
30.87545	81549
30.88357	79677
30.89170	72021
30.89982	69725
30.90793	71041
30.91607	70995
30.92418	71098
30.93232	68958
30.94043	67414
30.94855	64932
30.95668	70273
30.96480	78295
30.97293	69729
30.98105	73214
30.98917	67185
30.99730	72681
31.00542	68026
31.01353	64751
31.02167	70012
31.02978	68378
31.03792	70193
31.04603	67453
31.05415	63379
31.06228	72634
31.07040	64035
31.07853	68477
31.08665	63445
31.09477	65801
31.10290	64968
31.11102	79582
31.11913	75060
31.12727	64225
31.13538	67477
31.14352	68700
31.15163	65611
31.15975	67634
31.16788	67483
31.17600	69982
31.18413	67811
31.19225	67403
31.20037	75807
31.20850	77756
31.21662	68311
31.22475	68778
31.23287	67881
31.24098	68503
31.24912	79698
31.25723	70217
31.26535	68767
31.27348	68004
31.28160	67633
31.28973	63083
31.29785	70201
31.30597	70903
31.31410	65458
31.32222	77120
31.33035	67112
31.33847	66057
31.34658	69385
31.35472	72532
31.36283	78094
31.37097	68099
31.37908	70992
31.38720	71470
31.39533	70418
31.40345	70773
31.41157	67221
31.41970	67416
31.42782	67004
31.43595	66115
31.44407	65700
31.45218	71303
31.46032	66963
31.46843	68320
31.47657	65566
31.48468	66458
31.49280	68435
31.50093	69107
31.50905	68038
31.51717	69916
31.52530	70833
31.53342	68266
31.54155	72805
31.54967	77409
31.55778	79663
31.56592	69229
31.57403	73159
31.58217	71177
31.59028	65968
31.59840	68210
31.60653	70162
31.61465	73858
31.62278	84854
31.63090	98926
31.63902	118856
31.64715	143222
31.65527	177136
31.66338	178412
31.67152	170420
31.67963	149467
31.68777	133847
31.69588	108618
31.70400	88959
31.71213	80992
31.72025	77772
31.72838	79695
31.73650	74699
31.74462	84381
31.75275	75191
31.76087	72868
31.76900	70889
31.77712	70281
31.78523	72793
31.79337	71862
31.80148	69815
31.80960	73968
31.81773	73902
31.82585	77783
31.83398	69965
31.84210	71182
31.85022	67615
31.85835	66854
31.86647	71724
31.87460	72576
31.88272	65898
31.89083	68318
31.89897	79357
31.90708	75819
31.91520	68866
31.92333	69341
31.93145	69304
31.93958	71088
31.94770	70352
31.95582	68340
31.96395	69705
31.97207	72016
31.98020	69692
31.98832	64992
31.99643	71114
32.00457	68742
32.01268	74311
32.02082	71526
32.02893	71993
32.03705	67804
32.04518	68197
32.05330	69783
32.06142	71979
32.06955	68795
32.07767	70848
32.08580	72019
32.09392	72273
32.10203	68718
32.11017	76882
32.11828	73662
32.12642	72030
32.13453	76083
32.14265	69849
32.15078	76979
32.15890	76930
32.16703	70032
32.17515	78594
32.18327	74991
32.19140	73983
32.19952	68034
32.20763	70909
32.21577	70619
32.22388	72832
32.23202	76840
32.24013	84906
32.24825	101107
32.25638	114304
32.26450	114876
32.27263	130899
32.28075	137310
32.28887	153401
32.29700	159263
32.30512	153611
32.31325	158166
32.32137	155197
32.32948	154517
32.33762	150748
32.34573	150367
32.35385	139756
32.36198	134863
32.37010	129768
32.37823	127148
32.38635	125427
32.39447	123699
32.40260	120788
32.41072	114953
32.41885	118073
32.42697	109584
32.43508	115061
32.44322	113820
32.45133	113834
32.45945	109487
32.46758	110685
32.47570	96602
32.48383	91741
32.49195	86194
32.50007	91311
32.50820	86839
32.51632	86980
32.52445	82690
32.53257	81823
32.54068	86936
32.54882	86504
32.55693	83144
32.56507	81424
32.57318	87423
32.58130	77652
32.58943	80521
32.59755	77374
32.60567	82318
32.61380	80533
32.62192	83011
32.63005	76970
32.63817	82126
32.64628	74910
32.65442	77082
32.66253	79007
32.67067	80782
32.67878	79205
32.68690	74707
32.69503	78018
32.70315	78519
32.71128	73145
32.71940	77084
32.72752	78460
32.73565	76772
32.74377	80392
32.75188	82151
32.76002	88849
32.76813	83259
32.77627	82542
32.78438	81261
32.79250	86170
32.80063	79867
32.80875	79610
32.81688	78827
32.82500	86119
32.83312	80291
32.84125	79187
32.84937	80900
32.85748	79287
32.86562	78895
32.87373	77040
32.88187	80135
32.88998	81330
32.89810	74580
32.90623	76414
32.91435	74815
32.92248	84780
32.93060	81996
32.93872	78801
32.94685	80846
32.95497	82490
32.96310	93951
32.97122	80620
32.97933	86193
32.98747	95191
32.99558	91426
33.00370	91089
33.01183	96255
33.01995	87326
33.02808	81998
33.03620	84124
33.04432	79163
33.05245	82834
33.06057	77146
33.06870	75200
33.07682	78509
33.08493	78765
33.09307	78033
33.10118	76017
33.10932	83109
33.11743	79601
33.12555	77777
33.13368	77478
33.14180	78085
33.14992	85077
33.15805	91022
33.16617	74881
33.17430	75183
33.18242	75839
33.19053	72300
33.19867	79230
33.20678	77221
33.21492	87115
33.22303	82022
33.23115	90663
33.23928	87427
33.24740	80144
33.25552	75015
33.26365	83624
33.27177	81200
33.27990	79306
33.28802	82348
33.29613	84237
33.30427	81252
33.31238	74441
33.32052	80507
33.32863	75360
33.33675	75569
33.34488	73274
33.35300	74119
33.36113	78854
33.36925	80935
33.37737	82731
33.38550	92036
33.39362	78184
33.40173	75394
33.40987	74620
33.41798	86672
33.42612	79307
33.43423	78728
33.44235	77296
33.45048	79196
33.45860	82325
33.46673	80276
33.47485	80815
33.48297	82336
33.49110	89361
33.49922	82868
33.50735	82897
33.51547	86510
33.52358	84298
33.53172	81056
33.53983	86184
33.54795	84012
33.55608	86221
33.56420	79870
33.57233	81938
33.58045	81220
33.58857	85456
33.59670	85515
33.60482	82848
33.61295	83549
33.62107	80990
33.62918	91302
33.63732	96174
33.64543	102125
33.65357	114597
33.66168	116635
33.66980	106366
33.67793	104067
33.68605	99007
33.69417	90120
33.70230	88370
33.71042	84726
33.71855	82381
33.72667	89804
33.73478	89573
33.74292	88067
33.75103	82353
33.75917	86159
33.76728	88711
33.77540	82130
33.78353	84577
33.79165	88193
33.79977	88814
33.80790	82501
33.81602	80157
33.82415	88803
33.83227	84695
33.84038	86559
33.84852	88890
33.85663	89552
33.86477	81972
33.87288	82268
33.88100	96489
33.88913	77006
33.89725	82885
33.90538	85529
33.91350	81818
33.92162	77796
33.92975	95421
33.93787	84352
33.94598	82324
33.95412	92958
33.96223	87509
33.97037	85198
33.97848	86284
33.98660	85871
33.99473	93430
34.00285	92786
34.01098	82250
34.01910	89516
34.02722	87273
34.03535	76215
34.04347	83516
34.05160	84464
34.05972	89327
34.06783	84511
34.07597	85680
34.08408	89718
34.09220	84956
34.10033	89490
34.10845	82743
34.11658	94109
34.12470	94154
34.13282	90151
34.14095	84476
34.14907	79656
34.15720	91099
34.16532	85389
34.17343	82739
34.18157	81863
34.18968	85146
34.19780	87198
34.20593	86839
34.21405	91955
34.22218	88257
34.23030	100458
34.23842	89874
34.24655	97389
34.25467	90751
34.26280	81934
34.27092	96286
34.27903	87501
34.28717	88068
34.29528	89366
34.30342	89550
34.31153	86413
34.31965	93164
34.32778	82812
34.33590	88480
34.34402	84405
34.35215	92016
34.36027	91680
34.36840	83146
34.37652	90276
34.38463	96898
34.39277	88970
34.40088	96714
34.40902	91153
34.41713	87365
34.42525	90611
34.43338	87886
34.44150	91510
34.44963	89677
34.45775	85090
34.46587	87923
34.47400	89855
34.48212	89439
34.49023	91576
34.49837	93070
34.50648	89096
34.51462	93039
34.52273	100950
34.53085	92231
34.53898	88540
34.54710	101403
34.55523	93382
34.56335	101369
34.57147	104582
34.57960	102967
34.58772	107913
34.59583	103968
34.60397	97324
34.61208	106075
34.62022	95899
34.62833	90191
34.63645	94789
34.64458	92637
34.65270	97773
34.66083	93408
34.66895	93561
34.67707	91779
34.68520	101890
34.69332	90248
34.70145	97806
34.70957	97070
34.71768	88840
34.72582	87176
34.73393	90162
34.74205	88219
34.75018	94564
34.75830	97922
34.76643	88488
34.77455	89714
34.78267	97381
34.79080	90775
34.79892	88102
34.80705	84117
34.81517	94182
34.82328	87824
34.83142	90702
34.83953	92751
34.84767	102346
34.85578	113535
34.86390	125603
34.87203	149098
34.88015	167891
34.88827	163842
34.89640	181662
34.90452	182157
34.91265	169290
34.92077	161231
34.92888	150909
34.93702	144936
34.94513	129672
34.95327	117834
34.96138	130871
34.96950	123913
34.97763	111797
34.98575	113322
34.99388	114347
35.00200	111274
35.01012	105461
35.01825	104937
35.02637	105660
35.03448	104126
35.04262	110801
35.05073	105649
35.05887	103024
35.06698	103803
35.07510	106176
35.08323	99590
35.09135	96689
35.09948	102372
35.10760	97847
35.11572	104723
35.12385	99097
35.13197	98976
35.14008	95416
35.14822	97118
35.15633	102805
35.16447	102383
35.17258	104313
35.18070	102027
35.18883	100289
35.19695	99094
35.20508	102333
35.21320	100708
35.22132	97425
35.22945	96454
35.23757	94166
35.24570	98977
35.25382	108213
35.26193	101034
35.27007	97806
35.27818	101773
35.28630	98772
35.29443	100975
35.30255	97931
35.31068	98272
35.31880	96786
35.32692	102569
35.33505	96496
35.34317	103993
35.35130	98475
35.35942	101194
35.36753	102106
35.37567	107282
35.38378	95494
35.39192	98455
35.40003	98951
35.40815	111649
35.41628	102406
35.42440	102881
35.43252	101934
35.44065	102844
35.44877	98787
35.45690	103283
35.46502	107844
35.47313	102637
35.48127	104916
35.48938	105265
35.49752	113310
35.50563	115942
35.51375	113171
35.52188	119501
35.53000	111121
35.53812	114077
35.54625	110577
35.55437	107252
35.56250	111130
35.57062	111651
35.57873	116335
35.58687	105883
35.59498	117930
35.60312	110617
35.61123	125534
35.61935	118136
35.62748	120360
35.63560	114816
35.64373	120582
35.65185	115754
35.65997	118552
35.66810	109815
35.67622	113103
35.68433	108124
35.69247	111735
35.70058	115691
35.70872	112979
35.71683	110840
35.72495	104724
35.73308	112259
35.74120	110311
35.74933	104676
35.75745	105681
35.76557	105767
35.77370	106386
35.78182	107527
35.78995	105800
35.79807	110760
35.80618	113862
35.81432	112873
35.82243	113951
35.83055	116212
35.83868	107924
35.84680	104941
35.85493	108900
35.86305	103686
35.87117	106655
35.87930	105878
35.88742	107239
35.89555	109456
35.90367	112805
35.91178	108518
35.91992	100929
35.92803	109333
35.93615	106980
35.94428	108328
35.95240	107885
35.96053	109090
35.96865	105760
35.97677	110712
35.98490	127205
35.99302	126493
36.00115	128585
36.00927	124910
36.01738	129733
36.02552	128752
36.03363	125914
36.04177	117601
36.04988	126315
36.05800	126631
36.06613	120325
36.07425	114233
36.08237	121535
36.09050	116019
36.09862	114826
36.10675	121680
36.11487	119520
36.12298	119426
36.13112	125473
36.13923	115445
36.14737	112350
36.15548	111757
36.16360	119854
36.17173	113436
36.17985	111384
36.18798	114562
36.19610	115396
36.20422	109127
36.21235	122909
36.22047	112662
36.22858	126898
36.23672	120280
36.24483	117402
36.25297	127806
36.26108	123573
36.26920	116165
36.27733	124817
36.28545	123821
36.29358	125208
36.30170	116591
36.30982	115933
36.31795	120335
36.32607	119034
36.33420	111885
36.34232	111517
36.35043	115853
36.35857	125070
36.36668	116407
36.37480	124777
36.38293	115939
36.39105	119640
36.39918	113048
36.40730	112623
36.41542	114320
36.42355	120611
36.43167	122213
36.43980	118325
36.44792	122252
36.45603	119903
36.46417	121087
36.47228	124916
36.48040	117746
36.48853	115354
36.49665	117723
36.50478	117195
36.51290	112273
36.52102	119836
36.52915	118670
36.53727	114504
36.54540	120091
36.55352	123065
36.56163	123201
36.56977	125082
36.57788	123646
36.58602	126124
36.59413	130762
36.60225	128389
36.61038	130344
36.61850	133068
36.62662	129501
36.63475	126328
36.64287	132083
36.65100	135261
36.65912	137447
36.66723	131158
36.67537	133675
36.68348	129628
36.69162	125655
36.69973	125614
36.70785	130214
36.71598	126729
36.72410	120201
36.73223	124645
36.74035	122132
36.74847	122869
36.75660	122929
36.76472	120742
36.77283	122158
36.78097	129832
36.78908	121102
36.79722	134571
36.80533	121881
36.81345	125231
36.82158	127530
36.82970	138681
36.83783	130977
36.84595	126564
36.85407	125688
36.86220	132233
36.87032	124157
36.87843	128051
36.88657	132562
36.89468	126748
36.90282	127529
36.91093	129216
36.91905	120059
36.92718	122819
36.93530	131257
36.94343	129694
36.95155	135780
36.95967	150593
36.96780	159945
36.97592	172403
36.98405	189623
36.99217	194450
37.00028	187592
37.00842	173221
37.01653	164155
37.02465	152464
37.03278	146503
37.04090	136214
37.04903	135134
37.05715	131505
37.06527	143306
37.07340	135916
37.08152	131320
37.08965	127117
37.09777	133351
37.10588	133728
37.11402	140729
37.12213	139496
37.13027	141005
37.13838	137623
37.14650	131868
37.15463	134761
37.16275	141488
37.17087	132687
37.17900	133885
37.18712	138607
37.19525	131275
37.20337	127973
37.21148	134009
37.21962	129443
37.22773	145142
37.23587	130518
37.24398	133750
37.25210	137779
37.26023	133580
37.26835	132609
37.27647	140456
37.28460	141194
37.29272	147460
37.30085	133680
37.30897	140314
37.31708	134671
37.32522	136372
37.33333	140087
37.34147	135224
37.34958	136760
37.35770	132196
37.36583	133064
37.37395	133914
37.38208	140800
37.39020	141036
37.39832	141762
37.40645	140312
37.41457	133347
37.42268	141907
37.43082	139878
37.43893	140435
37.44707	137751
37.45518	139861
37.46330	139604
37.47143	142762
37.47955	142134
37.48768	154255
