Z:\data\JTB-E02\BACandBLUE\JTB-E02-192-17.D Tue Dec 18 16:50:54 2018
Start of data points
2.09517	88701
2.10328	90942
2.11142	84658
2.11953	85423
2.12765	87981
2.13578	84393
2.14390	88208
2.15203	86545
2.16015	81366
2.16827	83469
2.17640	84272
2.18452	83903
2.19265	80363
2.20077	82785
2.20888	80474
2.21702	74003
2.22513	78233
2.23327	77848
2.24138	82174
2.24950	158923
2.25763	567289
2.26575	609396
2.27387	468368
2.28200	1004140
2.29012	1088611
2.29825	650890
2.30637	430372
2.31448	349732
2.32262	302955
2.33073	266291
2.33887	243896
2.34698	222272
2.35510	212351
2.36323	197227
2.37135	193879
2.37947	182173
2.38760	176524
2.39572	171697
2.40385	171499
2.41197	168749
2.42008	159768
2.42822	158473
2.43633	147531
2.44447	144545
2.45258	142273
2.46070	139456
2.46883	139925
2.47695	138328
2.48508	137757
2.49320	145606
2.50132	147042
2.50945	141027
2.51757	140362
2.52568	132313
2.53382	143590
2.54193	142151
2.55007	139695
2.55818	129752
2.56630	140553
2.57443	130553
2.58255	139273
2.59068	191532
2.59880	241929
2.60692	235442
2.61505	306343
2.62317	359938
2.63130	286132
2.63942	227106
2.64753	184240
2.65567	158792
2.66378	147961
2.67190	136132
2.68003	131660
2.68815	132116
2.69628	121298
2.70440	122930
2.71252	121451
2.72065	121034
2.72877	123138
2.73690	114047
2.74502	110293
2.75313	164954
2.76127	1101747
2.76938	3563049
2.77750	3574904
2.78563	3505546
2.79375	5450082
2.80188	4703055
2.81000	2863860
2.81812	1984533
2.82625	1544441
2.83437	1251502
2.84250	1002572
2.85062	846910
2.85873	711872
2.86687	619094
2.87498	554154
2.88312	489047
2.89123	435894
2.89935	408147
2.90748	371779
2.91560	335702
2.92372	310176
2.93185	289770
2.93997	272370
2.94810	264463
2.95622	251606
2.96433	242020
2.97247	245172
2.98058	237152
2.98872	228000
2.99683	227288
3.00495	236562
3.01308	223786
3.02120	218161
3.02932	203524
3.03745	190922
3.04557	188416
3.05370	175339
3.06182	184929
3.06993	333149
3.07807	660425
3.08618	1086721
3.09432	1810849
3.10243	2024877
3.11055	2173747
3.11868	2636884
3.12680	2271415
3.13493	1576768
3.14305	1185885
3.15117	970069
3.15930	913728
3.16742	1205415
3.17553	2639894
3.18367	3743377
3.19178	4046761
3.19992	5612722
3.20803	5926364
3.21615	4452086
3.22428	3241040
3.23240	2535956
3.24053	2087555
3.24865	1737530
3.25677	1498680
3.26490	1320822
3.27302	1210587
3.28115	1395857
3.28927	2120233
3.29738	3281333
3.30552	4582907
3.31363	6000830
3.32175	6395606
3.32988	5386819
3.33800	3947739
3.34613	2929608
3.35425	2297736
3.36237	1918869
3.37050	1633316
3.37862	1433069
3.38675	1273581
3.39487	1150097
3.40298	1044585
3.41112	960938
3.41923	948178
3.42735	912218
3.43548	876755
3.44360	870191
3.45173	929852
3.45985	991699
3.46797	979857
3.47610	957274
3.48422	919070
3.49235	839308
3.50047	699034
3.50858	618109
3.51672	595911
3.52483	600141
3.53297	610825
3.54108	589242
3.54920	599234
3.55733	572308
3.56545	511371
3.57357	456925
3.58170	432502
3.58982	405298
3.59795	401362
3.60607	391505
3.61418	392145
3.62232	412429
3.63043	419616
3.63857	471297
3.64668	1359467
3.65480	8031659
3.66293	2.41443E+07
3.67105	3.669735E+07
3.67918	4.077378E+07
3.68730	4.63768E+07
3.69542	4.772962E+07
3.70355	3.933178E+07
3.71167	2.920028E+07
3.71978	2.251558E+07
3.72792	1.857041E+07
3.73603	1.573028E+07
3.74417	1.368023E+07
3.75228	1.198596E+07
3.76040	1.066564E+07
3.76853	9533992
3.77665	8559541
3.78478	7776482
3.79290	7301528
3.80102	7015800
3.80915	6887994
3.81727	6605565
3.82538	6476744
3.83352	6108193
3.84163	5507771
3.84977	5005188
3.85788	4624422
3.86600	4358187
3.87413	4083572
3.88225	3844218
3.89038	3658300
3.89850	3566883
3.90662	3543000
3.91475	3759918
3.92287	3983459
3.93100	4080207
3.93912	4136135
3.94723	4149628
3.95537	4050944
3.96348	4007273
3.97160	3942804
3.97973	3835578
3.98785	3505071
3.99598	3340269
4.00410	3598011
4.01222	3827892
4.02035	3914802
4.02847	3764371
4.03660	3187844
4.04472	2617869
4.05283	2219608
4.06097	2014194
4.06908	1861440
4.07722	1806946
4.08533	1749847
4.09345	1720813
4.10158	1650718
4.10970	1592221
4.11782	1547912
4.12595	1498940
4.13407	1457392
4.14220	1439544
4.15032	1412276
4.15843	1396267
4.16657	1373726
4.17468	1359781
4.18282	1342820
4.19093	1340636
4.19905	1783108
4.20718	4328753
4.21530	1.079723E+07
4.22342	1.925203E+07
4.23155	2.495622E+07
4.23967	2.705369E+07
4.24780	2.812447E+07
4.25592	3.055308E+07
4.26403	3.131686E+07
4.27217	2.666798E+07
4.28028	1.756465E+07
4.28842	1.149748E+07
4.29653	8630842
4.30465	6846844
4.31278	5672706
4.32090	4756363
4.32903	4093205
4.33715	3570672
4.34527	3269279
4.35340	3198972
4.36152	3283832
4.36963	3392694
4.37777	3426758
4.38588	3120954
4.39402	2638901
4.40213	2204371
4.41025	1897704
4.41838	1739313
4.42650	1594969
4.43463	1498929
4.44275	1426569
4.45087	1341420
4.45900	1301329
4.46712	1244577
4.47523	1183892
4.48337	1162011
4.49148	1124206
4.49962	1099952
4.50773	1045820
4.51585	1043141
4.52398	1031092
4.53210	1057130
4.54023	1061069
4.54835	1076485
4.55647	1092392
4.56460	1064107
4.57272	1000546
4.58085	945567
4.58897	880730
4.59708	858186
4.60522	859898
4.61333	949089
4.62145	1285604
4.62958	1998462
4.63770	2908205
4.64583	3596469
4.65395	3833364
4.66207	3304488
4.67020	2526581
4.67832	1969402
4.68645	1656332
4.69457	1466964
4.70268	1253448
4.71082	1070446
4.71893	933764
4.72707	860342
4.73518	812466
4.74330	782677
4.75143	735808
4.75955	722599
4.76767	696568
4.77580	695463
4.78392	698154
4.79205	802504
4.80017	912277
4.80828	1002971
4.81642	1029871
4.82453	980958
4.83267	944455
4.84078	969804
4.84890	1021096
4.85703	1047438
4.86515	1033590
4.87327	935028
4.88140	826532
4.88952	725536
4.89765	689328
4.90577	665087
4.91388	633694
4.92202	620099
4.93013	606950
4.93827	635793
4.94638	762533
4.95450	1072259
4.96263	1515251
4.97075	1883493
4.97888	2085750
4.98700	1929715
4.99512	1683857
5.00325	1452626
5.01137	1293608
5.01948	1325058
5.02762	1532072
5.03573	1868095
5.04387	2257964
5.05198	2505913
5.06010	2399785
5.06823	2031755
5.07635	1685095
5.08448	1441312
5.09260	1318225
5.10072	1200577
5.10885	1136002
5.11697	1060399
5.12510	984107
5.13322	961692
5.14133	978955
5.14947	1098373
5.15758	1395114
5.16570	1715992
5.17383	1947104
5.18195	1943149
5.19008	1823152
5.19820	1734423
5.20632	1835981
5.21445	1953724
5.22257	1907580
5.23070	1729516
5.23882	1431728
5.24693	1150324
5.25507	1022738
5.26318	852220
5.27130	753394
5.27943	712571
5.28755	663083
5.29568	628370
5.30380	601653
5.31192	587876
5.32005	586985
5.32817	602562
5.33630	628436
5.34442	650494
5.35253	656181
5.36067	623916
5.36878	591141
5.37692	577747
5.38503	604938
5.39315	711608
5.40128	830152
5.40940	906296
5.41752	877984
5.42565	755681
5.43377	677976
5.44190	665209
5.45002	788387
5.45813	901782
5.46627	994596
5.47438	959194
5.48252	813194
5.49063	656357
5.49875	558705
5.50688	508629
5.51500	474929
5.52312	466135
5.53125	461687
5.53937	488155
5.54750	612736
5.55562	1012466
5.56373	1809920
5.57187	2855692
5.57998	3662346
5.58812	3698465
5.59623	2998055
5.60435	2057128
5.61248	1369101
5.62060	977765
5.62873	773743
5.63685	665617
5.64497	593551
5.65310	540916
5.66122	515411
5.66933	501899
5.67747	491903
5.68558	527608
5.69372	563904
5.70183	603310
5.70995	635327
5.71808	652745
5.72620	629020
5.73433	574793
5.74245	506984
5.75057	458058
5.75870	420717
5.76682	406119
5.77495	402936
5.78307	384627
5.79118	377323
5.79932	377818
5.80743	365824
5.81555	375221
5.82368	363599
5.83180	366292
5.83993	350322
5.84805	368029
5.85617	352499
5.86430	345051
5.87242	336923
5.88055	331149
5.88867	340183
5.89678	355351
5.90492	390934
5.91303	460010
5.92115	533594
5.92928	585033
5.93740	556721
5.94553	512511
5.95365	484743
5.96177	481568
5.96990	578602
5.97802	716083
5.98615	863206
5.99427	979851
6.00238	967976
6.01052	934835
6.01863	884004
6.02677	793139
6.03488	683339
6.04300	563744
6.05113	463062
6.05925	415415
6.06737	379797
6.07550	371933
6.08362	372799
6.09175	357032
6.09987	339727
6.10798	323867
6.11612	339911
6.12423	476244
6.13237	847049
6.14048	1486576
6.14860	2152096
6.15673	2442864
6.16485	2215166
6.17298	1695882
6.18110	1237891
6.18922	959276
6.19735	813629
6.20547	704302
6.21358	611713
6.22172	557397
6.22983	511463
6.23797	510425
6.24608	556014
6.25420	688771
6.26233	872877
6.27045	966527
6.27858	905954
6.28670	729175
6.29482	596833
6.30295	515039
6.31107	477970
6.31918	456584
6.32732	448721
6.33543	422280
6.34357	423766
6.35168	405696
6.35980	396900
6.36793	382328
6.37605	380323
6.38418	399321
6.39230	416696
6.40042	400141
6.40855	378159
6.41667	349297
6.42480	337063
6.43292	338163
6.44103	352271
6.44917	364286
6.45728	394339
6.46540	396299
6.47353	390696
6.48165	369969
6.48978	353537
6.49790	336745
6.50602	339667
6.51415	355080
6.52227	374086
6.53040	380114
6.53852	375869
6.54663	380143
6.55477	432550
6.56288	733579
6.57100	1555272
6.57913	2853886
6.58725	3919181
6.59538	4150054
6.60350	3330774
6.61162	2207340
6.61975	1330709
6.62787	884528
6.63600	647995
6.64412	535198
6.65223	454055
6.66037	404069
6.66848	389382
6.67662	394078
6.68473	376564
6.69285	337393
6.70098	301077
6.70910	281567
6.71722	275306
6.72535	268308
6.73347	274835
6.74160	261712
6.74972	249576
6.75783	242888
6.76597	231894
6.77408	232989
6.78222	229622
6.79033	230829
6.79845	233343
6.80658	236734
6.81470	231815
6.82283	218654
6.83095	225261
6.83907	211963
6.84720	215388
6.85532	227049
6.86343	234876
6.87157	233182
6.87968	247896
6.88782	256597
6.89593	236937
6.90405	228855
6.91218	205396
6.92030	195518
6.92843	180583
6.93655	176069
6.94467	180899
6.95280	168117
6.96092	182361
6.96905	183574
6.97717	211278
6.98528	227514
6.99342	249623
7.00153	243992
7.00965	222129
7.01778	210555
7.02590	202020
7.03403	204997
7.04215	203756
7.05027	189732
7.05840	190436
7.06652	229470
7.07465	333752
7.08277	527188
7.09088	804358
7.09902	1047501
7.10713	1156838
7.11525	1056427
7.12338	850913
7.13150	610467
7.13963	458383
7.14775	402020
7.15587	461651
7.16400	736163
7.17212	1592307
7.18025	3456768
7.18837	6231043
7.19648	8771176
7.20462	9465428
7.21273	7530533
7.22087	4343805
7.22898	1849340
7.23710	679334
7.24523	329283
7.25335	249095
7.26147	231109
7.26960	223903
7.27772	228125
7.28585	230330
7.29397	230164
7.30208	230529
7.31022	237632
7.31833	236889
7.32647	220497
7.33458	219418
7.34270	231833
7.35083	288951
7.35895	353115
7.36707	449893
7.37520	494326
7.38332	514343
7.39145	449024
7.39957	369975
7.40768	318539
7.41582	268973
7.42393	229170
7.43207	204610
7.44018	188225
7.44830	177032
7.45643	169466
7.46455	173225
7.47268	197742
7.48080	207566
7.48892	212233
7.49705	211822
7.50517	219258
7.51328	211825
7.52142	207860
7.52953	211464
7.53767	243289
7.54578	447500
7.55390	1055468
7.56203	2505775
7.57015	5389122
7.57828	9823315
7.58640	1.515973E+07
7.59452	1.956994E+07
7.60265	2.154209E+07
7.61077	2.003341E+07
7.61890	1.573006E+07
7.62702	1.069001E+07
7.63513	6478871
7.64327	3730786
7.65138	2179707
7.65950	1346862
7.66763	881303
7.67575	615648
7.68388	455352
7.69200	432004
7.70012	475397
7.70825	625506
7.71637	815141
7.72450	906430
7.73262	979177
7.74073	958075
7.74887	904980
7.75698	809064
7.76510	710036
7.77323	599598
7.78135	503155
7.78948	429993
7.79760	387850
7.80572	376209
7.81385	425002
7.82197	492296
7.83010	514363
7.83822	513221
7.84633	449016
7.85447	357697
7.86258	332434
7.87072	358485
7.87883	398840
7.88695	527371
7.89508	698111
7.90320	890708
7.91132	1035181
7.91945	1023753
7.92757	876503
7.93570	697245
7.94382	537395
7.95193	491265
7.96007	450852
7.96818	447206
7.97632	399533
7.98443	372410
7.99255	305519
8.00068	264449
8.00880	241326
8.01693	214601
8.02505	180775
8.03317	175849
8.04130	171640
8.04942	168545
8.05753	166561
8.06567	161736
8.07378	162208
8.08192	172633
8.09003	178318
8.09815	178993
8.10628	173001
8.11440	160278
8.12253	158487
8.13065	168083
8.13877	215879
8.14690	309110
8.15502	425364
8.16313	499802
8.17127	516892
8.17938	459876
8.18752	377294
8.19563	306578
8.20375	253068
8.21188	221461
8.22000	206690
8.22813	186555
8.23625	175877
8.24437	165142
8.25250	168265
8.26062	155098
8.26875	154113
8.27687	141813
8.28498	139904
8.29312	139690
8.30123	131945
8.30935	129358
8.31748	144903
8.32560	161974
8.33373	198523
8.34185	247333
8.34997	281236
8.35810	281741
8.36622	262097
8.37435	216041
8.38247	172249
8.39058	139758
8.39872	131811
8.40683	125856
8.41495	119603
8.42308	119142
8.43120	119788
8.43933	134281
8.44745	122834
8.45557	132053
8.46370	129486
8.47182	122320
8.47995	119898
8.48807	119875
8.49618	121674
8.50432	123398
8.51243	155735
8.52057	211581
8.52868	269069
8.53680	314283
8.54493	291186
8.55305	240967
8.56117	180000
8.56930	142908
8.57742	126711
8.58555	118432
8.59367	114220
8.60178	113749
8.60992	119845
8.61803	122381
8.62617	136803
8.63428	158341
8.64240	177656
8.65053	189452
8.65865	189981
8.66678	171308
8.67490	152622
8.68302	138728
8.69115	117124
8.69927	106894
8.70738	113109
8.71552	116484
8.72363	117623
8.73177	116711
8.73988	111877
8.74800	111782
8.75613	111371
8.76425	110557
8.77238	112479
8.78050	136944
8.78862	195627
8.79675	304220
8.80487	448803
8.81298	552713
8.82112	569759
8.82923	518986
8.83737	442203
8.84548	381111
8.85360	332201
8.86173	295866
8.86985	258208
8.87798	245944
8.88610	233401
8.89422	219781
8.90235	214572
8.91047	216904
8.91860	265374
8.92672	362243
8.93483	441961
8.94297	518055
8.95108	474943
8.95920	377341
8.96733	295051
8.97545	268381
8.98358	315072
8.99170	409120
8.99982	494816
9.00795	511920
9.01607	483631
9.02420	402320
9.03232	330967
9.04043	265819
9.04857	239730
9.05668	222908
9.06482	206931
9.07293	193856
9.08105	185710
9.08918	193407
9.09730	225038
9.10542	289914
9.11355	425934
9.12167	633823
9.12980	822237
9.13792	896554
9.14603	825170
9.15417	660099
9.16228	489040
9.17042	386464
9.17853	335519
9.18665	301587
9.19478	287640
9.20290	270338
9.21102	244123
9.21915	226598
9.22727	218127
9.23540	217460
9.24352	225290
9.25163	219300
9.25977	231493
9.26788	226270
9.27602	228711
9.28413	222872
9.29225	214617
9.30038	197523
9.30850	190310
9.31663	188116
9.32475	181988
9.33287	183228
9.34100	185061
9.34912	168123
9.35723	176748
9.36537	167059
9.37348	158850
9.38162	153761
9.38973	163239
9.39785	185888
9.40598	257382
9.41410	401466
9.42223	610651
9.43035	881070
9.43847	1166760
9.44660	1422155
9.45472	1586276
9.46285	1642058
9.47097	1521445
9.47908	1283301
9.48722	986218
9.49533	731624
9.50345	583764
9.51158	516771
9.51970	517319
9.52783	520704
9.53595	565479
9.54407	565905
9.55220	563205
9.56032	513531
9.56845	462728
9.57657	353663
9.58468	290878
9.59282	237418
9.60093	205963
9.60905	193186
9.61718	194621
9.62530	180706
9.63343	166103
9.64155	158916
9.64967	158487
9.65780	146876
9.66592	149456
9.67405	144543
9.68217	154142
9.69028	155037
9.69842	155875
9.70653	163153
9.71467	148549
9.72278	146353
9.73090	144424
9.73903	136093
9.74715	123757
9.75527	121562
9.76340	119528
9.77152	117620
9.77965	112202
9.78777	110508
9.79588	112267
9.80402	105159
9.81213	104435
9.82027	105930
9.82838	106786
9.83650	110107
9.84463	113248
9.85275	112953
9.86087	108799
9.86900	107168
9.87712	109477
9.88525	104104
9.89337	98702
9.90148	99774
9.90962	100653
9.91773	100825
9.92587	102438
9.93398	110375
9.94210	136844
9.95023	192507
9.95835	324967
9.96648	597933
9.97460	964262
9.98272	1347333
9.99085	1558693
9.99897	1444612
10.00708	1127297
10.01522	784392
10.02333	517207
10.03147	380667
10.03958	367124
10.04770	421050
10.05583	441584
10.06395	453928
10.07208	428137
10.08020	392202
10.08832	348906
10.09645	317449
10.10457	300095
10.11270	272405
10.12082	258385
10.12893	236335
10.13707	223255
10.14518	220483
10.15330	210686
10.16143	219285
10.16955	195938
10.17768	200581
10.18580	183263
10.19392	182090
10.20205	169114
10.21017	162501
10.21830	163853
10.22642	167838
10.23453	168749
10.24267	176403
10.25078	207084
10.25890	295861
10.26703	629911
10.27515	1507983
10.28328	3170592
10.29140	5819269
10.29952	9207727
10.30765	1.306708E+07
10.31577	1.768538E+07
10.32390	2.335326E+07
10.33202	3.039982E+07
10.34013	3.840827E+07
10.34827	4.689363E+07
10.35638	5.305049E+07
10.36452	5.45532E+07
10.37263	4.744185E+07
10.38075	3.106447E+07
10.38888	2.187719E+07
10.39700	1.961002E+07
10.40512	1.80639E+07
10.41325	1.491666E+07
10.42137	1.101793E+07
10.42950	7647152
10.43762	5721148
10.44573	4903680
10.45387	4517039
10.46198	4303826
10.47012	4005389
10.47823	3358527
10.48635	2671190
10.49448	1983795
10.50260	1513485
10.51073	1212198
10.51885	1068218
10.52697	986385
10.53510	930387
10.54322	895941
10.55133	891549
10.55947	886687
10.56758	831078
10.57572	784955
10.58383	742112
10.59195	674797
10.60008	628681
10.60820	590823
10.61633	554604
10.62445	523588
10.63257	478143
10.64070	473817
10.64882	440477
10.65693	436420
10.66507	411683
10.67318	398899
10.68132	385290
10.68943	370022
10.69755	382987
10.70568	406963
10.71380	439941
10.72193	474596
10.73005	497409
10.73817	489200
10.74630	463200
10.75442	427883
10.76255	396126
10.77067	371263
10.77878	334211
10.78692	308199
10.79503	295619
10.80315	302908
10.81128	324360
10.81940	379889
10.82753	448481
10.83565	490911
10.84377	504644
10.85190	452400
10.86002	381946
10.86815	314407
10.87627	275429
10.88438	258497
10.89252	238602
10.90063	226330
10.90875	223828
10.91688	230735
10.92500	225171
10.93313	212915
10.94125	217516
10.94937	213681
10.95750	208063
10.96562	213049
10.97375	190869
10.98187	194284
10.98998	189419
10.99812	202557
11.00623	216481
11.01437	258806
11.02248	316895
11.03060	375532
11.03873	412307
11.04685	401203
11.05497	368522
11.06310	345508
11.07122	312239
11.07935	317439
11.08747	356434
11.09558	401577
11.10372	458090
11.11183	491426
11.11997	520845
11.12808	500281
11.13620	469881
11.14433	418845
11.15245	363469
11.16058	312966
11.16870	293098
11.17682	275946
11.18495	257870
11.19307	237379
11.20118	209063
11.20932	196370
11.21743	176243
11.22557	159124
11.23368	148708
11.24180	133274
11.24993	128136
11.25805	125276
11.26618	114724
11.27430	118590
11.28242	108306
11.29055	109370
11.29867	111091
11.30678	145824
11.31492	274437
11.32303	740666
11.33117	1873020
11.33928	4161768
11.34740	7649490
11.35553	1.193564E+07
11.36365	1.536879E+07
11.37178	1.702428E+07
11.37990	1.631585E+07
11.38802	1.386894E+07
11.39615	1.073293E+07
11.40427	8066376
11.41240	5994073
11.42052	4350638
11.42863	3242264
11.43677	2438270
11.44488	1857299
11.45300	1432650
11.46113	1142156
11.46925	1002753
11.47738	851509
11.48550	740637
11.49362	678400
11.50175	661195
11.50987	706787
11.51800	794186
11.52612	894878
11.53423	980498
11.54237	982735
11.55048	961001
11.55862	880629
11.56673	790524
11.57485	726930
11.58298	692704
11.59110	681420
11.59922	711986
11.60735	791874
11.61547	946716
11.62360	1081395
11.63172	1091738
11.63983	955470
11.64797	755426
11.65608	595039
11.66422	446218
11.67233	360610
11.68045	305641
11.68858	288353
11.69670	297026
11.70482	313277
11.71295	316549
11.72107	353818
11.72920	357862
11.73732	355294
11.74543	320123
11.75357	287386
11.76168	243301
11.76982	211862
11.77793	183452
11.78605	170784
11.79418	159317
11.80230	157077
11.81043	154848
11.81855	143706
11.82667	144646
11.83480	139780
11.84292	140120
11.85103	134486
11.85917	132134
11.86728	124655
11.87542	126819
11.88353	126636
11.89165	116913
11.89978	112309
11.90790	114636
11.91603	113135
11.92415	117127
11.93227	125209
11.94040	129281
11.94852	128300
11.95665	122417
11.96477	110364
11.97288	102250
11.98102	98028
11.98913	92874
11.99725	97552
12.00538	97112
12.01350	96213
12.02163	93652
12.02975	96132
12.03787	88951
12.04600	88255
12.05412	89449
12.06225	95846
12.07037	107775
12.07848	116968
12.08662	134875
12.09473	165383
12.10285	224971
12.11098	342993
12.11910	638911
12.12723	1283506
12.13535	2486658
12.14347	4275087
12.15160	6104143
12.15972	7310206
12.16785	7372827
12.17597	6444763
12.18408	5225582
12.19222	4004499
12.20033	3077196
12.20847	2359966
12.21658	1890357
12.22470	1539279
12.23283	1255246
12.24095	1086855
12.24907	944763
12.25720	869606
12.26532	800628
12.27345	758636
12.28157	721935
12.28968	703514
12.29782	659247
12.30593	607272
12.31407	563400
12.32218	520914
12.33030	497104
12.33843	471238
12.34655	450437
12.35468	430974
12.36280	424433
12.37092	402356
12.37905	390742
12.38717	386877
12.39528	396492
12.40342	453284
12.41153	611631
12.41967	817446
12.42778	1115027
12.43590	1288650
12.44403	1291428
12.45215	1071102
12.46028	822266
12.46840	659654
12.47652	534470
12.48465	465021
12.49277	424791
12.50088	405397
12.50902	406816
12.51713	372955
12.52527	369799
12.53338	369837
12.54150	407503
12.54963	485403
12.55775	603632
12.56588	731123
12.57400	764141
12.58212	749015
12.59025	642427
12.59837	557035
12.60650	483857
12.61462	438136
12.62273	389479
12.63087	355562
12.63898	329180
12.64710	300090
12.65523	279122
12.66335	261754
12.67148	253809
12.67960	248503
12.68772	226540
12.69585	226417
12.70397	219449
12.71210	229969
12.72022	211121
12.72833	219928
12.73647	210347
12.74458	220114
12.75270	216968
12.76083	208892
12.76895	211420
12.77708	201482
12.78520	184885
12.79332	184428
12.80145	183082
12.80957	172218
12.81770	163733
12.82582	148483
12.83393	135056
12.84207	120365
12.85018	107633
12.85832	97992
12.86643	86811
12.87455	88921
12.88268	91275
12.89080	90698
12.89892	89654
12.90705	88039
12.91517	87812
12.92330	91645
12.93142	81313
12.93953	90675
12.94767	92699
12.95578	92775
12.96392	97844
12.97203	105024
12.98015	112158
12.98828	120641
12.99640	121859
13.00453	113565
13.01265	111501
13.02077	101378
13.02890	92418
13.03702	90906
13.04513	88081
13.05327	81889
13.06138	83525
13.06952	79485
13.07763	81626
13.08575	93819
13.09388	96040
13.10200	100818
13.11013	103550
13.11825	95440
13.12637	84314
13.13450	84023
13.14262	83227
13.15073	83279
13.15887	90545
13.16698	86810
13.17512	94918
13.18323	98251
13.19135	104237
13.19948	100345
13.20760	100826
13.21573	107828
13.22385	117199
13.23197	128839
13.24010	137254
13.24822	141681
13.25635	147073
13.26447	143415
13.27258	142311
13.28072	133031
13.28883	123001
13.29695	118360
13.30508	101136
13.31320	95395
13.32133	88344
13.32945	80162
13.33757	76021
13.34570	76538
13.35382	77695
13.36195	72888
13.37007	75150
13.37818	74819
13.38632	73880
13.39443	75085
13.40257	80336
13.41068	79406
13.41880	74295
13.42693	74469
13.43505	70507
13.44317	71334
13.45130	79385
13.45942	78927
13.46755	97742
13.47567	102935
13.48378	113685
13.49192	124189
13.50003	134513
13.50817	133360
13.51628	129924
13.52440	121675
13.53253	118818
13.54065	117303
13.54877	104227
13.55690	100579
13.56502	90177
13.57315	85084
13.58127	98553
13.58938	118528
13.59752	151936
13.60563	187297
13.61377	230120
13.62188	262208
13.63000	272498
13.63813	254898
13.64625	225356
13.65438	181661
13.66250	151945
13.67062	125805
13.67875	104675
13.68687	87572
13.69498	75520
13.70312	76924
13.71123	62892
13.71937	65692
13.72748	60831
13.73560	68032
13.74373	69054
13.75185	78407
13.75998	92699
13.76810	129658
13.77622	179483
13.78435	279951
13.79247	408413
13.80058	594797
13.80872	820094
13.81683	1034357
13.82497	1288214
13.83308	1662436
13.84120	2197275
13.84933	2842814
13.85745	3207541
13.86558	3263444
13.87370	2920184
13.88182	2278905
13.88995	1599827
13.89807	1062409
13.90620	694851
13.91432	462185
13.92243	313241
13.93057	241180
13.93868	201145
13.94680	173515
13.95493	157428
13.96305	147466
13.97118	130801
13.97930	121031
13.98742	119379
13.99555	114243
14.00367	117123
14.01180	117490
14.01992	120337
14.02803	122400
14.03617	116776
14.04428	111516
14.05242	99019
14.06053	100619
14.06865	90263
14.07678	100007
14.08490	96226
14.09302	104926
14.10115	99534
14.10927	105603
14.11740	85987
14.12552	88104
14.13363	82896
14.14177	88553
14.14988	94997
14.15802	120318
14.16613	151277
14.17425	207018
14.18238	250957
14.19050	262230
14.19862	275101
14.20675	271392
14.21487	267489
14.22300	286070
14.23112	310036
14.23923	339705
14.24737	377440
14.25548	414548
14.26362	479783
14.27173	522690
14.27985	528791
14.28798	481119
14.29610	409793
14.30423	312620
14.31235	249692
14.32047	197339
14.32860	177944
14.33672	153763
14.34483	157638
14.35297	147124
14.36108	141006
14.36922	139472
14.37733	132225
14.38545	127627
14.39358	122993
14.40170	130630
14.40983	150071
14.41795	193344
14.42607	259500
14.43420	299620
14.44232	307836
14.45045	286407
14.45857	245708
14.46668	204918
14.47482	183214
14.48293	193841
14.49105	208579
14.49918	236355
14.50730	254256
14.51543	251346
14.52355	233793
14.53167	204963
14.53980	189661
14.54792	167003
14.55605	148969
14.56417	144306
14.57228	129878
14.58042	122821
14.58853	110629
14.59665	102994
14.60478	99170
14.61290	87635
14.62103	85191
14.62915	80885
14.63727	80255
14.64540	73000
14.65352	76573
14.66165	74802
14.66977	72478
14.67788	73411
14.68602	67334
14.69413	69364
14.70227	72378
14.71038	64107
14.71850	74996
14.72663	81096
14.73475	75749
14.74287	89072
14.75100	94316
14.75912	103668
14.76725	118926
14.77537	119434
14.78348	134975
14.79162	162499
14.79973	270431
14.80787	664789
14.81598	1822731
14.82410	4265765
14.83223	8722225
14.84035	1.469336E+07
14.84848	2.130578E+07
14.85660	2.640588E+07
14.86472	2.800441E+07
14.87285	2.488316E+07
14.88097	1.73732E+07
14.88908	9940476
14.89722	5194772
14.90533	3179109
14.91347	2247694
14.92158	1874200
14.92970	1686244
14.93783	1465317
14.94595	1347892
14.95408	1235645
14.96220	1167406
14.97032	1062197
14.97845	974582
14.98657	881025
14.99468	818709
15.00282	766571
15.01093	731983
15.01907	666263
15.02718	645810
15.03530	625176
15.04343	606434
15.05155	606639
15.05968	609081
15.06780	581441
15.07592	565673
15.08405	506538
15.09217	477012
15.10030	447741
15.10842	402399
15.11653	393975
15.12467	384093
15.13278	384485
15.14090	411715
15.14903	484036
15.15715	543783
15.16528	562776
15.17340	510785
15.18152	417685
15.18965	312525
15.19777	233638
15.20590	185214
15.21402	163094
15.22213	150680
15.23027	150901
15.23838	140485
15.24650	136806
15.25463	139538
15.26275	142229
15.27088	135045
15.27900	135079
15.28712	133364
15.29525	122133
15.30337	117899
15.31150	110525
15.31962	102620
15.32773	106099
15.33587	102019
15.34398	95083
15.35212	98227
15.36023	91202
15.36835	101167
15.37648	100321
15.38460	95479
15.39272	109849
15.40085	121016
15.40897	122890
15.41710	113157
15.42522	100212
15.43333	100819
15.44147	105188
15.44958	104121
15.45772	103752
15.46583	116420
15.47395	141772
15.48208	231169
15.49020	435665
15.49833	827484
15.50645	1433681
15.51457	2221603
15.52270	2898781
15.53082	3263279
15.53893	3197277
15.54707	2762056
15.55518	2120475
15.56332	1499859
15.57143	1004943
15.57955	701260
15.58768	496469
15.59580	377431
15.60393	307338
15.61205	277824
15.62017	254064
15.62830	231427
15.63642	220171
15.64453	199598
15.65267	187989
15.66078	180005
15.66892	169452
15.67703	151511
15.68515	148336
15.69328	133318
15.70140	131461
15.70953	117570
15.71765	110180
15.72577	108662
15.73390	106504
15.74202	104139
15.75015	105963
15.75827	126034
15.76638	204018
15.77452	392762
15.78263	752304
15.79075	1296869
15.79888	1855082
15.80700	2184637
15.81513	2096214
15.82325	1679226
15.83137	1174459
15.83950	740917
15.84762	488612
15.85575	361761
15.86387	289338
15.87198	256191
15.88012	242146
15.88823	235932
15.89637	217643
15.90448	218057
15.91260	199914
15.92073	186560
15.92885	178138
15.93697	183727
15.94510	172672
15.95322	172582
15.96135	161495
15.96947	157135
15.97758	149268
15.98572	145253
15.99383	141218
16.00197	139461
16.01008	154635
16.01820	169529
16.02633	195587
16.03445	209192
16.04257	226664
16.05070	228998
16.05882	214879
16.06695	190816
16.07507	165970
16.08318	144235
16.09132	130314
16.09943	115897
16.10757	111485
16.11568	111368
16.12380	121544
16.13193	135511
16.14005	159697
16.14818	194623
16.15630	239090
16.16442	288021
16.17255	305471
16.18067	303514
16.18878	265453
16.19692	214095
16.20503	192781
16.21317	160376
16.22128	147372
16.22940	150386
16.23753	143967
16.24565	148131
16.25378	134829
16.26190	124891
16.27002	110591
16.27815	103796
16.28627	114476
16.29438	137755
16.30252	165170
16.31063	214876
16.31877	261705
16.32688	282389
16.33500	275899
16.34313	267204
16.35125	225188
16.35938	198251
16.36750	172434
16.37562	156815
16.38375	159919
16.39187	150679
16.40000	143324
16.40812	132745
16.41623	122266
16.42437	116352
16.43248	118684
16.44060	122278
16.44873	139493
16.45685	228954
16.46498	528637
16.47310	1244723
16.48122	2584683
16.48935	4316105
16.49747	5991049
16.50560	6587080
16.51372	5817838
16.52183	4376525
16.52997	2713340
16.53808	1561695
16.54622	997724
16.55433	672371
16.56245	533515
16.57058	454629
16.57870	400871
16.58682	372403
16.59495	352644
16.60307	321328
16.61120	317290
16.61932	309866
16.62743	290143
16.63557	277732
16.64368	258995
16.65182	237083
16.65993	225610
16.66805	207770
16.67618	195993
16.68430	187529
16.69243	184024
16.70055	174013
16.70867	157563
16.71680	158101
16.72492	144205
16.73303	141459
16.74117	131020
16.74928	124539
16.75742	132430
16.76553	155261
16.77365	181737
16.78178	200230
16.78990	207214
16.79803	195204
16.80615	167810
16.81427	131846
16.82240	107607
16.83052	99299
16.83863	95704
16.84677	86340
16.85488	87520
16.86302	89537
16.87113	80710
16.87925	79492
16.88738	77589
16.89550	81067
16.90363	78718
16.91175	82418
16.91987	77485
16.92800	77969
16.93612	79078
16.94425	85041
16.95237	84177
16.96048	82815
16.96862	81040
16.97673	79370
16.98485	84151
16.99298	81258
17.00110	82619
17.00923	88114
17.01735	90222
17.02547	94087
17.03360	101369
17.04172	113542
17.04985	135852
17.05797	160906
17.06608	196726
17.07422	211813
17.08233	212273
17.09045	189247
17.09858	160178
17.10670	128484
17.11483	109871
17.12295	108937
17.13107	120556
17.13920	133884
17.14732	145180
17.15545	163973
17.16357	157906
17.17168	155110
17.17982	151889
17.18793	145503
17.19607	133716
17.20418	124556
17.21230	109258
17.22043	101234
17.22855	94503
17.23667	90990
17.24480	86035
17.25292	85437
17.26105	99508
17.26917	103302
17.27728	103958
17.28542	102430
17.29353	95519
17.30167	94135
17.30978	82488
17.31790	83499
17.32603	97497
17.33415	121257
17.34228	154992
17.35040	216564
17.35852	275590
17.36665	318634
17.37477	337265
17.38288	334452
17.39102	315038
17.39913	287226
17.40727	270163
17.41538	264348
17.42350	268763
17.43163	278280
17.43975	275543
17.44788	285612
17.45600	276678
17.46412	273067
17.47225	249386
17.48037	205933
17.48848	166294
17.49662	152819
17.50473	133236
17.51287	117693
17.52098	120109
17.52910	119089
17.53723	115635
17.54535	117013
17.55348	117134
17.56160	122904
17.56972	170229
17.57785	306873
17.58597	647975
17.59410	1460168
17.60222	2805779
17.61033	4544628
17.61847	6033420
17.62658	6863668
17.63470	6493494
17.64283	5244947
17.65095	3638772
17.65908	2190678
17.66720	1218995
17.67532	722512
17.68345	467229
17.69157	336237
17.69970	283415
17.70782	268061
17.71593	258028
17.72407	260433
17.73218	267556
17.74032	261552
17.74843	274161
17.75655	279591
17.76468	282296
17.77280	279063
17.78092	255028
17.78905	233630
17.79717	201893
17.80530	167673
17.81342	146428
17.82153	135380
17.82967	132355
17.83778	145607
17.84592	167439
17.85403	202958
17.86215	282242
17.87028	376269
17.87840	500245
17.88652	553352
17.89465	531448
17.90277	443999
17.91090	333537
17.91902	240365
17.92713	179035
17.93527	148208
17.94338	128161
17.95152	119073
17.95963	112665
17.96775	111527
17.97588	114824
17.98400	106199
17.99213	99839
18.00025	99670
18.00837	96401
18.01650	114354
18.02462	147358
18.03273	217909
18.04087	337588
18.04898	511857
18.05712	648904
18.06523	793294
18.07335	1017163
18.08148	1639958
18.08960	2974144
18.09773	4880675
18.10585	6955514
18.11397	8279519
18.12210	8325810
18.13022	7319542
18.13833	5635916
18.14647	4035707
18.15458	3069491
18.16272	2420147
18.17083	2049890
18.17895	1769636
18.18708	1504534
18.19520	1310879
18.20333	1193945
18.21145	1066660
18.21957	950192
18.22770	856940
18.23582	794474
18.24395	732075
18.25207	687967
18.26018	635788
18.26832	580097
18.27643	579854
18.28455	502770
18.29268	420698
18.30080	343635
18.30893	269329
18.31705	212134
18.32517	173770
18.33330	158605
18.34142	141677
18.34955	139027
18.35767	140135
18.36578	133912
18.37392	120709
18.38203	121012
18.39017	121988
18.39828	117685
18.40640	120715
18.41453	136453
18.42265	169325
18.43077	235882
18.43890	347251
18.44702	529325
18.45515	747502
18.46327	1021609
18.47138	1328895
18.47952	1724655
18.48763	2140378
18.49577	2519606
18.50388	2578954
18.51200	2330434
18.52013	1889820
18.52825	1298703
18.53637	825567
18.54450	524875
18.55262	340173
18.56075	248563
18.56887	211333
18.57698	181417
18.58512	170508
18.59323	154983
18.60137	158677
18.60948	176282
18.61760	208479
18.62573	249827
18.63385	295462
18.64198	334490
18.65010	364100
18.65822	348343
18.66635	315247
18.67447	257824
18.68258	212110
18.69072	172000
18.69883	147698
18.70697	139367
18.71508	135603
18.72320	133928
18.73133	144574
18.73945	147537
18.74758	144387
18.75570	139135
18.76382	133498
18.77195	120771
18.78007	109084
18.78820	109756
18.79632	100223
18.80443	107857
18.81257	107780
18.82068	113405
18.82880	103257
18.83693	113238
18.84505	110339
18.85318	105722
18.86130	105474
18.86942	119294
18.87755	150103
18.88567	183848
18.89380	223869
18.90192	259693
18.91003	276751
18.91817	250665
18.92628	238029
18.93440	216754
18.94253	213754
18.95065	216186
18.95878	237933
18.96690	255584
18.97502	271810
18.98315	289767
18.99127	270251
18.99940	245854
19.00752	210014
19.01563	185244
19.02377	162248
19.03188	144401
19.04002	134857
19.04813	130323
19.05625	125115
19.06438	120934
19.07250	114770
19.08062	113023
19.08875	118763
19.09687	138778
19.10500	177277
19.11312	237524
19.12123	283788
19.12937	311309
19.13748	288433
19.14562	244714
19.15373	201744
19.16185	153135
19.16998	130337
19.17810	106577
19.18622	101940
19.19435	101924
19.20247	96751
19.21060	96116
19.21872	88233
19.22683	89922
19.23497	89546
19.24308	83951
19.25122	93500
19.25933	92506
19.26745	90640
19.27558	99489
19.28370	111598
19.29183	152605
19.29995	206273
19.30807	264369
19.31620	285917
19.32432	297865
19.33243	304093
19.34057	294801
19.34868	281227
19.35682	273427
19.36493	294447
19.37305	347393
19.38118	450231
19.38930	522374
19.39743	567434
19.40555	564422
19.41367	495219
19.42180	439928
19.42992	370770
19.43805	320959
19.44617	310929
19.45428	289975
19.46242	262742
19.47053	280468
19.47865	277500
19.48678	270437
19.49490	279948
19.50303	281348
19.51115	308188
19.51927	345969
19.52740	396983
19.53552	439362
19.54365	485537
19.55177	520875
19.55988	525342
19.56802	521940
19.57613	486072
19.58425	427913
19.59238	372783
19.60050	315355
19.60863	278022
19.61675	261733
19.62487	242085
19.63300	233831
19.64112	233694
19.64925	254809
19.65737	320781
19.66548	462768
19.67362	670810
19.68173	927916
19.68987	1159878
19.69798	1294354
19.70610	1304328
19.71423	1214023
19.72235	1055980
19.73047	898679
19.73860	739066
19.74672	637208
19.75485	545950
19.76297	490069
19.77108	438169
19.77922	423673
19.78733	463660
19.79547	574002
19.80358	767643
19.81170	1004869
19.81983	1191253
19.82795	1276102
19.83608	1177608
19.84420	1008262
19.85232	788500
19.86045	597911
19.86857	454199
19.87668	397418
19.88482	372963
19.89293	398787
19.90107	463447
19.90918	551865
19.91730	592081
19.92543	598619
19.93355	584657
19.94168	518663
19.94980	447675
19.95792	395910
19.96605	353686
19.97417	326805
19.98228	308568
19.99042	292683
19.99853	277288
20.00667	272612
20.01478	284887
20.02290	286399
20.03103	310403
20.03915	326285
20.04728	335241
20.05540	354225
20.06352	383282
20.07165	508552
20.07977	717017
20.08790	1040093
20.09602	1394352
20.10413	1652143
20.11227	1743570
20.12038	1684673
20.12850	1401921
20.13663	1082808
20.14475	841616
20.15288	755395
20.16100	882606
20.16912	1417564
20.17725	2661282
20.18537	4581658
20.19350	7196225
20.20162	1.011798E+07
20.20973	1.236413E+07
20.21787	1.326011E+07
20.22598	1.261361E+07
20.23412	1.059029E+07
20.24223	8195481
20.25035	5957782
20.25848	4761241
20.26660	4750656
20.27472	5652045
20.28285	7143266
20.29097	8156588
20.29910	8888549
20.30722	8258124
20.31533	6965350
20.32347	5297153
20.33158	3609170
20.33972	2337293
20.34783	1511279
20.35595	1023400
20.36408	746429
20.37220	560146
20.38032	466252
20.38845	400022
20.39657	356363
20.40470	333394
20.41282	301707
20.42093	270696
20.42907	266252
20.43718	264346
20.44532	274557
20.45343	302513
20.46155	327425
20.46968	355110
20.47780	358950
20.48593	346587
20.49405	338034
20.50217	296938
20.51030	260132
20.51842	245179
20.52653	218347
20.53467	204839
20.54278	209657
20.55092	210939
20.55903	218354
20.56715	222205
20.57528	224190
20.58340	223283
20.59153	212140
20.59965	198009
20.60777	197238
20.61590	187247
20.62402	187732
20.63213	190388
20.64027	198364
20.64838	220151
20.65652	254469
20.66463	277380
20.67275	309017
20.68088	301814
20.68900	285408
20.69713	253041
20.70525	222857
20.71337	203885
20.72150	184015
20.72962	169676
20.73775	166826
20.74587	171648
20.75398	180160
20.76212	204284
20.77023	233279
20.77835	275985
20.78648	331626
20.79460	450576
20.80273	726644
20.81085	1340635
20.81897	2366924
20.82710	3698281
20.83522	4780334
20.84335	4991137
20.85147	4396367
20.85958	3299940
20.86772	2112144
20.87583	1202885
20.88397	688191
20.89208	434971
20.90020	327963
20.90833	300218
20.91645	294656
20.92457	336349
20.93270	391590
20.94082	455306
20.94895	515420
20.95707	560628
20.96518	546841
20.97332	509039
20.98143	427071
20.98957	341217
20.99768	291835
21.00580	244593
21.01393	213239
21.02205	209459
21.03017	206291
21.03830	222738
21.04642	221016
21.05455	235771
21.06267	237857
21.07078	232511
21.07892	217077
21.08703	198858
21.09517	191283
21.10328	178492
21.11140	167929
21.11953	162784
21.12765	167813
21.13578	189327
21.14390	232501
21.15202	356545
21.16015	590555
21.16827	941463
21.17638	1258001
21.18452	1451198
21.19263	1409718
21.20077	1204432
21.20888	874867
21.21700	626415
21.22513	447244
21.23325	338488
21.24138	300721
21.24950	260809
21.25762	229442
21.26575	200820
21.27387	185747
21.28200	178006
21.29012	170440
21.29823	163392
21.30637	158673
21.31448	158751
21.32260	150866
21.33073	153314
21.33885	151798
21.34698	152013
21.35510	159672
21.36322	150334
21.37135	151035
21.37947	160515
21.38760	171795
21.39572	177834
21.40383	208219
21.41197	271941
21.42008	334272
21.42820	400630
21.43633	461428
21.44445	506150
21.45258	493358
21.46070	461961
21.46882	398933
21.47695	347726
21.48507	298670
21.49320	264912
21.50132	227952
21.50943	202474
21.51757	187754
21.52568	178139
21.53382	158831
21.54193	152556
21.55005	154290
21.55818	153021
21.56630	154244
21.57442	149127
21.58255	155383
21.59067	170187
21.59880	193156
21.60692	220969
21.61503	231013
21.62317	237305
21.63128	230193
21.63942	212773
21.64753	224429
21.65565	246361
21.66378	289450
21.67190	332746
21.68002	399233
21.68815	463067
21.69627	488313
21.70440	492700
21.71252	466909
21.72063	402891
21.72877	317399
21.73688	249987
21.74502	207021
21.75313	178189
21.76125	163183
21.76938	156441
21.77750	152323
21.78563	157217
21.79375	159378
21.80187	173674
21.81000	176060
21.81812	185606
21.82623	195056
21.83437	204976
21.84248	199530
21.85062	212862
21.85873	243551
21.86685	251711
21.87498	270008
21.88310	269723
21.89123	243720
21.89935	230489
21.90747	218175
21.91560	202613
21.92372	188957
21.93185	187669
21.93997	182297
21.94808	163288
21.95622	146526
21.96433	137491
21.97245	127150
21.98058	117681
21.98870	115053
21.99683	107312
22.00495	106309
22.01307	112658
22.02120	119102
22.02932	131967
22.03745	142318
22.04557	159434
22.05368	176219
22.06182	184297
22.06993	176151
22.07807	180577
22.08618	172111
22.09430	164109
22.10243	156664
22.11055	155481
22.11867	148448
22.12680	132210
22.13492	130046
22.14305	112602
22.15117	109987
22.15928	108559
22.16742	99615
22.17553	105340
22.18367	103971
22.19178	105299
22.19990	102576
22.20803	101077
22.21615	103217
22.22427	107925
22.23240	109670
22.24052	113236
22.24865	124289
22.25677	140031
22.26488	141245
22.27302	151157
22.28113	163357
22.28927	177876
22.29738	204776
22.30550	249491
22.31363	270421
22.32175	260338
22.32988	247795
22.33800	222908
22.34612	198750
22.35425	165263
22.36237	156800
22.37048	147759
22.37862	133127
22.38673	145359
22.39487	164628
22.40298	230415
22.41110	360997
22.41923	595272
22.42735	857152
22.43548	1138096
22.44360	1228824
22.45172	1171874
22.45985	967040
22.46797	690731
22.47608	494771
22.48422	344030
22.49233	282540
22.50047	304867
22.50858	351145
22.51670	438777
22.52483	538058
22.53295	645166
22.54108	683403
22.54920	656373
22.55732	592665
22.56545	489552
22.57357	378817
22.58170	311024
22.58982	258499
22.59793	215544
22.60607	201769
22.61418	172588
22.62230	161678
22.63043	143206
22.63855	136391
22.64668	136002
22.65480	126884
22.66292	157191
22.67105	158498
22.67917	162838
22.68730	170536
22.69542	175873
22.70353	192817
22.71167	227977
22.71978	286649
22.72792	362366
22.73603	407086
22.74415	415356
22.75228	370758
22.76040	333321
22.76852	271470
22.77665	236704
22.78477	215113
22.79290	220938
22.80102	258128
22.80913	320052
22.81727	407288
22.82538	478883
22.83352	526650
22.84163	519481
22.84975	461581
22.85788	393583
22.86600	341448
22.87412	336009
22.88225	374843
22.89037	484348
22.89850	647267
22.90662	786343
22.91473	888861
22.92287	938334
22.93098	910381
22.93912	853971
22.94723	804240
22.95535	741255
22.96348	666894
22.97160	571463
22.97973	440014
22.98785	340246
22.99597	296608
23.00410	241984
23.01222	229359
23.02033	192904
23.02847	183440
23.03658	157123
23.04472	148074
23.05283	138630
23.06095	153485
23.06908	145941
23.07720	166189
23.08533	192278
23.09345	214220
23.10157	217742
23.10970	204113
23.11782	193399
23.12595	169913
23.13407	155299
23.14218	142379
23.15032	137004
23.15843	135815
23.16655	139020
23.17468	130535
23.18280	122726
23.19093	127505
23.19905	110755
23.20717	102640
23.21530	101344
23.22342	100276
23.23155	96457
23.23967	95098
23.24778	102806
23.25592	116401
23.26403	159661
23.27215	205478
23.28028	253260
23.28840	290353
23.29653	274405
23.30465	249932
23.31277	207619
23.32090	168861
23.32902	144299
23.33715	147649
23.34527	188693
23.35338	262724
23.36152	378041
23.36963	539748
23.37777	699023
23.38588	788814
23.39400	803892
23.40213	701006
23.41025	559966
23.41837	411785
23.42650	273423
23.43462	199641
23.44275	151801
23.45087	137442
23.45898	114328
23.46712	101616
23.47523	102164
23.48337	93102
23.49148	91807
23.49960	90392
23.50773	88004
23.51585	91656
23.52397	91926
23.53210	93814
23.54022	100161
23.54835	111163
23.55647	127752
23.56458	154766
23.57272	196684
23.58083	283658
23.58897	429277
23.59708	651464
23.60520	997251
23.61333	1328104
23.62145	1527842
23.62958	1479464
23.63770	1280791
23.64582	944950
23.65395	648531
23.66207	423478
23.67018	286326
23.67832	218682
23.68643	191951
23.69457	165804
23.70268	148070
23.71080	132666
23.71893	125491
23.72705	126681
23.73518	117165
23.74330	107144
23.75142	109970
23.75955	118996
23.76767	147671
23.77580	257061
23.78392	529148
23.79203	1034010
23.80017	1739474
23.80828	2428007
23.81640	2783630
23.82453	2615044
23.83265	2241567
23.84078	1704185
23.84890	1278872
23.85702	939327
23.86515	695188
23.87327	551766
23.88140	483919
23.88952	423425
23.89763	396174
23.90577	402324
23.91388	454598
23.92200	557615
23.93013	659516
23.93825	764229
23.94638	758241
23.95450	666844
23.96262	513084
23.97075	388460
23.97887	302694
23.98700	261040
23.99512	234813
24.00323	215534
24.01137	211050
24.01948	216311
24.02762	227353
24.03573	258383
24.04385	295343
24.05198	335179
24.06010	327823
24.06822	303808
24.07635	244113
24.08447	206563
24.09260	178172
24.10072	157510
24.10883	153580
24.11697	137173
24.12508	146891
24.13322	148420
24.14133	179395
24.14945	231871
24.15758	293816
24.16570	385391
24.17383	444854
24.18195	499930
24.19007	493054
24.19820	475429
24.20632	453644
24.21443	446815
24.22257	432710
24.23068	385510
24.23882	341516
24.24693	293016
24.25505	248336
24.26318	211997
24.27130	187375
24.27943	178291
24.28755	153724
24.29567	148113
24.30380	144685
24.31192	155287
24.32003	159516
24.32817	174467
24.33628	180889
24.34442	187951
24.35253	189169
24.36065	182888
24.36878	168858
24.37690	155003
24.38503	142676
24.39315	133132
24.40127	129524
24.40940	134554
24.41752	136741
24.42565	161563
24.43377	176139
24.44188	170734
24.45002	175328
24.45813	163459
24.46625	152421
24.47438	142751
24.48250	146243
24.49063	149973
24.49875	153785
24.50687	161781
24.51500	174941
24.52312	183358
24.53125	186757
24.53937	208871
24.54748	259189
24.55562	328350
24.56373	424804
24.57187	516680
24.57998	576734
24.58810	574185
24.59623	521160
24.60435	437715
24.61247	382216
24.62060	305037
24.62872	252454
24.63685	207288
24.64497	179960
24.65308	162233
24.66122	164180
24.66933	159738
24.67747	154894
24.68558	155953
24.69370	158516
24.70183	152194
24.70995	154346
24.71807	152610
24.72620	146635
24.73432	139066
24.74245	138945
24.75057	146844
24.75868	142615
24.76682	141367
24.77493	146335
24.78307	163870
24.79118	178165
24.79930	204893
24.80743	230081
24.81555	241425
24.82368	231580
24.83180	241075
24.83992	266385
24.84805	327614
24.85617	458076
24.86428	649030
24.87242	930086
24.88053	1360872
24.88867	1972520
24.89678	2737958
24.90490	3458537
24.91303	3907772
24.92115	3929866
24.92928	3218185
24.93740	2343446
24.94552	1524974
24.95365	931368
24.96177	554540
24.96988	342813
24.97802	251123
24.98613	199952
24.99427	186968
25.00238	167904
25.01050	155135
25.01863	152340
25.02675	146644
25.03488	142232
25.04300	151229
25.05112	144197
25.05925	146730
25.06737	141275
25.07550	145008
25.08362	149069
25.09173	155576
25.09987	173536
25.10798	246764
25.11610	495913
25.12423	1187564
25.13235	2869447
25.14048	5886964
25.14860	1.072626E+07
25.15672	1.610481E+07
25.16485	2.024846E+07
25.17297	2.160176E+07
25.18110	2.023082E+07
25.18922	1.516332E+07
25.19733	9896874
25.20547	5747357
25.21358	2952575
25.22172	1525611
25.22983	825541
25.23795	509357
25.24608	390487
25.25420	416290
25.26232	530117
25.27045	739486
25.27857	942189
25.28670	1122592
25.29482	1134384
25.30293	1038053
25.31107	856884
25.31918	624674
25.32732	451566
25.33543	305482
25.34355	234599
25.35168	182357
25.35980	168017
25.36792	153019
25.37605	142999
25.38417	134848
25.39230	121035
25.40042	120464
25.40853	119883
25.41667	110244
25.42478	108665
25.43292	110970
25.44103	103523
25.44915	103350
25.45728	105919
25.46540	107166
25.47353	116248
25.48165	108997
25.48977	120084
25.49790	113712
25.50602	123054
25.51413	119745
25.52227	120749
25.53038	114225
25.53852	113094
25.54663	103834
25.55475	101255
25.56288	101818
25.57100	98533
25.57913	106700
25.58725	106342
25.59537	111539
25.60350	108025
25.61162	114795
25.61975	110040
25.62787	104376
25.63598	96591
25.64412	97483
25.65223	98375
25.66035	97753
25.66848	101233
25.67660	114083
25.68473	120905
25.69285	146810
25.70097	160265
25.70910	181410
25.71722	198439
25.72535	199759
25.73347	196264
25.74158	171681
25.74972	147631
25.75783	130983
25.76595	124032
25.77408	111832
25.78220	103150
25.79033	97151
25.79845	102702
25.80657	95804
25.81470	100196
25.82282	101250
25.83095	96380
25.83907	103119
25.84718	110916
25.85532	105116
25.86343	119142
25.87157	127305
25.87968	144675
25.88780	150612
25.89593	145708
25.90405	145892
25.91217	126175
25.92030	128134
25.92842	125703
25.93655	120897
25.94467	115300
25.95278	119578
25.96092	123638
25.96903	128398
25.97717	129860
25.98528	138079
25.99340	124467
26.00153	127066
26.00965	113543
26.01777	107205
26.02590	96678
26.03402	93918
26.04215	96361
26.05027	98989
26.05838	92316
26.06652	97438
26.07463	111104
26.08277	114906
26.09088	136386
26.09900	136806
26.10713	160231
26.11525	155508
26.12338	156609
26.13150	141835
26.13962	140937
26.14775	137933
26.15587	136602
26.16398	146452
26.17212	155385
26.18023	161398
26.18837	171406
26.19648	166984
26.20460	164027
26.21273	160668
26.22085	150631
26.22898	145371
26.23710	134793
26.24522	131202
26.25335	125848
26.26147	135873
26.26960	164325
26.27772	232398
26.28583	274992
26.29397	313284
26.30208	323782
26.31020	338804
26.31833	340373
26.32645	350463
26.33458	342906
26.34270	352844
26.35082	351416
26.35895	393220
26.36707	512538
26.37520	786376
26.38332	1323617
26.39143	2187259
26.39957	3267607
26.40768	4382986
26.41582	5109010
26.42393	5368134
26.43205	4732762
26.44018	3802222
26.44830	2758932
26.45642	1892674
26.46455	1260310
26.47267	876197
26.48080	666589
26.48892	542535
26.49703	480626
26.50517	449992
26.51328	422957
26.52142	403552
26.52953	370251
26.53765	357610
26.54578	350414
26.55390	345711
26.56202	333305
26.57015	333616
26.57827	327869
26.58640	323822
26.59452	324255
26.60263	328066
26.61077	318257
26.61888	331529
26.62702	318446
26.63513	328899
26.64325	330062
26.65138	329758
26.65950	334373
26.66763	330459
26.67575	328769
26.68387	315160
26.69200	318397
26.70012	305875
26.70823	304806
26.71637	303497
26.72448	309192
26.73262	310540
26.74073	306071
26.74885	314637
26.75698	318793
26.76510	308455
26.77323	308307
26.78135	308748
26.78947	308119
26.79760	311770
26.80572	315323
26.81383	318684
26.82197	320593
26.83008	322449
26.83822	320136
26.84633	318534
26.85445	298269
26.86258	296688
26.87070	281478
26.87883	272397
26.88695	274983
26.89507	295677
26.90320	274531
26.91132	280313
26.91945	275363
26.92757	262464
26.93568	271147
26.94382	254811
26.95193	256507
26.96005	256121
26.96818	255859
26.97630	265160
26.98443	304386
26.99255	368780
27.00067	510633
27.00880	721816
27.01692	1094204
27.02505	1579295
27.03317	1981446
27.04128	2242174
27.04942	2143700
27.05753	1877785
27.06567	1444583
27.07378	1150283
27.08190	904448
27.09003	748610
27.09815	626314
27.10627	542581
27.11440	506747
27.12252	470856
27.13065	433175
27.13877	417670
27.14688	402543
27.15502	403688
27.16313	380895
27.17127	398587
27.17938	440708
27.18750	495690
27.19563	589448
27.20375	692510
27.21187	746213
27.22000	721893
27.22812	649533
27.23625	564741
27.24437	486912
27.25248	422126
27.26062	371359
27.26873	339144
27.27687	313477
27.28498	283789
27.29310	279843
27.30123	265302
27.30935	277470
27.31748	264170
27.32560	265245
27.33372	276446
27.34185	289749
27.34997	290338
27.35808	290292
27.36622	297311
27.37433	295557
27.38247	281503
27.39058	286337
27.39870	279878
27.40683	272352
27.41495	257817
27.42308	263694
27.43120	258643
27.43932	254964
27.44745	260225
27.45557	261377
27.46370	257228
27.47182	242128
27.47993	236182
27.48807	211504
27.49618	206863
27.50430	203835
27.51243	198219
27.52055	201476
27.52868	202245
27.53680	200251
27.54492	196117
27.55305	206586
27.56117	204646
27.56930	205463
27.57742	213713
27.58553	239396
27.59367	278132
27.60178	344132
27.60990	414690
27.61803	449287
27.62615	438824
27.63428	413195
27.64240	370327
27.65052	325094
27.65865	287741
27.66677	265098
27.67490	250742
27.68302	243421
27.69113	254142
27.69927	277096
27.70738	304662
27.71552	310599
27.72363	299144
27.73175	273957
27.73988	237747
27.74800	213065
27.75612	197793
27.76425	177921
27.77237	173055
27.78050	176853
27.78862	178164
27.79673	192342
27.80487	208303
27.81298	208424
27.82112	199636
27.82923	199144
27.83735	187505
27.84548	175615
27.85360	173563
27.86172	171820
27.86985	153111
27.87797	156099
27.88610	148662
27.89422	147741
27.90233	147643
27.91047	146974
27.91858	156801
27.92672	158249
27.93483	155381
27.94295	154245
27.95108	159693
27.95920	156191
27.96733	150689
27.97545	146629
27.98357	152208
27.99170	153564
27.99982	146855
28.00793	159235
28.01607	170000
28.02418	184378
28.03232	232171
28.04043	294005
28.04855	397202
28.05668	509709
28.06480	626603
28.07293	670831
28.08105	642532
28.08917	510591
28.09730	400562
28.10542	290975
28.11355	221448
28.12167	173680
28.12978	157657
28.13792	146458
28.14603	140719
28.15415	133396
28.16228	138210
28.17040	134832
28.17853	141212
28.18665	141534
28.19477	148770
28.20290	168033
28.21102	212548
28.21915	264995
28.22727	326303
28.23538	381384
28.24352	418773
28.25163	393347
28.25975	354050
28.26788	297313
28.27600	248943
28.28413	205749
28.29225	170451
28.30037	152021
28.30850	158983
28.31662	184434
28.32475	227027
28.33287	285730
28.34098	327760
28.34912	354555
28.35723	367519
28.36537	337646
28.37348	337864
28.38160	345104
28.38973	352948
28.39785	365982
28.40597	385193
28.41410	379463
28.42222	367626
28.43035	351464
28.43847	319202
28.44658	280017
28.45472	255522
28.46283	241138
28.47097	217372
28.47908	217713
28.48720	218819
28.49533	250174
28.50345	275117
28.51158	329230
28.51970	367186
28.52782	397853
28.53595	387370
28.54407	357119
28.55218	304076
28.56032	240355
28.56843	186458
28.57657	162256
28.58468	141984
28.59280	130803
28.60093	132937
28.60905	134024
28.61718	142574
28.62530	149340
28.63342	168592
28.64155	192618
28.64967	214917
28.65778	238493
28.66592	228973
28.67403	219013
28.68217	195528
28.69028	178539
28.69840	160417
28.70653	143542
28.71465	129271
28.72278	119122
28.73090	118813
28.73902	111908
28.74715	115867
28.75527	115071
28.76340	115733
28.77152	112949
28.77963	114747
28.78777	123700
28.79588	135188
28.80400	154153
28.81213	164644
28.82025	193475
28.82838	200337
28.83650	199935
28.84462	185728
28.85275	164990
28.86087	154524
28.86900	150646
28.87712	148825
28.88523	151536
28.89337	170301
28.90148	202515
28.90962	239917
28.91773	263112
28.92585	269965
28.93398	262931
28.94210	232611
28.95022	202786
28.95835	182384
28.96647	171586
28.97460	160000
28.98272	145586
28.99083	125841
28.99897	122010
29.00708	111396
29.01522	108829
29.02333	110282
29.03145	111793
29.03958	108218
29.04770	109662
29.05582	103968
29.06395	104709
29.07207	109572
29.08020	107595
29.08832	110475
29.09643	119476
29.10457	125599
29.11268	135347
29.12082	134743
29.12893	121815
29.13705	117024
29.14518	109643
29.15330	100237
29.16143	96797
29.16955	94361
29.17767	98679
29.18580	107514
29.19392	114224
29.20203	147847
29.21017	188955
29.21828	257850
29.22642	333003
29.23453	397287
29.24265	420970
29.25078	409981
29.25890	374059
29.26703	336499
29.27515	308618
29.28327	292724
29.29140	247687
29.29952	212100
29.30763	180593
29.31577	146000
29.32388	121647
29.33202	116173
29.34013	99625
29.34825	98263
29.35638	87821
29.36450	97938
29.37263	91585
29.38075	92584
29.38887	90509
29.39700	93983
29.40512	103537
29.41325	98438
29.42137	105141
29.42948	109883
29.43762	115360
29.44573	120487
29.45385	112664
29.46198	117993
29.47010	105270
29.47823	100109
29.48635	98276
29.49447	100749
29.50260	98867
29.51072	95986
29.51885	100101
29.52697	99634
29.53508	101994
29.54322	104379
29.55133	103385
29.55947	97593
29.56758	101803
29.57570	98467
29.58383	95677
29.59195	92452
29.60007	90254
29.60820	92197
29.61632	89008
29.62445	86329
29.63257	85046
29.64068	93550
29.64882	88406
29.65693	86380
29.66507	86460
29.67318	87991
29.68130	89335
29.68943	101044
29.69755	109109
29.70567	126864
29.71380	145907
29.72192	150471
29.73005	145278
29.73817	133157
29.74628	124020
29.75442	106067
29.76253	103710
29.77067	88810
29.77878	87412
29.78690	87229
29.79503	87133
29.80315	82745
29.81128	83703
29.81940	80550
29.82752	79785
29.83565	83386
29.84377	84393
29.85188	85233
29.86002	87573
29.86813	88774
29.87627	95273
29.88438	98382
29.89250	118254
29.90063	170344
29.90875	210351
29.91688	253267
29.92500	273043
29.93312	250846
29.94125	205602
29.94937	176171
29.95750	131363
29.96562	111638
29.97373	106230
29.98187	108133
29.98998	107488
29.99810	114143
30.00623	120364
30.01435	141247
30.02248	156537
30.03060	156234
30.03872	170149
30.04685	175253
30.05497	173860
30.06310	181593
30.07122	184569
30.07933	176809
30.08747	172271
30.09558	172313
30.10370	166451
30.11183	166228
30.11995	157780
30.12808	152593
30.13620	140510
30.14432	136420
30.15245	136223
30.16057	128093
30.16870	132043
30.17682	136360
30.18493	135982
30.19307	158059
30.20118	167737
30.20932	185446
30.21743	205551
30.22555	215003
30.23368	216733
30.24180	196229
30.24992	174090
30.25805	148112
30.26617	130254
30.27430	110345
30.28242	98071
30.29053	105046
30.29867	99684
30.30678	97813
30.31492	96078
30.32303	89077
30.33115	92592
30.33928	92793
30.34740	96133
30.35552	97243
30.36365	96838
30.37177	98963
30.37990	106431
30.38802	99108
30.39613	91329
30.40427	89460
30.41238	91885
30.42052	87086
30.42863	83362
30.43675	85078
30.44488	79929
30.45300	80838
30.46113	87525
30.46925	84126
30.47737	91442
30.48550	87238
30.49362	87312
30.50173	97911
30.50987	97188
30.51798	103146
30.52612	105072
30.53423	107248
30.54235	96961
30.55048	96662
30.55860	98421
30.56673	99606
30.57485	107867
30.58297	106344
30.59110	112776
30.59922	111993
30.60735	114755
30.61547	115557
30.62358	115028
30.63172	111036
30.63983	112075
30.64795	101308
30.65608	97843
30.66420	96541
30.67233	87827
30.68045	90091
30.68857	85729
30.69670	84510
30.70482	82608
30.71295	80859
30.72107	83949
30.72918	83245
30.73732	90253
30.74543	86120
30.75357	91493
30.76168	91147
30.76980	87150
30.77793	91082
30.78605	91320
30.79417	115183
30.80230	159103
30.81042	220571
30.81855	296908
30.82667	354812
30.83478	373800
30.84292	348158
30.85103	293272
30.85917	223400
30.86728	181749
30.87540	150498
30.88353	142480
30.89165	140886
30.89977	151954
30.90790	145814
30.91602	145715
30.92415	135184
30.93227	116698
30.94038	108976
30.94852	102799
30.95663	102231
30.96477	94182
30.97288	98270
30.98100	103161
30.98913	104938
30.99725	100881
31.00538	102493
31.01350	98413
31.02162	93184
31.02975	93363
31.03787	92031
31.04598	92715
31.05412	90681
31.06223	95107
31.07037	91949
31.07848	93858
31.08660	95149
31.09473	100095
31.10285	108207
31.11098	135074
31.11910	150556
31.12722	167672
31.13535	173379
31.14347	158674
31.15158	150595
31.15972	142493
31.16783	145117
31.17597	147524
31.18408	155880
31.19220	148984
31.20033	147994
31.20845	159154
31.21658	183581
31.22470	219240
31.23282	238079
31.24095	267823
31.24907	272892
31.25720	244891
31.26532	211350
31.27343	166963
31.28157	131121
31.28968	112543
31.29780	106915
31.30593	98702
31.31405	91519
31.32218	94601
31.33030	107304
31.33842	122504
31.34655	126651
31.35467	136609
31.36280	136468
31.37092	129338
31.37903	121318
31.38717	106811
31.39528	104866
31.40342	96863
31.41153	92893
31.41965	85714
31.42778	87238
31.43590	84768
31.44402	89590
31.45215	88403
31.46027	87649
31.46840	87263
31.47652	87712
31.48463	87952
31.49277	94278
31.50088	102459
31.50902	111865
31.51713	130187
31.52525	144698
31.53338	174671
31.54150	193141
31.54962	198595
31.55775	194954
31.56587	187178
31.57400	170790
31.58212	155441
31.59023	132263
31.59837	119698
31.60648	108086
31.61462	99362
31.62273	91259
31.63085	94478
31.63898	93716
31.64710	91107
31.65523	101274
31.66335	109010
31.67147	116671
31.67960	131739
31.68772	149837
31.69583	164326
31.70397	165595
31.71208	149359
31.72022	137085
31.72833	115248
31.73645	104318
31.74458	91692
31.75270	89241
31.76083	86822
31.76895	76868
31.77707	85724
31.78520	83120
31.79332	84759
31.80145	90885
31.80957	84984
31.81768	85149
31.82582	88501
31.83393	86202
31.84205	85125
31.85018	88886
31.85830	92759
31.86643	96233
31.87455	103810
31.88267	107123
31.89080	109316
31.89892	111546
31.90705	104054
31.91517	96383
31.92328	90953
31.93142	92860
31.93953	94705
31.94765	97847
31.95578	108959
31.96390	106472
31.97203	118465
31.98015	124375
31.98827	141018
31.99640	150662
32.00452	167790
32.01265	191240
32.02077	215536
32.02888	226707
32.03702	234791
32.04513	226269
32.05327	196490
32.06138	167877
32.06950	142402
32.07763	132792
32.08575	126927
32.09387	119230
32.10200	104394
32.11012	111662
32.11825	108193
32.12637	108122
32.13448	100183
32.14262	102575
32.15073	98259
32.15887	88256
32.16698	90998
32.17510	89262
32.18323	87067
32.19135	91140
32.19947	86813
32.20760	91821
32.21572	91560
32.22385	94020
32.23197	92513
32.24008	87597
32.24822	89793
32.25633	86728
32.26447	95433
32.27258	93341
32.28070	86242
32.28883	91605
32.29695	94950
32.30508	92610
32.31320	94504
32.32132	88559
32.32945	90369
32.33757	87662
32.34568	92055
32.35382	87168
32.36193	92238
32.37007	88092
32.37818	101252
32.38630	93143
32.39443	88782
32.40255	86566
32.41068	90058
32.41880	82098
32.42692	84413
32.43505	87550
32.44317	85710
32.45130	89304
32.45942	87147
32.46753	86779
32.47567	89970
32.48378	86635
32.49190	84871
32.50003	85987
32.50815	84853
32.51628	92279
32.52440	90931
32.53252	89177
32.54065	93175
32.54877	88597
32.55690	96549
32.56502	101192
32.57313	100524
32.58127	97549
32.58938	90355
32.59750	98834
32.60563	95550
32.61375	95311
32.62188	98408
32.63000	91216
32.63812	92986
32.64625	97684
32.65437	93632
32.66250	89888
32.67062	94009
32.67873	93119
32.68687	96753
32.69498	102072
32.70312	108618
32.71123	111728
32.71935	109029
32.72748	105587
32.73560	100139
32.74372	102307
32.75185	95173
32.75997	92773
32.76810	86040
32.77622	86551
32.78433	88342
32.79247	83571
32.80058	87308
32.80872	82182
32.81683	88288
32.82495	93746
32.83308	99697
32.84120	100787
32.84933	95046
32.85745	97749
32.86557	105986
32.87370	95650
32.88182	99288
32.88993	100123
32.89807	102736
32.90618	107332
32.91432	116618
32.92243	117633
32.93055	116870
32.93868	114495
32.94680	105651
32.95493	101377
32.96305	96970
32.97117	98081
32.97930	99102
32.98742	112096
32.99553	144679
33.00367	187401
33.01178	240808
33.01992	293405
33.02803	325692
33.03615	313789
33.04428	253316
33.05240	209805
33.06053	181067
33.06865	167494
33.07677	191027
33.08490	220794
33.09302	273863
33.10115	344662
33.10927	426900
33.11738	493844
33.12552	532405
33.13363	517054
33.14175	462093
33.14988	372240
33.15800	306237
33.16613	245854
33.17425	205970
33.18237	180697
33.19050	161987
33.19862	140854
33.20675	127348
33.21487	111360
33.22298	112448
33.23112	117844
33.23923	112228
33.24735	121555
33.25548	120496
33.26360	128634
33.27173	115844
33.27985	112777
33.28797	107733
33.29610	109148
33.30422	107348
33.31235	111566
33.32047	118248
33.32858	112922
33.33672	114107
33.34483	117004
33.35297	122493
33.36108	140135
33.36920	141319
33.37733	158280
33.38545	167963
33.39357	163033
33.40170	144640
33.40982	128123
33.41795	108935
33.42607	102006
33.43418	98452
33.44232	92794
33.45043	86658
33.45857	82529
33.46668	84146
33.47480	85142
33.48293	84908
33.49105	93519
33.49918	84098
33.50730	91257
33.51542	95511
33.52355	95869
33.53167	114182
33.53978	112571
33.54792	119843
33.55603	120491
33.56417	139190
33.57228	147177
33.58040	158271
33.58853	157247
33.59665	144392
33.60478	121729
33.61290	107093
33.62102	97145
33.62915	96541
33.63727	95107
33.64538	101332
33.65352	104992
33.66163	115255
33.66977	122347
33.67788	119910
33.68600	127254
33.69413	115223
33.70225	112768
33.71038	106816
33.71850	95014
33.72662	90620
33.73475	86280
33.74287	86487
33.75100	84286
33.75912	86293
33.76723	86864
33.77537	79043
33.78348	77992
33.79160	80658
33.79973	86608
33.80785	84755
33.81598	80967
33.82410	78536
33.83222	78714
33.84035	81278
33.84847	82341
33.85660	84036
33.86472	87011
33.87283	88084
33.88097	89743
33.88908	99441
33.89722	98773
33.90533	96274
33.91345	99831
33.92158	93409
33.92970	96083
33.93782	94293
33.94595	93551
33.95407	83818
33.96220	82019
33.97032	81262
33.97843	90496
33.98657	83512
33.99468	79960
34.00282	78462
34.01093	81157
34.01905	80610
34.02718	84856
34.03530	79756
34.04342	81839
34.05155	81413
34.05967	88146
34.06780	86223
34.07592	81594
34.08403	87510
34.09217	86091
34.10028	80822
34.10842	82249
34.11653	83652
34.12465	87357
34.13278	83741
34.14090	90141
34.14903	88642
34.15715	83925
34.16527	83722
34.17340	83851
34.18152	87884
34.18963	79028
34.19777	81668
34.20588	79949
34.21402	82386
34.22213	84369
34.23025	83994
34.23838	86213
34.24650	83142
34.25463	88005
34.26275	79454
34.27087	81609
34.27900	78791
34.28712	85497
34.29525	75090
34.30337	79030
34.31148	79866
34.31962	80595
34.32773	74144
34.33585	77834
34.34398	77013
34.35210	76558
34.36023	76813
34.36835	76591
34.37647	76916
34.38460	80808
34.39272	85649
34.40085	75950
34.40897	75693
34.41708	78257
34.42522	74636
34.43333	75420
34.44145	75395
34.44958	77048
34.45770	83448
34.46583	79207
34.47395	78603
34.48207	80183
34.49020	79996
34.49832	78286
34.50645	78089
34.51457	78555
34.52268	84034
34.53082	78368
34.53893	83891
34.54707	92951
34.55518	99404
34.56330	109959
34.57143	119632
34.57955	136118
34.58767	128645
34.59580	133712
34.60392	130887
34.61205	123559
34.62017	114747
34.62828	107744
34.63642	100360
34.64453	99226
34.65267	92930
34.66078	90064
34.66890	88604
34.67703	87761
34.68515	94205
34.69327	87029
34.70140	85037
34.70952	85415
34.71765	87028
34.72577	84998
34.73388	84725
34.74202	86920
34.75013	85776
34.75827	88124
34.76638	89417
34.77450	98327
34.78263	105346
34.79075	107410
34.79888	107424
34.80700	105825
34.81512	105034
34.82325	98499
34.83137	98330
34.83948	93422
34.84762	96692
34.85573	92276
34.86387	81079
34.87198	88484
34.88010	85460
34.88823	82306
34.89635	87927
34.90448	85251
34.91260	84947
34.92072	89279
34.92885	82918
34.93697	82804
34.94510	85951
34.95322	86048
34.96133	89052
34.96947	98583
34.97758	103646
34.98570	103811
34.99383	112514
35.00195	111494
35.01008	110163
35.01820	100110
35.02632	99468
35.03445	93453
35.04257	88568
35.05070	94744
35.05882	91250
35.06693	85482
35.07507	83242
35.08318	89035
35.09130	87502
35.09943	88293
35.10755	83394
35.11568	90791
35.12380	84231
35.13192	86924
35.14005	85585
35.14817	89604
35.15630	82935
35.16442	86126
35.17253	87610
35.18067	93374
35.18878	97686
35.19692	87768
35.20503	93180
35.21315	87485
35.22128	84660
35.22940	91203
35.23752	82361
35.24565	85901
35.25377	89930
35.26190	89335
35.27002	80895
35.27813	87071
35.28627	87298
35.29438	97720
35.30252	87153
35.31063	86052
35.31875	86318
35.32688	90951
35.33500	90880
35.34313	86742
35.35125	79348
35.35937	83295
35.36750	82265
35.37562	80640
35.38373	81690
35.39187	86194
35.39998	89893
35.40812	95031
35.41623	105601
35.42435	119870
35.43248	136258
35.44060	146853
35.44873	155098
35.45685	156302
35.46497	144408
35.47310	133701
35.48122	123818
35.48933	113897
35.49747	115745
35.50558	102187
35.51372	98990
35.52183	101663
35.52995	107452
35.53808	98618
35.54620	95376
35.55433	92017
35.56245	89520
35.57057	97567
35.57870	92123
35.58682	89031
35.59495	86258
35.60307	86722
35.61118	81923
35.61932	85192
35.62743	86132
35.63555	80584
35.64368	80088
35.65180	83608
35.65993	90229
35.66805	83887
35.67617	90907
35.68430	88469
35.69242	88753
35.70055	92030
35.70867	85613
35.71678	89189
35.72492	95711
35.73303	90720
35.74115	100897
35.74928	109489
35.75740	124584
35.76553	133204
35.77365	158715
35.78177	176524
35.78990	201537
35.79802	196890
35.80615	175268
35.81427	164826
35.82238	133111
35.83052	110615
35.83863	106184
35.84677	90249
35.85488	92978
35.86300	98299
35.87113	96640
35.87925	94388
35.88737	91910
35.89550	93516
35.90362	83620
35.91175	86281
35.91987	92489
35.92798	91449
35.93612	96735
35.94423	89965
35.95237	90649
35.96048	87352
35.96860	87215
35.97673	88206
35.98485	84503
35.99298	89000
36.00110	89241
36.00922	86672
36.01735	86457
36.02547	91616
36.03358	96679
36.04172	90993
36.04983	99346
36.05797	89822
36.06608	97203
36.07420	89921
36.08233	85650
36.09045	92368
36.09858	87680
36.10670	91372
36.11482	90456
36.12295	97993
36.13107	99662
36.13920	98160
36.14732	105816
36.15543	109725
36.16357	122229
36.17168	127283
36.17980	117531
36.18793	120122
36.19605	107980
36.20418	99659
36.21230	94761
36.22042	88535
36.22855	83667
36.23667	89664
36.24480	85890
36.25292	94081
36.26103	94024
36.26917	85987
36.27728	93631
36.28540	92647
36.29353	92785
36.30165	94067
36.30978	93097
36.31790	95971
36.32602	97231
36.33415	95897
36.34227	98880
36.35040	105945
36.35852	104485
36.36663	98872
36.37477	97653
36.38288	96417
36.39102	94682
36.39913	97216
36.40725	96664
36.41538	100219
36.42350	100880
36.43162	100762
36.43975	100603
36.44787	101015
36.45600	102459
36.46412	100644
36.47223	91506
36.48037	97455
36.48848	90702
36.49662	94202
36.50473	87352
36.51285	90397
36.52098	84269
36.52910	90617
36.53722	86907
36.54535	85329
36.55347	92788
36.56160	87737
36.56972	87945
36.57783	92451
36.58597	92784
36.59408	87008
36.60222	83715
36.61033	93373
36.61845	89949
36.62658	89668
36.63470	101901
36.64283	98193
36.65095	97573
36.65907	91910
36.66720	88981
36.67532	92978
36.68343	91568
36.69157	92374
36.69968	88671
36.70782	90697
36.71593	95369
36.72405	99727
36.73218	87540
36.74030	92134
36.74843	99723
36.75655	91324
36.76467	94382
36.77280	91820
36.78092	95424
36.78905	88921
36.79717	93821
36.80528	92810
36.81342	95588
36.82153	94990
36.82965	95779
36.83778	94423
36.84590	98001
36.85403	94433
36.86215	94175
36.87027	87637
36.87840	89433
36.88652	88697
36.89465	85474
36.90277	87357
36.91088	86654
36.91902	88744
36.92713	90054
36.93525	88874
36.94338	95168
36.95150	110671
36.95963	130355
36.96775	161097
36.97587	199312
36.98400	226679
36.99212	261309
37.00025	266718
37.00837	236313
37.01648	197960
37.02462	162014
37.03273	127560
37.04087	121809
37.04898	107761
37.05710	101675
37.06523	99723
37.07335	106486
37.08147	101769
37.08960	113143
37.09772	117411
37.10585	122545
37.11397	123136
37.12208	115599
37.13022	118149
37.13833	106733
37.14647	109000
37.15458	101499
37.16270	102793
37.17083	99492
37.17895	97583
37.18708	99485
37.19520	97202
37.20332	94239
37.21145	95645
37.21957	92076
37.22768	101170
37.23582	99109
37.24393	101925
37.25207	104944
37.26018	96015
37.26830	100651
37.27643	94149
37.28455	95130
37.29268	94628
37.30080	97613
37.30892	92514
37.31705	92774
37.32517	96212
37.33328	96135
37.34142	93384
37.34953	102338
37.35767	100737
37.36578	101122
37.37390	108438
37.38203	110431
37.39015	109932
37.39828	110650
37.40640	114082
37.41452	114155
37.42265	112580
37.43077	114900
37.43890	118308
37.44702	123283
37.45513	119688
37.46327	123115
37.47138	113594
37.47950	112099
37.48763	111776
