Z:\data\JTB-E02\BACandBLUE\JTB-E02-193-07.D Wed Dec 19 08:47:37 2018
Start of data points
2.09532	81634
2.10345	78807
2.11157	79374
2.11970	82762
2.12782	82006
2.13593	85640
2.14407	84658
2.15218	85295
2.16032	76154
2.16843	80263
2.17655	78121
2.18468	78022
2.19280	72811
2.20092	75411
2.20905	73580
2.21717	70486
2.22530	72452
2.23342	71505
2.24153	76017
2.24967	67647
2.25778	70618
2.26592	136215
2.27403	1017169
2.28215	2430172
2.29028	2528128
2.29840	1626182
2.30653	925421
2.31465	692997
2.32277	582281
2.33090	514483
2.33902	453495
2.34713	405650
2.35527	351092
2.36338	321740
2.37152	293254
2.37963	281478
2.38775	282553
2.39588	258310
2.40400	269255
2.41213	264962
2.42025	302754
2.42837	376765
2.43650	312869
2.44462	257105
2.45273	249057
2.46087	234766
2.46898	205709
2.47712	198017
2.48523	183702
2.49335	177683
2.50148	179717
2.50960	172391
2.51773	176332
2.52585	179082
2.53397	163697
2.54210	160017
2.55022	180942
2.55835	192402
2.56647	201751
2.57458	183794
2.58272	153881
2.59083	140070
2.59895	143245
2.60708	140820
2.61520	148810
2.62333	167009
2.63145	167192
2.63957	159392
2.64770	147419
2.65582	150880
2.66395	143322
2.67207	138167
2.68018	144781
2.68832	134828
2.69643	139207
2.70457	145448
2.71268	138813
2.72080	130256
2.72893	130068
2.73705	125898
2.74517	122102
2.75330	118622
2.76142	116495
2.76955	117136
2.77767	112279
2.78578	124200
2.79392	118497
2.80203	125137
2.81017	131940
2.81828	133788
2.82640	120137
2.83453	124086
2.84265	118331
2.85077	122665
2.85890	118971
2.86702	119015
2.87515	120758
2.88327	118045
2.89138	120840
2.89952	120922
2.90763	120899
2.91577	115321
2.92388	106417
2.93200	107721
2.94013	111797
2.94825	109411
2.95638	107177
2.96450	105805
2.97262	106872
2.98075	116001
2.98887	108627
2.99698	113454
3.00512	105471
3.01323	105439
3.02137	113309
3.02948	112523
3.03760	105075
3.04573	101898
3.05385	104963
3.06198	104598
3.07010	104364
3.07822	101746
3.08635	104552
3.09447	101745
3.10258	105223
3.11072	114589
3.11883	131731
3.12697	138149
3.13508	131436
3.14320	117899
3.15133	113533
3.15945	106833
3.16758	112042
3.17570	104372
3.18382	104504
3.19195	105834
3.20007	105928
3.20820	102390
3.21632	102852
3.22443	102163
3.23257	94204
3.24068	99783
3.24880	101649
3.25693	96961
3.26505	93355
3.27318	95464
3.28130	99812
3.28942	105161
3.29755	183696
3.30567	722347
3.31380	2653949
3.32192	6135288
3.33003	8785266
3.33817	8591877
3.34628	6724407
3.35442	4906725
3.36253	3695428
3.37065	2921228
3.37878	2382094
3.38690	2023246
3.39502	1769987
3.40315	1559737
3.41127	1390939
3.41940	1265323
3.42752	1142239
3.43563	1065490
3.44377	988268
3.45188	936413
3.46002	868963
3.46813	817865
3.47625	775379
3.48438	737616
3.49250	688702
3.50062	651986
3.50875	620220
3.51687	565822
3.52500	529863
3.53312	503615
3.54123	462668
3.54937	437164
3.55748	411212
3.56562	400419
3.57373	384948
3.58185	388770
3.58998	399188
3.59810	404831
3.60623	399073
3.61435	402402
3.62247	404546
3.63060	411203
3.63872	402458
3.64683	387810
3.65497	383536
3.66308	381971
3.67122	360040
3.67933	341238
3.68745	346773
3.69558	343515
3.70370	336364
3.71183	343120
3.71995	325383
3.72807	321200
3.73620	318277
3.74432	310432
3.75245	307363
3.76057	303893
3.76868	302208
3.77682	303505
3.78493	292551
3.79305	292892
3.80118	307271
3.80930	308342
3.81743	305398
3.82555	301230
3.83367	296645
3.84180	292601
3.84992	288589
3.85805	279725
3.86617	278377
3.87428	266488
3.88242	265994
3.89053	255861
3.89865	256970
3.90678	255497
3.91490	249982
3.92303	250646
3.93115	245307
3.93927	234756
3.94740	237239
3.95552	246413
3.96365	238954
3.97177	240602
3.97988	239122
3.98802	239293
3.99613	235084
4.00427	232377
4.01238	226775
4.02050	229048
4.02863	227905
4.03675	228593
4.04487	225039
4.05300	228588
4.06112	218271
4.06925	211573
4.07737	218899
4.08548	208439
4.09362	216182
4.10173	216887
4.10987	219555
4.11798	211162
4.12610	203294
4.13423	207946
4.14235	209976
4.15047	234137
4.15860	275295
4.16672	338692
4.17485	331752
4.18297	278312
4.19108	241870
4.19922	227974
4.20733	211521
4.21547	208883
4.22358	201912
4.23170	211768
4.23983	234886
4.24795	281614
4.25608	321027
4.26420	314682
4.27232	291338
4.28045	263840
4.28857	244741
4.29668	227201
4.30482	225958
4.31293	216919
4.32107	214411
4.32918	218034
4.33730	230310
4.34543	239806
4.35355	233683
4.36168	216574
4.36980	215262
4.37792	214160
4.38605	218716
4.39417	213445
4.40230	205171
4.41042	205349
4.41853	203496
4.42667	200838
4.43478	195158
4.44290	196578
4.45103	185712
4.45915	191627
4.46728	185366
4.47540	179521
4.48352	181629
4.49165	180975
4.49977	186234
4.50790	183184
4.51602	188245
4.52413	182383
4.53227	183141
4.54038	186672
4.54850	177884
4.55663	183527
4.56475	181705
4.57288	179170
4.58100	182435
4.58912	176868
4.59725	183746
4.60537	175483
4.61350	171355
4.62162	174591
4.62973	171443
4.63787	171922
4.64598	173193
4.65412	174617
4.66223	172455
4.67035	164117
4.67848	173992
4.68660	171201
4.69472	170539
4.70285	181034
4.71097	165796
4.71910	173804
4.72722	165316
4.73533	165250
4.74347	167696
4.75158	160397
4.75972	162513
4.76783	161023
4.77595	164233
4.78408	172095
4.79220	167379
4.80033	163605
4.80845	160383
4.81657	166471
4.82470	162533
4.83282	167547
4.84093	164630
4.84907	167107
4.85718	161141
4.86532	160732
4.87343	161094
4.88155	165476
4.88968	162280
4.89780	166517
4.90593	161580
4.91405	160981
4.92217	160605
4.93030	162155
4.93842	165727
4.94653	161645
4.95467	189463
4.96278	331998
4.97092	755095
4.97903	1642171
4.98715	2710787
4.99528	3375268
5.00340	3293763
5.01153	2731791
5.01965	2077662
5.02777	1628926
5.03590	1302820
5.04402	1126649
5.05215	985577
5.06027	912457
5.06838	822722
5.07652	763059
5.08463	703419
5.09275	632207
5.10088	591376
5.10900	523910
5.11713	503429
5.12525	463063
5.13337	444075
5.14150	442545
5.14962	434766
5.15775	441327
5.16587	446059
5.17398	445632
5.18212	442541
5.19023	425745
5.19837	426478
5.20648	418830
5.21460	399676
5.22273	386595
5.23085	366614
5.23897	368652
5.24710	357395
5.25522	378519
5.26335	387613
5.27147	373004
5.27958	376949
5.28772	353411
5.29583	326271
5.30397	322842
5.31208	324336
5.32020	309322
5.32833	301108
5.33645	299964
5.34457	288851
5.35270	294490
5.36082	292234
5.36895	283372
5.37707	280048
5.38518	274011
5.39332	281412
5.40143	266008
5.40957	282264
5.41768	274519
5.42580	256502
5.43393	269302
5.44205	260067
5.45018	259636
5.45830	257530
5.46642	245827
5.47455	252597
5.48267	250432
5.49078	246507
5.49892	244192
5.50703	240770
5.51517	240976
5.52328	245360
5.53140	246981
5.53953	234206
5.54765	226779
5.55578	229633
5.56390	230049
5.57202	226563
5.58015	222692
5.58827	235221
5.59638	218189
5.60452	226611
5.61263	239605
5.62077	228445
5.62888	234987
5.63700	233240
5.64513	253152
5.65325	257100
5.66138	267748
5.66950	252080
5.67762	243106
5.68575	233385
5.69387	229482
5.70200	243828
5.71012	265910
5.71823	287392
5.72637	282460
5.73448	253445
5.74260	245222
5.75073	238001
5.75885	222479
5.76698	212183
5.77510	214858
5.78322	212149
5.79135	203096
5.79947	205977
5.80760	209501
5.81572	197780
5.82383	206271
5.83197	199377
5.84008	200307
5.84822	195680
5.85633	190795
5.86445	194766
5.87258	193655
5.88070	198388
5.88882	199767
5.89695	193724
5.90507	190241
5.91320	186506
5.92132	170375
5.92943	156450
5.93757	146798
5.94568	142299
5.95382	141155
5.96193	144107
5.97005	148338
5.97818	158049
5.98630	163413
5.99442	191309
6.00255	208284
6.01067	216479
6.01880	197974
6.02692	178578
6.03503	167295
6.04317	163211
6.05128	165576
6.05942	158141
6.06753	162042
6.07565	152241
6.08378	154140
6.09190	148952
6.10003	148933
6.10815	148095
6.11627	145313
6.12440	136332
6.13252	144570
6.14063	143097
6.14877	140643
6.15688	142923
6.16502	147420
6.17313	151957
6.18125	152220
6.18938	163019
6.19750	154093
6.20563	158045
6.21375	164284
6.22187	148935
6.23000	149726
6.23812	166068
6.24625	151396
6.25437	154477
6.26248	161888
6.27062	158300
6.27873	163388
6.28685	161888
6.29498	170548
6.30310	164761
6.31123	173278
6.31935	173830
6.32747	173804
6.33560	174549
6.34372	179510
6.35185	179244
6.35997	182034
6.36808	186268
6.37622	188283
6.38433	190096
6.39245	188192
6.40058	193308
6.40870	194495
6.41683	198324
6.42495	200301
6.43307	193849
6.44120	198128
6.44932	192806
6.45745	198092
6.46557	202445
6.47368	205987
6.48182	214308
6.48993	214824
6.49807	219846
6.50618	183529
6.51430	170141
6.52243	167169
6.53055	155795
6.53867	155042
6.54680	155478
6.55492	148414
6.56305	148903
6.57117	150119
6.57928	140145
6.58742	145275
6.59553	138582
6.60367	142733
6.61178	132702
6.61990	135525
6.62803	139267
6.63615	138818
6.64427	136288
6.65240	136389
6.66052	136562
6.66865	131381
6.67677	134026
6.68488	135524
6.69302	135474
6.70113	131772
6.70927	131314
6.71738	130124
6.72550	125467
6.73363	128906
6.74175	126428
6.74988	127332
6.75800	130915
6.76612	132369
6.77425	125836
6.78237	130119
6.79048	129355
6.79862	127953
6.80673	123075
6.81487	125333
6.82298	121809
6.83110	121889
6.83923	122419
6.84735	119004
6.85548	118887
6.86360	123213
6.87172	109973
6.87985	93771
6.88797	87529
6.89610	87218
6.90422	88100
6.91233	97962
6.92047	90235
6.92858	92115
6.93670	83469
6.94483	84434
6.95295	84656
6.96108	84069
6.96920	80249
6.97732	86020
6.98545	82382
6.99357	77790
7.00170	79868
7.00982	78106
7.01793	79628
7.02607	76547
7.03418	76316
7.04230	79338
7.05043	77439
7.05855	76326
7.06668	76001
7.07480	78263
7.08292	82955
7.09105	77910
7.09917	73165
7.10730	75404
7.11542	75720
7.12353	75492
7.13167	72054
7.13978	74714
7.14792	74442
7.15603	82403
7.16415	77691
7.17228	73745
7.18040	81489
7.18852	82995
7.19665	87933
7.20477	82924
7.21290	81569
7.22102	79607
7.22913	75613
7.23727	83598
7.24538	80132
7.25352	86758
7.26163	83224
7.26975	80184
7.27788	83293
7.28600	80196
7.29413	73673
7.30225	76654
7.31037	73338
7.31850	75497
7.32662	73048
7.33473	76828
7.34287	82051
7.35098	75180
7.35912	72259
7.36723	67857
7.37535	73461
7.38348	68613
7.39160	72387
7.39973	72851
7.40785	74548
7.41597	77329
7.42410	76264
7.43222	75303
7.44033	72780
7.44847	79336
7.45658	72872
7.46472	75284
7.47283	82339
7.48095	77893
7.48908	83734
7.49720	81536
7.50533	84057
7.51345	75006
7.52157	79965
7.52970	77755
7.53782	74085
7.54595	76386
7.55407	72811
7.56218	77714
7.57032	70918
7.57843	74967
7.58655	72547
7.59468	74292
7.60280	71844
7.61093	78419
7.61905	71092
7.62717	73483
7.63530	70619
7.64342	75669
7.65155	69284
7.65967	75275
7.66778	71798
7.67592	75955
7.68403	69636
7.69215	69628
7.70028	70736
7.70840	71836
7.71653	71752
7.72465	71163
7.73277	75858
7.74090	70616
7.74902	73462
7.75715	77763
7.76527	70919
7.77338	71640
7.78152	71239
7.78963	68547
7.79777	68698
7.80588	70099
7.81400	74322
7.82213	66216
7.83025	66213
7.83837	69955
7.84650	68362
7.85462	70212
7.86275	65182
7.87087	65127
7.87898	65825
7.88712	61713
7.89523	62419
7.90337	66820
7.91148	63290
7.91960	58269
7.92773	60019
7.93585	62450
7.94398	62220
7.95210	60150
7.96022	63213
7.96835	58039
7.97647	64995
7.98458	62410
7.99272	66573
8.00083	73037
8.00897	72115
8.01708	72808
8.02520	69211
8.03333	68696
8.04145	59918
8.04958	59652
8.05770	59901
8.06582	60657
8.07395	60789
8.08207	61395
8.09020	63989
8.09832	57027
8.10643	60190
8.11457	66180
8.12268	65108
8.13080	67233
8.13893	65557
8.14705	63001
8.15518	67383
8.16330	68204
8.17142	68857
8.17955	69419
8.18767	70177
8.19580	77690
8.20392	75363
8.21203	77746
8.22017	77157
8.22828	76921
8.23640	69403
8.24453	68139
8.25265	68169
8.26078	64898
8.26890	65678
8.27702	66287
8.28515	63845
8.29327	64008
8.30140	68881
8.30952	64727
8.31763	62373
8.32577	60942
8.33388	66312
8.34202	67152
8.35013	64356
8.35825	69261
8.36638	77578
8.37450	88142
8.38262	87667
8.39075	86402
8.39887	76132
8.40700	70841
8.41512	69777
8.42323	70229
8.43137	65897
8.43948	68365
8.44762	67543
8.45573	68200
8.46385	60750
8.47198	63741
8.48010	58970
8.48822	63322
8.49635	62969
8.50447	62090
8.51260	58352
8.52072	65783
8.52883	65546
8.53697	66952
8.54508	74268
8.55322	71179
8.56133	66429
8.56945	68904
8.57758	67108
8.58570	61861
8.59383	61045
8.60195	70100
8.61007	63774
8.61820	62846
8.62632	61555
8.63443	60416
8.64257	59926
8.65068	61309
8.65882	61935
8.66693	64120
8.67505	61098
8.68318	62526
8.69130	57516
8.69943	65139
8.70755	63562
8.71567	59317
8.72380	65404
8.73192	60332
8.74005	59908
8.74817	57096
8.75628	61367
8.76442	59748
8.77253	59839
8.78065	63725
8.78878	65265
8.79690	87883
8.80503	151410
8.81315	285870
8.82127	513373
8.82940	714364
8.83752	864149
8.84565	839368
8.85377	734413
8.86188	596498
8.87002	484257
8.87813	400918
8.88625	343262
8.89438	302207
8.90250	277955
8.91063	272334
8.91875	248471
8.92687	236821
8.93500	222431
8.94312	219998
8.95125	211938
8.95937	208958
8.96748	195455
8.97562	186926
8.98373	182281
8.99187	178883
8.99998	176932
9.00810	170775
9.01623	175304
9.02435	163746
9.03247	159879
9.04060	161057
9.04872	154535
9.05685	159288
9.06497	155037
9.07308	153863
9.08122	155313
9.08933	145124
9.09747	146343
9.10558	143866
9.11370	136680
9.12183	142630
9.12995	138428
9.13808	139641
9.14620	135910
9.15432	130916
9.16245	130955
9.17057	132241
9.17868	134531
9.18682	131513
9.19493	128488
9.20307	130739
9.21118	136084
9.21930	134884
9.22743	135562
9.23555	133887
9.24368	128233
9.25180	123940
9.25992	129418
9.26805	124163
9.27617	127260
9.28428	122964
9.29242	126156
9.30053	118725
9.30867	115056
9.31678	117497
9.32490	117624
9.33303	115708
9.34115	114901
9.34928	107535
9.35740	115429
9.36552	111047
9.37365	108767
9.38177	104397
9.38990	105841
9.39802	99248
9.40613	103337
9.41427	100555
9.42238	100319
9.43050	98422
9.43863	106806
9.44675	98357
9.45488	97426
9.46300	101312
9.47112	98065
9.47925	94954
9.48737	103215
9.49550	99513
9.50362	95063
9.51173	98199
9.51987	96560
9.52798	93524
9.53610	96722
9.54423	97354
9.55235	100939
9.56048	103891
9.56860	98966
9.57672	101078
9.58485	98849
9.59297	92022
9.60110	78141
9.60922	80691
9.61733	75434
9.62547	75154
9.63358	79528
9.64172	74408
9.64983	74187
9.65795	70989
9.66608	71778
9.67420	67615
9.68232	69031
9.69045	66988
9.69857	66074
9.70670	66564
9.71482	62287
9.72293	64471
9.73107	63096
9.73918	62006
9.74732	58874
9.75543	61616
9.76355	62222
9.77168	58877
9.77980	62275
9.78793	64388
9.79605	63215
9.80417	62145
9.81230	61012
9.82042	63214
9.82853	63642
9.83667	59325
9.84478	59781
9.85292	63856
9.86103	63298
9.86915	63227
9.87728	62004
9.88540	64456
9.89353	66736
9.90165	58939
9.90977	62229
9.91790	64693
9.92602	62122
9.93413	62758
9.94227	60276
9.95038	57019
9.95852	59003
9.96663	61188
9.97475	61961
9.98288	61493
9.99100	64348
9.99913	65295
10.00725	70804
10.01537	74955
10.02350	77522
10.03162	85739
10.03975	88533
10.04787	94698
10.05598	112794
10.06412	127931
10.07223	128234
10.08035	122084
10.08848	122147
10.09660	117093
10.10473	101472
10.11285	92032
10.12097	82946
10.12910	80437
10.13722	83755
10.14535	78786
10.15347	80185
10.16158	71364
10.16972	77098
10.17783	73324
10.18597	76674
10.19408	71707
10.20220	71001
10.21033	72534
10.21845	71850
10.22657	69691
10.23470	69377
10.24282	68406
10.25095	67768
10.25907	86129
10.26718	84000
10.27532	81364
10.28343	78329
10.29157	87631
10.29968	83491
10.30780	86312
10.31593	93479
10.32405	106048
10.33217	117123
10.34030	129577
10.34842	134543
10.35655	134880
10.36467	123007
10.37278	116605
10.38092	101199
10.38903	92222
10.39717	89166
10.40528	86415
10.41340	86469
10.42153	80135
10.42965	85218
10.43778	83032
10.44590	88068
10.45402	82459
10.46215	83496
10.47027	74882
10.47838	77253
10.48652	80286
10.49463	77467
10.50277	79161
10.51088	82384
10.51900	76320
10.52713	77823
10.53525	77327
10.54338	73792
10.55150	75616
10.55962	75697
10.56775	79715
10.57587	82611
10.58400	83762
10.59212	87490
10.60023	82718
10.60837	86782
10.61648	81287
10.62460	80789
10.63273	83341
10.64085	77890
10.64898	79625
10.65710	84323
10.66522	79182
10.67335	82081
10.68147	75165
10.68960	81867
10.69772	80685
10.70583	84289
10.71397	82341
10.72208	85761
10.73020	77084
10.73833	79769
10.74645	83694
10.75458	86335
10.76270	80872
10.77082	84355
10.77895	80587
10.78707	84523
10.79520	89480
10.80332	86344
10.81143	82562
10.81957	84589
10.82768	80642
10.83582	75872
10.84393	77877
10.85205	78511
10.86018	80459
10.86830	76029
10.87642	74760
10.88455	76445
10.89267	78173
10.90080	70993
10.90892	73174
10.91703	72982
10.92517	70771
10.93328	70268
10.94142	72983
10.94953	76747
10.95765	72689
10.96578	77423
10.97390	80224
10.98202	79532
10.99015	79980
10.99827	81382
11.00640	81546
11.01452	73624
11.02263	74613
11.03077	73531
11.03888	69284
11.04702	66871
11.05513	64776
11.06325	70123
11.07138	66404
11.07950	70532
11.08763	67644
11.09575	67980
11.10387	63221
11.11200	65831
11.12012	72169
11.12823	66941
11.13637	65123
11.14448	67187
11.15262	63698
11.16073	68253
11.16885	58980
11.17698	60047
11.18510	62560
11.19323	68245
11.20135	77746
11.20947	74684
11.21760	84853
11.22572	88611
11.23385	96298
11.24197	94994
11.25008	94713
11.25822	87863
11.26633	76113
11.27445	70524
11.28258	67515
11.29070	67658
11.29883	62382
11.30695	63405
11.31507	58906
11.32320	60522
11.33132	63587
11.33945	65224
11.34757	61517
11.35568	69724
11.36382	63715
11.37193	62465
11.38005	62397
11.38818	59099
11.39630	64607
11.40443	63452
11.41255	63570
11.42067	61968
11.42880	66163
11.43692	60291
11.44505	63713
11.45317	58312
11.46128	60255
11.46942	61073
11.47753	60440
11.48567	54513
11.49378	56849
11.50190	61314
11.51003	60287
11.51815	60710
11.52627	59724
11.53440	57458
11.54252	56681
11.55065	55442
11.55877	55334
11.56688	59593
11.57502	59414
11.58313	59113
11.59127	61719
11.59938	52861
11.60750	57262
11.61563	52353
11.62375	57617
11.63188	59313
11.64000	58723
11.64812	60180
11.65625	54998
11.66437	56398
11.67248	55068
11.68062	53136
11.68873	60910
11.69687	58282
11.70498	54026
11.71310	57633
11.72123	60166
11.72935	65722
11.73748	64509
11.74560	67029
11.75372	68155
11.76185	67130
11.76997	67754
11.77808	62546
11.78622	61185
11.79433	66100
11.80247	64590
11.81058	65904
11.81870	67491
11.82683	63644
11.83495	66690
11.84308	58586
11.85120	58339
11.85932	60374
11.86745	57918
11.87557	64402
11.88370	61030
11.89182	66230
11.89993	66711
11.90807	64703
11.91618	62776
11.92430	57651
11.93243	60587
11.94055	59817
11.94868	54992
11.95680	54355
11.96492	52883
11.97305	56550
11.98117	57491
11.98930	56106
11.99742	57079
12.00553	57654
12.01367	55285
12.02178	53833
12.02990	53604
12.03803	53711
12.04615	52694
12.05428	50089
12.06240	55391
12.07052	49057
12.07865	49902
12.08677	51329
12.09490	54695
12.10302	51930
12.11113	53133
12.11927	57393
12.12738	57771
12.13552	50096
12.14363	50815
12.15175	51800
12.15988	58579
12.16800	64397
12.17612	74607
12.18425	76447
12.19237	85183
12.20050	95622
12.20862	101081
12.21673	106416
12.22487	105423
12.23298	109374
12.24112	103058
12.24923	108670
12.25735	105655
12.26548	105973
12.27360	108553
12.28173	100709
12.28985	108213
12.29797	107868
12.30610	97488
12.31422	102210
12.32233	101403
12.33047	94704
12.33858	91600
12.34672	92851
12.35483	95585
12.36295	88180
12.37108	95678
12.37920	97048
12.38733	88770
12.39545	89973
12.40357	89141
12.41170	83759
12.41982	89105
12.42793	90644
12.43607	93664
12.44418	93744
12.45232	93043
12.46043	91232
12.46855	89094
12.47668	95773
12.48480	99004
12.49293	109491
12.50105	98143
12.50917	92288
12.51730	90529
12.52542	86585
12.53355	84387
12.54167	81401
12.54978	84722
12.55792	86921
12.56603	83356
12.57415	83167
12.58228	80715
12.59040	80132
12.59853	80860
12.60665	79603
12.61477	77416
12.62290	76808
12.63102	75155
12.63915	72345
12.64727	80513
12.65538	77738
12.66352	72432
12.67163	76894
12.67977	70426
12.68788	76570
12.69600	78332
12.70413	69667
12.71225	71155
12.72037	70301
12.72850	70286
12.73662	72369
12.74475	77657
12.75287	77531
12.76098	84070
12.76912	85166
12.77723	74950
12.78537	79070
12.79348	77581
12.80160	75757
12.80973	76428
12.81785	72839
12.82597	69136
12.83410	65807
12.84222	61664
12.85035	60138
12.85847	59641
12.86658	51405
12.87472	52950
12.88283	52123
12.89097	53113
12.89908	52174
12.90720	56227
12.91533	51021
12.92345	49288
12.93158	51056
12.93970	49879
12.94782	53622
12.95595	48410
12.96407	54115
12.97218	51148
12.98032	49770
12.98843	52051
12.99657	49721
13.00468	50528
13.01280	50165
13.02093	50783
13.02905	50492
13.03718	50103
13.04530	50064
13.05342	47574
13.06155	50581
13.06967	50218
13.07778	51689
13.08592	50349
13.09403	48847
13.10217	50091
13.11028	45658
13.11840	52692
13.12653	49286
13.13465	50622
13.14278	53776
13.15090	49905
13.15902	49386
13.16715	46570
13.17527	55916
13.18340	52226
13.19152	51346
13.19963	49139
13.20777	52567
13.21588	58845
13.22400	63247
13.23213	61535
13.24025	69009
13.24838	70475
13.25650	64373
13.26462	61312
13.27275	59560
13.28087	54967
13.28900	51596
13.29712	50386
13.30523	55434
13.31337	49942
13.32148	55661
13.32962	52258
13.33773	50623
13.34585	48741
13.35398	56731
13.36210	53782
13.37022	48589
13.37835	49676
13.38647	55729
13.39460	49042
13.40272	53227
13.41083	54223
13.41897	51976
13.42708	49835
13.43522	48100
13.44333	50000
13.45145	50694
13.45958	49850
13.46770	54297
13.47583	46135
13.48395	45576
13.49207	47353
13.50020	47252
13.50832	49602
13.51643	46686
13.52457	49995
13.53268	44545
13.54082	49589
13.54893	48668
13.55705	44037
13.56518	47808
13.57330	47674
13.58143	47725
13.58955	46892
13.59767	44463
13.60580	47298
13.61392	46243
13.62203	45247
13.63017	45814
13.63828	47021
13.64642	46913
13.65453	47981
13.66265	43187
13.67078	49124
13.67890	44677
13.68703	49289
13.69515	46995
13.70327	52972
13.71140	44380
13.71952	46138
13.72765	45044
13.73577	48349
13.74388	45320
13.75202	46431
13.76013	44675
13.76825	44001
13.77638	43880
13.78450	45265
13.79263	44914
13.80075	48094
13.80887	48762
13.81700	47171
13.82512	47995
13.83325	49786
13.84137	49087
13.84948	47506
13.85762	49732
13.86573	52626
13.87385	48947
13.88198	52924
13.89010	51028
13.89823	48592
13.90635	46872
13.91447	50329
13.92260	52129
13.93072	50580
13.93885	47619
13.94697	53065
13.95508	56979
13.96322	57369
13.97133	62114
13.97947	53451
13.98758	60889
13.99570	51969
14.00383	54084
14.01195	46222
14.02007	52968
14.02820	46004
14.03632	53424
14.04445	47393
14.05257	53192
14.06068	49913
14.06882	54004
14.07693	53918
14.08507	55137
14.09318	54728
14.10130	62050
14.10943	64764
14.11755	64319
14.12568	67600
14.13380	55809
14.14192	54908
14.15005	52590
14.15817	52385
14.16628	53847
14.17442	52350
14.18253	52656
14.19067	59308
14.19878	63270
14.20690	69521
14.21503	93611
14.22315	132400
14.23128	200247
14.23940	270571
14.24752	309169
14.25565	312813
14.26377	276951
14.27188	240144
14.28002	215446
14.28813	197731
14.29627	171008
14.30438	169298
14.31250	152248
14.32063	134818
14.32875	127949
14.33688	126939
14.34500	122769
14.35312	113745
14.36125	105090
14.36937	105246
14.37750	92990
14.38562	88280
14.39373	84687
14.40187	74976
14.40998	62264
14.41810	64871
14.42623	58703
14.43435	58563
14.44248	62868
14.45060	63506
14.45872	61514
14.46685	62389
14.47497	62803
14.48310	60967
14.49122	62782
14.49933	58388
14.50747	60962
14.51558	56589
14.52372	57734
14.53183	61567
14.53995	59907
14.54808	62253
14.55620	55921
14.56432	63061
14.57245	58199
14.58057	57096
14.58870	56676
14.59682	63231
14.60493	59045
14.61307	57962
14.62118	56117
14.62932	56195
14.63743	54522
14.64555	54870
14.65368	51085
14.66180	52785
14.66992	48494
14.67805	52614
14.68617	58383
14.69430	52761
14.70242	52671
14.71053	51867
14.71867	50667
14.72678	51700
14.73492	53477
14.74303	54640
14.75115	53217
14.75928	57582
14.76740	57371
14.77553	55163
14.78365	53650
14.79177	51200
14.79990	52951
14.80802	52381
14.81613	54997
14.82427	56781
14.83238	70365
14.84052	90384
14.84863	132460
14.85675	177690
14.86488	205873
14.87300	234059
14.88113	236698
14.88925	231064
14.89737	216173
14.90550	206019
14.91362	203124
14.92173	190808
14.92987	181767
14.93798	174536
14.94612	169310
14.95423	155876
14.96235	166935
14.97048	155967
14.97860	145053
14.98673	144216
14.99485	137507
15.00297	136186
15.01110	139019
15.01922	127798
15.02735	133047
15.03547	121188
15.04358	126136
15.05172	118782
15.05983	118021
15.06795	108355
15.07608	110883
15.08420	106983
15.09233	107221
15.10045	105496
15.10857	100039
15.11670	106919
15.12482	108804
15.13295	104814
15.14107	101632
15.14918	100298
15.15732	95130
15.16543	95038
15.17357	85710
15.18168	79300
15.18980	70829
15.19793	70930
15.20605	72120
15.21417	68948
15.22230	65248
15.23042	63811
15.23855	65091
15.24667	64425
15.25478	60221
15.26292	64984
15.27103	64172
15.27917	64167
15.28728	61757
15.29540	59712
15.30353	59038
15.31165	57807
15.31977	62048
15.32790	62428
15.33602	58301
15.34415	59019
15.35227	58305
15.36038	56508
15.36852	58032
15.37663	54017
15.38477	57817
15.39288	53715
15.40100	57980
15.40913	54084
15.41725	58647
15.42538	53325
15.43350	55452
15.44162	54541
15.44975	55156
15.45787	56141
15.46598	55369
15.47412	57683
15.48223	58640
15.49037	55281
15.49848	54390
15.50660	60399
15.51473	55745
15.52285	58746
15.53098	58218
15.53910	60401
15.54722	62075
15.55535	59205
15.56347	60039
15.57160	56081
15.57972	56108
15.58783	55150
15.59597	52538
15.60408	54586
15.61220	50183
15.62033	55162
15.62845	49756
15.63658	53287
15.64470	54682
15.65282	51104
15.66095	50930
15.66907	53869
15.67720	53196
15.68532	57058
15.69343	54409
15.70157	52364
15.70968	55146
15.71780	49048
15.72593	49746
15.73405	52774
15.74218	49777
15.75030	49508
15.75842	53931
15.76655	49591
15.77467	50715
15.78280	52069
15.79092	52046
15.79903	54863
15.80717	56507
15.81528	64871
15.82342	63504
15.83153	69915
15.83965	64474
15.84778	67117
15.85590	60335
15.86402	59114
15.87215	64748
15.88027	61161
15.88840	57758
15.89652	60908
15.90463	57929
15.91277	57734
15.92088	58540
15.92902	55659
15.93713	55766
15.94525	56791
15.95338	57193
15.96150	57902
15.96963	60323
15.97775	58407
15.98587	55814
15.99400	54540
16.00212	58509
16.01023	53919
16.01837	61857
16.02648	65302
16.03462	69577
16.04273	76609
16.05085	98418
16.05898	103424
16.06710	97766
16.07523	92624
16.08335	81886
16.09147	74520
16.09960	64829
16.10772	66633
16.11583	67049
16.12397	60312
16.13208	60847
16.14022	56466
16.14833	58838
16.15645	55110
16.16458	54702
16.17270	56820
16.18083	53878
16.18895	53598
16.19707	55016
16.20520	55331
16.21332	54017
16.22145	56675
16.22957	54260
16.23768	57819
16.24582	54999
16.25393	57651
16.26205	58449
16.27018	57235
16.27830	65094
16.28643	61616
16.29455	53316
16.30267	51608
16.31080	56050
16.31892	55320
16.32705	56187
16.33517	56862
16.34328	53882
16.35142	56895
16.35953	57321
16.36765	55364
16.37578	61750
16.38390	59851
16.39203	55666
16.40015	52939
16.40827	56458
16.41640	56913
16.42452	52637
16.43265	53404
16.44077	50650
16.44888	56931
16.45702	54132
16.46513	55111
16.47327	49307
16.48138	57544
16.48950	64275
16.49763	69460
16.50575	76278
16.51387	83247
16.52200	89940
16.53012	87823
16.53825	86835
16.54637	80663
16.55448	78635
16.56262	79561
16.57073	71693
16.57887	73727
16.58698	68545
16.59510	74231
16.60323	68972
16.61135	67489
16.61948	72889
16.62760	67412
16.63572	68322
16.64385	68871
16.65197	64518
16.66008	60298
16.66822	62713
16.67633	61729
16.68447	55952
16.69258	54945
16.70070	61656
16.70883	57433
16.71695	59158
16.72508	51831
16.73320	60455
16.74132	53761
16.74945	54941
16.75757	50654
16.76568	53375
16.77382	51553
16.78193	53045
16.79007	53681
16.79818	55106
16.80630	52306
16.81443	54897
16.82255	52333
16.83068	51339
16.83880	53966
16.84692	52466
16.85505	52170
16.86317	49245
16.87130	48975
16.87942	49759
16.88753	48328
16.89567	50333
16.90378	51410
16.91190	49437
16.92003	50885
16.92815	47910
16.93628	49240
16.94440	47359
16.95252	50000
16.96065	48734
16.96877	52026
16.97690	46691
16.98502	56036
16.99313	54704
17.00127	51526
17.00938	50265
17.01752	48389
17.02563	49995
17.03375	46307
17.04188	53867
17.05000	47645
17.05812	55905
17.06625	51198
17.07437	51001
17.08250	53834
17.09062	52119
17.09873	50437
17.10687	58120
17.11498	51014
17.12312	53086
17.13123	50147
17.13935	56320
17.14748	50635
17.15560	50381
17.16372	49301
17.17185	47002
17.17997	51938
17.18810	52718
17.19622	51053
17.20433	48487
17.21247	52005
17.22058	51832
17.22872	52250
17.23683	49418
17.24495	55059
17.25308	50577
17.26120	55003
17.26933	52160
17.27745	53701
17.28557	53162
17.29370	52940
17.30182	54122
17.30993	51763
17.31807	50581
17.32618	48835
17.33432	52689
17.34243	47545
17.35055	51481
17.35868	60465
17.36680	67584
17.37493	67643
17.38305	76274
17.39117	86360
17.39930	97996
17.40742	91112
17.41553	90815
17.42367	92038
17.43178	81871
17.43992	80618
17.44803	78420
17.45615	79416
17.46428	74359
17.47240	77718
17.48053	77838
17.48865	73085
17.49677	70170
17.50490	71042
17.51302	67581
17.52115	68612
17.52927	75444
17.53738	71300
17.54552	74612
17.55363	68836
17.56175	69555
17.56988	65529
17.57800	72562
17.58613	65576
17.59425	63829
17.60237	65702
17.61050	63504
17.61862	62275
17.62675	61241
17.63487	58493
17.64298	61506
17.65112	60918
17.65923	58845
17.66737	62395
17.67548	58820
17.68360	56912
17.69173	66040
17.69985	66586
17.70797	67847
17.71610	72119
17.72422	66580
17.73235	65060
17.74047	70504
17.74858	63345
17.75672	66909
17.76483	68920
17.77297	67643
17.78108	62458
17.78920	64440
17.79733	59740
17.80545	57635
17.81357	62889
17.82170	61672
17.82982	61301
17.83795	57967
17.84607	56137
17.85418	59987
17.86232	58455
17.87043	62810
17.87857	60542
17.88668	59894
17.89480	62491
17.90293	59661
17.91105	58602
17.91918	61714
17.92730	57739
17.93542	60686
17.94355	54803
17.95167	61271
17.95978	59191
17.96792	58391
17.97603	57985
17.98417	55337
17.99228	51223
18.00040	54887
18.00853	56278
18.01665	53614
18.02478	54117
18.03290	52489
18.04102	55033
18.04915	55379
18.05727	58050
18.06540	62715
18.07352	58846
18.08163	66894
18.08977	78676
18.09788	100741
18.10600	144310
18.11413	192111
18.12225	249063
18.13038	290356
18.13850	311237
18.14662	303953
18.15475	284672
18.16287	288877
18.17100	272688
18.17912	262521
18.18723	239809
18.19537	229818
18.20348	223909
18.21160	211955
18.21973	198918
18.22785	185975
18.23598	190964
18.24410	184691
18.25222	172932
18.26035	161369
18.26847	167446
18.27660	151267
18.28472	150223
18.29283	137231
18.30097	127649
18.30908	105623
18.31722	89049
18.32533	81874
18.33345	76896
18.34158	69177
18.34970	68211
18.35782	68053
18.36595	69939
18.37407	66787
18.38220	69105
18.39032	66198
18.39843	66974
18.40657	67548
18.41468	60563
18.42282	60248
18.43093	63293
18.43905	66769
18.44718	60554
18.45530	67012
18.46342	66519
18.47155	65517
18.47967	65289
18.48780	63119
18.49592	70244
18.50403	67209
18.51217	63496
18.52028	63413
18.52842	63008
18.53653	60402
18.54465	65505
18.55278	62022
18.56090	56645
18.56903	55770
18.57715	58642
18.58527	65257
18.59340	58098
18.60152	55950
18.60963	55518
18.61777	57023
18.62588	58461
18.63402	57390
18.64213	56198
18.65025	54630
18.65838	56693
18.66650	63319
18.67463	54626
18.68275	55136
18.69087	51319
18.69900	59012
18.70712	55054
18.71525	60063
18.72337	60517
18.73148	54076
18.73962	55059
18.74773	54172
18.75585	55549
18.76398	56536
18.77210	60670
18.78023	55615
18.78835	52785
18.79647	56238
18.80460	53153
18.81272	55320
18.82085	52912
18.82897	53164
18.83708	57012
18.84522	60519
18.85333	59248
18.86147	55615
18.86958	52804
18.87770	56442
18.88583	55100
18.89395	61420
18.90207	62598
18.91020	58063
18.91832	58696
18.92645	62889
18.93457	62570
18.94268	64174
18.95082	66204
18.95893	60310
18.96707	60309
18.97518	57018
18.98330	60807
18.99143	61578
18.99955	66615
19.00767	61088
19.01580	70113
19.02392	63881
19.03205	64162
19.04017	61712
19.04828	56195
19.05642	54493
19.06453	55871
19.07267	56735
19.08078	56739
19.08890	56963
19.09703	57867
19.10515	59926
19.11328	66769
19.12140	64021
19.12952	73871
19.13765	69979
19.14577	69808
19.15388	68100
19.16202	65400
19.17013	63915
19.17827	60013
19.18638	67263
19.19450	61767
19.20263	59230
19.21075	62678
19.21888	62076
19.22700	62227
19.23512	61487
19.24325	58717
19.25137	54300
19.25948	60277
19.26762	57990
19.27573	59708
19.28387	60202
19.29198	65457
19.30010	71053
19.30823	82442
19.31635	90096
19.32448	88899
19.33260	89321
19.34072	89166
19.34885	82654
19.35697	74124
19.36510	66325
19.37322	69354
19.38133	70184
19.38947	69617
19.39758	70045
19.40570	72473
19.41383	73457
19.42195	76507
19.43008	74250
19.43820	73465
19.44632	78701
19.45445	70838
19.46257	70674
19.47070	74488
19.47882	69516
19.48693	71806
19.49507	77616
19.50318	84587
19.51132	90919
19.51943	114623
19.52755	134675
19.53568	171549
19.54380	187647
19.55192	202493
19.56005	171230
19.56817	138956
19.57630	120314
19.58442	91206
19.59253	84188
19.60067	73869
19.60878	72830
19.61692	66957
19.62503	64435
19.63315	67399
19.64128	71974
19.64940	81633
19.65752	112641
19.66565	188024
19.67377	330214
19.68190	531803
19.69002	747223
19.69813	955552
19.70627	1011550
19.71438	901026
19.72252	705724
19.73063	502638
19.73875	348997
19.74688	262847
19.75500	221611
19.76313	183703
19.77125	161946
19.77937	138322
19.78750	123559
19.79562	110893
19.80373	109248
19.81187	103017
19.81998	94893
19.82812	96191
19.83623	97663
19.84435	93184
19.85248	89167
19.86060	90287
19.86873	84724
19.87685	80058
19.88497	85717
19.89310	84694
19.90122	88172
19.90935	106713
19.91747	110347
19.92558	133267
19.93372	134094
19.94183	139176
19.94995	144923
19.95808	137143
19.96620	133477
19.97433	126204
19.98245	122756
19.99057	124633
19.99870	123313
20.00682	109271
20.01495	111042
20.02307	105697
20.03118	106899
20.03932	101391
20.04743	102409
20.05555	95708
20.06368	95583
20.07180	90896
20.07993	85078
20.08805	84236
20.09617	79903
20.10430	82236
20.11242	78396
20.12055	79302
20.12867	79272
20.13678	78794
20.14492	80185
20.15303	81999
20.16117	75593
20.16928	73809
20.17740	75357
20.18553	75801
20.19365	78536
20.20177	78671
20.20990	86431
20.21802	80691
20.22615	85686
20.23427	86132
20.24238	86953
20.25052	86366
20.25863	90576
20.26677	106792
20.27488	141797
20.28300	222317
20.29113	339450
20.29925	468341
20.30737	619066
20.31550	709273
20.32362	695781
20.33175	558207
20.33987	431159
20.34798	327237
20.35612	244460
20.36423	178437
20.37237	149834
20.38048	125810
20.38860	115238
20.39673	106314
20.40485	105641
20.41298	100278
20.42110	96672
20.42922	97440
20.43735	104881
20.44547	119535
20.45358	155665
20.46172	196553
20.46983	223660
20.47797	228593
20.48608	231537
20.49420	204057
20.50233	172416
20.51045	149301
20.51858	128054
20.52670	109100
20.53482	101140
20.54295	91616
20.55107	89630
20.55920	85880
20.56732	78333
20.57543	77209
20.58357	77233
20.59168	73390
20.59980	78067
20.60793	77561
20.61605	73279
20.62418	71001
20.63230	73043
20.64042	66900
20.64855	70985
20.65667	74777
20.66480	70865
20.67292	70773
20.68103	76000
20.68917	72764
20.69728	72461
20.70540	67768
20.71353	66487
20.72165	67524
20.72978	67266
20.73790	69081
20.74602	73115
20.75415	67940
20.76227	63930
20.77040	66862
20.77852	65595
20.78663	65413
20.79477	65664
20.80288	67257
20.81102	70700
20.81913	62960
20.82725	66869
20.83538	67624
20.84350	73558
20.85162	75132
20.85975	75249
20.86787	76623
20.87600	71231
20.88412	71266
20.89223	70733
20.90037	67968
20.90848	67075
20.91662	68735
20.92473	63305
20.93285	65064
20.94098	60928
20.94910	67531
20.95723	60376
20.96535	62322
20.97347	66612
20.98160	73941
20.98972	63583
20.99783	63281
21.00597	61554
21.01408	61903
21.02222	60118
21.03033	63369
21.03845	60408
21.04658	58903
21.05470	60139
21.06283	65119
21.07095	61199
21.07907	62930
21.08720	62425
21.09532	61396
21.10343	60927
21.11157	67501
21.11968	58964
21.12782	62575
21.13593	58019
21.14405	57070
21.15218	62901
21.16030	66868
21.16843	71850
21.17655	73466
21.18467	80766
21.19280	84533
21.20092	90048
21.20905	95394
21.21717	90178
21.22528	87496
21.23342	84631
21.24153	83909
21.24965	79250
21.25778	83940
21.26590	73650
21.27403	76203
21.28215	76677
21.29027	79191
21.29840	77556
21.30652	70015
21.31465	66416
21.32277	67636
21.33088	68397
21.33902	74219
21.34713	68070
21.35527	72498
21.36338	61777
21.37150	67767
21.37963	65234
21.38775	63253
21.39587	64737
21.40400	61647
21.41212	65365
21.42025	64138
21.42837	68726
21.43648	69822
21.44462	76027
21.45273	78832
21.46087	85536
21.46898	89013
21.47710	88338
21.48523	86550
21.49335	84156
21.50147	81277
21.50960	78399
21.51772	84730
21.52585	81740
21.53397	74968
21.54208	82231
21.55022	77340
21.55833	80220
21.56647	76211
21.57458	81181
21.58270	79391
21.59083	82277
21.59895	80675
21.60708	82050
21.61520	77008
21.62332	82715
21.63145	93080
21.63957	110699
21.64768	138133
21.65582	175042
21.66393	222139
21.67207	248629
21.68018	250168
21.68830	245103
21.69643	210254
21.70455	172278
21.71268	147807
21.72080	116069
21.72892	106959
21.73705	96817
21.74517	97976
21.75328	86582
21.76142	92987
21.76953	89891
21.77767	90189
21.78578	85941
21.79390	91123
21.80203	86853
21.81015	84882
21.81828	89351
21.82640	91624
21.83452	101972
21.84265	125240
21.85077	156616
21.85890	197537
21.86702	248929
21.87513	261592
21.88327	240689
21.89138	216359
21.89950	171086
21.90763	139817
21.91575	112365
21.92388	95539
21.93200	93445
21.94012	91519
21.94825	85126
21.95637	83565
21.96450	81376
21.97262	76751
21.98073	81581
21.98887	82506
21.99698	80222
22.00512	77984
22.01323	74597
22.02135	71792
22.02948	73706
22.03760	75817
22.04572	76906
22.05385	80099
22.06197	73127
22.07010	77312
22.07822	81968
22.08633	72704
22.09447	82514
22.10258	80342
22.11072	75566
22.11883	75850
22.12695	72502
22.13508	72458
22.14320	75919
22.15132	75492
22.15945	72640
22.16757	77862
22.17570	76428
22.18382	72957
22.19193	81270
22.20007	81939
22.20818	81049
22.21632	77685
22.22443	74834
22.23255	82044
22.24068	92380
22.24880	95257
22.25693	109651
22.26505	118549
22.27317	107997
22.28130	102095
22.28942	86305
22.29753	83865
22.30567	76506
22.31378	78090
22.32192	78544
22.33003	76083
22.33815	78404
22.34628	74000
22.35440	79615
22.36253	81677
22.37065	78198
22.37877	70562
22.38690	68340
22.39502	69463
22.40315	63084
22.41127	71574
22.41938	64955
22.42752	73701
22.43563	74045
22.44375	76743
22.45188	71646
22.46000	74891
22.46813	75278
22.47625	73893
22.48437	72260
22.49250	75457
22.50062	71926
22.50875	71257
22.51687	67720
22.52498	74797
22.53312	70960
22.54123	70892
22.54935	74980
22.55748	75868
22.56560	75796
22.57373	74886
22.58185	73658
22.58997	74908
22.59810	74045
22.60622	79445
22.61435	72297
22.62247	68807
22.63058	68322
22.63872	64875
22.64683	64326
22.65497	61737
22.66308	62730
22.67120	62786
22.67933	64207
22.68745	65182
22.69557	63821
22.70370	66731
22.71182	70605
22.71995	68327
22.72807	68730
22.73618	73066
22.74432	76125
22.75243	70531
22.76057	75584
22.76868	78869
22.77680	69788
22.78493	70808
22.79305	73075
22.80117	63823
22.80930	62651
22.81742	63344
22.82555	65090
22.83367	72847
22.84178	66412
22.84992	79852
22.85803	69967
22.86617	70454
22.87428	77225
22.88240	78133
22.89053	76124
22.89865	78704
22.90678	78145
22.91490	84227
22.92302	83480
22.93115	90215
22.93927	106451
22.94738	114667
22.95552	128406
22.96363	136751
22.97177	136573
22.97988	137318
22.98800	126371
22.99613	118449
23.00425	101892
23.01238	103645
23.02050	93949
23.02862	85805
23.03675	88315
23.04487	78400
23.05300	79539
23.06112	69571
23.06923	62827
23.07737	67139
23.08548	64853
23.09360	64234
23.10173	62187
23.10985	66548
23.11798	60702
23.12610	61982
23.13422	66173
23.14235	63085
23.15047	63074
23.15860	58479
23.16672	53818
23.17483	52450
23.18297	54240
23.19108	58379
23.19922	59826
23.20733	56474
23.21545	59098
23.22358	61462
23.23170	59035
23.23982	57058
23.24795	55418
23.25607	54375
23.26420	52977
23.27232	54405
23.28043	53906
23.28857	54306
23.29668	53547
23.30482	56810
23.31293	57365
23.32105	55047
23.32918	54737
23.33730	54009
23.34542	51701
23.35355	52182
23.36167	52005
23.36980	55936
23.37792	55491
23.38603	54714
23.39417	57160
23.40228	57765
23.41042	55592
23.41853	59698
23.42665	63154
23.43478	52239
23.44290	54417
23.45103	59013
23.45915	54131
23.46727	54294
23.47540	52269
23.48352	57090
23.49163	52488
23.49977	49558
23.50788	54067
23.51602	50130
23.52413	49868
23.53225	56521
23.54038	55086
23.54850	53579
23.55663	53639
23.56475	51234
23.57287	56648
23.58100	60415
23.58912	56934
23.59723	62549
23.60537	59115
23.61348	58194
23.62162	57966
23.62973	61013
23.63785	58602
23.64598	55094
23.65410	60915
23.66223	59912
23.67035	61753
23.67847	60522
23.68660	64895
23.69472	67504
23.70285	69581
23.71097	68555
23.71908	65194
23.72722	66594
23.73533	65663
23.74345	66969
23.75158	67263
23.75970	99013
23.76783	197421
23.77595	481008
23.78407	1207587
23.79220	2570519
23.80032	4185836
23.80845	5581162
23.81657	6123266
23.82468	5645160
23.83282	4336605
23.84093	3100579
23.84907	2140161
23.85718	1507117
23.86530	1094332
23.87343	821718
23.88155	651378
23.88967	556255
23.89780	479052
23.90592	426281
23.91405	386188
23.92217	352352
23.93028	320511
23.93842	300048
23.94653	280270
23.95467	264102
23.96278	243679
23.97090	238007
23.97903	235845
23.98715	221242
23.99527	208377
24.00340	206857
24.01152	192444
24.01965	191560
24.02777	189791
24.03588	174106
24.04402	168321
24.05213	173236
24.06027	163600
24.06838	167148
24.07650	156439
24.08463	154573
24.09275	148424
24.10088	145711
24.10900	142514
24.11712	140596
24.12525	143423
24.13337	139210
24.14148	136206
24.14962	151131
24.15773	155029
24.16587	165972
24.17398	175165
24.18210	172345
24.19023	165380
24.19835	162048
24.20648	154910
24.21460	145478
24.22272	151034
24.23085	159824
24.23897	159218
24.24710	171915
24.25522	178739
24.26333	179872
24.27147	168723
24.27958	155111
24.28770	138781
24.29583	119080
24.30395	126068
24.31208	119112
24.32020	107834
24.32832	111183
24.33645	110568
24.34457	105217
24.35270	104270
24.36082	104169
24.36893	111232
24.37707	111666
24.38518	105553
24.39330	102716
24.40143	108491
24.40955	118821
24.41768	133939
24.42580	146691
24.43392	154433
24.44205	163373
24.45017	148236
24.45830	132647
24.46642	112217
24.47453	105677
24.48267	100197
24.49078	100233
24.49892	101189
24.50703	98098
24.51515	102918
24.52328	112499
24.53140	120611
24.53952	137438
24.54765	156499
24.55577	160245
24.56390	152584
24.57202	149229
24.58013	129203
24.58827	124499
24.59638	113273
24.60452	111698
24.61263	122672
24.62075	116853
24.62888	102484
24.63700	96941
24.64512	97395
24.65325	97544
24.66137	99731
24.66950	102408
24.67762	106281
24.68573	111852
24.69387	99484
24.70198	107007
24.71012	108053
24.71823	94802
24.72635	99857
24.73448	95397
24.74260	89285
24.75073	84505
24.75885	84369
24.76697	86513
24.77510	81628
24.78322	78687
24.79133	81685
24.79947	81639
24.80758	83860
24.81572	77102
24.82383	78868
24.83195	77894
24.84008	77430
24.84820	76297
24.85633	86249
24.86445	76449
24.87257	79684
24.88070	82680
24.88882	86499
24.89695	85344
24.90507	90410
24.91318	92169
24.92132	86119
24.92943	86029
24.93755	86321
24.94568	84473
24.95380	86811
24.96193	81849
24.97005	72984
24.97817	72883
24.98630	72031
24.99442	75091
25.00255	71587
25.01067	68089
25.01878	72717
25.02692	70229
25.03503	78947
25.04315	68516
25.05128	76458
25.05940	75491
25.06753	77022
25.07565	79846
25.08377	76618
25.09190	71305
25.10002	74346
25.10815	76361
25.11627	76443
25.12438	79186
25.13252	83732
25.14063	103597
25.14877	140646
25.15688	198419
25.16500	254386
25.17313	319977
25.18125	333947
25.18937	344539
25.19750	285529
25.20562	231231
25.21375	182578
25.22187	141492
25.22998	114135
25.23812	105167
25.24623	89325
25.25437	86999
25.26248	83405
25.27060	84998
25.27873	81873
25.28685	78687
25.29498	82041
25.30310	85040
25.31122	90157
25.31935	86785
25.32747	92071
25.33558	101821
25.34372	104280
25.35183	98814
25.35997	92020
25.36808	86827
25.37620	83790
25.38433	72652
25.39245	71001
25.40058	71667
25.40870	74038
25.41682	72090
25.42495	63959
25.43307	65454
25.44118	64215
25.44932	66400
25.45743	67372
25.46557	69534
25.47368	65385
25.48180	64147
25.48993	69070
25.49805	77838
25.50618	84878
25.51430	86366
25.52242	86090
25.53055	83739
25.53867	76948
25.54680	82017
25.55492	77504
25.56303	70743
25.57117	70725
25.57928	69092
25.58740	69554
25.59553	67807
25.60365	63500
25.61178	66885
25.61990	67249
25.62802	66306
25.63615	63933
25.64427	64207
25.65240	66866
25.66052	68046
25.66863	56645
25.67677	59324
25.68488	62889
25.69300	67997
25.70113	69066
25.70925	65776
25.71738	70083
25.72550	70974
25.73362	70204
25.74175	73214
25.74987	66221
25.75800	69966
25.76612	66127
25.77423	63973
25.78237	66099
25.79048	64490
25.79862	68093
25.80673	62446
25.81485	63584
25.82298	62696
25.83110	64473
25.83922	66564
25.84735	66129
25.85547	64432
25.86360	68234
25.87172	65494
25.87983	66023
25.88797	62472
25.89608	61629
25.90422	63303
25.91233	63629
25.92045	61717
25.92858	65755
25.93670	56842
25.94483	58437
25.95295	56651
25.96107	59277
25.96920	63400
25.97732	61472
25.98543	59431
25.99357	63601
26.00168	61924
26.00982	64765
26.01793	64842
26.02605	61351
26.03418	56753
26.04230	55485
26.05043	59678
26.05855	58853
26.06667	58960
26.07480	64092
26.08292	68494
26.09103	64796
26.09917	63553
26.10728	66236
26.11542	66843
26.12353	69835
26.13165	71442
26.13978	75844
26.14790	81166
26.15603	89254
26.16415	92180
26.17227	93458
26.18040	95551
26.18852	98527
26.19665	90073
26.20477	90556
26.21288	82024
26.22102	79037
26.22913	74868
26.23725	71738
26.24538	68523
26.25350	62239
26.26163	60454
26.26975	67105
26.27787	61831
26.28600	64789
26.29412	62811
26.30225	68005
26.31037	67062
26.31848	63667
26.32662	58972
26.33473	63183
26.34287	63700
26.35098	60451
26.35910	61184
26.36723	63611
26.37535	69257
26.38347	85227
26.39160	110415
26.39972	160724
26.40785	213399
26.41597	275576
26.42408	333748
26.43222	347476
26.44033	346257
26.44847	305774
26.45658	261558
26.46470	206226
26.47283	163898
26.48095	125634
26.48907	113427
26.49720	91281
26.50532	85537
26.51345	72515
26.52157	72040
26.52968	63259
26.53782	62486
26.54593	64616
26.55407	65345
26.56218	60249
26.57030	65358
26.57843	65973
26.58655	63727
26.59468	63547
26.60280	62108
26.61092	65439
26.61905	59466
26.62717	58913
26.63528	61097
26.64342	63924
26.65153	60123
26.65967	61193
26.66778	59299
26.67590	60004
26.68403	60235
26.69215	63111
26.70028	63890
26.70840	58225
26.71652	61683
26.72465	61086
26.73277	59856
26.74090	61104
26.74902	62288
26.75713	61945
26.76527	61723
26.77338	62899
26.78150	59505
26.78963	61193
26.79775	63023
26.80588	61714
26.81400	62968
26.82212	59776
26.83025	71135
26.83837	64204
26.84650	64972
26.85462	64272
26.86273	66664
26.87087	65720
26.87898	65250
26.88710	70385
26.89523	72616
26.90335	70290
26.91148	72246
26.91960	66900
26.92772	68155
26.93585	61700
26.94397	61149
26.95210	61577
26.96022	61944
26.96833	66635
26.97647	85372
26.98458	139251
26.99272	287872
27.00083	619415
27.00895	1338720
27.01708	2612667
27.02520	3977306
27.03332	5080990
27.04145	5302445
27.04957	4822764
27.05770	3819539
27.06582	2755876
27.07393	1970156
27.08207	1428970
27.09018	1067950
27.09832	810178
27.10643	678337
27.11455	548992
27.12268	489947
27.13080	428400
27.13892	378284
27.14705	360220
27.15517	338100
27.16330	305332
27.17142	282396
27.17953	274181
27.18767	265957
27.19578	254498
27.20392	243438
27.21203	249232
27.22015	247168
27.22828	242708
27.23640	236892
27.24453	227593
27.25265	212635
27.26077	207923
27.26890	189505
27.27702	183571
27.28513	178215
27.29327	169168
27.30138	163175
27.30952	162084
27.31763	158212
27.32575	150939
27.33388	147687
27.34200	152415
27.35013	143751
27.35825	140049
27.36637	139576
27.37450	137323
27.38262	138080
27.39075	139922
27.39887	134162
27.40698	135579
27.41512	132927
27.42323	120382
27.43135	129437
27.43948	129879
27.44760	122074
27.45573	118982
27.46385	116252
27.47197	113360
27.48010	113221
27.48822	113842
27.49635	113411
27.50447	110768
27.51258	111054
27.52072	105260
27.52883	106045
27.53695	104800
27.54508	108815
27.55320	109688
27.56133	107287
27.56945	112540
27.57757	116964
27.58570	107753
27.59382	108476
27.60195	101129
27.61007	102349
27.61818	103784
27.62632	100915
27.63443	104601
27.64257	103713
27.65068	110073
27.65880	108843
27.66693	99090
27.67505	96292
27.68317	98240
27.69130	93225
27.69942	96025
27.70755	93216
27.71567	95261
27.72378	96856
27.73192	96309
27.74003	90330
27.74817	90958
27.75628	90746
27.76440	91918
27.77253	89520
27.78065	90920
27.78878	88323
27.79690	84136
27.80502	86315
27.81315	83402
27.82127	83224
27.82938	83736
27.83752	82963
27.84563	85874
27.85377	81422
27.86188	86405
27.87000	86045
27.87813	85578
27.88625	84121
27.89438	83476
27.90250	79226
27.91062	82088
27.91875	80310
27.92687	82804
27.93498	79183
27.94312	78335
27.95123	80773
27.95937	81228
27.96748	76485
27.97560	79072
27.98373	79636
27.99185	79794
27.99998	73471
28.00810	73739
28.01622	74500
28.02435	77748
28.03247	78417
28.04060	77060
28.04872	82970
28.05683	90890
28.06497	94518
28.07308	92644
28.08120	97802
28.08933	102139
28.09745	95279
28.10558	91091
28.11370	82197
28.12182	84213
28.12995	79013
28.13807	76202
28.14620	79646
28.15432	79402
28.16243	72899
28.17057	72910
28.17868	74882
28.18680	71788
28.19493	73681
28.20305	74520
28.21118	78447
28.21930	81325
28.22742	87875
28.23555	93484
28.24367	97278
28.25180	99846
28.25992	91599
28.26803	97379
28.27617	89439
28.28428	85144
28.29242	78340
28.30053	80997
28.30865	82541
28.31678	95668
28.32490	108597
28.33302	143412
28.34115	218873
28.34927	301277
28.35740	407988
28.36552	528640
28.37363	660724
28.38177	772927
28.38988	830124
28.39802	835642
28.40613	810081
28.41425	768015
28.42238	701985
28.43050	614978
28.43863	534289
28.44675	460212
28.45487	384786
28.46300	347804
28.47112	311051
28.47923	278939
28.48737	250541
28.49548	240496
28.50362	216191
28.51173	207830
28.51985	194870
28.52798	185955
28.53610	172484
28.54423	174298
28.55235	159816
28.56047	163732
28.56860	156063
28.57672	149373
28.58483	147150
28.59297	137282
28.60108	139113
28.60922	134280
28.61733	127209
28.62545	121639
28.63358	120790
28.64170	133068
28.64983	127674
28.65795	125615
28.66607	137273
28.67420	138709
28.68232	142243
28.69045	142239
28.69857	140120
28.70668	130497
28.71482	119388
28.72293	118765
28.73105	106161
28.73918	112905
28.74730	111731
28.75543	101837
28.76355	102998
28.77167	105206
28.77980	104997
28.78792	114374
28.79605	113642
28.80417	124276
28.81228	127243
28.82042	122719
28.82853	115527
28.83667	116895
28.84478	101023
28.85290	96388
28.86103	95029
28.86915	95886
28.87727	99366
28.88540	95846
28.89352	91274
28.90165	95510
28.90977	89108
28.91788	89429
28.92602	95446
28.93413	97417
28.94227	91400
28.95038	90042
28.95850	95087
28.96663	95631
28.97475	96499
28.98287	97673
28.99100	98190
28.99912	99503
29.00725	93441
29.01537	87007
29.02348	84763
29.03162	86747
29.03973	86079
29.04787	86547
29.05598	86519
29.06410	81998
29.07223	78844
29.08035	84313
29.08848	84947
29.09660	79338
29.10472	83027
29.11285	80809
29.12097	82157
29.12908	80955
29.13722	82487
29.14533	74852
29.15347	79886
29.16158	84036
29.16970	83525
29.17783	80203
29.18595	84351
29.19408	86945
29.20220	87156
29.21032	84679
29.21845	78528
29.22657	79317
29.23470	82784
29.24282	76693
29.25093	80958
29.25907	80947
29.26718	81792
29.27530	82691
29.28343	80506
29.29155	81174
29.29968	81334
29.30780	85158
29.31592	81548
29.32405	77870
29.33217	80586
29.34030	79802
29.34842	77565
29.35653	76222
29.36467	82166
29.37278	79976
29.38090	77268
29.38903	79057
29.39715	75422
29.40528	76342
29.41340	71989
29.42152	75917
29.42965	78895
29.43777	80008
29.44590	81642
29.45402	73334
29.46213	76159
29.47027	73138
29.47838	72252
29.48652	79437
29.49463	74383
29.50275	76191
29.51088	78245
29.51900	89159
29.52712	91268
29.53525	94159
29.54337	95635
29.55150	86997
29.55962	84123
29.56773	78701
29.57587	81283
29.58398	72440
29.59212	73663
29.60023	69864
29.60835	64985
29.61648	66281
29.62460	69122
29.63273	69570
29.64085	72886
29.64897	70746
29.65710	72400
29.66522	72450
29.67333	73918
29.68147	70380
29.68958	66288
29.69772	68529
29.70583	63477
29.71395	68266
29.72208	70995
29.73020	67837
29.73833	64424
29.74645	65952
29.75457	65291
29.76270	63191
29.77082	68874
29.77893	64838
29.78707	67312
29.79518	66065
29.80332	68597
29.81143	66521
29.81955	68194
29.82768	61659
29.83580	63398
29.84393	59280
29.85205	58877
29.86017	58016
29.86830	64684
29.87642	67988
29.88455	62642
29.89267	69770
29.90078	67913
29.90892	71801
29.91703	74953
29.92515	81398
29.93328	80135
29.94140	73256
29.94953	70275
29.95765	70154
29.96577	74823
29.97390	80651
29.98202	92494
29.99015	114428
29.99827	137253
30.00638	165092
30.01452	198966
30.02263	231676
30.03075	256059
30.03888	278440
30.04700	305960
30.05513	321983
30.06325	333108
30.07137	323843
30.07950	310466
30.08762	298829
30.09575	277575
30.10387	283799
30.11198	249370
30.12012	232768
30.12823	217971
30.13637	192828
30.14448	175774
30.15260	165656
30.16073	152984
30.16885	157343
30.17697	149916
30.18510	135104
30.19322	131013
30.20135	127900
30.20947	118533
30.21758	112990
30.22572	117424
30.23383	115606
30.24197	107949
30.25008	105148
30.25820	104988
30.26633	97317
30.27445	95066
30.28258	97460
30.29070	94799
30.29882	95256
30.30695	93227
30.31507	90084
30.32318	88834
30.33132	85885
30.33943	82621
30.34757	87330
30.35568	82953
30.36380	89244
30.37193	88087
30.38005	83283
30.38818	81945
30.39630	81109
30.40442	81057
30.41255	79475
30.42067	79520
30.42878	72898
30.43692	75976
30.44503	76398
30.45317	75148
30.46128	78858
30.46940	73841
30.47753	74034
30.48565	77927
30.49378	78878
30.50190	70992
30.51002	72395
30.51815	75355
30.52627	68509
30.53440	73775
30.54252	74915
30.55063	74854
30.55877	70215
30.56688	73574
30.57500	71078
30.58313	69883
30.59125	69565
30.59938	71331
30.60750	67575
30.61562	69797
30.62375	69761
30.63187	64612
30.64000	71534
30.64812	71079
30.65623	68971
30.66437	67311
30.67248	67775
30.68062	69408
30.68873	68153
30.69685	68587
30.70498	66437
30.71310	67163
30.72122	61012
30.72935	66748
30.73747	66344
30.74560	66624
30.75372	70845
30.76183	69328
30.76997	66113
30.77808	66936
30.78622	64836
30.79433	66572
30.80245	69695
30.81058	72148
30.81870	82034
30.82682	84379
30.83495	82766
30.84307	85912
30.85120	76760
30.85932	80901
30.86743	76002
30.87557	73549
30.88368	76060
30.89182	66587
30.89993	66756
30.90805	68832
30.91618	62918
30.92430	63987
30.93243	63413
30.94055	62304
30.94867	65577
30.95680	61665
30.96492	71068
30.97303	62097
30.98117	64245
30.98928	66128
30.99742	68303
31.00553	62003
31.01365	65328
31.02178	63252
31.02990	67191
31.03803	62381
31.04615	67933
31.05427	67677
31.06240	65373
31.07052	63700
31.07863	62905
31.08677	61003
31.09488	66941
31.10302	68923
31.11113	78144
31.11925	80563
31.12738	88999
31.13550	90640
31.14363	88709
31.15175	85415
31.15987	73597
31.16800	74693
31.17612	75357
31.18425	80196
31.19237	100199
31.20048	134513
31.20862	195307
31.21673	310309
31.22485	474184
31.23298	646809
31.24110	753523
31.24923	816221
31.25735	758615
31.26547	588690
31.27360	403150
31.28172	252140
31.28985	161321
31.29797	120729
31.30608	90518
31.31422	81825
31.32233	83121
31.33047	76188
31.33858	78313
31.34670	78393
31.35483	73512
31.36295	68735
31.37107	68198
31.37920	69728
31.38732	67720
31.39545	75566
31.40357	70504
31.41168	66789
31.41982	66328
31.42793	68205
31.43607	67965
31.44418	77891
31.45230	71628
31.46043	80909
31.46855	72457
31.47667	73709
31.48480	73148
31.49292	68682
31.50105	67244
31.50917	65002
31.51728	69777
31.52542	69314
31.53353	73068
31.54167	69486
31.54978	70351
31.55790	72025
31.56603	73007
31.57415	68502
31.58228	64918
31.59040	69019
31.59852	66549
31.60665	64702
31.61477	63681
31.62288	63168
31.63102	58880
31.63913	64241
31.64727	62591
31.65538	63409
31.66350	65040
31.67163	69659
31.67975	72386
31.68788	68622
31.69600	73922
31.70412	69554
31.71225	65812
31.72037	66156
31.72850	63472
31.73662	63716
31.74473	63513
31.75287	61966
31.76098	63160
31.76910	67156
31.77723	60546
31.78535	65538
31.79348	57998
31.80160	65636
31.80972	74847
31.81785	71686
31.82597	72278
31.83410	73308
31.84222	71326
31.85033	76159
31.85847	69828
31.86658	68192
31.87470	78519
31.88283	80015
31.89095	77025
31.89908	80325
31.90720	79598
31.91532	75374
31.92345	71016
31.93157	81728
31.93970	82213
31.94782	95198
31.95593	117081
31.96407	129045
31.97218	153162
31.98032	173972
31.98843	188093
31.99655	200116
32.00468	212056
32.01280	209272
32.02092	206934
32.02905	190385
32.03717	181130
32.04530	164672
32.05342	157559
32.06153	146071
32.06967	133722
32.07778	126667
32.08592	118683
32.09403	115792
32.10215	111085
32.11028	107582
32.11840	113145
32.12652	111062
32.13465	108801
32.14277	98755
32.15090	96892
32.15902	96260
32.16713	86903
32.17527	84190
32.18338	81299
32.19152	84111
32.19963	83200
32.20775	77566
32.21588	73249
32.22400	75334
32.23213	78119
32.24025	74942
32.24837	70126
32.25650	76554
32.26462	72984
32.27273	69134
32.28087	69326
32.28898	70498
32.29712	74410
32.30523	77275
32.31335	72912
32.32148	70390
32.32960	70722
32.33773	72294
32.34585	72431
32.35397	71004
32.36210	75538
32.37022	73709
32.37835	75792
32.38647	75394
32.39458	76294
32.40272	74214
32.41083	69961
32.41895	68601
32.42708	67820
32.43520	65845
32.44333	69048
32.45145	73620
32.45957	68549
32.46770	66314
32.47582	62558
32.48395	65593
32.49207	64686
32.50018	66003
32.50832	64918
32.51643	64911
32.52455	68190
32.53268	66704
32.54080	63620
32.54893	63835
32.55705	64580
32.56517	66445
32.57330	68740
32.58142	73870
32.58955	62966
32.59767	70915
32.60578	69235
32.61392	68585
32.62203	63954
32.63017	59713
32.63828	64871
32.64640	62666
32.65453	64040
32.66265	63954
32.67077	65870
32.67890	74240
32.68702	75940
32.69515	80864
32.70327	83379
32.71138	87718
32.71952	84674
32.72763	87716
32.73577	82422
32.74388	78778
32.75200	72552
32.76013	73811
32.76825	70022
32.77638	68605
32.78450	68433
32.79262	66078
32.80075	65298
32.80887	66961
32.81698	66184
32.82512	67547
32.83323	65666
32.84137	62739
32.84948	61380
32.85760	62927
32.86573	67005
32.87385	65918
32.88198	66398
32.89010	62861
32.89822	63028
32.90635	64696
32.91447	67171
32.92258	64219
32.93072	66728
32.93883	69447
32.94697	69897
32.95508	66512
32.96320	73989
32.97133	64616
32.97945	62081
32.98758	67013
32.99570	62585
33.00382	67589
33.01195	68486
33.02007	70632
33.02820	69654
33.03632	64180
33.04443	67522
33.05257	66662
33.06068	64313
33.06880	66504
33.07693	66136
33.08505	66214
33.09318	66797
33.10130	70724
33.10942	69322
33.11755	78923
33.12567	93251
33.13380	95144
33.14192	98768
33.15003	93570
33.15817	79866
33.16628	83118
33.17442	74085
33.18253	67266
33.19065	65089
33.19878	62786
33.20690	62537
33.21502	63086
33.22315	62787
33.23127	69725
33.23940	67757
33.24752	69879
33.25563	71102
33.26377	73317
33.27188	68724
33.28002	68710
33.28813	64602
33.29625	67606
33.30438	62820
33.31250	61134
33.32062	69208
33.32875	63114
33.33687	66381
33.34500	64260
33.35312	64054
33.36123	63993
33.36937	65208
33.37748	64612
33.38562	63185
33.39373	61223
33.40185	65545
33.40998	65504
33.41810	60123
33.42623	58130
33.43435	58626
33.44247	65055
33.45060	62934
33.45872	57494
33.46683	62051
33.47497	60685
33.48308	61992
33.49122	60344
33.49933	62735
33.50745	62434
33.51558	60350
33.52370	70261
33.53183	69474
33.53995	63580
33.54807	67749
33.55620	67424
33.56432	62821
33.57243	63594
33.58057	73690
33.58868	63668
33.59682	64031
33.60493	59097
33.61305	61944
33.62118	64940
33.62930	66519
33.63743	65484
33.64555	64890
33.65367	62665
33.66180	62831
33.66992	64110
33.67805	70428
33.68617	68830
33.69428	60816
33.70242	62974
33.71053	63015
33.71865	65415
33.72678	60761
33.73490	64575
33.74303	57773
33.75115	60782
33.75927	65489
33.76740	59074
33.77552	63451
33.78365	60856
33.79177	61952
33.79988	61007
33.80802	60561
33.81613	62538
33.82427	60065
33.83238	58608
33.84050	61403
33.84863	62765
33.85675	65491
33.86487	66590
33.87300	62326
33.88112	66321
33.88925	65964
33.89737	70296
33.90548	68923
33.91362	71084
33.92173	69622
33.92987	70741
33.93798	63178
33.94610	59423
33.95423	65983
33.96235	70175
33.97047	64578
33.97860	64793
33.98672	61646
33.99485	61910
34.00297	63041
34.01108	63635
34.01922	67641
34.02733	60366
34.03547	56331
34.04358	64466
34.05170	61185
34.05983	62027
34.06795	62484
34.07608	64019
34.08420	63063
34.09232	57707
34.10045	62853
34.10857	66885
34.11668	63069
34.12482	63970
34.13293	59244
34.14107	60818
34.14918	60810
34.15730	62068
34.16543	64186
34.17355	63089
34.18168	62652
34.18980	62447
34.19792	59798
34.20605	59474
34.21417	57114
34.22230	60636
34.23042	61467
34.23853	63239
34.24667	62882
34.25478	65729
34.26290	59377
34.27103	62396
34.27915	56951
34.28728	55751
34.29540	60698
34.30352	61276
34.31165	59152
34.31977	60336
34.32790	61629
34.33602	60523
34.34413	63006
34.35227	61759
34.36038	66068
34.36850	62193
34.37663	59426
34.38475	57717
34.39288	57612
34.40100	59775
34.40912	62356
34.41725	62324
34.42537	69077
34.43350	66151
34.44162	63619
34.44973	66490
34.45787	63922
34.46598	65996
34.47412	62627
34.48223	59927
34.49035	64488
34.49848	63716
34.50660	64381
34.51472	64559
34.52285	58276
34.53097	61171
34.53910	73666
34.54722	76544
34.55533	87651
34.56347	100128
34.57158	120425
34.57972	135519
34.58783	141735
34.59595	140889
34.60408	141073
34.61220	131872
34.62032	124812
34.62845	112110
34.63657	108187
34.64470	92109
34.65282	95785
34.66093	90932
34.66907	86577
34.67718	82343
34.68532	83500
34.69343	84751
34.70155	78457
34.70968	74962
34.71780	76563
34.72593	74784
34.73405	72424
34.74217	79858
34.75030	75044
34.75842	77765
34.76653	81996
34.77467	79580
34.78278	80701
34.79092	78548
34.79903	76425
34.80715	74383
34.81528	72046
34.82340	70989
34.83153	68135
34.83965	71907
34.84777	69986
34.85590	67081
34.86402	70852
34.87215	68749
34.88027	69161
34.88838	64809
34.89652	68730
34.90463	68121
34.91275	74651
34.92088	64811
34.92900	70208
34.93713	67145
34.94525	71494
34.95337	70241
34.96150	76406
34.96962	74008
34.97775	73308
34.98587	68783
34.99398	79619
35.00212	77160
35.01023	79044
35.01837	75089
35.02648	74014
35.03460	64396
35.04273	69818
35.05085	69331
35.05897	68294
35.06710	73566
35.07522	67984
35.08335	69928
35.09147	72237
35.09958	68835
35.10772	71007
35.11583	67699
35.12397	72283
35.13208	76310
35.14020	68889
35.14833	80366
35.15645	76675
35.16457	83773
35.17270	82028
35.18082	79085
35.18895	81825
35.19707	80231
35.20518	76893
35.21332	80499
35.22143	71251
35.22957	73101
35.23768	71520
35.24580	67593
35.25393	75223
35.26205	71514
35.27018	70270
35.27830	72017
35.28642	74671
35.29455	73981
35.30267	74125
35.31078	71960
35.31892	73017
35.32703	64474
35.33517	73372
35.34328	69562
35.35140	63446
35.35953	66940
35.36765	65508
35.37578	67068
35.38390	65699
35.39202	68815
35.40015	66676
35.40827	69078
35.41638	72306
35.42452	74965
35.43263	74277
35.44077	80190
35.44888	82808
35.45700	81051
35.46513	75926
35.47325	85208
35.48138	79651
35.48950	81942
35.49762	89081
35.50575	78435
35.51387	76761
35.52200	75822
35.53012	71558
35.53823	70803
35.54637	69701
35.55448	74041
35.56260	70211
35.57073	74755
35.57885	71233
35.58698	67881
35.59510	74187
35.60322	77746
35.61135	77001
35.61947	70515
35.62760	71854
35.63572	73179
35.64383	70189
35.65197	75861
35.66008	74061
35.66822	67954
35.67633	68850
35.68445	71634
35.69258	71382
35.70070	75337
35.70882	76563
35.71695	80318
35.72507	84910
35.73320	81180
35.74132	79791
35.74943	78559
35.75757	78070
35.76568	74823
35.77382	83205
35.78193	76354
35.79005	82252
35.79818	82993
35.80630	82489
35.81442	78394
35.82255	74178
35.83067	78577
35.83880	77151
35.84692	72976
35.85503	75182
35.86317	75646
35.87128	79164
35.87942	82119
35.88753	75719
35.89565	73663
35.90378	74496
35.91190	70995
35.92003	74903
35.92815	73223
35.93627	74149
35.94440	73578
35.95252	74029
35.96063	71035
35.96877	68241
35.97688	73323
35.98502	73118
35.99313	71816
36.00125	75397
36.00938	72291
36.01750	74654
36.02563	84325
36.03375	80490
36.04187	79943
36.05000	79546
36.05812	83934
36.06625	84859
36.07437	79052
36.08248	83489
36.09062	79026
36.09873	85132
36.10685	79852
36.11498	75821
36.12310	80050
36.13123	76263
36.13935	83545
36.14747	76038
36.15560	88266
36.16372	79991
36.17185	81829
36.17997	80202
36.18808	78599
36.19622	81138
36.20433	78449
36.21245	77115
36.22058	79660
36.22870	80003
36.23683	78268
36.24495	78043
36.25307	82866
36.26120	79321
36.26932	76384
36.27745	75381
36.28557	75103
36.29368	73468
36.30182	74278
36.30993	74743
36.31807	76357
36.32618	80481
36.33430	81151
36.34243	84458
36.35055	87052
36.35867	88809
36.36680	89099
36.37492	87937
36.38305	88186
36.39117	89702
36.39928	91082
36.40742	87545
36.41553	89394
36.42367	92399
36.43178	84439
36.43990	82001
36.44803	78052
36.45615	78687
36.46427	75721
36.47240	74985
36.48052	76013
36.48865	71713
36.49677	73678
36.50488	75120
36.51302	68546
36.52113	70196
36.52927	73581
36.53738	67987
36.54550	68763
36.55363	73531
36.56175	71204
36.56988	72775
36.57800	75874
36.58612	71133
36.59425	74380
36.60237	70057
36.61048	73552
36.61862	72804
36.62673	71102
36.63487	70333
36.64298	75131
36.65110	67996
36.65923	74323
36.66735	78771
36.67548	74912
36.68360	71349
36.69172	75303
36.69985	76663
36.70797	74962
36.71610	77169
36.72422	74977
36.73233	79330
36.74047	79603
36.74858	82731
36.75670	77278
36.76483	77515
36.77295	76023
36.78108	74357
36.78920	70710
36.79732	74012
36.80545	71832
36.81357	71321
36.82170	72196
36.82982	73027
36.83793	75049
36.84607	73034
36.85418	76364
36.86230	73940
36.87043	71242
36.87855	67307
36.88668	72794
36.89480	79230
36.90292	73039
36.91105	78061
36.91917	75134
36.92730	72379
36.93542	75970
36.94353	72947
36.95167	72656
36.95978	71216
36.96792	69924
36.97603	72310
36.98415	72204
36.99228	75043
37.00040	77774
37.00852	71225
37.01665	71952
37.02477	77461
37.03290	74870
37.04102	67732
37.04913	73370
37.05727	72923
37.06538	73838
37.07352	71951
37.08163	74067
37.08975	79953
37.09788	85644
37.10600	81015
37.11413	80540
37.12225	82719
37.13037	84089
37.13850	76755
37.14662	72379
37.15473	73696
37.16287	70205
37.17098	71373
37.17912	74112
37.18723	75836
37.19535	76881
37.20348	76214
37.21160	79284
37.21973	73830
37.22785	80040
37.23597	77776
37.24410	81253
37.25222	78070
37.26033	80791
37.26847	78072
37.27658	76775
37.28472	73598
37.29283	82229
37.30095	78029
37.30908	78186
37.31720	80031
37.32533	72195
37.33345	77370
37.34157	79985
37.34970	77906
37.35782	81024
37.36595	89032
37.37407	99071
37.38218	103944
37.39032	111747
37.39843	113347
37.40655	110870
37.41468	104677
37.42280	109360
37.43093	108724
37.43905	100706
37.44717	102550
37.45530	102317
37.46342	97693
37.47155	96364
37.47967	89486
37.48778	93828
