C:\MassHunter\GCMS\1\data\JTB-E18\JTB-E18-036-10.D Thu Oct 17 16:23:31 2019
Start of data points
2.09518	252458
2.10330	243656
2.11143	230527
2.11955	226786
2.12767	214832
2.13580	205638
2.14392	203153
2.15205	195942
2.16017	178425
2.16828	178373
2.17642	176058
2.18453	166209
2.19267	164521
2.20078	162842
2.20890	156678
2.21703	152181
2.22515	148967
2.23328	149461
2.24140	143252
2.24952	151006
2.25765	135120
2.26577	201232
2.27388	983588
2.28202	1928023
2.29013	1045822
2.29827	465281
2.30638	335916
2.31450	279988
2.32263	260967
2.33075	232815
2.33888	216024
2.34700	207978
2.35512	194957
2.36325	187216
2.37137	173736
2.37950	185246
2.38762	197824
2.39573	171099
2.40387	155858
2.41198	161397
2.42010	162141
2.42823	165541
2.43635	155370
2.44448	162461
2.45260	159088
2.46072	153353
2.46885	138016
2.47697	136284
2.48510	139297
2.49322	134246
2.50133	137902
2.50947	136688
2.51758	132319
2.52570	127643
2.53383	123342
2.54195	123261
2.55008	132834
2.55820	159841
2.56632	155203
2.57445	130279
2.58257	123599
2.59070	117898
2.59882	117518
2.60693	169191
2.61507	266262
2.62318	242182
2.63132	183231
2.63943	162758
2.64755	136131
2.65568	139186
2.66380	131390
2.67192	139480
2.68005	155999
2.68817	134122
2.69630	122425
2.70442	114317
2.71253	113303
2.72067	111364
2.72878	109257
2.73692	102141
2.74503	106966
2.75315	106228
2.76128	100822
2.76940	97508
2.77753	108573
2.78565	145678
2.79377	151402
2.80190	133163
2.81002	125090
2.81813	143238
2.82627	242776
2.83438	390224
2.84252	336177
2.85063	219808
2.85875	181133
2.86688	171357
2.87500	156057
2.88313	140014
2.89125	123704
2.89937	121956
2.90750	113262
2.91562	112445
2.92373	106667
2.93187	102426
2.93998	105796
2.94812	102177
2.95623	106114
2.96435	100307
2.97248	98204
2.98060	99314
2.98873	96877
2.99685	102116
3.00497	109001
3.01310	112932
3.02122	144290
3.02935	280668
3.03747	493236
3.04558	750869
3.05372	2395866
3.06183	5459595
3.06995	5289360
3.07808	2954873
3.08620	1580602
3.09433	1163555
3.10245	1772250
3.11057	3296517
3.11870	3357184
3.12682	2273314
3.13495	1582888
3.14307	1235318
3.15118	998773
3.15932	832327
3.16743	720994
3.17555	669169
3.18368	693738
3.19180	982676
3.19993	1179602
3.20805	941514
3.21617	717376
3.22430	599299
3.23242	527921
3.24055	468113
3.24867	409147
3.25678	365744
3.26492	338936
3.27303	310965
3.28117	359067
3.28928	645523
3.29740	1337022
3.30553	2145281
3.31365	2445350
3.32177	2098859
3.32990	1613723
3.33802	1303451
3.34615	1084636
3.35427	920016
3.36238	821301
3.37052	808927
3.37863	917934
3.38677	954652
3.39488	835957
3.40300	1005751
3.41113	1831721
3.41925	2680621
3.42738	2280092
3.43550	1395070
3.44362	891667
3.45175	677606
3.45987	593996
3.46798	538406
3.47612	484091
3.48423	435879
3.49237	403118
3.50048	379608
3.50860	353060
3.51673	337225
3.52485	327316
3.53298	316717
3.54110	312256
3.54922	300145
3.55735	287790
3.56547	274013
3.57358	265902
3.58172	264085
3.58983	250439
3.59797	244077
3.60608	248680
3.61420	293923
3.62233	515824
3.63045	986897
3.63858	1424015
3.64670	1266324
3.65482	868711
3.66295	796228
3.67107	1627109
3.67920	3151214
3.68732	3365990
3.69543	2247585
3.70357	1389822
3.71168	1011261
3.71980	831946
3.72793	742273
3.73605	661853
3.74418	601980
3.75230	548629
3.76042	526751
3.76855	541221
3.77667	560483
3.78480	527524
3.79292	511724
3.80103	576571
3.80917	901492
3.81728	1336443
3.82542	1293574
3.83353	958524
3.84165	701213
3.84978	592734
3.85790	516270
3.86602	475323
3.87415	430402
3.88227	403183
3.89040	385745
3.89852	368891
3.90663	360282
3.91477	374391
3.92288	434463
3.93102	494555
3.93913	485371
3.94725	434720
3.95538	407173
3.96350	415724
3.97162	417902
3.97975	378807
3.98787	340968
3.99600	378864
4.00412	620966
4.01223	1054426
4.02037	1178920
4.02848	946376
4.03662	610879
4.04473	457689
4.05285	368558
4.06098	335971
4.06910	307130
4.07723	288037
4.08535	269791
4.09347	244842
4.10160	231327
4.10972	226035
4.11783	223293
4.12597	222572
4.13408	228950
4.14222	268542
4.15033	340793
4.15845	350472
4.16658	328348
4.17470	289687
4.18283	253382
4.19095	234838
4.19907	233011
4.20720	392057
4.21532	1634348
4.22345	5715787
4.23157	1.147946E+07
4.23968	1.489899E+07
4.24782	1.356498E+07
4.25593	9182103
4.26405	5647357
4.27218	3750997
4.28030	2621545
4.28843	1941925
4.29655	1455461
4.30467	1187451
4.31280	994396
4.32092	857734
4.32905	759585
4.33717	666678
4.34528	626346
4.35342	588492
4.36153	560604
4.36965	517044
4.37778	456619
4.38590	430130
4.39403	397480
4.40215	381575
4.41027	355740
4.41840	345863
4.42652	329060
4.43465	328269
4.44277	316633
4.45088	310586
4.45902	307291
4.46713	302682
4.47527	289454
4.48338	273683
4.49150	263704
4.49963	257387
4.50775	250473
4.51587	245454
4.52400	228289
4.53212	234359
4.54025	233363
4.54837	223366
4.55648	223086
4.56462	216008
4.57273	209849
4.58087	209660
4.58898	202303
4.59710	196940
4.60523	201701
4.61335	199569
4.62147	212294
4.62960	274336
4.63772	356934
4.64585	397474
4.65397	356163
4.66208	292951
4.67022	251702
4.67833	221859
4.68647	215114
4.69458	210651
4.70270	192571
4.71083	195275
4.71895	184225
4.72708	181340
4.73520	177206
4.74332	171441
4.75145	172994
4.75957	170953
4.76768	162293
4.77582	168250
4.78393	176424
4.79207	221464
4.80018	322881
4.80830	429181
4.81643	421655
4.82455	345979
4.83268	301547
4.84080	275694
4.84892	265782
4.85705	252161
4.86517	229447
4.87330	212966
4.88142	197770
4.88953	193140
4.89767	186146
4.90578	184560
4.91390	195516
4.92203	263450
4.93015	390340
4.93828	615132
4.94640	766069
4.95452	789951
4.96265	701920
4.97077	609052
4.97890	485835
4.98702	425849
4.99513	372070
5.00327	334941
5.01138	313862
5.01950	336006
5.02763	451626
5.03575	685357
5.04388	865024
5.05200	835052
5.06012	690390
5.06825	557028
5.07637	469766
5.08450	418273
5.09262	397909
5.10073	389954
5.10887	412506
5.11698	426654
5.12512	412288
5.13323	383025
5.14135	335283
5.14948	315856
5.15760	317477
5.16572	329626
5.17385	357746
5.18197	381915
5.19010	385570
5.19822	375476
5.20633	347579
5.21447	320033
5.22258	294814
5.23072	283292
5.23883	279999
5.24695	282146
5.25508	264112
5.26320	245714
5.27133	225180
5.27945	216981
5.28757	202487
5.29570	207162
5.30382	202909
5.31193	195413
5.32007	190230
5.32818	191251
5.33632	209767
5.34443	202797
5.35255	197373
5.36068	194863
5.36880	182494
5.37693	186675
5.38505	174671
5.39317	172749
5.40130	172713
5.40942	166173
5.41753	167814
5.42567	155124
5.43378	157156
5.44192	157579
5.45003	162009
5.45815	160276
5.46628	151467
5.47440	149573
5.48253	150659
5.49065	153488
5.49877	147589
5.50690	146996
5.51502	154025
5.52315	157073
5.53127	160137
5.53938	152753
5.54752	148327
5.55563	144294
5.56375	148573
5.57188	157263
5.58000	155908
5.58813	164315
5.59625	160629
5.60437	148974
5.61250	147174
5.62062	149710
5.62875	147508
5.63687	157210
5.64498	155130
5.65312	158131
5.66123	157218
5.66935	153996
5.67748	158177
5.68560	190021
5.69373	204125
5.70185	208966
5.70997	215407
5.71810	202975
5.72622	203409
5.73435	200869
5.74247	194324
5.75058	188060
5.75872	195057
5.76683	195923
5.77497	195528
5.78308	195729
5.79120	178425
5.79933	193199
5.80745	269994
5.81557	427856
5.82370	689723
5.83182	944851
5.83995	1027904
5.84807	875165
5.85618	625136
5.86432	442284
5.87243	330278
5.88057	263996
5.88868	235030
5.89680	226722
5.90493	231861
5.91305	274802
5.92118	357963
5.92930	439266
5.93742	476676
5.94555	443431
5.95367	385363
5.96178	304555
5.96992	287222
5.97803	280926
5.98617	286241
5.99428	285010
6.00240	252298
6.01053	231360
6.01865	200465
6.02678	178885
6.03490	167440
6.04302	158249
6.05115	147656
6.05927	138232
6.06738	141310
6.07552	128809
6.08363	129283
6.09177	127199
6.09988	120237
6.10800	124272
6.11613	124480
6.12425	150743
6.13238	200292
6.14050	273216
6.14862	320268
6.15675	305342
6.16487	259690
6.17300	215959
6.18112	186530
6.18923	193573
6.19737	190108
6.20548	199531
6.21360	193546
6.22173	176572
6.22985	176842
6.23798	169082
6.24610	166500
6.25422	162924
6.26235	169357
6.27047	160521
6.27860	160152
6.28672	163358
6.29483	166844
6.30297	170885
6.31108	166850
6.31922	187217
6.32733	195352
6.33545	209102
6.34358	222545
6.35170	222096
6.35982	212978
6.36795	205092
6.37607	197150
6.38420	191675
6.39232	192081
6.40043	187375
6.40857	190903
6.41668	194304
6.42482	194866
6.43293	194047
6.44105	202587
6.44918	198739
6.45730	194915
6.46542	202942
6.47355	196567
6.48167	201789
6.48980	211554
6.49792	203613
6.50603	215706
6.51417	208799
6.52228	212467
6.53042	214874
6.53853	216704
6.54665	227182
6.55478	228132
6.56290	224163
6.57103	225868
6.57915	224674
6.58727	235816
6.59540	213449
6.60352	159339
6.61163	142387
6.61977	129451
6.62788	119191
6.63602	109192
6.64413	104399
6.65225	101743
6.66038	102763
6.66850	103343
6.67663	106811
6.68475	116228
6.69287	115929
6.70100	122450
6.70912	141605
6.71723	156350
6.72537	164353
6.73348	157742
6.74162	142515
6.74973	125382
6.75785	106113
6.76598	97963
6.77410	93424
6.78223	89846
6.79035	91890
6.79847	92557
6.80660	86902
6.81472	91365
6.82285	111762
6.83097	155771
6.83908	238093
6.84722	345214
6.85533	465030
6.86345	528912
6.87158	495283
6.87970	406779
6.88783	286712
6.89595	197427
6.90407	145655
6.91220	115194
6.92032	102234
6.92845	98897
6.93657	93769
6.94468	86480
6.95282	81357
6.96093	86844
6.96907	88885
6.97718	106030
6.98530	116769
6.99343	141869
7.00155	189543
7.00967	219213
7.01780	243449
7.02592	228338
7.03405	197545
7.04217	154387
7.05028	129905
7.05842	113125
7.06653	96940
7.07467	85021
7.08278	90697
7.09090	83972
7.09903	88743
7.10715	84924
7.11528	90304
7.12340	93923
7.13152	88686
7.13965	89693
7.14777	90690
7.15588	105117
7.16402	149115
7.17213	296172
7.18027	656908
7.18838	1134563
7.19650	1410717
7.20463	1241847
7.21275	846317
7.22088	486601
7.22900	275947
7.23712	184636
7.24525	162400
7.25337	154813
7.26148	156252
7.26962	147098
7.27773	136118
7.28587	117194
7.29398	107622
7.30210	109410
7.31023	113259
7.31835	109588
7.32648	110708
7.33460	105878
7.34272	98709
7.35085	100437
7.35897	116090
7.36710	142428
7.37522	165534
7.38333	196829
7.39147	194927
7.39958	180621
7.40770	149364
7.41583	128389
7.42395	113359
7.43208	105446
7.44020	97475
7.44832	100430
7.45645	88492
7.46457	102216
7.47270	110788
7.48082	122676
7.48893	136986
7.49707	138111
7.50518	131254
7.51330	119648
7.52143	102349
7.52955	92450
7.53768	78144
7.54580	85838
7.55392	83534
7.56205	87841
7.57017	95027
7.57830	101507
7.58642	109301
7.59453	102669
7.60267	93729
7.61078	82900
7.61892	84993
7.62703	78051
7.63515	73137
7.64328	69475
7.65140	69093
7.65952	74630
7.66765	74407
7.67577	66129
7.68390	65678
7.69202	67584
7.70013	63624
7.70827	65299
7.71638	66338
7.72452	66965
7.73263	66125
7.74075	64633
7.74888	66548
7.75700	62072
7.76513	66381
7.77325	64667
7.78137	58224
7.78950	60507
7.79762	59243
7.80573	58613
7.81387	60219
7.82198	62661
7.83012	59773
7.83823	60842
7.84635	55815
7.85448	56585
7.86260	59305
7.87073	59598
7.87885	58070
7.88697	61130
7.89510	60989
7.90322	61506
7.91133	63413
7.91947	62189
7.92758	66390
7.93572	76602
7.94383	80482
7.95195	80233
7.96008	86909
7.96820	78447
7.97633	71411
7.98445	63576
7.99257	62684
8.00070	56853
8.00882	56518
8.01695	55050
8.02507	57077
8.03318	54669
8.04132	51025
8.04943	48805
8.05755	52961
8.06568	55721
8.07380	48330
8.08193	53924
8.09005	52921
8.09817	53707
8.10630	50438
8.11442	49741
8.12255	51564
8.13067	49270
8.13878	57463
8.14692	59194
8.15503	64687
8.16317	62764
8.17128	58057
8.17940	56181
8.18753	51719
8.19565	50745
8.20377	52925
8.21190	53203
8.22002	51431
8.22815	49011
8.23627	48243
8.24438	49185
8.25252	52746
8.26063	49111
8.26877	48864
8.27688	48628
8.28500	49165
8.29313	47262
8.30125	49331
8.30937	49258
8.31750	52063
8.32562	52427
8.33375	49361
8.34187	57335
8.34998	57422
8.35812	51366
8.36623	55448
8.37437	54590
8.38248	50771
8.39060	48184
8.39873	48536
8.40685	44168
8.41498	51283
8.42310	46754
8.43122	46265
8.43935	47617
8.44747	48599
8.45558	50806
8.46372	45080
8.47183	44991
8.47997	44060
8.48808	49306
8.49620	51979
8.50433	75144
8.51245	128548
8.52058	204570
8.52870	263026
8.53682	261840
8.54495	209719
8.55307	147669
8.56118	102605
8.56932	81090
8.57743	75204
8.58557	64945
8.59368	62333
8.60180	64163
8.60993	58901
8.61805	52279
8.62618	59297
8.63430	55898
8.64242	55340
8.65055	56156
8.65867	53960
8.66680	49142
8.67492	51424
8.68303	48929
8.69117	50794
8.69928	54187
8.70740	59024
8.71553	62167
8.72365	71277
8.73178	89220
8.73990	114935
8.74802	151146
8.75615	179870
8.76427	162851
8.77240	142745
8.78052	111721
8.78863	96982
8.79677	92319
8.80488	92538
8.81302	84782
8.82113	83478
8.82925	74831
8.83738	71188
8.84550	65707
8.85362	69857
8.86175	69122
8.86987	66948
8.87800	64358
8.88612	62186
8.89423	61625
8.90237	61429
8.91048	62752
8.91862	63357
8.92673	67973
8.93485	70874
8.94298	66344
8.95110	60321
8.95922	59188
8.96735	58971
8.97547	65793
8.98360	56991
8.99172	57136
8.99983	56733
9.00797	55981
9.01608	57527
9.02422	57180
9.03233	57854
9.04045	53288
9.04858	52417
9.05670	55953
9.06483	50985
9.07295	55384
9.08107	52553
9.08920	53730
9.09732	52090
9.10543	58943
9.11357	51553
9.12168	59469
9.12982	56721
9.13793	54703
9.14605	52094
9.15418	56802
9.16230	53099
9.17043	50702
9.17855	54948
9.18667	48152
9.19480	49836
9.20292	49204
9.21105	48383
9.21917	44173
9.22728	47266
9.23542	43244
9.24353	45960
9.25165	45984
9.25978	47493
9.26790	50506
9.27603	51413
9.28415	51712
9.29227	52369
9.30040	53482
9.30852	51972
9.31665	50882
9.32477	54221
9.33288	52230
9.34102	53268
9.34913	56257
9.35725	56557
9.36538	55438
9.37350	47290
9.38163	47725
9.38975	47005
9.39787	44377
9.40600	44987
9.41412	43925
9.42225	47849
9.43037	46046
9.43848	54205
9.44662	47837
9.45473	53991
9.46287	46936
9.47098	47064
9.47910	44924
9.48723	45594
9.49535	45819
9.50347	47067
9.51160	50055
9.51972	57469
9.52785	57163
9.53597	55790
9.54408	51530
9.55222	49798
9.56033	48551
9.56847	44143
9.57658	42643
9.58470	41282
9.59283	39256
9.60095	39007
9.60908	41604
9.61720	39859
9.62532	39820
9.63345	43508
9.64157	42399
9.64968	43613
9.65782	42850
9.66593	46672
9.67407	42774
9.68218	39991
9.69030	36980
9.69843	37590
9.70655	35875
9.71468	35035
9.72280	31346
9.73092	35502
9.73905	33976
9.74717	33419
9.75528	31832
9.76342	31640
9.77153	34790
9.77967	34949
9.78778	33144
9.79590	32469
9.80403	31444
9.81215	34692
9.82028	31162
9.82840	32167
9.83652	35755
9.84465	33244
9.85277	37605
9.86090	33865
9.86902	32980
9.87713	35292
9.88527	32943
9.89338	32093
9.90150	34426
9.90963	33042
9.91775	33541
9.92588	36710
9.93400	40991
9.94212	47603
9.95025	55257
9.95837	53540
9.96650	57943
9.97462	54869
9.98273	51986
9.99087	50266
9.99898	43528
10.00710	41320
10.01523	39705
10.02335	37693
10.03148	34787
10.03960	36512
10.04772	35316
10.05585	36471
10.06397	41733
10.07210	34264
10.08022	34916
10.08833	39224
10.09647	36877
10.10458	35613
10.11272	29788
10.12083	33091
10.12895	31367
10.13708	34409
10.14520	33635
10.15332	32600
10.16145	31889
10.16957	33329
10.17770	32016
10.18582	29964
10.19393	31133
10.20207	30484
10.21018	32915
10.21832	32182
10.22643	34873
10.23455	36003
10.24268	41131
10.25080	58904
10.25893	112982
10.26705	246282
10.27517	518481
10.28330	959039
10.29142	1586574
10.29953	2575360
10.30767	4051874
10.31578	5723840
10.32392	6575279
10.33203	6022222
10.34015	4310548
10.34828	2544458
10.35640	1362310
10.36453	801109
10.37265	544366
10.38077	417027
10.38890	338831
10.39702	271587
10.40513	231175
10.41327	202395
10.42138	171661
10.42952	153756
10.43763	137343
10.44575	127890
10.45388	122238
10.46200	113579
10.47013	101703
10.47825	96050
10.48637	96005
10.49450	87007
10.50262	87488
10.51075	80756
10.51887	77028
10.52698	86733
10.53512	78819
10.54323	80839
10.55135	78234
10.55948	79195
10.56760	75932
10.57573	66148
10.58385	69493
10.59197	67403
10.60010	65222
10.60822	64796
10.61635	62222
10.62447	60019
10.63258	56905
10.64072	57220
10.64883	52573
10.65697	56495
10.66508	56516
10.67320	52991
10.68133	52507
10.68945	55045
10.69757	55391
10.70570	56226
10.71382	53694
10.72195	55769
10.73007	53782
10.73818	52977
10.74632	53190
10.75443	54370
10.76257	48216
10.77068	49421
10.77880	46382
10.78693	49533
10.79505	45558
10.80317	43952
10.81130	42112
10.81942	46133
10.82755	45926
10.83567	45816
10.84378	40945
10.85192	47296
10.86003	39831
10.86817	40858
10.87628	41494
10.88440	36481
10.89253	37366
10.90065	40846
10.90878	41128
10.91690	39219
10.92502	39235
10.93315	37743
10.94127	39420
10.94938	36627
10.95752	39338
10.96563	38669
10.97377	38257
10.98188	41371
10.99000	39872
10.99813	38677
11.00625	40407
11.01438	37907
11.02250	37162
11.03062	37469
11.03875	34548
11.04687	36772
11.05498	37073
11.06312	36397
11.07123	36847
11.07937	38469
11.08748	35695
11.09560	38147
11.10373	35031
11.11185	39247
11.11998	37269
11.12810	38468
11.13622	43258
11.14435	35602
11.15247	37140
11.16060	37973
11.16872	35303
11.17683	37090
11.18497	36091
11.19308	36801
11.20120	36596
11.20933	36499
11.21745	37172
11.22558	34527
11.23370	32582
11.24182	36261
11.24995	34222
11.25807	34591
11.26620	38180
11.27432	43002
11.28243	49210
11.29057	58615
11.29868	68842
11.30682	74886
11.31493	76060
11.32305	77584
11.33118	82853
11.33930	89493
11.34742	96196
11.35555	94807
11.36367	89682
11.37180	79770
11.37992	73971
11.38803	63936
11.39617	59429
11.40428	51892
11.41242	52984
11.42053	45211
11.42865	45334
11.43678	44691
11.44490	43752
11.45303	42028
11.46115	44811
11.46927	44175
11.47740	47977
11.48552	51831
11.49363	57172
11.50177	62482
11.50988	61272
11.51802	54876
11.52613	57653
11.53425	59194
11.54238	56117
11.55050	59437
11.55863	49145
11.56675	48258
11.57487	45281
11.58300	52317
11.59112	57104
11.59923	58773
11.60737	68791
11.61548	70013
11.62362	69695
11.63173	58426
11.63985	47954
11.64798	47568
11.65610	43217
11.66423	42528
11.67235	45812
11.68047	43523
11.68860	46251
11.69672	47797
11.70485	57955
11.71297	54645
11.72108	53606
11.72922	52594
11.73733	55075
11.74545	52249
11.75358	48187
11.76170	45773
11.76983	46362
11.77795	45245
11.78607	42320
11.79420	41625
11.80232	38784
11.81045	43468
11.81857	43900
11.82668	37724
11.83482	37211
11.84293	39480
11.85105	41403
11.85918	34093
11.86730	34046
11.87543	34731
11.88355	35140
11.89167	33127
11.89980	35084
11.90792	36973
11.91605	39410
11.92417	39113
11.93228	42587
11.94042	43512
11.94853	45017
11.95667	46241
11.96478	43047
11.97290	42498
11.98103	44408
11.98915	46973
11.99727	51115
12.00540	50646
12.01352	49737
12.02165	47560
12.02977	45688
12.03788	41288
12.04602	43259
12.05413	34019
12.06227	36095
12.07038	34036
12.07850	35838
12.08663	33909
12.09475	38130
12.10288	32365
12.11100	35627
12.11912	31325
12.12725	32674
12.13537	33176
12.14348	34817
12.15162	32054
12.15973	30495
12.16787	33389
12.17598	31921
12.18410	30047
12.19223	31916
12.20035	32506
12.20848	31912
12.21660	31468
12.22472	31476
12.23285	27939
12.24097	30201
12.24908	28539
12.25722	28674
12.26533	30044
12.27347	29052
12.28158	27676
12.28970	26941
12.29783	29614
12.30595	27182
12.31408	28995
12.32220	31117
12.33032	29198
12.33845	29780
12.34657	26566
12.35470	26522
12.36282	28685
12.37093	31119
12.37907	31191
12.38718	36159
12.39530	45165
12.40343	58913
12.41155	72465
12.41968	77198
12.42780	72339
12.43592	62442
12.44405	50453
12.45217	40717
12.46030	39288
12.46842	36350
12.47653	38206
12.48467	35288
12.49278	29831
12.50092	32985
12.50903	32104
12.51715	34865
12.52528	35922
12.53340	47609
12.54152	59991
12.54965	71459
12.55777	77683
12.56590	78111
12.57402	69741
12.58213	58341
12.59027	45732
12.59838	40938
12.60652	36798
12.61463	36659
12.62275	37971
12.63088	35825
12.63900	35252
12.64712	34117
12.65525	29091
12.66337	31119
12.67150	29865
12.67962	28397
12.68773	28734
12.69587	31226
12.70398	29345
12.71212	30469
12.72023	33342
12.72835	28702
12.73648	32644
12.74460	31058
12.75273	32338
12.76085	31845
12.76897	31431
12.77710	29785
12.78522	31608
12.79333	32725
12.80147	32508
12.80958	32592
12.81772	31807
12.82583	33218
12.83395	29890
12.84208	29650
12.85020	30480
12.85833	29151
12.86645	27879
12.87457	25646
12.88270	26939
12.89082	29836
12.89893	26101
12.90707	26159
12.91518	26901
12.92332	28060
12.93143	29714
12.93955	30806
12.94768	39000
12.95580	50482
12.96393	62267
12.97205	70961
12.98017	76355
12.98830	70822
12.99642	67463
13.00455	62121
13.01267	60781
13.02078	54673
13.02892	49288
13.03703	50112
13.04515	41504
13.05328	37135
13.06140	41893
13.06953	35838
13.07765	33640
13.08577	35076
13.09390	35417
13.10202	34973
13.11015	33936
13.11827	32122
13.12638	31355
13.13452	33632
13.14263	32753
13.15077	33275
13.15888	35115
13.16700	30494
13.17513	31111
13.18325	32698
13.19137	29173
13.19950	30941
13.20762	32167
13.21575	31236
13.22387	31167
13.23198	30493
13.24012	32398
13.24823	33267
13.25637	35111
13.26448	33892
13.27260	35867
13.28073	35010
13.28885	40025
13.29697	33474
13.30510	35779
13.31322	37013
13.32135	34990
13.32947	38647
13.33758	38685
13.34572	36132
13.35383	34684
13.36197	34154
13.37008	35928
13.37820	33860
13.38633	33804
13.39445	29978
13.40258	35391
13.41070	31010
13.41882	30244
13.42695	29207
13.43507	30064
13.44318	29954
13.45132	33030
13.45943	29004
13.46757	29378
13.47568	29878
13.48380	27071
13.49193	27525
13.50005	26763
13.50818	27636
13.51630	28085
13.52442	29878
13.53255	30385
13.54067	31388
13.54880	32102
13.55692	29117
13.56503	38591
13.57317	37108
13.58128	39153
13.58940	40802
13.59753	50960
13.60565	67186
13.61378	78287
13.62190	88390
13.63002	83390
13.63815	72358
13.64627	68896
13.65440	54721
13.66252	49123
13.67063	45803
13.67877	45554
13.68688	43647
13.69500	43665
13.70313	42138
13.71125	39118
13.71938	38548
13.72750	37145
13.73562	39533
13.74375	52378
13.75187	71382
13.76000	97043
13.76812	126020
13.77623	147420
13.78437	168188
13.79248	156201
13.80062	124562
13.80873	118049
13.81685	102567
13.82498	96328
13.83310	100966
13.84122	94431
13.84935	86978
13.85747	81123
13.86560	70215
13.87372	67601
13.88183	58475
13.88997	57203
13.89808	53840
13.90622	50502
13.91433	56358
13.92245	50622
13.93058	51443
13.93870	48080
13.94683	42886
13.95495	48850
13.96307	46291
13.97120	44301
13.97932	46007
13.98743	40304
13.99557	42602
14.00368	40053
14.01182	42668
14.01993	43835
14.02805	40046
14.03618	42866
14.04430	39496
14.05243	41220
14.06055	38384
14.06867	34928
14.07680	37171
14.08492	33305
14.09303	33173
14.10117	32253
14.10928	32613
14.11742	34981
14.12553	36461
14.13365	44129
14.14178	55494
14.14990	63042
14.15803	69074
14.16615	70220
14.17427	69013
14.18240	65594
14.19052	59029
14.19865	56608
14.20677	56223
14.21488	53959
14.22302	46661
14.23113	53571
14.23925	46945
14.24738	47689
14.25550	48862
14.26363	44855
14.27175	47506
14.27987	42063
14.28800	38942
14.29612	34033
14.30425	36727
14.31237	35654
14.32048	31477
14.32862	30964
14.33673	30963
14.34485	32052
14.35298	32637
14.36110	34507
14.36923	32948
14.37735	34996
14.38547	45898
14.39360	53893
14.40172	73444
14.40985	99212
14.41797	114296
14.42608	112924
14.43422	103258
14.44233	85848
14.45047	67586
14.45858	55464
14.46670	47989
14.47483	41350
14.48295	41460
14.49107	38843
14.49920	38840
14.50732	39818
14.51545	37273
14.52357	36904
14.53168	38619
14.53982	36177
14.54793	33296
14.55607	32644
14.56418	30765
14.57230	33436
14.58043	35858
14.58855	33378
14.59668	33073
14.60480	28469
14.61292	34169
14.62105	31091
14.62917	29002
14.63728	29849
14.64542	29000
14.65353	33227
14.66167	30290
14.66978	31497
14.67790	30319
14.68603	28236
14.69415	26475
14.70228	28419
14.71040	29582
14.71852	27856
14.72665	28103
14.73477	30990
14.74288	29100
14.75102	31361
14.75913	29322
14.76727	29444
14.77538	32124
14.78350	43962
14.79163	71746
14.79975	149645
14.80788	292090
14.81600	538180
14.82412	886800
14.83225	1053114
14.84037	980493
14.84850	713799
14.85662	479041
14.86473	313371
14.87287	217547
14.88098	168176
14.88910	128260
14.89723	114366
14.90535	100619
14.91348	97930
14.92160	90613
14.92972	79063
14.93785	74695
14.94597	68297
14.95410	61607
14.96222	67404
14.97033	62077
14.97847	61072
14.98658	57600
14.99472	56937
15.00283	57795
15.01095	53034
15.01908	50097
15.02720	49047
15.03532	46373
15.04345	47264
15.05157	43303
15.05970	43829
15.06782	42576
15.07593	41666
15.08407	42460
15.09218	41555
15.10032	38456
15.10843	38484
15.11655	37535
15.12468	42209
15.13280	52075
15.14092	45062
15.14905	45398
15.15717	41087
15.16530	36530
15.17342	38786
15.18153	34135
15.18967	32433
15.19778	34539
15.20592	35187
15.21403	31872
15.22215	34004
15.23028	33653
15.23840	33042
15.24653	31201
15.25465	31004
15.26277	30328
15.27090	30610
15.27902	30696
15.28713	29784
15.29527	31531
15.30338	28898
15.31152	29508
15.31963	29923
15.32775	31148
15.33588	28443
15.34400	30217
15.35213	31105
15.36025	25634
15.36837	28275
15.37650	29891
15.38462	28852
15.39273	32299
15.40087	29307
15.40898	30883
15.41712	28529
15.42523	28537
15.43335	26659
15.44148	29106
15.44960	28502
15.45773	30348
15.46585	31820
15.47397	31381
15.48210	32335
15.49022	37535
15.49835	42428
15.50647	40110
15.51458	44388
15.52272	41051
15.53083	38161
15.53895	36440
15.54708	32562
15.55520	30356
15.56333	32706
15.57145	30340
15.57957	28848
15.58770	29580
15.59582	31672
15.60395	32330
15.61207	25864
15.62018	27628
15.62832	33173
15.63643	29274
15.64457	26894
15.65268	26558
15.66080	25546
15.66893	24972
15.67705	25438
15.68517	28432
15.69330	27507
15.70142	29462
15.70955	28082
15.71767	27703
15.72578	30693
15.73392	33067
15.74203	31461
15.75017	40238
15.75828	48438
15.76640	60582
15.77453	86196
15.78265	91166
15.79078	96928
15.79890	84438
15.80702	78003
15.81515	58549
15.82327	49262
15.83138	41866
15.83952	35364
15.84763	35866
15.85577	38742
15.86388	36047
15.87200	41652
15.88013	40655
15.88825	37947
15.89638	39827
15.90450	40274
15.91262	38724
15.92075	39516
15.92887	35490
15.93698	35365
15.94512	33210
15.95323	33912
15.96137	34098
15.96948	34803
15.97760	36515
15.98573	36579
15.99385	34399
16.00198	38073
16.01010	35535
16.01822	38673
16.02635	37302
16.03447	37904
16.04260	36240
16.05072	36597
16.05883	33637
16.06697	28150
16.07508	32724
16.08320	32795
16.09133	28160
16.09945	30452
16.10758	30308
16.11570	29955
16.12382	36647
16.13195	30002
16.14007	29381
16.14820	35226
16.15632	29065
16.16443	26929
16.17257	24681
16.18068	29616
16.18880	28241
16.19693	28705
16.20505	28698
16.21318	28500
16.22130	27535
16.22942	27020
16.23755	27369
16.24567	28627
16.25380	28442
16.26192	27134
16.27003	26588
16.27817	24756
16.28628	26560
16.29442	29659
16.30253	33145
16.31065	28218
16.31878	29782
16.32690	26409
16.33502	26366
16.34315	29713
16.35127	29343
16.35940	28432
16.36752	29860
16.37563	31262
16.38377	29955
16.39188	29937
16.40002	27902
16.40813	27855
16.41625	27577
16.42438	29795
16.43250	29529
16.44063	35415
16.44875	36779
16.45687	50067
16.46500	71019
16.47312	85359
16.48123	91908
16.48937	90735
16.49748	75086
16.50562	61821
16.51373	50288
16.52185	46951
16.52998	39898
16.53810	36753
16.54623	35174
16.55435	35742
16.56247	35671
16.57060	37319
16.57872	33038
16.58683	32805
16.59497	32583
16.60308	36178
16.61122	35058
16.61933	31493
16.62745	32595
16.63558	32137
16.64370	31648
16.65183	30779
16.65995	28622
16.66807	31401
16.67620	28396
16.68432	29447
16.69245	32057
16.70057	33642
16.70868	27899
16.71682	29253
16.72493	29221
16.73305	29748
16.74118	27935
16.74930	28102
16.75743	31662
16.76555	30591
16.77367	33420
16.78180	28343
16.78992	29440
16.79805	27076
16.80617	29767
16.81428	23356
16.82242	27469
16.83053	26843
16.83867	27481
16.84678	27929
16.85490	29720
16.86303	27768
16.87115	24683
16.87927	28310
16.88740	25726
16.89552	27497
16.90365	24596
16.91177	28765
16.91988	24631
16.92802	26294
16.93613	26692
16.94427	20907
16.95238	26783
16.96050	27904
16.96863	27952
16.97675	26386
16.98487	30752
16.99300	28049
17.00112	26996
17.00925	24958
17.01737	27034
17.02548	28459
17.03362	25347
17.04173	27416
17.04987	27605
17.05798	32067
17.06610	28442
17.07423	28458
17.08235	28139
17.09048	30229
17.09860	29785
17.10672	31372
17.11485	31777
17.12297	27710
17.13108	32758
17.13922	35238
17.14733	33707
17.15547	29601
17.16358	27113
17.17170	25473
17.17983	25736
17.18795	27373
17.19608	25517
17.20420	24546
17.21232	24133
17.22045	26270
17.22857	26533
17.23668	27867
17.24482	28218
17.25293	29940
17.26107	25886
17.26918	26895
17.27730	25575
17.28543	26513
17.29355	24243
17.30168	28620
17.30980	24948
17.31792	26985
17.32605	29259
17.33417	31400
17.34230	29795
17.35042	30832
17.35853	33841
17.36667	32082
17.37478	30160
17.38290	34077
17.39103	34185
17.39915	32187
17.40728	32442
17.41540	32175
17.42352	30620
17.43165	29065
17.43977	28647
17.44790	28701
17.45602	29522
17.46413	28889
17.47227	27183
17.48038	27102
17.48852	26678
17.49663	25875
17.50475	27625
17.51288	33013
17.52100	31556
17.52912	35841
17.53725	35541
17.54537	39012
17.55350	47235
17.56162	52915
17.56973	59936
17.57787	76016
17.58598	94253
17.59412	105374
17.60223	118421
17.61035	118174
17.61848	98873
17.62660	87952
17.63472	71798
17.64285	59557
17.65097	51860
17.65910	45882
17.66722	45042
17.67533	46397
17.68347	50698
17.69158	42939
17.69972	44008
17.70783	39923
17.71595	40771
17.72408	38975
17.73220	35017
17.74033	39097
17.74845	33925
17.75657	33460
17.76470	36815
17.77282	32697
17.78093	33438
17.78907	35664
17.79718	32167
17.80532	33652
17.81343	34162
17.82155	34499
17.82968	39288
17.83780	37214
17.84593	39319
17.85405	38322
17.86217	38302
17.87030	38940
17.87842	38361
17.88655	35604
17.89467	32670
17.90278	32040
17.91092	32554
17.91903	29724
17.92715	30364
17.93528	30471
17.94340	29152
17.95153	28035
17.95965	26942
17.96777	28765
17.97590	29256
17.98402	32337
17.99215	30064
18.00027	36194
18.00838	33441
18.01652	37401
18.02463	42689
18.03275	40131
18.04088	41404
18.04900	38388
18.05713	37061
18.06525	44086
18.07337	46644
18.08150	46036
18.08962	55767
18.09775	87971
18.10587	133872
18.11398	179922
18.12212	215975
18.13023	235119
18.13837	259748
18.14648	267843
18.15460	279363
18.16273	276906
18.17085	286553
18.17897	288581
18.18710	291872
18.19522	285890
18.20335	284525
18.21147	283712
18.21958	282431
18.22772	282420
18.23583	274458
18.24397	267314
18.25208	264476
18.26020	261612
18.26833	250690
18.27645	256289
18.28458	257293
18.29270	243820
18.30082	239516
18.30895	225661
18.31707	232792
18.32518	229916
18.33332	235025
18.34143	209841
18.34957	206904
18.35768	208366
18.36580	214618
18.37393	205991
18.38205	199297
18.39018	195375
18.39830	192764
18.40642	192204
18.41455	190531
18.42267	182281
18.43078	180968
18.43892	180151
18.44703	182295
18.45517	191730
18.46328	203717
18.47140	209874
18.47953	203242
18.48765	194002
18.49578	185276
18.50390	175203
18.51202	170207
18.52015	158171
18.52827	148967
18.53640	149234
18.54452	137897
18.55263	142941
18.56077	138570
18.56888	134395
18.57700	132952
18.58513	135085
18.59325	129577
18.60138	131586
18.60950	128461
18.61762	128557
18.62575	127417
18.63387	121139
18.64200	120550
18.65012	113526
18.65823	115515
18.66637	112536
18.67448	106275
18.68260	109286
18.69073	105336
18.69885	101198
18.70698	100545
18.71510	96453
18.72322	96801
18.73135	99406
18.73947	93427
18.74760	90059
18.75572	90080
18.76383	94700
18.77197	85337
18.78008	88005
18.78822	86152
18.79633	93718
18.80445	84439
18.81258	83965
18.82070	79470
18.82882	80450
18.83695	78401
18.84507	78907
18.85320	77751
18.86132	73140
18.86943	77549
18.87757	72013
18.88568	75638
18.89382	74075
18.90193	69304
18.91005	74920
18.91818	72460
18.92630	71740
18.93443	75420
18.94255	69262
18.95067	75027
18.95880	72974
18.96692	69678
18.97503	70705
18.98317	62778
18.99128	62144
18.99942	63482
19.00753	62070
19.01565	59856
19.02378	64287
19.03190	55798
19.04003	59999
19.04815	55894
19.05627	59753
19.06440	63428
19.07252	68596
19.08063	76323
19.08877	78667
19.09688	88375
19.10502	88042
19.11313	87947
19.12125	78751
19.12938	76539
19.13750	74633
19.14563	73542
19.15375	70738
19.16187	74199
19.17000	68642
19.17812	61453
19.18625	58856
19.19437	59423
19.20248	58582
19.21062	57455
19.21873	51018
19.22685	56212
19.23498	58407
19.24310	50935
19.25123	53644
19.25935	48073
19.26747	50714
19.27560	52382
19.28372	50913
19.29185	50900
19.29997	50266
19.30808	49688
19.31622	48065
19.32433	49293
19.33247	46808
19.34058	47380
19.34870	52152
19.35683	49276
19.36495	55542
19.37307	54562
19.38120	54748
19.38932	52722
19.39745	48178
19.40557	48856
19.41368	50965
19.42182	53347
19.42993	54041
19.43807	63202
19.44618	68764
19.45430	74417
19.46243	67912
19.47055	67576
19.47867	56972
19.48680	52393
19.49492	47455
19.50305	47766
19.51117	45922
19.51928	43848
19.52742	46157
19.53553	42782
19.54367	44335
19.55178	44113
19.55990	39490
19.56803	43245
19.57615	38878
19.58428	39355
19.59240	38950
19.60052	40465
19.60865	45149
19.61677	51781
19.62488	54596
19.63302	66877
19.64113	82611
19.64927	113221
19.65738	120375
19.66550	122433
19.67363	120746
19.68175	107590
19.68988	100009
19.69800	90536
19.70612	75998
19.71425	67091
19.72237	61501
19.73048	53214
19.73862	52984
19.74673	52403
19.75487	49018
19.76298	49567
19.77110	44036
19.77923	47067
19.78735	46903
19.79548	51300
19.80360	46497
19.81172	46486
19.81985	47450
19.82797	42358
19.83610	43027
19.84422	46213
19.85233	48222
19.86047	56059
19.86858	81228
19.87670	104344
19.88483	154406
19.89295	191112
19.90108	214274
19.90920	206074
19.91732	185404
19.92545	147444
19.93357	117291
19.94170	96234
19.94982	85773
19.95793	71048
19.96607	69277
19.97418	69211
19.98232	66949
19.99043	68761
19.99855	63961
20.00668	59213
20.01480	56172
20.02292	58944
20.03105	55160
20.03917	52141
20.04730	50076
20.05542	48658
20.06353	48595
20.07167	50927
20.07978	49625
20.08792	50100
20.09603	44449
20.10415	49968
20.11228	45667
20.12040	45047
20.12853	42763
20.13665	42205
20.14477	43484
20.15290	43611
20.16102	46782
20.16913	51242
20.17727	46828
20.18538	44487
20.19352	47783
20.20163	45927
20.20975	48734
20.21788	46903
20.22600	57912
20.23413	70635
20.24225	79219
20.25037	90893
20.25850	101316
20.26662	92189
20.27473	93918
20.28287	77492
20.29098	72629
20.29912	59960
20.30723	57941
20.31535	48369
20.32348	45806
20.33160	43815
20.33973	39768
20.34785	40273
20.35597	43255
20.36410	37563
20.37222	40041
20.38035	38632
20.38847	39554
20.39658	39157
20.40472	42654
20.41283	49830
20.42095	49558
20.42908	50159
20.43720	46435
20.44533	45774
20.45345	42303
20.46157	37703
20.46970	38647
20.47782	39126
20.48595	35975
20.49407	33347
20.50218	34089
20.51032	36785
20.51843	37571
20.52655	30672
20.53468	36667
20.54280	39061
20.55093	37401
20.55905	35057
20.56717	37738
20.57530	38836
20.58342	34198
20.59155	37254
20.59967	35671
20.60778	32518
20.61592	34125
20.62403	34567
20.63217	37296
20.64028	29316
20.64840	34164
20.65653	31185
20.66465	33887
20.67277	33689
20.68090	31454
20.68902	30793
20.69715	34807
20.70527	29467
20.71338	32343
20.72152	32891
20.72963	32048
20.73777	34210
20.74588	31593
20.75400	35366
20.76213	33955
20.77025	39163
20.77838	41069
20.78650	44349
20.79462	50187
20.80275	59369
20.81087	66335
20.81898	67951
20.82712	68262
20.83523	66392
20.84337	55238
20.85148	44325
20.85960	40462
20.86773	35910
20.87585	37052
20.88398	38513
20.89210	33472
20.90022	32504
20.90835	35911
20.91647	37592
20.92458	33014
20.93272	32420
20.94083	31976
20.94897	31985
20.95708	31029
20.96520	32273
20.97333	33109
20.98145	33095
20.98958	29800
20.99770	28957
21.00582	32772
21.01395	31345
21.02207	31427
21.03020	28714
21.03832	31712
21.04643	32098
21.05457	32310
21.06268	32245
21.07080	29163
21.07893	31239
21.08705	32214
21.09518	32562
21.10330	31310
21.11142	29674
21.11955	36686
21.12767	34204
21.13580	33322
21.14392	44801
21.15203	48384
21.16017	52710
21.16828	55351
21.17642	44898
21.18453	42342
21.19265	37654
21.20078	34314
21.20890	32831
21.21702	35140
21.22515	33370
21.23327	32306
21.24140	31980
21.24952	33980
21.25763	33022
21.26577	36491
21.27388	39901
21.28202	43076
21.29013	45662
21.29825	42985
21.30638	41887
21.31450	45696
21.32262	46166
21.33075	44368
21.33887	41700
21.34700	44031
21.35512	48951
21.36323	44800
21.37137	42548
21.37948	43476
21.38762	44559
21.39573	47013
21.40385	46705
21.41198	45870
21.42010	47080
21.42823	43315
21.43635	42871
21.44447	43592
21.45260	44636
21.46072	40437
21.46883	46881
21.47697	45239
21.48508	43811
21.49322	42080
21.50133	47449
21.50945	45727
21.51758	43935
21.52570	45234
21.53383	45520
21.54195	48634
21.55007	41810
21.55820	45268
21.56632	50141
21.57443	55274
21.58257	61209
21.59068	62786
21.59882	72325
21.60693	65515
21.61505	65097
21.62318	64289
21.63130	54272
21.63943	51903
21.64755	47038
21.65567	46432
21.66380	43180
21.67192	44203
21.68005	44025
21.68817	39502
21.69628	43104
21.70442	39581
21.71253	41285
21.72065	37771
21.72878	35805
21.73690	37196
21.74503	37042
21.75315	35051
21.76127	42122
21.76940	40233
21.77752	45259
21.78565	50494
21.79377	50170
21.80188	48366
21.81002	47061
21.81813	43596
21.82627	41963
21.83438	38025
21.84250	34877
21.85063	35580
21.85875	35208
21.86687	42216
21.87500	37297
21.88312	32406
21.89125	35317
21.89937	32200
21.90748	32957
21.91562	31461
21.92373	34232
21.93187	31233
21.93998	28699
21.94810	31018
21.95623	34592
21.96435	43799
21.97247	62653
21.98060	78817
21.98872	87618
21.99685	91398
22.00497	101779
22.01308	98560
22.02122	104964
22.02933	102710
22.03747	105967
22.04558	105915
22.05370	109223
22.06183	107869
22.06995	109552
22.07808	103068
22.08620	110195
22.09432	106452
22.10245	107107
22.11057	104865
22.11868	100975
22.12682	95406
22.13493	102981
22.14307	101763
22.15118	95663
22.15930	99281
22.16743	95830
22.17555	97171
22.18368	96804
22.19180	94110
22.19992	88334
22.20805	86583
22.21617	88726
22.22430	83543
22.23242	89184
22.24053	82317
22.24867	78039
22.25678	78509
22.26490	72657
22.27303	69943
22.28115	72299
22.28928	79451
22.29740	78433
22.30552	71069
22.31365	70040
22.32177	68719
22.32990	70352
22.33802	65302
22.34613	67564
22.35427	62790
22.36238	60432
22.37050	60789
22.37863	62661
22.38675	64935
22.39488	65629
22.40300	64155
22.41112	70094
22.41925	72007
22.42737	65162
22.43550	61956
22.44362	60724
22.45173	58048
22.45987	59034
22.46798	55955
22.47612	56242
22.48423	57325
22.49235	62129
22.50048	59867
22.50860	55387
22.51672	55365
22.52485	49231
22.53297	50111
22.54110	48669
22.54922	49007
22.55733	46594
22.56547	47273
22.57358	48619
22.58172	46169
22.58983	41238
22.59795	38246
22.60608	37965
22.61420	39935
22.62232	38326
22.63045	39758
22.63857	43002
22.64670	38444
22.65482	38631
22.66293	41624
22.67107	39209
22.67918	43093
22.68732	41360
22.69543	44712
22.70355	43234
22.71168	45936
22.71980	46505
22.72793	48215
22.73605	46143
22.74417	44290
22.75230	40917
22.76042	41854
22.76853	40587
22.77667	39087
22.78478	42431
22.79292	41566
22.80103	39370
22.80915	45130
22.81728	44398
22.82540	47164
22.83353	43842
22.84165	41933
22.84977	42401
22.85790	37333
22.86602	41668
22.87415	42611
22.88227	43084
22.89038	53360
22.89852	57399
22.90663	80975
22.91475	92794
22.92288	113064
22.93100	116535
22.93913	117776
22.94725	110471
22.95537	101257
22.96350	85873
22.97162	81360
22.97975	68695
22.98787	71094
22.99598	66104
23.00412	59917
23.01223	57572
23.02035	52031
23.02848	48413
23.03660	49629
23.04473	50293
23.05285	42100
23.06097	40778
23.06910	40953
23.07722	42806
23.08535	42433
23.09347	41309
23.10158	41638
23.10972	45518
23.11783	38613
23.12597	40048
23.13408	36691
23.14220	36981
23.15033	37431
23.15845	38366
23.16657	37316
23.17470	36219
23.18282	36800
23.19095	37999
23.19907	36784
23.20718	36543
23.21532	34254
23.22343	36390
23.23157	34920
23.23968	35112
23.24780	36518
23.25593	38199
23.26405	35346
23.27218	36640
23.28030	36653
23.28842	37023
23.29655	31849
23.30467	34344
23.31278	34868
23.32092	35695
23.32903	36008
23.33717	36467
23.34528	40027
23.35340	42778
23.36153	47637
23.36965	45422
23.37778	43318
23.38590	43984
23.39402	40029
23.40215	41865
23.41027	38592
23.41838	41032
23.42652	36514
23.43463	33842
23.44277	35371
23.45088	32406
23.45900	33407
23.46713	34149
23.47525	35437
23.48338	34146
23.49150	34633
23.49962	32632
23.50775	31943
23.51587	32790
23.52400	32269
23.53212	30090
23.54023	32544
23.54837	33844
23.55648	35880
23.56460	39117
23.57273	39124
23.58085	42277
23.58898	50579
23.59710	55794
23.60522	52103
23.61335	51478
23.62147	50511
23.62960	44602
23.63772	46686
23.64583	43722
23.65397	42427
23.66208	40916
23.67022	42371
23.67833	43987
23.68645	37984
23.69458	38395
23.70270	37787
23.71082	39099
23.71895	41967
23.72707	60731
23.73520	93423
23.74332	163140
23.75143	311498
23.75957	592292
23.76768	1063571
23.77582	1646427
23.78393	1986251
23.79205	2116723
23.80018	1946537
23.80830	1620592
23.81642	1260946
23.82455	969397
23.83267	796923
23.84080	621566
23.84892	520005
23.85703	446046
23.86517	402508
23.87328	367184
23.88142	324921
23.88953	301624
23.89765	286086
23.90578	261596
23.91390	254053
23.92203	233339
23.93015	225248
23.93827	219409
23.94640	207994
23.95452	192439
23.96263	185081
23.97077	180428
23.97888	173988
23.98702	162631
23.99513	162336
24.00325	153910
24.01138	157187
24.01950	153440
24.02763	151755
24.03575	149239
24.04387	147331
24.05200	142244
24.06012	133217
24.06823	134784
24.07637	132487
24.08448	128936
24.09262	128051
24.10073	116971
24.10885	116575
24.11698	112719
24.12510	115201
24.13323	114706
24.14135	118432
24.14947	113675
24.15760	116833
24.16572	116356
24.17385	109923
24.18197	104627
24.19008	102252
24.19822	101130
24.20633	91470
24.21445	90753
24.22258	87514
24.23070	88368
24.23883	81755
24.24695	80555
24.25507	76979
24.26320	76774
24.27132	75896
24.27945	74368
24.28757	73772
24.29568	72842
24.30382	74000
24.31193	80148
24.32007	83677
24.32818	88515
24.33630	95911
24.34443	86283
24.35255	81851
24.36067	72462
24.36880	73809
24.37692	63786
24.38505	60379
24.39317	60226
24.40128	63164
24.40942	66272
24.41753	73741
24.42567	72629
24.43378	69326
24.44190	81037
24.45003	74564
24.45815	74716
24.46627	73622
24.47440	68755
24.48252	63052
24.49065	62046
24.49877	55899
24.50688	56548
24.51502	55444
24.52313	53866
24.53127	58494
24.53938	57501
24.54750	59505
24.55563	57132
24.56375	54525
24.57188	50529
24.58000	52019
24.58812	47814
24.59625	49211
24.60437	42522
24.61248	47464
24.62062	46136
24.62873	52653
24.63687	50527
24.64498	48480
24.65310	42816
24.66123	47474
24.66935	42673
24.67748	42085
24.68560	43397
24.69372	44203
24.70185	41886
24.70997	44349
24.71810	42034
24.72622	44294
24.73433	44588
24.74247	41106
24.75058	44404
24.75870	42662
24.76683	40739
24.77495	42558
24.78308	45416
24.79120	42107
24.79932	45815
24.80745	47569
24.81557	41597
24.82370	45860
24.83182	47362
24.83993	52285
24.84807	57442
24.85618	65214
24.86430	74315
24.87243	85960
24.88055	92241
24.88868	96203
24.89680	94947
24.90492	86028
24.91305	70260
24.92117	65816
24.92930	55941
24.93742	46674
24.94553	47083
24.95367	48195
24.96178	55137
24.96992	70053
24.97803	82845
24.98615	100717
24.99428	115262
25.00240	128717
25.01052	130776
25.01865	135899
25.02677	136518
25.03490	136998
25.04302	132805
25.05113	132127
25.05927	135632
25.06738	139753
25.07552	134737
25.08363	133874
25.09175	139347
25.09988	162806
25.10800	203744
25.11612	280626
25.12425	379173
25.13237	520018
25.14050	620364
25.14862	643231
25.15673	574613
25.16487	472825
25.17298	355132
25.18112	267490
25.18923	218565
25.19735	182179
25.20548	154457
25.21360	141802
25.22173	140608
25.22985	144469
25.23797	160931
25.24610	193477
25.25422	231774
25.26233	259685
25.27047	265177
25.27858	253307
25.28672	217459
25.29483	192317
25.30295	153518
25.31108	130568
25.31920	114762
25.32733	110444
25.33545	96260
25.34357	94530
25.35170	92920
25.35982	88001
25.36795	81534
25.37607	84263
25.38418	77081
25.39232	77348
25.40043	78726
25.40855	77812
25.41668	74791
25.42480	77890
25.43293	72082
25.44105	67314
25.44917	68678
25.45730	66522
25.46542	64652
25.47355	67896
25.48167	65817
25.48978	67362
25.49792	66296
25.50603	60546
25.51417	63576
25.52228	59689
25.53040	60233
25.53853	62359
25.54665	53091
25.55477	53484
25.56290	51724
25.57102	55092
25.57915	55735
25.58727	55362
25.59538	55447
25.60352	52046
25.61163	54252
25.61977	51706
25.62788	52741
25.63600	50881
25.64413	50023
25.65225	48122
25.66037	46081
25.66850	43561
25.67662	47545
25.68475	49460
25.69287	52683
25.70098	44524
25.70912	48735
25.71723	48052
25.72537	47029
25.73348	42457
25.74160	44836
25.74973	46667
25.75785	44707
25.76598	47216
25.77410	45182
25.78222	42307
25.79035	41552
25.79847	44155
25.80658	41527
25.81472	42795
25.82283	42754
25.83097	45913
25.83908	44932
25.84720	45625
25.85533	44602
25.86345	45010
25.87158	39777
25.87970	42202
25.88782	43300
25.89595	41264
25.90407	40156
25.91218	41492
25.92032	36294
25.92843	42025
25.93657	38345
25.94468	41668
25.95280	39346
25.96093	42569
25.96905	39679
25.97718	37770
25.98530	37966
25.99342	35230
26.00155	34850
26.00967	39423
26.01780	35721
26.02592	33246
26.03403	37494
26.04217	33916
26.05028	36265
26.05840	40109
26.06653	39282
26.07465	37386
26.08278	35329
26.09090	39799
26.09902	37773
26.10715	40986
26.11527	40107
26.12340	36981
26.13152	40187
26.13963	41486
26.14777	41772
26.15588	42625
26.16400	42431
26.17213	40549
26.18025	41373
26.18838	40508
26.19650	40870
26.20462	39333
26.21275	39356
26.22087	37720
26.22900	38387
26.23712	37446
26.24523	33741
26.25337	33232
26.26148	38651
26.26962	35465
26.27773	38122
26.28585	38668
26.29398	37241
26.30210	38218
26.31022	37528
26.31835	35787
26.32647	35742
26.33460	36765
26.34272	36109
26.35083	34316
26.35897	35835
26.36708	38370
26.37522	36383
26.38333	38406
26.39145	37990
26.39958	39097
26.40770	35462
26.41583	34764
26.42395	36539
26.43207	35258
26.44020	33279
26.44832	37689
26.45643	33134
26.46457	34643
26.47268	35791
26.48082	38693
26.48893	37382
26.49705	38127
26.50518	36442
26.51330	41329
26.52143	36075
26.52955	38175
26.53767	38461
26.54580	32267
26.55392	31891
26.56205	32348
26.57017	34905
26.57828	34843
26.58642	36290
26.59453	35343
26.60265	33281
26.61078	34162
26.61890	33455
26.62703	33449
26.63515	34310
26.64327	31481
26.65140	33082
26.65952	36951
26.66765	33570
26.67577	39558
26.68388	36780
26.69202	31654
26.70013	34715
26.70825	30935
26.71638	31493
26.72450	31351
26.73263	34259
26.74075	35513
26.74887	32814
26.75700	34362
26.76512	33910
26.77325	33153
26.78137	37674
26.78948	34020
26.79762	36179
26.80573	37396
26.81387	34872
26.82198	32180
26.83010	33612
26.83823	32294
26.84635	32744
26.85447	31357
26.86260	31212
26.87072	31290
26.87885	32741
26.88697	34197
26.89508	32236
26.90322	34144
26.91133	33381
26.91947	30607
26.92758	33680
26.93570	36865
26.94383	44229
26.95195	60329
26.96007	87161
26.96820	135085
26.97632	202283
26.98445	279161
26.99257	324270
27.00068	361914
27.00882	381554
27.01693	354091
27.02507	297206
27.03318	238816
27.04130	192833
27.04943	157290
27.05755	129969
27.06568	116882
27.07380	97032
27.08192	84660
27.09005	80324
27.09817	76657
27.10628	66723
27.11442	63086
27.12253	62271
27.13067	62920
27.13878	60116
27.14690	60417
27.15503	61972
27.16315	60737
27.17128	60928
27.17940	58605
27.18752	54850
27.19565	58610
27.20377	54781
27.21190	51913
27.22002	49125
27.22813	45382
27.23627	48499
27.24438	46038
27.25250	43637
27.26063	44314
27.26875	42373
27.27688	41876
27.28500	42691
27.29312	42722
27.30125	38320
27.30937	43187
27.31750	41027
27.32562	38068
27.33373	42797
27.34187	38551
27.34998	37071
27.35810	40341
27.36623	34196
27.37435	39541
27.38248	40733
27.39060	39449
27.39872	39797
27.40685	39629
27.41497	38501
27.42310	40876
27.43122	39618
27.43933	39869
27.44747	42045
27.45558	43088
27.46372	38545
27.47183	38717
27.47995	36732
27.48808	33279
27.49620	36609
27.50432	37051
27.51245	36937
27.52057	36123
27.52870	37477
27.53682	38150
27.54493	38508
27.55307	36293
27.56118	35041
27.56932	36369
27.57743	39782
27.58555	38075
27.59368	39206
27.60180	41641
27.60993	36460
27.61805	36947
27.62617	34168
27.63430	34714
27.64242	35961
27.65053	33119
27.65867	37182
27.66678	35886
27.67492	34926
27.68303	35857
27.69115	34365
27.69928	34142
27.70740	34629
27.71553	30761
27.72365	35179
27.73177	33671
27.73990	39236
27.74802	41722
27.75613	42649
27.76427	45441
27.77238	43607
27.78052	42908
27.78863	41192
27.79675	38069
27.80488	40736
27.81300	35538
27.82113	33288
27.82925	34088
27.83737	31829
27.84550	33667
27.85362	34244
27.86175	29982
27.86987	31512
27.87798	32574
27.88612	29114
27.89423	27257
27.90235	33574
27.91048	29853
27.91860	30699
27.92673	32941
27.93485	32576
27.94297	30596
27.95110	33925
27.95922	32634
27.96735	28523
27.97547	31825
27.98358	36187
27.99172	34207
27.99983	35930
28.00795	36864
28.01608	36228
28.02420	36673
28.03233	37472
28.04045	38800
28.04857	36833
28.05670	34464
28.06482	34994
28.07295	36218
28.08107	35630
28.08918	32775
28.09732	37596
28.10543	38889
28.11357	38532
28.12168	43660
28.12980	40728
28.13793	41567
28.14605	35763
28.15417	34374
28.16230	35401
28.17042	34397
28.17855	33446
28.18667	34859
28.19478	37785
28.20292	33298
28.21103	35881
28.21917	34420
28.22728	35546
28.23540	32334
28.24353	34650
28.25165	38601
28.25978	40457
28.26790	46069
28.27602	53569
28.28415	65977
28.29227	75619
28.30038	88476
28.30852	89687
28.31663	95490
28.32477	98471
28.33288	101553
28.34100	99747
28.34913	92954
28.35725	81244
28.36538	76442
28.37350	69653
28.38162	64253
28.38975	59716
28.39787	58568
28.40598	54053
28.41412	49843
28.42223	47510
28.43037	46859
28.43848	44799
28.44660	41952
28.45473	42324
28.46285	41436
28.47098	40520
28.47910	39708
28.48722	42861
28.49535	37229
28.50347	37130
28.51160	36354
28.51972	35905
28.52783	36973
28.53597	35058
28.54408	34028
28.55220	35894
28.56033	36947
28.56845	36232
28.57658	33569
28.58470	31321
28.59282	32711
28.60095	32587
28.60907	31309
28.61720	34641
28.62532	36909
28.63343	34902
28.64157	40558
28.64968	36278
28.65782	39854
28.66593	41199
28.67405	41322
28.68218	41401
28.69030	43988
28.69842	47026
28.70655	47981
28.71467	39325
28.72280	38682
28.73092	39668
28.73903	37634
28.74717	31782
28.75528	33510
28.76342	32423
28.77153	33440
28.77965	34152
28.78778	33463
28.79590	31471
28.80402	32710
28.81215	32829
28.82027	31826
28.82840	28937
28.83652	31049
28.84463	32289
28.85277	32613
28.86088	32381
28.86902	33035
28.87713	34279
28.88525	34603
28.89338	34100
28.90150	31492
28.90963	31768
28.91775	32878
28.92587	32353
28.93400	32927
28.94212	30785
28.95023	30705
28.95837	34741
28.96648	35219
28.97462	33056
28.98273	33306
28.99085	31901
28.99898	32955
29.00710	31962
29.01523	33253
29.02335	36493
29.03147	31223
29.03960	30678
29.04772	32336
29.05583	33741
29.06397	33758
29.07208	32374
29.08022	35300
29.08833	33676
29.09645	34738
29.10458	33461
29.11270	30781
29.12083	29159
29.12895	29713
29.13707	28969
29.14520	31332
29.15332	30823
29.16145	29435
29.16957	34870
29.17768	32959
29.18582	33987
29.19393	34488
29.20205	40353
29.21018	36667
29.21830	38567
29.22643	35171
29.23455	38579
29.24267	36629
29.25080	35423
29.25892	37542
29.26705	38625
29.27517	31193
29.28328	32659
29.29142	29261
29.29953	27568
29.30767	30964
29.31578	29572
29.32390	31178
29.33203	28702
29.34015	27677
29.34827	29838
29.35640	29519
29.36452	29097
29.37265	29521
29.38077	30266
29.38888	32563
29.39702	29899
29.40513	31671
29.41327	31893
29.42138	30566
29.42950	30406
29.43763	29223
29.44575	30957
29.45387	26466
29.46200	32124
29.47012	29171
29.47825	33374
29.48637	33030
29.49448	31680
29.50262	33591
29.51073	35592
29.51887	37968
29.52698	34557
29.53510	32897
29.54323	30296
29.55135	30156
29.55948	29271
29.56760	31429
29.57572	37262
29.58385	30800
29.59197	32310
29.60008	31120
29.60822	33966
29.61633	30622
29.62447	32133
29.63258	27332
29.64070	28910
29.64883	27235
29.65695	27369
29.66508	26151
29.67320	28834
29.68132	28447
29.68945	31097
29.69757	29805
29.70570	29686
29.71382	30525
29.72193	28666
29.73007	29131
29.73818	30715
29.74630	27175
29.75443	29344
29.76255	29032
29.77068	27078
29.77880	28975
29.78692	28015
29.79505	27418
29.80317	27916
29.81130	28858
29.81942	28663
29.82753	30760
29.83567	27729
29.84378	30215
29.85190	29141
29.86003	30748
29.86815	41425
29.87628	43236
29.88440	48744
29.89252	55331
29.90065	58357
29.90877	61812
29.91690	59161
29.92502	57835
29.93313	53553
29.94127	56399
29.94938	56399
29.95752	60105
29.96563	57387
29.97375	58506
29.98188	54130
29.99000	54801
29.99812	50095
30.00625	49278
30.01437	45961
30.02250	44530
30.03062	40832
30.03873	41381
30.04687	40291
30.05498	40599
30.06312	43296
30.07123	46143
30.07935	48478
30.08748	44393
30.09560	51520
30.10373	50281
30.11185	49038
30.11997	47162
30.12810	44284
30.13622	47792
30.14433	44133
30.15247	46241
30.16058	44607
30.16872	44909
30.17683	44965
30.18495	42632
30.19308	42154
30.20120	42506
30.20933	43384
30.21745	41781
30.22557	40077
30.23370	41999
30.24182	37536
30.24993	39133
30.25807	42128
30.26618	39575
30.27432	38677
30.28243	39334
30.29055	42592
30.29868	36741
30.30680	37121
30.31493	39056
30.32305	36403
30.33117	34760
30.33930	36811
30.34742	38014
30.35555	36426
30.36367	34807
30.37178	35019
30.37992	33318
30.38803	34284
30.39615	35514
30.40428	33487
30.41240	35283
30.42053	32066
30.42865	33466
30.43677	32999
30.44490	32649
30.45302	34050
30.46115	31218
30.46927	33436
30.47738	31342
30.48552	36201
30.49363	32831
30.50175	29844
30.50988	31736
30.51800	33510
30.52613	31510
30.53425	32361
30.54237	32584
30.55050	27788
30.55862	34471
30.56675	34392
30.57487	29697
30.58298	31885
30.59112	33956
30.59923	33367
30.60737	30672
30.61548	31694
30.62360	31584
30.63173	31244
30.63985	30465
30.64797	31012
30.65610	33597
30.66422	32770
30.67235	29571
30.68047	28135
30.68858	27683
30.69672	31345
30.70483	30609
30.71297	30103
30.72108	31185
30.72920	36612
30.73733	30757
30.74545	32171
30.75358	29821
30.76170	35010
30.76982	35241
30.77795	40405
30.78607	52719
30.79418	55830
30.80232	60689
30.81043	60120
30.81857	56683
30.82668	46544
30.83480	41325
30.84293	38261
30.85105	37396
30.85918	33836
30.86730	30951
30.87542	31288
30.88355	29874
30.89167	33027
30.89978	32256
30.90792	32402
30.91603	31513
30.92417	30563
30.93228	30461
30.94040	30513
30.94853	28854
30.95665	30482
30.96478	33088
30.97290	30371
30.98102	30979
30.98915	30316
30.99727	31610
31.00540	31653
31.01352	30112
31.02163	30384
31.02977	29160
31.03788	30174
31.04600	30312
31.05413	29136
31.06225	32529
31.07038	33408
31.07850	39382
31.08662	44169
31.09475	44392
31.10287	46580
31.11100	41747
31.11912	39821
31.12723	37507
31.13537	33615
31.14348	34272
31.15162	30825
31.15973	33543
31.16785	32633
31.17598	30239
31.18410	32193
31.19222	34165
31.20035	30658
31.20847	32508
31.21660	31869
31.22472	31882
31.23283	31634
31.24097	33760
31.24908	32962
31.25722	30862
31.26533	34932
31.27345	30164
31.28158	36623
31.28970	29811
31.29782	30616
31.30595	28741
31.31407	29781
31.32220	32971
31.33032	34263
31.33843	36022
31.34657	33455
31.35468	31022
31.36282	31010
31.37093	32506
31.37905	33360
31.38718	32007
31.39530	31634
31.40343	32776
31.41155	32725
31.41967	31242
31.42780	29485
31.43592	29946
31.44403	30346
31.45217	34031
31.46028	34630
31.46842	36050
31.47653	37868
31.48465	37918
31.49278	35464
31.50090	35956
31.50903	31179
31.51715	33563
31.52527	33951
31.53340	35050
31.54152	33579
31.54963	37593
31.55777	40475
31.56588	40311
31.57402	38757
31.58213	37925
31.59025	34198
31.59838	29945
31.60650	30139
31.61463	33688
31.62275	33115
31.63087	30849
31.63900	31935
31.64712	32058
31.65525	34663
31.66337	31248
31.67148	31934
31.67962	31039
31.68773	32165
31.69585	37100
31.70398	32014
31.71210	30273
31.72023	28715
31.72835	34378
31.73647	31560
31.74460	31436
31.75272	29983
31.76085	30863
31.76897	30984
31.77708	30779
31.78522	32888
31.79333	31506
31.80147	34220
31.80958	33002
31.81770	32041
31.82583	36025
31.83395	37072
31.84207	38466
31.85020	41680
31.85832	44331
31.86645	51357
31.87457	52075
31.88268	52534
31.89082	53020
31.89893	51022
31.90707	48983
31.91518	46388
31.92330	47959
31.93143	48237
31.93955	43488
31.94768	41030
31.95580	43103
31.96392	47576
31.97205	44975
31.98017	44383
31.98828	47439
31.99642	44874
32.00453	42451
32.01267	42752
32.02078	39757
32.02890	37506
32.03703	34823
32.04515	38855
32.05328	39177
32.06140	32139
32.06952	34382
32.07765	33942
32.08577	33727
32.09388	32469
32.10202	33277
32.11013	36883
32.11827	34099
32.12638	31293
32.13450	31873
32.14263	32471
32.15075	30860
32.15888	29144
32.16700	30689
32.17512	31009
32.18325	34200
32.19137	30818
32.19950	28116
32.20762	29913
32.21573	31318
32.22387	29705
32.23198	30646
32.24010	31692
32.24823	31682
32.25635	30813
32.26448	32700
32.27260	28885
32.28072	32858
32.28885	32604
32.29697	29581
32.30510	29427
32.31322	27657
32.32133	29597
32.32947	35999
32.33758	31752
32.34570	32614
32.35383	32956
32.36195	34267
32.37008	28673
32.37820	35853
32.38632	29982
32.39445	31536
32.40257	26975
32.41070	28913
32.41882	26959
32.42693	29577
32.43507	29809
32.44318	30485
32.45132	26800
32.45943	28261
32.46755	32834
32.47568	28926
32.48380	27778
32.49192	28106
32.50005	34696
32.50817	31200
32.51630	32696
32.52442	29045
32.53253	29018
32.54067	30026
32.54878	32291
32.55692	32667
32.56503	34125
32.57315	33417
32.58128	37069
32.58940	36009
32.59753	38538
32.60565	36477
32.61377	39178
32.62190	29844
32.63002	32878
32.63813	28966
32.64627	30783
32.65438	32151
32.66252	29157
32.67063	31611
32.67875	31747
32.68688	32860
32.69500	30414
32.70313	34677
32.71125	33345
32.71937	35028
32.72750	35746
32.73562	34807
32.74373	34076
32.75187	33108
32.75998	30762
32.76812	30646
32.77623	30933
32.78435	30283
32.79248	31602
32.80060	29895
32.80873	27554
32.81685	31340
32.82497	27658
32.83310	33954
32.84122	29863
32.84935	32052
32.85747	31375
32.86558	30204
32.87372	33367
32.88183	29390
32.88995	31277
32.89808	26238
32.90620	31000
32.91433	37533
32.92245	31398
32.93057	32223
32.93870	32913
32.94682	30323
32.95495	33515
32.96307	42067
32.97118	41604
32.97932	48282
32.98743	49749
32.99557	52596
33.00368	53367
33.01180	48485
33.01993	42373
33.02805	44050
33.03617	40507
33.04430	37032
33.05242	33912
33.06055	36931
33.06867	35126
33.07678	37227
33.08492	37607
33.09303	38383
33.10117	39960
33.10928	42388
33.11740	42192
33.12553	42888
33.13365	36752
33.14177	34968
33.14990	34825
33.15802	36546
33.16615	33733
33.17427	32210
33.18238	33854
33.19052	32207
33.19863	31043
33.20677	31307
33.21488	31594
33.22300	32445
33.23113	32829
33.23925	36621
33.24738	34613
33.25550	29264
33.26362	31008
33.27175	32782
33.27987	31274
33.28798	31822
33.29612	31420
33.30423	31029
33.31237	31620
33.32048	33931
33.32860	35936
33.33673	29829
33.34485	32891
33.35298	29547
33.36110	32804
33.36922	33393
33.37735	31394
33.38547	30750
33.39358	31268
33.40172	32184
33.40983	30834
33.41797	30042
33.42608	27953
33.43420	29420
33.44233	27487
33.45045	33016
33.45858	34578
33.46670	31989
33.47482	33757
33.48295	31216
33.49107	32712
33.49920	34335
33.50732	33997
33.51543	32280
33.52357	31722
33.53168	32804
33.53980	33105
33.54793	33109
33.55605	32912
33.56418	30361
33.57230	36780
33.58042	31779
33.58855	34834
33.59667	32306
33.60480	29862
33.61292	30249
33.62103	30394
33.62917	32000
33.63728	29166
33.64542	33939
33.65353	37304
33.66165	36477
33.66978	35350
33.67790	34630
33.68602	36466
33.69415	30383
33.70227	31387
33.71040	34098
33.71852	36484
33.72663	34158
33.73477	33105
33.74288	31605
33.75102	34214
33.75913	32700
33.76725	32654
33.77538	34379
33.78350	35595
33.79162	33174
33.79975	35667
33.80787	34660
33.81600	32909
33.82412	34416
33.83223	34996
33.84037	33684
33.84848	36636
33.85662	32991
33.86473	36072
33.87285	34814
33.88098	31369
33.88910	33504
33.89723	33302
33.90535	31032
33.91347	35863
33.92160	36456
33.92972	33188
33.93783	31433
33.94597	31736
33.95408	34957
33.96222	30338
33.97033	33825
33.97845	35293
33.98658	33147
33.99470	33298
34.00283	36162
34.01095	31172
34.01907	29974
34.02720	29424
34.03532	32820
34.04345	33354
34.05157	31418
34.05968	30732
34.06782	30033
34.07593	30563
34.08405	33441
34.09218	33609
34.10030	30768
34.10843	31837
34.11655	30032
34.12467	32004
34.13280	34296
34.14092	36842
34.14905	32392
34.15717	33228
34.16528	31263
34.17342	29287
34.18153	31269
34.18965	32018
34.19778	30899
34.20590	32418
34.21403	33939
34.22215	32141
34.23027	34537
34.23840	33285
34.24652	33422
34.25465	32687
34.26277	30403
34.27088	31147
34.27902	31795
34.28713	33531
34.29527	41062
34.30338	30481
34.31150	32557
34.31963	34127
34.32775	33614
34.33587	33020
34.34400	28565
34.35212	33496
34.36025	33852
34.36837	32939
34.37648	33528
34.38462	29689
34.39273	33386
34.40087	32516
34.40898	34499
34.41710	34522
34.42523	34785
34.43335	35491
34.44147	41123
34.44960	42336
34.45772	47109
34.46585	50334
34.47397	52325
34.48208	54502
34.49022	49169
34.49833	50977
34.50647	50787
34.51458	50926
34.52270	47604
34.53083	46087
34.53895	42869
34.54708	41180
34.55520	38229
34.56332	38421
34.57145	40243
34.57957	39197
34.58768	36973
34.59582	38984
34.60393	38003
34.61207	39736
34.62018	36357
34.62830	38496
34.63643	37548
34.64455	35562
34.65268	36022
34.66080	37249
34.66892	35542
34.67705	35253
34.68517	37559
34.69330	35882
34.70142	34398
34.70953	35694
34.71767	36787
34.72578	32893
34.73390	33198
34.74203	36567
34.75015	35545
34.75828	39148
34.76640	34147
34.77452	34919
34.78265	35673
34.79077	36256
34.79890	34037
34.80702	34861
34.81513	33549
34.82327	32898
34.83138	33236
34.83950	35797
34.84763	36372
34.85575	33987
34.86388	35577
34.87200	38530
34.88012	40149
34.88825	33928
34.89637	35630
34.90450	35354
34.91262	37539
34.92073	36968
34.92887	36057
34.93698	35359
34.94512	36987
34.95323	37583
34.96135	35676
34.96948	39096
34.97760	39336
34.98572	37339
34.99385	34958
35.00197	34155
35.01010	36376
35.01822	33127
35.02633	34408
35.03447	35247
35.04258	36995
35.05072	35678
35.05883	36088
35.06695	36633
35.07508	37759
35.08320	38056
35.09133	40030
35.09945	33428
35.10757	35869
35.11570	36389
35.12382	37443
35.13193	32921
35.14007	37516
35.14818	36289
35.15632	34237
35.16443	37808
35.17255	35006
35.18068	38227
35.18880	37378
35.19693	35664
35.20505	36286
35.21317	33804
35.22130	34115
35.22942	32498
35.23753	32734
35.24567	32356
35.25378	35444
35.26192	36710
35.27003	36089
35.27815	35061
35.28628	37932
35.29440	37347
35.30253	34879
35.31065	38717
35.31877	37431
35.32690	35305
35.33502	37915
35.34315	38004
35.35127	37494
35.35938	35534
35.36752	36512
35.37563	35772
35.38375	35572
35.39188	36669
35.40000	33956
35.40813	37186
35.41625	37932
35.42437	37520
35.43250	39404
35.44062	36598
35.44875	43694
35.45687	37570
35.46498	36836
35.47312	37008
35.48123	38318
35.48937	36407
35.49748	35336
35.50560	34083
35.51373	35836
35.52185	35934
35.52997	37938
35.53810	38215
35.54622	39520
35.55435	39837
35.56247	41448
35.57058	40271
35.57872	42455
35.58683	49219
35.59497	43972
35.60308	45457
35.61120	44417
35.61933	40240
35.62745	38180
35.63557	43225
35.64370	40697
35.65182	42089
35.65995	37622
35.66807	43397
35.67618	41631
35.68432	39935
35.69243	34824
35.70057	38156
35.70868	37462
35.71680	38758
35.72493	38890
35.73305	36845
35.74118	37830
35.74930	41168
35.75742	38736
35.76555	37984
35.77367	41472
35.78178	38591
35.78992	40874
35.79803	37057
35.80617	37051
35.81428	40601
35.82240	36784
35.83053	36974
35.83865	40226
35.84678	37316
35.85490	39498
35.86302	39972
35.87115	39163
35.87927	38918
35.88738	36202
35.89552	37479
35.90363	37786
35.91177	34396
35.91988	41908
35.92800	40765
35.93613	37348
35.94425	38344
35.95238	37029
35.96050	35757
35.96862	37951
35.97675	40213
35.98487	40484
35.99300	41697
36.00112	38524
36.00923	37304
36.01737	38206
36.02548	41359
36.03360	39864
36.04173	40093
36.04985	37558
36.05798	42478
36.06610	36932
36.07422	38500
36.08235	40376
36.09047	40223
36.09860	40000
36.10672	39660
36.11483	38926
36.12297	38131
36.13108	37790
36.13922	38761
36.14733	41001
36.15545	40863
36.16358	41502
36.17170	38581
36.17982	36496
36.18795	41383
36.19607	41413
36.20420	38619
36.21232	45762
36.22043	47930
36.22857	48255
36.23668	48616
36.24482	49243
36.25293	42262
36.26105	43982
36.26918	39535
36.27730	42165
36.28542	44500
36.29355	39610
36.30167	39984
36.30980	41355
36.31792	38717
36.32603	42565
36.33417	41714
36.34228	42891
36.35042	44472
36.35853	40429
36.36665	41036
36.37478	40587
36.38290	42247
36.39103	39253
36.39915	40441
36.40727	42834
36.41540	40616
36.42352	44812
36.43163	42078
36.43977	41199
36.44788	40364
36.45602	38963
36.46413	40923
36.47225	41843
36.48038	40969
36.48850	41383
36.49663	39818
36.50475	37957
36.51287	41579
36.52100	40466
36.52912	39191
36.53725	44942
36.54537	41854
36.55348	43287
36.56162	41894
36.56973	39849
36.57785	42475
36.58598	39840
36.59410	41352
36.60223	41223
36.61035	40917
36.61847	40185
36.62660	38876
36.63472	40291
36.64285	42369
36.65097	42863
36.65908	38332
36.66722	38336
36.67533	41790
36.68345	40129
36.69158	44461
36.69970	43586
36.70783	40222
36.71595	41286
36.72407	37940
36.73220	43798
36.74032	39816
36.74845	44307
36.75657	43700
36.76468	45742
36.77282	40872
36.78093	42095
36.78907	41464
36.79718	43849
36.80530	44223
36.81343	40919
36.82155	43372
36.82967	40968
36.83780	43297
36.84592	39883
36.85405	41323
36.86217	39763
36.87028	42827
36.87842	40003
36.88653	43018
36.89467	45487
36.90278	44503
36.91090	43713
36.91903	42457
36.92715	47003
36.93527	45972
36.94340	50402
36.95152	51546
36.95965	51476
36.96777	49038
36.97588	50924
36.98402	50778
36.99213	48869
37.00027	50810
37.00838	52904
37.01650	58199
37.02463	54729
37.03275	59046
37.04088	55264
37.04900	53397
37.05712	48662
37.06525	46539
37.07337	46123
37.08148	47798
37.08962	43426
37.09773	46009
37.10587	47768
37.11398	46692
37.12210	47752
37.13023	47651
37.13835	48696
37.14648	47201
37.15460	43947
37.16272	47558
37.17085	45038
37.17897	51012
37.18710	46690
37.19522	43228
37.20333	46379
37.21147	47230
37.21958	50727
37.22770	51777
37.23583	54324
37.24395	52316
37.25208	60000
37.26020	62099
37.26832	58671
37.27645	64156
37.28457	62867
37.29270	59640
37.30082	59958
37.30893	56703
37.31707	55441
37.32518	55565
37.33332	53252
37.34143	53808
37.34955	50963
37.35768	49744
37.36580	52048
37.37392	51313
37.38205	50770
37.39017	48442
37.39830	51763
37.40642	48300
37.41453	49123
37.42267	48303
37.43078	47499
37.43892	49713
37.44703	46344
37.45515	46343
37.46328	48273
37.47140	46712
37.47952	46443
37.48765	51583
