Z:\data\JTB-E02\BACandBLUE\JTB-E02-201-12.D Fri Mar 01 11:25:22 2019
Start of data points
2.09527	74069
2.10338	76847
2.11150	73744
2.11963	76584
2.12775	72870
2.13588	75726
2.14400	72399
2.15212	71275
2.16025	74674
2.16837	68839
2.17650	63231
2.18462	67269
2.19273	66724
2.20087	64282
2.20898	62986
2.21710	62274
2.22523	64169
2.23335	67974
2.24148	60274
2.24960	62336
2.25772	59153
2.26585	100368
2.27397	496727
2.28210	1086506
2.29022	1065172
2.29833	602830
2.30647	380849
2.31458	309850
2.32270	282474
2.33083	247874
2.33895	230765
2.34708	219398
2.35520	193562
2.36332	190143
2.37145	168378
2.37957	169155
2.38770	162347
2.39582	157905
2.40393	147557
2.41207	142029
2.42018	146657
2.42832	150248
2.43643	145700
2.44455	133059
2.45268	132027
2.46080	127117
2.46892	126141
2.47705	118883
2.48517	118106
2.49330	116167
2.50142	120322
2.50953	119348
2.51767	119145
2.52578	110771
2.53392	114259
2.54203	107329
2.55015	110226
2.55828	128056
2.56640	159150
2.57453	176117
2.58265	149747
2.59077	129760
2.59890	128976
2.60702	219583
2.61513	741472
2.62327	1347896
2.63138	1046063
2.63952	602397
2.64763	416388
2.65575	317833
2.66388	259559
2.67200	216432
2.68013	187119
2.68825	169002
2.69637	155151
2.70450	152428
2.71262	133984
2.72073	132525
2.72887	132941
2.73698	125979
2.74512	117599
2.75323	116575
2.76135	118962
2.76948	110192
2.77760	131323
2.78573	262433
2.79385	623664
2.80197	761927
2.81010	499611
2.81822	323637
2.82635	277637
2.83447	252616
2.84258	213259
2.85072	179695
2.85883	167415
2.86695	160302
2.87508	149044
2.88320	141913
2.89133	138684
2.89945	133447
2.90757	130203
2.91570	118970
2.92382	119682
2.93195	109668
2.94007	107584
2.94818	110151
2.95632	103804
2.96443	112090
2.97257	131306
2.98068	147690
2.98880	129504
2.99693	120964
3.00505	115749
3.01317	127644
3.02130	133892
3.02942	131111
3.03755	118347
3.04567	109466
3.05378	100432
3.06192	104122
3.07003	104195
3.07817	106692
3.08628	217585
3.09440	1030618
3.10253	3035330
3.11065	4960357
3.11877	6443778
3.12690	6766723
3.13502	4938783
3.14315	3301848
3.15127	2488232
3.15938	2004471
3.16752	1635106
3.17563	1384571
3.18377	1216731
3.19188	1155946
3.20000	1370516
3.20813	1802229
3.21625	1714418
3.22438	1351472
3.23250	1095078
3.24062	949005
3.24875	842585
3.25687	746546
3.26498	681199
3.27312	604619
3.28123	567219
3.28937	522587
3.29748	569316
3.30560	1002069
3.31373	2476977
3.32185	4641471
3.32998	5744705
3.33810	4888024
3.34622	3498260
3.35435	2545157
3.36247	1991749
3.37058	1646116
3.37872	1429309
3.38683	1244313
3.39497	1107648
3.40308	1034507
3.41120	949929
3.41933	885390
3.42745	828416
3.43558	758584
3.44370	720714
3.45182	693593
3.45995	620422
3.46807	600486
3.47620	577309
3.48432	569987
3.49243	572540
3.50057	534506
3.50868	509529
3.51680	482664
3.52493	463666
3.53305	458131
3.54118	438213
3.54930	448168
3.55742	442939
3.56555	418479
3.57367	408366
3.58180	486096
3.58992	606383
3.59803	647548
3.60617	538310
3.61428	451950
3.62242	400295
3.63053	393963
3.63865	370838
3.64678	357445
3.65490	346593
3.66302	335923
3.67115	455230
3.67927	1559623
3.68740	5365431
3.69552	1.032798E+07
3.70363	1.091504E+07
3.71177	7998056
3.71988	5507184
3.72802	4250717
3.73613	3548840
3.74425	3085184
3.75238	2673896
3.76050	2382957
3.76862	2166826
3.77675	1985315
3.78487	1847579
3.79300	1715991
3.80112	1619407
3.80923	1561251
3.81737	1833063
3.82548	2752956
3.83362	3804710
3.84173	3742896
3.84985	2983337
3.85798	2374100
3.86610	2053263
3.87423	1808029
3.88235	1646410
3.89047	1514288
3.89860	1403116
3.90672	1310770
3.91483	1261621
3.92297	1188516
3.93108	1183047
3.93922	1226946
3.94733	1291176
3.95545	1292259
3.96358	1742735
3.97170	3588617
3.97983	6306072
3.98795	7407887
3.99607	5972048
4.00420	4351251
4.01232	6300993
4.02045	1.546645E+07
4.02857	2.878402E+07
4.03668	3.439065E+07
4.04482	2.764126E+07
4.05293	1.661441E+07
4.06105	9842923
4.06918	6542782
4.07730	4904153
4.08543	3945500
4.09355	3266878
4.10167	2740890
4.10980	2343000
4.11792	2074587
4.12605	1860831
4.13417	1666496
4.14228	1533215
4.15042	1404053
4.15853	1343485
4.16665	1287172
4.17478	1232057
4.18290	1170935
4.19103	1122879
4.19915	1074807
4.20727	1003332
4.21540	953259
4.22352	1189877
4.23165	2616235
4.23977	6709064
4.24788	1.265423E+07
4.25602	1.626753E+07
4.26413	1.539629E+07
4.27227	1.106841E+07
4.28038	7227627
4.28850	5232758
4.29663	3969815
4.30475	3139681
4.31287	2589114
4.32100	2188880
4.32912	1906797
4.33725	1661783
4.34537	1496249
4.35348	1383386
4.36162	1259193
4.36973	1212946
4.37787	1167299
4.38598	1109403
4.39410	1065647
4.40223	1000803
4.41035	916744
4.41848	860308
4.42660	824194
4.43472	780793
4.44285	733396
4.45097	701979
4.45908	679660
4.46722	639633
4.47533	605390
4.48347	594173
4.49158	565539
4.49970	553703
4.50783	517899
4.51595	499839
4.52408	485973
4.53220	473529
4.54032	462106
4.54845	455425
4.55657	444213
4.56468	440654
4.57282	435175
4.58093	437785
4.58907	418822
4.59718	417992
4.60530	415701
4.61343	413343
4.62155	406671
4.62968	406923
4.63780	423139
4.64592	483514
4.65405	616437
4.66217	696472
4.67030	668316
4.67842	576321
4.68653	494557
4.69467	454813
4.70278	436750
4.71090	416223
4.71903	386980
4.72715	366954
4.73528	345193
4.74340	348434
4.75152	335016
4.75965	336973
4.76777	328628
4.77590	315082
4.78402	315495
4.79213	309628
4.80027	317845
4.80838	333076
4.81650	384882
4.82463	448772
4.83275	466260
4.84088	445061
4.84900	402907
4.85712	396360
4.86525	403306
4.87337	405391
4.88150	390761
4.88962	369381
4.89773	357089
4.90587	336698
4.91398	319054
4.92212	301722
4.93023	299519
4.93835	289941
4.94648	295179
4.95460	335998
4.96272	537293
4.97085	1081209
4.97897	2047317
4.98710	2907107
4.99522	3190345
5.00333	2715773
5.01147	2047706
5.01958	1485876
5.02772	1155271
5.03583	965342
5.04395	877351
5.05208	846270
5.06020	851836
5.06833	835232
5.07645	778165
5.08457	724672
5.09270	658326
5.10082	606768
5.10893	568668
5.11707	536755
5.12518	519902
5.13332	477574
5.14143	442708
5.14955	430224
5.15768	415063
5.16580	413812
5.17393	440811
5.18205	483961
5.19017	520230
5.19830	511195
5.20642	494406
5.21453	479885
5.22267	493912
5.23078	504678
5.23892	486187
5.24703	477902
5.25515	441740
5.26328	438821
5.27140	403202
5.27953	366076
5.28765	348093
5.29577	320622
5.30390	319348
5.31202	295395
5.32015	304016
5.32827	306472
5.33638	309496
5.34452	312222
5.35263	327462
5.36075	359553
5.36888	354482
5.37700	328059
5.38513	314967
5.39325	301589
5.40137	294179
5.40950	306288
5.41762	309707
5.42575	298007
5.43387	288927
5.44198	278461
5.45012	270593
5.45823	264923
5.46637	272942
5.47448	288052
5.48260	291786
5.49073	282905
5.49885	264216
5.50697	249490
5.51510	254102
5.52322	256375
5.53135	247882
5.53947	244214
5.54758	257618
5.55572	260945
5.56383	244820
5.57197	257136
5.58008	291566
5.58820	349806
5.59633	395240
5.60445	380359
5.61257	346934
5.62070	302256
5.62882	270200
5.63695	253271
5.64507	257626
5.65318	265261
5.66132	264997
5.66943	262471
5.67757	256740
5.68568	257669
5.69380	250309
5.70193	269919
5.71005	316893
5.71818	354805
5.72630	346535
5.73442	323111
5.74255	290117
5.75067	250918
5.75878	251393
5.76692	230503
5.77503	229178
5.78317	224013
5.79128	213128
5.79940	220652
5.80753	209042
5.81565	206145
5.82378	209898
5.83190	212473
5.84002	205585
5.84815	207467
5.85627	204832
5.86438	204966
5.87252	203940
5.88063	195790
5.88877	199857
5.89688	188016
5.90500	184364
5.91313	176024
5.92125	160757
5.92938	161016
5.93750	158050
5.94562	171205
5.95375	161381
5.96187	169423
5.97000	183252
5.97812	204699
5.98623	238581
5.99437	311278
6.00248	398652
6.01060	456035
6.01873	445548
6.02685	401097
6.03498	323256
6.04310	278652
6.05122	243193
6.05935	224460
6.06747	198825
6.07560	202092
6.08372	179839
6.09183	184396
6.09997	182743
6.10808	173094
6.11622	170650
6.12433	165851
6.13245	176570
6.14058	177937
6.14870	202898
6.15682	274752
6.16495	370900
6.17307	402005
6.18120	398600
6.18932	352073
6.19743	278536
6.20557	253404
6.21368	235499
6.22182	222335
6.22993	214688
6.23805	219150
6.24618	219173
6.25430	205883
6.26243	213693
6.27055	214708
6.27867	219809
6.28680	224197
6.29492	218022
6.30303	224072
6.31117	217459
6.31928	203591
6.32742	212243
6.33553	209042
6.34365	206955
6.35178	211737
6.35990	206796
6.36803	213616
6.37615	221988
6.38427	211410
6.39240	210989
6.40052	218282
6.40863	214991
6.41677	207645
6.42488	212758
6.43302	210597
6.44113	208088
6.44925	211132
6.45738	210144
6.46550	214390
6.47363	207445
6.48175	220914
6.48987	210165
6.49800	215210
6.50612	214944
6.51425	221657
6.52237	221810
6.53048	230531
6.53862	228569
6.54673	226575
6.55485	222726
6.56298	221590
6.57110	223057
6.57923	235005
6.58735	260915
6.59547	283840
6.60360	314946
6.61172	319969
6.61985	307338
6.62797	271864
6.63608	254581
6.64422	251861
6.65233	250936
6.66045	243054
6.66858	266302
6.67670	316203
6.68483	418030
6.69295	518121
6.70107	541759
6.70920	466095
6.71732	385415
6.72545	326212
6.73357	309080
6.74168	283634
6.74982	294162
6.75793	281798
6.76607	284737
6.77418	238103
6.78230	208863
6.79043	195663
6.79855	190527
6.80667	177936
6.81480	171026
6.82292	165360
6.83105	163459
6.83917	157371
6.84728	159014
6.85542	157600
6.86353	162171
6.87167	164630
6.87978	183939
6.88790	202289
6.89603	190093
6.90415	171091
6.91228	139821
6.92040	130307
6.92852	113317
6.93665	109293
6.94477	108578
6.95288	108908
6.96102	107043
6.96913	109693
6.97727	110267
6.98538	128949
6.99350	155156
7.00163	179849
7.00975	186540
7.01788	166029
7.02600	149632
7.03412	130599
7.04225	125328
7.05037	115399
7.05848	111860
7.06662	111396
7.07473	117038
7.08287	121259
7.09098	120064
7.09910	112722
7.10723	102404
7.11535	106749
7.12348	99277
7.13160	103308
7.13972	102566
7.14785	110295
7.15597	113128
7.16410	121912
7.17222	143377
7.18033	183762
7.18847	210434
7.19658	207448
7.20470	191791
7.21283	163261
7.22095	141195
7.22908	156044
7.23720	275120
7.24532	645516
7.25345	1362330
7.26157	2110043
7.26970	2424971
7.27782	2013414
7.28593	1312360
7.29407	790206
7.30218	506317
7.31032	339263
7.31843	232397
7.32655	172037
7.33468	138445
7.34280	129168
7.35092	128119
7.35905	125087
7.36717	115705
7.37530	112363
7.38342	113278
7.39153	111137
7.39967	108599
7.40778	107853
7.41592	110296
7.42403	112760
7.43215	110460
7.44028	104968
7.44840	98777
7.45652	96221
7.46465	98028
7.47277	98029
7.48090	102098
7.48902	94541
7.49713	99963
7.50527	91334
7.51338	99943
7.52152	90244
7.52963	98059
7.53775	121543
7.54588	169210
7.55400	253633
7.56213	388644
7.57025	522302
7.57837	625838
7.58650	632450
7.59462	566616
7.60273	428244
7.61087	312021
7.61898	221683
7.62712	191436
7.63523	150858
7.64335	128339
7.65148	120613
7.65960	108455
7.66773	106209
7.67585	95347
7.68397	97060
7.69210	96651
7.70022	92431
7.70833	89888
7.71647	88966
7.72458	85311
7.73272	84558
7.74083	93716
7.74895	84665
7.75708	86964
7.76520	87043
7.77333	77849
7.78145	84222
7.78957	82642
7.79770	83266
7.80582	96118
7.81395	94785
7.82207	109155
7.83018	112737
7.83832	107440
7.84643	104091
7.85455	95013
7.86268	89600
7.87080	81844
7.87893	90614
7.88705	92476
7.89517	93156
7.90330	97247
7.91142	100341
7.91955	99973
7.92767	86598
7.93578	92448
7.94392	119977
7.95203	162254
7.96017	225688
7.96828	314084
7.97640	323292
7.98453	301163
7.99265	224994
8.00077	171352
8.00890	135749
8.01702	110267
8.02515	104599
8.03327	92734
8.04138	94074
8.04952	92462
8.05763	86791
8.06577	90141
8.07388	89339
8.08200	78190
8.09013	78659
8.09825	76341
8.10637	79517
8.11450	79194
8.12262	75045
8.13075	74004
8.13887	78083
8.14698	76353
8.15512	83363
8.16323	98701
8.17137	102650
8.17948	112645
8.18760	99327
8.19573	97355
8.20385	88022
8.21198	80381
8.22010	68932
8.22822	75887
8.23635	75553
8.24447	72007
8.25258	71363
8.26072	65174
8.26883	65729
8.27697	64557
8.28508	69138
8.29320	62009
8.30133	64589
8.30945	68622
8.31758	72544
8.32570	76550
8.33382	77896
8.34195	79419
8.35007	79463
8.35820	73199
8.36632	76451
8.37443	72771
8.38257	69665
8.39068	78830
8.39880	77661
8.40693	75842
8.41505	69845
8.42318	69264
8.43130	64490
8.43942	69749
8.44755	64163
8.45567	64420
8.46380	61939
8.47192	63922
8.48003	61182
8.48817	63462
8.49628	61371
8.50440	60280
8.51253	66868
8.52065	64608
8.52878	65681
8.53690	67073
8.54502	79348
8.55315	102124
8.56127	185877
8.56940	288308
8.57752	401356
8.58563	412788
8.59377	350344
8.60188	243036
8.61002	164075
8.61813	126271
8.62625	105046
8.63438	104555
8.64250	95084
8.65062	93003
8.65875	85213
8.66687	84546
8.67500	83074
8.68312	82416
8.69123	81075
8.69937	76255
8.70748	79212
8.71562	73082
8.72373	75586
8.73185	78494
8.73998	69819
8.74810	70544
8.75623	65732
8.76435	69474
8.77247	76144
8.78060	97414
8.78872	176374
8.79683	345602
8.80497	612440
8.81308	880153
8.82122	986221
8.82933	883786
8.83745	662726
8.84558	470974
8.85370	323884
8.86183	262598
8.86995	232542
8.87807	230812
8.88620	224425
8.89432	195752
8.90243	187625
8.91057	186767
8.91868	177556
8.92682	163036
8.93493	156662
8.94305	153776
8.95118	151497
8.95930	164225
8.96743	179749
8.97555	186590
8.98367	184652
8.99180	177523
8.99992	160659
9.00805	157001
9.01617	143494
9.02428	147270
9.03242	131274
9.04053	126396
9.04865	126991
9.05678	120389
9.06490	112327
9.07303	118442
9.08115	108963
9.08927	109516
9.09740	111808
9.10552	110555
9.11365	121774
9.12177	114637
9.12988	138168
9.13802	131138
9.14613	142728
9.15425	135621
9.16238	127189
9.17050	118806
9.17863	112463
9.18675	111155
9.19487	107301
9.20300	100850
9.21112	99687
9.21925	95679
9.22737	102016
9.23548	94774
9.24362	105143
9.25173	91771
9.25987	91744
9.26798	99204
9.27610	92931
9.28423	96884
9.29235	91618
9.30047	88540
9.30860	91058
9.31672	82413
9.32485	87363
9.33297	85265
9.34108	85659
9.34922	83737
9.35733	81307
9.36547	81199
9.37358	82791
9.38170	79505
9.38983	84397
9.39795	79192
9.40608	80210
9.41420	86068
9.42232	85812
9.43045	91271
9.43857	94899
9.44668	113552
9.45482	120645
9.46293	131167
9.47107	125240
9.47918	113935
9.48730	103084
9.49543	95552
9.50355	89064
9.51168	82822
9.51980	82298
9.52792	87866
9.53605	94378
9.54417	100702
9.55228	101796
9.56042	107994
9.56853	92113
9.57667	83679
9.58478	81063
9.59290	77695
9.60103	83868
9.60915	88857
9.61728	87497
9.62540	83940
9.63352	65567
9.64165	67584
9.64977	63515
9.65790	57217
9.66602	57974
9.67413	55578
9.68227	52672
9.69038	55725
9.69850	54593
9.70663	58813
9.71475	55606
9.72288	55976
9.73100	56473
9.73912	55017
9.74725	53637
9.75537	55435
9.76350	56055
9.77162	58409
9.77973	53152
9.78787	52354
9.79598	54517
9.80412	52112
9.81223	49164
9.82035	53090
9.82848	52502
9.83660	58480
9.84472	50641
9.85285	53006
9.86097	54601
9.86910	50350
9.87722	54092
9.88533	55699
9.89347	63773
9.90158	60151
9.90972	58525
9.91783	53160
9.92595	53272
9.93408	52520
9.94220	52980
9.95032	60827
9.95845	75606
9.96657	91801
9.97470	111540
9.98282	129670
9.99093	127387
9.99907	120568
10.00718	105606
10.01532	92699
10.02343	84399
10.03155	85441
10.03968	80552
10.04780	84035
10.05593	78954
10.06405	70883
10.07217	63329
10.08030	64409
10.08842	64111
10.09653	59391
10.10467	65488
10.11278	70885
10.12092	65395
10.12903	64177
10.13715	69001
10.14528	58686
10.15340	60925
10.16153	61167
10.16965	54377
10.17777	61406
10.18590	56669
10.19402	57287
10.20213	52692
10.21027	58562
10.21838	52868
10.22652	52360
10.23463	54166
10.24275	52841
10.25088	58385
10.25900	66579
10.26713	60095
10.27525	66086
10.28337	102475
10.29150	210034
10.29962	519813
10.30775	1099357
10.31587	1919706
10.32398	2811908
10.33212	3956317
10.34023	5653080
10.34835	8208111
10.35648	1.088162E+07
10.36460	1.208063E+07
10.37273	1.059433E+07
10.38085	7365853
10.38897	4219403
10.39710	2180177
10.40522	1186657
10.41335	745714
10.42147	536954
10.42958	413389
10.43772	350818
10.44583	297008
10.45397	262007
10.46208	244644
10.47020	235544
10.47833	220022
10.48645	207412
10.49457	198171
10.50270	182634
10.51082	169092
10.51895	161895
10.52707	157611
10.53518	148175
10.54332	147628
10.55143	137749
10.55957	132976
10.56768	130167
10.57580	128259
10.58393	124992
10.59205	122556
10.60017	123767
10.60830	123772
10.61642	114759
10.62455	108616
10.63267	110796
10.64078	103567
10.64892	105551
10.65703	95510
10.66517	96784
10.67328	97426
10.68140	91690
10.68953	93242
10.69765	98449
10.70578	94250
10.71390	89538
10.72202	96174
10.73015	90470
10.73827	88794
10.74638	96222
10.75452	90579
10.76263	90219
10.77077	86986
10.77888	91105
10.78700	83755
10.79513	83680
10.80325	84453
10.81138	77749
10.81950	76644
10.82762	75459
10.83575	76494
10.84387	72483
10.85200	75281
10.86012	74924
10.86823	74539
10.87637	66618
10.88448	67864
10.89260	65687
10.90073	64941
10.90885	67742
10.91698	64683
10.92510	58067
10.93322	62051
10.94135	60401
10.94947	60539
10.95760	60744
10.96572	61061
10.97383	59490
10.98197	62497
10.99008	61403
10.99820	66430
11.00633	62980
11.01445	60863
11.02258	62846
11.03070	56927
11.03882	56388
11.04695	59932
11.05507	56347
11.06320	57299
11.07132	60131
11.07943	55384
11.08757	58663
11.09568	60326
11.10382	60681
11.11193	62010
11.12005	59492
11.12818	55352
11.13630	53401
11.14442	54156
11.15255	57721
11.16067	47820
11.16880	53759
11.17692	48896
11.18503	56767
11.19317	54923
11.20128	56934
11.20942	54518
11.21753	59462
11.22565	56150
11.23378	56514
11.24190	52972
11.25002	54689
11.25815	46554
11.26627	47418
11.27440	51013
11.28252	45478
11.29063	43507
11.29877	47988
11.30688	51678
11.31502	57234
11.32313	67844
11.33125	98435
11.33938	155812
11.34750	236491
11.35563	292989
11.36375	343704
11.37187	349866
11.38000	293896
11.38812	227453
11.39623	160925
11.40437	126145
11.41248	105787
11.42062	98169
11.42873	93717
11.43685	89851
11.44498	84638
11.45310	76827
11.46123	77150
11.46935	68478
11.47747	70897
11.48560	70481
11.49372	74256
11.50185	96274
11.50997	119961
11.51808	149754
11.52622	164008
11.53433	163690
11.54245	142038
11.55058	113956
11.55870	102065
11.56683	90913
11.57495	89739
11.58307	80586
11.59120	70745
11.59932	75392
11.60745	75571
11.61557	79787
11.62368	97700
11.63182	119873
11.63993	148423
11.64807	154303
11.65618	156100
11.66430	134998
11.67243	110962
11.68055	83220
11.68867	68178
11.69680	67959
11.70492	67520
11.71305	68057
11.72117	61244
11.72928	61813
11.73742	64517
11.74553	64300
11.75367	65943
11.76178	58764
11.76990	60953
11.77803	56129
11.78615	59297
11.79427	54838
11.80240	51209
11.81052	53469
11.81865	53316
11.82677	52110
11.83488	53240
11.84302	54655
11.85113	61399
11.85927	61440
11.86738	70682
11.87550	76703
11.88363	91232
11.89175	90195
11.89988	86482
11.90800	70715
11.91612	62014
11.92425	59232
11.93237	54335
11.94048	53818
11.94862	58052
11.95673	59080
11.96487	56099
11.97298	61044
11.98110	52473
11.98923	50369
11.99735	49890
12.00548	50871
12.01360	59056
12.02172	60019
12.02985	73783
12.03797	80721
12.04608	76776
12.05422	70160
12.06233	62141
12.07047	57257
12.07858	54659
12.08670	50760
12.09483	52808
12.10295	47772
12.11108	50515
12.11920	56445
12.12732	58645
12.13545	64740
12.14357	78772
12.15170	79836
12.15982	82237
12.16793	78878
12.17607	72040
12.18418	56871
12.19230	52057
12.20043	53832
12.20855	49259
12.21668	47085
12.22480	50323
12.23292	49402
12.24105	51125
12.24917	48907
12.25730	51093
12.26542	53745
12.27353	51764
12.28167	49367
12.28978	48331
12.29792	47101
12.30603	47392
12.31415	48339
12.32228	49520
12.33040	50815
12.33852	44701
12.34665	47103
12.35477	45273
12.36290	42299
12.37102	45988
12.37913	49997
12.38727	49562
12.39538	50750
12.40352	46969
12.41163	51089
12.41975	54376
12.42788	70885
12.43600	82453
12.44412	102829
12.45225	114709
12.46037	111762
12.46850	97209
12.47662	94978
12.48473	75877
12.49287	67948
12.50098	56380
12.50912	55944
12.51723	50699
12.52535	51588
12.53348	51921
12.54160	50230
12.54973	49681
12.55785	52142
12.56597	55815
12.57410	65025
12.58222	76652
12.59033	74986
12.59847	80859
12.60658	70848
12.61472	64522
12.62283	60360
12.63095	61003
12.63908	54404
12.64720	50529
12.65533	50131
12.66345	47324
12.67157	48439
12.67970	47653
12.68782	42731
12.69595	43457
12.70407	45832
12.71218	50548
12.72032	43721
12.72843	52268
12.73655	48719
12.74468	51091
12.75280	55762
12.76093	57776
12.76905	58782
12.77717	54188
12.78530	49414
12.79342	43651
12.80155	43512
12.80967	42537
12.81778	43035
12.82592	43672
12.83403	43057
12.84215	43079
12.85028	41160
12.85840	45449
12.86653	38368
12.87465	37386
12.88277	40634
12.89090	46117
12.89902	37255
12.90715	43374
12.91527	38006
12.92338	36667
12.93152	40517
12.93963	35577
12.94777	35111
12.95588	38457
12.96400	42035
12.97213	35282
12.98025	41094
12.98837	38706
12.99650	42312
13.00462	40183
13.01275	44015
13.02087	44723
13.02898	40531
13.03712	40720
13.04523	45227
13.05337	36706
13.06148	37584
13.06960	35425
13.07773	39393
13.08585	39772
13.09397	40416
13.10210	41342
13.11022	39047
13.11835	41912
13.12647	39017
13.13458	42114
13.14272	40311
13.15083	38419
13.15897	38057
13.16708	38294
13.17520	35609
13.18333	39047
13.19145	42968
13.19958	44198
13.20770	41256
13.21582	47661
13.22395	50145
13.23207	44033
13.24018	49465
13.24832	43875
13.25643	44294
13.26457	44163
13.27268	40602
13.28080	38381
13.28893	41786
13.29705	41244
13.30518	39806
13.31330	39503
13.32142	40254
13.32955	37182
13.33767	38250
13.34580	38505
13.35392	38440
13.36203	40755
13.37017	36982
13.37828	38067
13.38640	35951
13.39453	34546
13.40265	34965
13.41078	32377
13.41890	36407
13.42702	32164
13.43515	38914
13.44327	39804
13.45140	37004
13.45952	37282
13.46763	36590
13.47577	37307
13.48388	33082
13.49200	36636
13.50013	36038
13.50825	36441
13.51638	37133
13.52450	36616
13.53262	35114
13.54075	38578
13.54887	37206
13.55700	39985
13.56512	43219
13.57323	37667
13.58137	39740
13.58948	35734
13.59762	39345
13.60573	44033
13.61385	42706
13.62198	46356
13.63010	48253
13.63822	45987
13.64635	50893
13.65447	44587
13.66260	42234
13.67072	41135
13.67883	36896
13.68697	42511
13.69508	37384
13.70322	33809
13.71133	35456
13.71945	36884
13.72758	34863
13.73570	37293
13.74383	39080
13.75195	37864
13.76007	38004
13.76820	49445
13.77632	62482
13.78443	90668
13.79257	124709
13.80068	157356
13.80882	175206
13.81693	180103
13.82505	192341
13.83318	179732
13.84130	193109
13.84943	188174
13.85755	208301
13.86567	196398
13.87380	170390
13.88192	145110
13.89003	115679
13.89817	105515
13.90628	84449
13.91442	76201
13.92253	73213
13.93065	67017
13.93878	58269
13.94690	56952
13.95503	55444
13.96315	52657
13.97127	59137
13.97940	68164
13.98752	90516
13.99565	118488
14.00377	150259
14.01188	157160
14.02002	135632
14.02813	122223
14.03625	98661
14.04438	78797
14.05250	64987
14.06063	63048
14.06875	60564
14.07687	57522
14.08500	59961
14.09312	57957
14.10125	54033
14.10937	57238
14.11748	50630
14.12562	51610
14.13373	49406
14.14187	50076
14.14998	44778
14.15810	46692
14.16623	52101
14.17435	55509
14.18247	55871
14.19060	57684
14.19872	58464
14.20685	68228
14.21497	97839
14.22308	132475
14.23122	173915
14.23933	214095
14.24747	218856
14.25558	217665
14.26370	191210
14.27183	169803
14.27995	162632
14.28807	145893
14.29620	123675
14.30432	118617
14.31245	101731
14.32057	94728
14.32868	93087
14.33682	89461
14.34493	80673
14.35307	81056
14.36118	79489
14.36930	77314
14.37743	71519
14.38555	62216
14.39368	61189
14.40180	51153
14.40992	47159
14.41805	50992
14.42617	55560
14.43428	60196
14.44242	64120
14.45053	66800
14.45867	68707
14.46678	59565
14.47490	52665
14.48303	51991
14.49115	50189
14.49928	47895
14.50740	52053
14.51552	47252
14.52365	49554
14.53177	45709
14.53988	52026
14.54802	48388
14.55613	50549
14.56427	46968
14.57238	48461
14.58050	50636
14.58863	45930
14.59675	39138
14.60488	41175
14.61300	40951
14.62112	38205
14.62925	39191
14.63737	39392
14.64550	43009
14.65362	41596
14.66173	38529
14.66987	39853
14.67798	42441
14.68610	35843
14.69423	37117
14.70235	35711
14.71048	41443
14.71860	38554
14.72672	41840
14.73485	39682
14.74297	39732
14.75110	38338
14.75922	41463
14.76733	38968
14.77547	38290
14.78358	40065
14.79172	42000
14.79983	47970
14.80795	68143
14.81608	160172
14.82420	406725
14.83232	1025201
14.84045	1991099
14.84857	3157502
14.85670	3867413
14.86482	3879195
14.87293	3103179
14.88107	2124345
14.88918	1311368
14.89732	781304
14.90543	518426
14.91355	397192
14.92168	323538
14.92980	276421
14.93792	249430
14.94605	218875
14.95417	208098
14.96230	195040
14.97042	180844
14.97853	165770
14.98667	159546
14.99478	155143
15.00292	139921
15.01103	128423
15.01915	126926
15.02728	121025
15.03540	123101
15.04353	115450
15.05165	109240
15.05977	107043
15.06790	102480
15.07602	94983
15.08413	93507
15.09227	89369
15.10038	87050
15.10852	90137
15.11663	86273
15.12475	80420
15.13288	84580
15.14100	86366
15.14913	91151
15.15725	86702
15.16537	100205
15.17350	98522
15.18162	90331
15.18975	78403
15.19787	74179
15.20598	63777
15.21412	57115
15.22223	52907
15.23035	52424
15.23848	53860
15.24660	52000
15.25473	49208
15.26285	48592
15.27097	49356
15.27910	46069
15.28722	52110
15.29535	51609
15.30347	47432
15.31158	47578
15.31972	45271
15.32783	45875
15.33595	41735
15.34408	39017
15.35220	43680
15.36033	42015
15.36845	40492
15.37657	41906
15.38470	39624
15.39282	42644
15.40095	43794
15.40907	45631
15.41718	42812
15.42532	42278
15.43343	45508
15.44157	46708
15.44968	42764
15.45780	44870
15.46593	43474
15.47405	43325
15.48217	46532
15.49030	53049
15.49842	61590
15.50655	69338
15.51467	80818
15.52278	87529
15.53092	94120
15.53903	83381
15.54717	77523
15.55528	74553
15.56340	67992
15.57153	64976
15.57965	61795
15.58777	51792
15.59590	49366
15.60402	49159
15.61215	47769
15.62027	45837
15.62838	46918
15.63652	48507
15.64463	47474
15.65277	42175
15.66088	43354
15.66900	45473
15.67713	42116
15.68525	41810
15.69338	40790
15.70150	41648
15.70962	42215
15.71775	38710
15.72587	38707
15.73398	38990
15.74212	40815
15.75023	41832
15.75837	41427
15.76648	46302
15.77460	58488
15.78273	84059
15.79085	126087
15.79898	197785
15.80710	253849
15.81522	275205
15.82335	265258
15.83147	218066
15.83960	160361
15.84772	116704
15.85583	91285
15.86397	79820
15.87208	77398
15.88020	65606
15.88833	58718
15.89645	62946
15.90458	56417
15.91270	55507
15.92082	54148
15.92895	54705
15.93707	52521
15.94520	52374
15.95332	50664
15.96143	49298
15.96957	51768
15.97768	53273
15.98582	63026
15.99393	69660
16.00205	71559
16.01018	73352
16.01830	69263
16.02642	78873
16.03455	79188
16.04267	74848
16.05080	80088
16.05892	73301
16.06703	72302
16.07517	64091
16.08328	56176
16.09142	53060
16.09953	49446
16.10765	54146
16.11578	47554
16.12390	48178
16.13202	43668
16.14015	48552
16.14827	51079
16.15640	54529
16.16452	51160
16.17263	51795
16.18077	54500
16.18888	51723
16.19702	49956
16.20513	45140
16.21325	47084
16.22138	46526
16.22950	47279
16.23763	47860
16.24575	45084
16.25387	46753
16.26200	44694
16.27012	43539
16.27823	40793
16.28637	49493
16.29448	46801
16.30262	47661
16.31073	49767
16.31885	50553
16.32698	54366
16.33510	48958
16.34323	45826
16.35135	47663
16.35947	45282
16.36760	49102
16.37572	63115
16.38383	69829
16.39197	90395
16.40008	83870
16.40822	85579
16.41633	77007
16.42445	71864
16.43258	60869
16.44070	58373
16.44883	52233
16.45695	57243
16.46507	78468
16.47320	127208
16.48132	249901
16.48945	442737
16.49757	689077
16.50568	842332
16.51382	821558
16.52193	650040
16.53005	452146
16.53818	289856
16.54630	185715
16.55443	134016
16.56255	116865
16.57067	106629
16.57880	89976
16.58692	86407
16.59505	82501
16.60317	78102
16.61128	81984
16.61942	78341
16.62753	79009
16.63567	80476
16.64378	78313
16.65190	78995
16.66003	71998
16.66815	69008
16.67627	62227
16.68440	59062
16.69252	57254
16.70065	55143
16.70877	54000
16.71688	55619
16.72502	54630
16.73313	48052
16.74127	46955
16.74938	44797
16.75750	49654
16.76563	50800
16.77375	56691
16.78187	56708
16.79000	60701
16.79812	58501
16.80625	54886
16.81437	52444
16.82248	52201
16.83062	43101
16.83873	44313
16.84687	40688
16.85498	40418
16.86310	40013
16.87123	40816
16.87935	44986
16.88748	44850
16.89560	42581
16.90372	40148
16.91185	41126
16.91997	38270
16.92808	40172
16.93622	39581
16.94433	41485
16.95247	39556
16.96058	42511
16.96870	37642
16.97683	38981
16.98495	43990
16.99308	43057
17.00120	42843
17.00932	37315
17.01745	41910
17.02557	40011
17.03370	41599
17.04182	43328
17.04993	44598
17.05807	44684
17.06618	43088
17.07430	49654
17.08243	49415
17.09055	49113
17.09868	47438
17.10680	45638
17.11492	40932
17.12305	42509
17.13117	43368
17.13930	38414
17.14742	41922
17.15553	40080
17.16367	43028
17.17178	41871
17.17990	44498
17.18803	39177
17.19615	42102
17.20428	40817
17.21240	40027
17.22052	37452
17.22865	38029
17.23677	39891
17.24490	39080
17.25302	34899
17.26113	39614
17.26927	42758
17.27738	40319
17.28552	41373
17.29363	42274
17.30175	40270
17.30988	41789
17.31800	40546
17.32612	46306
17.33425	46193
17.34237	43923
17.35050	48594
17.35862	52156
17.36673	58856
17.37487	65592
17.38298	57259
17.39112	62889
17.39923	53926
17.40735	54887
17.41548	53912
17.42360	52144
17.43172	55037
17.43985	52897
17.44797	48796
17.45610	47979
17.46422	50517
17.47233	46099
17.48047	47471
17.48858	41004
17.49672	47518
17.50483	42284
17.51295	41966
17.52108	41697
17.52920	41643
17.53733	44925
17.54545	44467
17.55357	42893
17.56170	44467
17.56982	48132
17.57793	54498
17.58607	80183
17.59418	119803
17.60232	191787
17.61043	290522
17.61855	404422
17.62668	489025
17.63480	505711
17.64293	458132
17.65105	354602
17.65917	284461
17.66730	249184
17.67542	246724
17.68355	255980
17.69167	261758
17.69978	238353
17.70792	201043
17.71603	166137
17.72415	133904
17.73228	109045
17.74040	94085
17.74853	84969
17.75665	78628
17.76477	81654
17.77290	73114
17.78102	63666
17.78915	67554
17.79727	69604
17.80538	65406
17.81352	67765
17.82163	81558
17.82975	99471
17.83788	127149
17.84600	149592
17.85413	157855
17.86225	147418
17.87037	146594
17.87850	119645
17.88662	104405
17.89475	97761
17.90287	84797
17.91098	76210
17.91912	65147
17.92723	65604
17.93537	57576
17.94348	57333
17.95160	59929
17.95973	57361
17.96785	54578
17.97597	48743
17.98410	48054
17.99222	48188
18.00035	49197
18.00847	48304
18.01658	49671
18.02472	50144
18.03283	54628
18.04097	62682
18.04908	73676
18.05720	82662
18.06533	92873
18.07345	130829
18.08158	232057
18.08970	450772
18.09782	798946
18.10595	1263427
18.11407	1618306
18.12218	1694311
18.13032	1545143
18.13843	1234925
18.14657	913224
18.15468	686214
18.16280	533178
18.17093	455539
18.17905	394364
18.18718	347250
18.19530	321027
18.20342	291214
18.21155	263333
18.21967	237850
18.22778	231405
18.23592	201938
18.24403	189260
18.25217	182621
18.26028	169387
18.26840	161180
18.27653	154195
18.28465	134235
18.29278	123573
18.30090	105198
18.30902	87225
18.31715	71457
18.32527	66855
18.33340	62169
18.34152	56505
18.34963	58064
18.35777	61314
18.36588	55196
18.37400	55965
18.38213	48950
18.39025	52035
18.39838	50893
18.40650	48093
18.41462	56006
18.42275	51038
18.43087	56885
18.43900	58562
18.44712	60139
18.45523	64913
18.46337	68893
18.47148	88351
18.47960	113214
18.48773	145350
18.49585	169839
18.50398	195791
18.51210	187185
18.52022	171330
18.52835	135184
18.53647	110929
18.54460	94726
18.55272	77948
18.56083	65930
18.56897	63112
18.57708	61968
18.58522	61579
18.59333	59527
18.60145	56840
18.60958	60570
18.61770	54951
18.62582	59436
18.63395	59258
18.64207	62226
18.65020	56449
18.65832	60024
18.66643	53487
18.67457	55439
18.68268	51345
18.69082	49885
18.69893	47293
18.70705	45136
18.71518	42722
18.72330	43405
18.73143	44510
18.73955	41300
18.74767	48060
18.75580	44440
18.76392	50765
18.77203	77564
18.78017	110530
18.78828	156235
18.79642	172813
18.80453	195270
18.81265	198592
18.82078	207538
18.82890	210705
18.83703	213941
18.84515	208325
18.85327	211818
18.86140	216427
18.86952	218714
18.87763	217620
18.88577	221560
18.89388	218698
18.90202	220324
18.91013	216477
18.91825	223755
18.92638	220227
18.93450	227798
18.94263	225480
18.95075	224308
18.95887	228069
18.96700	231446
18.97512	234911
18.98325	231426
18.99137	228823
18.99948	233516
19.00762	221565
19.01573	223273
19.02385	219131
19.03198	214948
19.04010	208093
19.04823	210804
19.05635	218448
19.06447	209692
19.07260	201962
19.08072	206689
19.08885	216706
19.09697	212500
19.10508	232973
19.11322	235647
19.12133	240521
19.12947	246248
19.13758	236452
19.14570	234216
19.15383	223723
19.16195	208880
19.17007	213305
19.17820	201158
19.18632	207573
19.19445	204776
19.20257	211424
19.21068	201722
19.21882	198288
19.22693	201560
19.23507	194632
19.24318	196140
19.25130	187396
19.25943	186084
19.26755	185170
19.27567	178432
19.28380	189346
19.29192	192084
19.30005	192402
19.30817	198542
19.31628	198628
19.32442	186705
19.33253	188560
19.34067	188440
19.34878	181370
19.35690	188551
19.36503	184587
19.37315	190631
19.38128	205899
19.38940	211958
19.39752	221890
19.40565	229528
19.41377	212185
19.42188	199867
19.43002	183733
19.43813	175799
19.44627	179924
19.45438	173646
19.46250	167031
19.47063	164240
19.47875	165391
19.48688	168389
19.49500	160321
19.50312	168251
19.51125	179831
19.51937	212925
19.52750	244045
19.53562	288496
19.54373	286112
19.55187	274417
19.55998	234946
19.56810	198924
19.57623	182634
19.58435	166167
19.59248	151644
19.60060	150126
19.60872	153924
19.61685	146227
19.62497	145234
19.63310	141151
19.64122	146411
19.64933	157561
19.65747	186459
19.66558	247608
19.67370	334708
19.68183	428454
19.68995	506707
19.69808	518117
19.70620	486291
19.71432	433405
19.72245	364358
19.73057	319445
19.73870	273255
19.74682	237739
19.75493	217227
19.76307	199513
19.77118	178185
19.77932	171609
19.78743	168502
19.79555	156574
19.80368	164640
19.81180	165842
19.81992	166888
19.82805	162958
19.83617	162794
19.84430	159316
19.85242	164360
19.86053	221189
19.86867	471277
19.87678	1262340
19.88492	3307128
19.89303	7452009
19.90115	1.377624E+07
19.90928	2.121791E+07
19.91740	2.682906E+07
19.92552	2.933113E+07
19.93365	2.734311E+07
19.94177	2.227386E+07
19.94990	1.610167E+07
19.95802	1.080604E+07
19.96613	7700188
19.97427	5834359
19.98238	4735896
19.99052	4013062
19.99863	3584892
20.00675	3230421
20.01488	2949403
20.02300	2729274
20.03113	2552087
20.03925	2358363
20.04737	2129174
20.05550	1887432
20.06362	1591513
20.07173	1259431
20.07987	986322
20.08798	777721
20.09612	611729
20.10423	516141
20.11235	471529
20.12048	433246
20.12860	402333
20.13673	373564
20.14485	369196
20.15297	355807
20.16110	351782
20.16922	344791
20.17735	349328
20.18547	353677
20.19358	358046
20.20172	375944
20.20983	382533
20.21795	371557
20.22608	356733
20.23420	353200
20.24233	332981
20.25045	307277
20.25857	301987
20.26670	331029
20.27482	366293
20.28295	456413
20.29107	532851
20.29918	588686
20.30732	626728
20.31543	604385
20.32355	537079
20.33168	448291
20.33980	366186
20.34793	316765
20.35605	251120
20.36417	208456
20.37230	186255
20.38042	158039
20.38855	145573
20.39667	137037
20.40478	127923
20.41292	125819
20.42103	127099
20.42917	130760
20.43728	132678
20.44540	136989
20.45353	159275
20.46165	169546
20.46977	167876
20.47790	174513
20.48602	166581
20.49415	155797
20.50227	139881
20.51038	128481
20.51852	124414
20.52663	117645
20.53477	116557
20.54288	108295
20.55100	109297
20.55913	106478
20.56725	108992
20.57538	106246
20.58350	104942
20.59162	104844
20.59975	101197
20.60787	103226
20.61598	100077
20.62412	95922
20.63223	98367
20.64037	90399
20.64848	96197
20.65660	94185
20.66473	94003
20.67285	97435
20.68098	90948
20.68910	101903
20.69722	96288
20.70535	90038
20.71347	91668
20.72158	91700
20.72972	89457
20.73783	85547
20.74597	83373
20.75408	86495
20.76220	89650
20.77033	84989
20.77845	86485
20.78658	91467
20.79470	97014
20.80282	106175
20.81095	130306
20.81907	158926
20.82720	201571
20.83532	225555
20.84343	231024
20.85157	213325
20.85968	182638
20.86780	142445
20.87593	112039
20.88405	100427
20.89218	100682
20.90030	92823
20.90842	86641
20.91655	93525
20.92467	90596
20.93280	86698
20.94092	84844
20.94903	86144
20.95717	84561
20.96528	87056
20.97340	85672
20.98153	82474
20.98965	77806
20.99778	80672
21.00590	81517
21.01402	80113
21.02215	77352
21.03027	78710
21.03840	74521
21.04652	75684
21.05463	77620
21.06277	79807
21.07088	81548
21.07902	73367
21.08713	80198
21.09525	84199
21.10338	75352
21.11150	79239
21.11962	80384
21.12775	82421
21.13587	79123
21.14400	89361
21.15212	86524
21.16023	100515
21.16837	103911
21.17648	117254
21.18462	118830
21.19273	118557
21.20085	111615
21.20898	109337
21.21710	94161
21.22523	88391
21.23335	86018
21.24147	82504
21.24960	80264
21.25772	80920
21.26583	89098
21.27397	80900
21.28208	77174
21.29022	80341
21.29833	75449
21.30645	76186
21.31458	77007
21.32270	76727
21.33083	80500
21.33895	75523
21.34707	71183
21.35520	77477
21.36332	71016
21.37145	75834
21.37957	72638
21.38768	74957
21.39582	77911
21.40393	85786
21.41205	88356
21.42018	100178
21.42830	106643
21.43643	111657
21.44455	105673
21.45267	102680
21.46080	102258
21.46892	87567
21.47705	82855
21.48517	78293
21.49328	81005
21.50142	73015
21.50953	74923
21.51765	71888
21.52578	76475
21.53390	66182
21.54203	67669
21.55015	66283
21.55827	69439
21.56640	67390
21.57452	63035
21.58265	73840
21.59077	72146
21.59888	69737
21.60702	76718
21.61513	83892
21.62327	79453
21.63138	81169
21.63950	81166
21.64763	94079
21.65575	105895
21.66387	118376
21.67200	125039
21.68012	127745
21.68825	118754
21.69637	115893
21.70448	105685
21.71262	94520
21.72073	80194
21.72887	69542
21.73698	70990
21.74510	63324
21.75323	62160
21.76135	60045
21.76947	62119
21.77760	54419
21.78572	57360
21.79385	58538
21.80197	55256
21.81008	54778
21.81822	54647
21.82633	62407
21.83447	67093
21.84258	70291
21.85070	81418
21.85883	97311
21.86695	96257
21.87508	100905
21.88320	94912
21.89132	87833
21.89945	81079
21.90757	73891
21.91568	68673
21.92382	61401
21.93193	58146
21.94007	56050
21.94818	53352
21.95630	56209
21.96443	52790
21.97255	55172
21.98068	44403
21.98880	46530
21.99692	46667
22.00505	44565
22.01317	44675
22.02130	45573
22.02942	46620
22.03753	48146
22.04567	49357
22.05378	43672
22.06190	51237
22.07003	53755
22.07815	47073
22.08628	48417
22.09440	51091
22.10252	44521
22.11065	48698
22.11877	45204
22.12690	44443
22.13502	48752
22.14313	45403
22.15127	44738
22.15938	50252
22.16750	42858
22.17563	43976
22.18375	44689
22.19188	46767
22.20000	50401
22.20812	47276
22.21625	46769
22.22437	45869
22.23250	46236
22.24062	51073
22.24873	55602
22.25687	52990
22.26498	55965
22.27312	55285
22.28123	52713
22.28935	51283
22.29748	52807
22.30560	50135
22.31372	56880
22.32185	58463
22.32997	76101
22.33810	82570
22.34622	103981
22.35433	108605
22.36247	117559
22.37058	104759
22.37872	94039
22.38683	79167
22.39495	68091
22.40308	75579
22.41120	84742
22.41933	113880
22.42745	128202
22.43557	138179
22.44370	149438
22.45182	144572
22.45993	140365
22.46807	124937
22.47618	114941
22.48432	116510
22.49243	112204
22.50055	111924
22.50868	118603
22.51680	118905
22.52493	124161
22.53305	129118
22.54117	119575
22.54930	117452
22.55742	113323
22.56553	117873
22.57367	110871
22.58178	113905
22.58992	109771
22.59803	114002
22.60615	105913
22.61428	103151
22.62240	102899
22.63053	98024
22.63865	97554
22.64677	97620
22.65490	93509
22.66302	92891
22.67115	99758
22.67927	103744
22.68738	105667
22.69552	108423
22.70363	111246
22.71175	117556
22.71988	119535
22.72800	118857
22.73613	120558
22.74425	110313
22.75237	111031
22.76050	107297
22.76862	100397
22.77675	99756
22.78487	101419
22.79298	102520
22.80112	102645
22.80923	112849
22.81735	119898
22.82548	127318
22.83360	130838
22.84173	128167
22.84985	120534
22.85797	112475
22.86610	107094
22.87422	102428
22.88235	102735
22.89047	105255
22.89858	104754
22.90672	105305
22.91483	108121
22.92297	105529
22.93108	109162
22.93920	128156
22.94733	140888
22.95545	141743
22.96357	133213
22.97170	120548
22.97982	107892
22.98795	99816
22.99607	85379
23.00418	82134
23.01232	75856
23.02043	70775
23.02857	68816
23.03668	67431
23.04480	60530
23.05293	60529
23.06105	56365
23.06918	58482
23.07730	59998
23.08542	60078
23.09355	60391
23.10167	55495
23.10978	58132
23.11792	55476
23.12603	53765
23.13417	54469
23.14228	53192
23.15040	50847
23.15853	50382
23.16665	52409
23.17478	59227
23.18290	65878
23.19102	83487
23.19915	98469
23.20727	106010
23.21538	118718
23.22352	108719
23.23163	109724
23.23977	126253
23.24788	130997
23.25600	139263
23.26413	149784
23.27225	157161
23.28038	167656
23.28850	167404
23.29662	161968
23.30475	156602
23.31287	143702
23.32100	137007
23.32912	135847
23.33723	137828
23.34537	141440
23.35348	154873
23.36160	166467
23.36973	191356
23.37785	235360
23.38598	309583
23.39410	396498
23.40222	518301
23.41035	629251
23.41847	717966
23.42660	799641
23.43472	860238
23.44283	897358
23.45097	892986
23.45908	867613
23.46722	817849
23.47533	794057
23.48345	731912
23.49158	678580
23.49970	617688
23.50782	572368
23.51595	534130
23.52407	490509
23.53220	465242
23.54032	427803
23.54843	410603
23.55657	378581
23.56468	368828
23.57282	352356
23.58093	327144
23.58905	321421
23.59718	328853
23.60530	325728
23.61342	325354
23.62155	319247
23.62967	315148
23.63780	304410
23.64592	305177
23.65403	334200
23.66217	392007
23.67028	505685
23.67842	591339
23.68653	640988
23.69465	606194
23.70278	535028
23.71090	439272
23.71903	357545
23.72715	291187
23.73527	257701
23.74340	232083
23.75152	212355
23.75963	221090
23.76777	285738
23.77588	462862
23.78402	897386
23.79213	1584740
23.80025	2361785
23.80838	3016459
23.81650	3209225
23.82463	3011951
23.83275	2549371
23.84087	1937747
23.84900	1427429
23.85712	1067955
23.86523	836670
23.87337	701452
23.88148	574110
23.88962	506183
23.89773	462508
23.90585	414971
23.91398	392118
23.92210	357117
23.93023	345846
23.93835	330240
23.94647	321177
23.95460	292912
23.96272	272268
23.97085	265849
23.97897	254207
23.98708	245249
23.99522	241324
24.00333	218373
24.01145	216144
24.01958	219885
24.02770	217596
24.03583	220420
24.04395	210724
24.05207	215158
24.06020	215085
24.06832	214274
24.07645	206912
24.08457	198728
24.09268	188711
24.10082	184979
24.10893	183317
24.11707	176159
24.12518	172204
24.13330	171737
24.14143	177413
24.14955	177204
24.15767	173498
24.16580	179290
24.17392	179899
24.18205	172714
24.19017	164417
24.19828	167579
24.20642	163043
24.21453	166629
24.22267	163257
24.23078	165229
24.23890	169571
24.24703	167037
24.25515	156505
24.26327	150341
24.27140	142618
24.27952	140990
24.28765	134291
24.29577	133775
24.30388	123550
24.31202	135178
24.32013	118749
24.32827	121837
24.33638	115408
24.34450	111161
24.35263	106524
24.36075	109304
24.36888	95907
24.37700	103723
24.38512	97106
24.39325	98944
24.40137	104427
24.40948	122409
24.41762	147560
24.42573	165185
24.43387	159181
24.44198	142906
24.45010	122640
24.45823	111805
24.46635	100177
24.47448	93085
24.48260	89954
24.49072	100376
24.49885	109356
24.50697	118667
24.51510	113904
24.52322	132537
24.53133	139221
24.53947	168031
24.54758	192610
24.55570	204040
24.56383	219452
24.57195	218127
24.58008	205642
24.58820	179652
24.59632	166369
24.60445	144676
24.61257	126426
24.62070	124721
24.62882	108373
24.63693	103454
24.64507	94024
24.65318	92279
24.66130	95453
24.66943	93243
24.67755	87253
24.68568	85445
24.69380	83511
24.70192	80038
24.71005	76817
24.71817	77015
24.72630	70819
24.73442	72263
24.74253	70488
24.75067	76124
24.75878	74298
24.76692	74345
24.77503	70741
24.78315	75184
24.79128	73426
24.79940	76911
24.80752	80314
24.81565	75555
24.82377	72821
24.83190	80459
24.84002	91252
24.84813	117862
24.85627	159656
24.86438	193389
24.87252	242912
24.88063	312472
24.88875	376599
24.89688	472654
24.90500	555225
24.91313	594772
24.92125	584495
24.92937	515364
24.93750	459273
24.94562	379164
24.95373	322187
24.96187	299147
24.96998	290213
24.97812	272817
24.98623	264562
24.99435	260757
25.00248	260549
25.01060	262369
25.01873	251249
25.02685	254797
25.03497	250099
25.04310	247437
25.05122	240769
25.05933	260891
25.06747	240549
25.07558	248365
25.08372	238514
25.09183	251548
25.09995	254478
25.10808	251240
25.11620	286439
25.12433	391403
25.13245	592277
25.14057	928721
25.14870	1405631
25.15682	1884954
25.16495	2169892
25.17307	2095515
25.18118	1751675
25.18932	1314778
25.19743	897059
25.20555	599608
25.21368	433641
25.22180	346175
25.22993	292492
25.23805	258401
25.24617	255761
25.25430	262861
25.26242	266222
25.27055	276813
25.27867	291985
25.28678	293293
25.29492	308491
25.30303	284314
25.31115	271156
25.31928	247163
25.32740	233181
25.33553	218366
25.34365	205829
25.35177	196714
25.35990	190413
25.36802	190730
25.37615	185505
25.38427	177623
25.39238	170624
25.40052	169785
25.40863	172216
25.41677	164779
25.42488	162294
25.43300	151547
25.44113	136938
25.44925	125348
25.45737	98945
25.46550	94871
25.47362	85491
25.48175	87740
25.48987	86663
25.49798	89916
25.50612	88106
25.51423	86782
25.52237	78358
25.53048	83036
25.53860	79200
25.54673	76089
25.55485	73433
25.56298	75080
25.57110	73304
25.57922	74069
25.58735	67033
25.59547	67174
25.60358	67621
25.61172	66116
25.61983	65644
25.62797	63529
25.63608	68457
25.64420	69116
25.65233	68989
25.66045	72298
25.66858	77782
25.67670	69179
25.68482	75424
25.69295	71664
25.70107	70993
25.70918	69910
25.71732	67546
25.72543	62913
25.73357	62555
25.74168	72949
25.74980	60900
25.75793	60356
25.76605	63578
25.77418	69790
25.78230	61472
25.79042	62811
25.79855	61626
25.80667	58795
25.81480	59998
25.82292	68882
25.83103	78459
25.83917	109883
25.84728	162587
25.85540	214396
25.86353	255603
25.87165	260670
25.87978	278096
25.88790	268183
25.89602	293835
25.90415	281082
25.91227	279426
25.92040	284794
25.92852	289024
25.93663	289464
25.94477	278236
25.95288	281676
25.96102	288930
25.96913	286429
25.97725	281901
25.98538	280614
25.99350	279955
26.00162	274217
26.00975	277958
26.01787	284197
26.02600	290381
26.03412	260946
26.04223	270072
26.05037	269227
26.05848	269120
26.06662	270729
26.07473	265688
26.08285	260538
26.09098	273301
26.09910	259156
26.10722	260684
26.11535	256093
26.12347	257011
26.13160	249084
26.13972	256713
26.14783	250181
26.15597	255601
26.16408	262389
26.17222	252596
26.18033	251080
26.18845	251893
26.19658	240517
26.20470	242762
26.21283	223157
26.22095	238708
26.22907	242309
26.23720	224139
26.24532	218807
26.25343	222383
26.26157	223269
26.26968	213064
26.27782	215121
26.28593	208340
26.29405	211205
26.30218	209190
26.31030	210197
26.31843	206460
26.32655	199731
26.33467	206041
26.34280	197470
26.35092	206566
26.35903	197564
26.36717	194858
26.37528	199858
26.38342	194873
26.39153	210421
26.39965	205392
26.40778	215394
26.41590	214230
26.42403	213115
26.43215	214684
26.44027	196680
26.44840	198496
26.45652	187218
26.46465	183719
26.47277	177892
26.48088	182027
26.48902	169722
26.49713	175716
26.50525	168278
26.51338	173446
26.52150	172577
26.52963	170790
26.53775	163182
26.54587	162807
26.55400	154751
26.56212	162090
26.57025	156049
26.57837	160853
26.58648	155747
26.59462	156365
26.60273	147264
26.61087	150145
26.61898	152535
26.62710	146038
26.63523	147225
26.64335	144559
26.65147	145541
26.65960	151777
26.66772	151886
26.67585	151220
26.68397	146113
26.69208	151690
26.70022	151423
26.70833	143810
26.71647	132634
26.72458	138651
26.73270	136142
26.74083	130325
26.74895	129928
26.75708	130773
26.76520	128450
26.77332	127309
26.78145	121807
26.78957	128669
26.79768	128474
26.80582	124637
26.81393	130395
26.82207	128487
26.83018	128389
26.83830	124162
26.84643	128668
26.85455	123210
26.86268	122990
26.87080	121825
26.87892	118374
26.88705	114353
26.89517	115801
26.90328	119117
26.91142	112094
26.91953	108942
26.92767	107298
26.93578	109882
26.94390	109711
26.95203	105964
26.96015	110499
26.96828	111532
26.97640	106506
26.98452	132152
26.99265	167417
27.00077	256052
27.00890	401348
27.01702	606419
27.02513	844427
27.03327	1106412
27.04138	1213772
27.04950	1187738
27.05763	1045736
27.06575	857025
27.07388	682491
27.08200	529487
27.09012	426630
27.09825	364501
27.10637	311124
27.11450	264754
27.12262	248882
27.13073	225983
27.13887	224545
27.14698	203015
27.15510	191688
27.16323	185715
27.17135	174441
27.17948	176898
27.18760	176321
27.19572	167109
27.20385	174760
27.21197	163419
27.22010	164074
27.22822	156827
27.23633	137949
27.24447	144564
27.25258	131662
27.26072	134011
27.26883	124657
27.27695	127047
27.28508	123426
27.29320	123817
27.30132	115701
27.30945	114641
27.31757	115136
27.32570	111140
27.33382	107083
27.34193	102146
27.35007	95724
27.35818	100165
27.36632	107225
27.37443	104142
27.38255	103905
27.39068	103082
27.39880	98540
27.40693	98241
27.41505	102303
27.42317	93885
27.43130	92992
27.43942	92728
27.44753	87919
27.45567	91246
27.46378	91432
27.47192	93480
27.48003	92586
27.48815	92233
27.49628	88457
27.50440	88959
27.51253	83452
27.52065	81148
27.52877	86809
27.53690	89084
27.54502	86305
27.55313	84066
27.56127	86006
27.56938	81101
27.57752	83851
27.58563	86942
27.59375	89954
27.60188	94238
27.61000	102107
27.61813	109659
27.62625	100237
27.63437	89868
27.64250	90657
27.65062	83702
27.65875	80595
27.66687	81729
27.67498	76742
27.68312	71245
27.69123	76121
27.69935	76526
27.70748	74654
27.71560	71080
27.72373	73511
27.73185	69217
27.73997	75930
27.74810	71156
27.75622	70790
27.76435	66976
27.77247	71161
27.78058	70676
27.78872	69870
27.79683	74325
27.80497	74185
27.81308	80107
27.82120	78555
27.82933	69093
27.83745	66145
27.84557	70430
27.85370	70502
27.86182	74421
27.86995	70519
27.87807	69396
27.88618	70404
27.89432	72436
27.90243	68253
27.91057	67737
27.91868	63781
27.92680	65847
27.93493	66430
27.94305	63389
27.95117	66400
27.95930	59881
27.96742	60913
27.97555	59369
27.98367	64657
27.99178	60697
27.99992	63663
28.00803	63016
28.01617	64728
28.02428	63900
28.03240	63634
28.04053	60089
28.04865	60567
28.05678	67176
28.06490	71070
28.07302	65371
28.08115	68726
28.08927	69071
28.09738	69249
28.10552	71176
28.11363	64388
28.12177	66471
28.12988	66915
28.13800	66754
28.14613	62168
28.15425	59188
28.16238	55501
28.17050	61587
28.17862	58576
28.18675	54909
28.19487	60907
28.20298	62816
28.21112	72084
28.21923	81259
28.22737	87523
28.23548	97831
28.24360	91007
28.25173	90152
28.25985	76784
28.26798	81368
28.27610	68633
28.28422	67842
28.29235	60927
28.30047	61032
28.30860	61804
28.31672	65662
28.32483	74364
28.33297	83911
28.34108	91357
28.34920	105664
28.35733	124803
28.36545	144760
28.37358	166028
28.38170	173103
28.38982	185471
28.39795	179342
28.40607	178938
28.41420	175894
28.42232	167675
28.43043	163467
28.43857	158568
28.44668	130490
28.45482	119031
28.46293	115009
28.47105	111069
28.47918	100381
28.48730	96384
28.49542	95424
28.50355	92553
28.51167	83663
28.51980	82952
28.52792	84644
28.53603	81898
28.54417	82980
28.55228	78893
28.56042	77369
28.56853	72637
28.57665	72433
28.58478	74021
28.59290	68192
28.60102	67761
28.60915	65940
28.61727	69546
28.62540	68299
28.63352	69809
28.64163	69128
28.64977	64021
28.65788	76474
28.66602	75355
28.67413	71397
28.68225	73933
28.69038	73168
28.69850	66833
28.70663	62541
28.71475	72169
28.72287	66488
28.73100	62016
28.73912	58540
28.74723	65581
28.75537	65246
28.76348	60568
28.77162	66090
28.77973	73181
28.78785	79208
28.79598	81221
28.80410	94044
28.81223	93103
28.82035	80489
28.82847	76363
28.83660	71486
28.84472	64882
28.85285	69245
28.86097	60358
28.86908	63311
28.87722	60407
28.88533	63359
28.89345	67936
28.90158	67267
28.90970	69861
28.91783	77238
28.92595	69377
28.93407	73270
28.94220	64478
28.95032	66376
28.95845	68666
28.96657	72678
28.97468	69389
28.98282	72192
28.99093	64972
28.99905	64389
29.00718	62557
29.01530	61900
29.02343	66405
29.03155	60325
29.03967	57733
29.04780	57455
29.05592	55791
29.06405	61101
29.07217	58703
29.08028	59054
29.08842	59232
29.09653	60772
29.10467	62837
29.11278	62788
29.12090	62898
29.12903	57179
29.13715	55998
29.14527	61153
29.15340	56685
29.16152	58313
29.16965	59924
29.17777	59494
29.18588	65213
29.19402	60792
29.20213	74224
29.21027	76238
29.21838	85680
29.22650	94765
29.23463	93503
29.24275	87093
29.25088	86826
29.25900	80013
29.26712	73203
29.27525	73018
29.28337	63690
29.29148	62949
29.29962	59343
29.30773	60313
29.31587	55284
29.32398	57064
29.33210	53908
29.34023	56561
29.34835	59240
29.35648	54988
29.36460	53682
29.37272	58589
29.38085	55238
29.38897	57324
29.39708	55945
29.40522	48958
29.41333	53238
29.42147	51235
29.42958	55148
29.43770	55416
29.44583	50892
29.45395	52144
29.46208	53742
29.47020	54396
29.47832	59882
29.48645	51995
29.49457	51794
29.50270	49054
29.51082	60445
29.51893	59587
29.52707	56608
29.53518	64434
29.54330	51552
29.55143	52895
29.55955	51452
29.56768	51661
29.57580	53881
29.58392	51994
29.59205	48311
29.60017	48000
29.60830	51781
29.61642	49174
29.62453	51647
29.63267	49888
29.64078	49828
29.64890	53224
29.65703	46541
29.66515	46945
29.67328	51254
29.68140	46621
29.68952	48947
29.69765	48911
29.70577	54501
29.71390	57031
29.72202	54819
29.73013	56829
29.73827	53372
29.74638	50410
29.75452	45466
29.76263	47461
29.77075	47861
29.77888	45534
29.78700	46049
29.79512	48811
29.80325	46080
29.81137	43544
29.81950	48654
29.82762	46653
29.83573	45169
29.84387	44111
29.85198	43284
29.86012	48924
29.86823	48728
29.87635	52151
29.88448	61677
29.89260	82239
29.90073	101092
29.90885	128124
29.91697	139542
29.92510	146743
29.93322	122740
29.94133	100235
29.94947	80782
29.95758	70257
29.96572	64391
29.97383	64595
29.98195	67130
29.99008	64262
29.99820	75508
30.00633	81578
30.01445	90397
30.02257	96930
30.03070	101487
30.03882	101207
30.04693	109586
30.05507	114142
30.06318	105514
30.07132	106113
30.07943	107299
30.08755	103253
30.09568	94403
30.10380	99947
30.11193	86194
30.12005	90075
30.12817	85822
30.13630	77192
30.14442	78966
30.15255	75577
30.16067	72425
30.16878	71956
30.17692	70592
30.18503	68672
30.19315	61802
30.20128	63791
30.20940	64709
30.21753	67059
30.22565	64583
30.23377	63458
30.24190	60371
30.25002	61088
30.25815	56759
30.26627	56507
30.27438	60415
30.28252	59009
30.29063	53685
30.29877	54886
30.30688	59394
30.31500	57946
30.32313	55447
30.33125	52976
30.33937	57771
30.34750	61433
30.35562	54716
30.36375	56715
30.37187	61519
30.37998	57503
30.38812	52561
30.39623	59021
30.40437	53912
30.41248	57391
30.42060	54926
30.42873	55995
30.43685	50489
30.44497	52062
30.45310	55710
30.46122	49560
30.46935	53015
30.47747	49721
30.48558	50141
30.49372	51454
30.50183	53225
30.50997	49370
30.51808	48661
30.52620	53060
30.53433	50925
30.54245	50477
30.55058	51057
30.55870	50166
30.56682	51720
30.57495	50661
30.58307	47587
30.59118	50847
30.59932	44288
30.60743	48550
30.61557	45687
30.62368	48795
30.63180	51087
30.63993	48094
30.64805	48463
30.65618	48808
30.66430	51450
30.67242	47299
30.68055	50744
30.68867	48678
30.69678	47740
30.70492	49701
30.71303	51673
30.72117	53363
30.72928	50349
30.73740	51493
30.74553	53569
30.75365	53873
30.76178	53209
30.76990	54405
30.77802	54230
30.78615	56732
30.79427	61459
30.80240	72936
30.81052	79001
30.81863	92095
30.82677	95932
30.83488	96944
30.84300	87990
30.85113	73967
30.85925	71630
30.86738	65269
30.87550	57931
30.88362	56783
30.89175	53002
30.89987	52677
30.90800	57257
30.91612	52290
30.92423	48967
30.93237	53165
30.94048	53797
30.94862	53355
30.95673	52056
30.96485	55387
30.97298	57063
30.98110	55640
30.98922	51563
30.99735	56253
31.00547	60500
31.01360	52485
31.02172	56002
31.02983	55479
31.03797	57052
31.04608	57970
31.05422	54240
31.06233	64528
31.07045	61137
31.07858	61711
31.08670	67687
31.09483	80793
31.10295	99710
31.11107	135990
31.11920	159334
31.12732	161797
31.13543	157572
31.14357	134701
31.15168	106877
31.15982	86958
31.16793	76929
31.17605	65352
31.18418	61026
31.19230	69746
31.20043	80222
31.20855	92040
31.21667	112240
31.22480	133794
31.23292	153347
31.24103	159732
31.24917	149064
31.25728	142474
31.26542	112013
31.27353	85380
31.28165	69660
31.28978	57428
31.29790	59736
31.30603	54138
31.31415	53231
31.32227	52472
31.33040	51502
31.33852	56399
31.34665	47031
31.35477	53365
31.36288	51311
31.37102	56265
31.37913	59920
31.38725	64148
31.39538	70964
31.40350	70370
31.41163	70537
31.41975	66875
31.42787	62848
31.43600	57373
31.44412	53498
31.45225	53052
31.46037	52787
31.46848	52865
31.47662	52254
31.48473	54065
31.49285	49334
31.50098	49119
31.50910	50519
31.51723	49022
31.52535	45383
31.53347	50037
31.54160	47655
31.54972	45377
31.55785	47873
31.56597	48356
31.57408	48435
31.58222	51776
31.59033	52820
31.59847	59544
31.60658	58580
31.61470	62534
31.62283	62189
31.63095	65046
31.63907	67344
31.64720	66456
31.65532	66791
31.66345	70640
31.67157	70201
31.67968	72927
31.68782	74749
31.69593	73578
31.70407	78273
31.71218	73204
31.72030	72370
31.72843	68404
31.73655	70000
31.74468	70461
31.75280	74064
31.76092	74917
31.76905	67781
31.77717	68550
31.78528	70409
31.79342	70042
31.80153	67532
31.80967	69679
31.81778	73735
31.82590	67028
31.83403	75549
31.84215	70724
31.85028	67174
31.85840	72184
31.86652	69110
31.87465	74956
31.88277	75251
31.89088	71529
31.89902	75926
31.90713	80122
31.91527	86098
31.92338	98220
31.93150	92240
31.93963	95636
31.94775	108825
31.95588	99687
31.96400	105009
31.97212	111082
31.98025	114222
31.98837	111984
31.99650	109583
32.00462	110329
32.01273	108845
32.02087	108056
32.02898	104013
32.03710	101143
32.04523	98546
32.05335	92567
32.06148	90566
32.06960	90688
32.07772	85304
32.08585	81792
32.09397	82195
32.10210	84828
32.11022	82082
32.11833	82757
32.12647	75705
32.13458	74210
32.14272	70225
32.15083	68147
32.15895	71204
32.16708	70339
32.17520	64623
32.18332	62243
32.19145	63904
32.19957	62927
32.20770	66579
32.21582	63915
32.22393	58008
32.23207	62985
32.24018	59628
32.24832	62339
32.25643	60715
32.26455	59067
32.27268	63863
32.28080	68053
32.28892	60577
32.29705	66549
32.30517	61232
32.31330	57864
32.32142	63071
32.32953	61750
32.33767	55688
32.34578	61837
32.35392	56797
32.36203	59582
32.37015	55746
32.37828	62253
32.38640	57809
32.39453	59321
32.40265	53286
32.41077	51737
32.41890	52303
32.42702	53995
32.43513	51604
32.44327	63741
32.45138	57866
32.45952	50475
32.46763	51083
32.47575	52285
32.48388	49482
32.49200	50752
32.50013	51903
32.50825	49090
32.51637	57837
32.52450	50405
32.53262	49744
32.54073	51183
32.54887	50577
32.55698	51839
32.56512	50731
32.57323	50560
32.58135	52511
32.58948	50350
32.59760	58900
32.60573	48576
32.61385	53420
32.62197	47291
32.63010	47367
32.63822	48567
32.64635	49255
32.65447	50685
32.66258	50525
32.67072	59213
32.67883	60891
32.68695	66863
32.69508	69876
32.70320	71346
32.71133	70671
32.71945	58103
32.72757	59076
32.73570	56099
32.74382	57493
32.75195	58065
32.76007	53309
32.76818	47634
32.77632	48794
32.78443	46495
32.79257	46803
32.80068	46279
32.80880	48152
32.81693	46327
32.82505	47481
32.83317	41257
32.84130	47060
32.84942	47697
32.85755	45921
32.86567	44063
32.87378	46772
32.88192	46176
32.89003	48355
32.89817	46764
32.90628	48744
32.91440	46944
32.92253	47868
32.93065	46148
32.93877	47675
32.94690	49153
32.95502	46868
32.96315	46552
32.97127	44865
32.97938	49625
32.98752	50091
32.99563	53279
33.00377	58365
33.01188	56908
33.02000	63779
33.02813	68222
33.03625	60112
33.04438	58796
33.05250	55981
33.06062	52334
33.06875	61225
33.07687	59285
33.08498	56347
33.09312	61753
33.10123	63796
33.10937	68541
33.11748	73923
33.12560	79822
33.13373	87342
33.14185	87126
33.14998	80870
33.15810	70104
33.16622	61141
33.17435	54130
33.18247	59599
33.19060	52340
33.19872	49469
33.20683	47864
33.21497	47673
33.22308	47308
33.23120	52326
33.23933	51858
33.24745	49373
33.25558	48480
33.26370	46361
33.27182	47567
33.27995	48761
33.28807	47134
33.29620	48440
33.30432	50196
33.31243	47528
33.32057	47433
33.32868	46177
33.33680	44896
33.34493	48062
33.35305	43014
33.36118	48651
33.36930	56286
33.37742	47400
33.38555	47042
33.39367	47870
33.40180	45938
33.40992	48587
33.41803	46138
33.42617	43962
33.43428	43223
33.44242	44259
33.45053	43986
33.45865	48243
33.46678	50210
33.47490	45796
33.48302	44169
33.49115	45588
33.49927	46116
33.50740	45791
33.51552	44546
33.52363	48644
33.53177	49360
33.53988	51580
33.54802	52300
33.55613	46419
33.56425	56037
33.57238	55043
33.58050	50045
33.58862	53620
33.59675	44367
33.60487	43741
33.61300	47507
33.62112	43727
33.62923	42061
33.63737	45496
33.64548	44025
33.65362	47382
33.66173	47058
33.66985	49859
33.67798	55121
33.68610	46548
33.69423	58316
33.70235	45839
33.71047	46351
33.71860	44746
33.72672	47434
33.73483	45028
33.74297	47965
33.75108	47231
33.75922	43310
33.76733	45208
33.77545	42566
33.78358	49442
33.79170	43789
33.79983	42938
33.80795	41100
33.81607	45048
33.82420	50803
33.83232	44598
33.84045	45763
33.84857	42782
33.85668	49989
33.86482	49812
33.87293	50702
33.88105	48584
33.88918	49709
33.89730	46936
33.90543	48267
33.91355	50379
33.92167	42127
33.92980	48166
33.93792	45508
33.94605	45133
33.95417	51967
33.96228	47706
33.97042	47342
33.97853	46956
33.98665	46817
33.99478	50949
34.00290	45158
34.01103	46280
34.01915	48225
34.02727	49330
34.03540	45719
34.04352	45524
34.05165	48071
34.05977	49829
34.06788	48243
34.07602	46445
34.08413	42766
34.09227	47551
34.10038	49115
34.10850	45626
34.11663	46161
34.12475	43154
34.13287	50470
34.14100	45800
34.14912	48267
34.15725	42839
34.16537	45779
34.17348	46004
34.18162	48344
34.18973	48276
34.19787	45052
34.20598	46189
34.21410	49024
34.22223	46629
34.23035	45212
34.23848	49496
34.24660	49884
34.25472	48441
34.26285	50048
34.27097	50652
34.27908	46946
34.28722	47251
34.29533	50369
34.30347	43342
34.31158	48944
34.31970	49354
34.32783	48912
34.33595	49416
34.34408	46010
34.35220	45962
34.36032	46787
34.36845	47112
34.37657	45844
34.38468	47054
34.39282	47703
34.40093	50792
34.40907	51899
34.41718	51155
34.42530	50319
34.43343	47735
34.44155	49516
34.44968	49211
34.45780	50291
34.46592	47642
34.47405	45646
34.48217	51317
34.49030	53798
34.49842	44093
34.50653	45476
34.51467	49595
34.52278	51703
34.53090	47374
34.53903	51929
34.54715	59698
34.55528	64755
34.56340	71536
34.57152	72436
34.57965	76131
34.58777	74138
34.59590	80851
34.60402	77009
34.61213	75295
34.62027	59741
34.62838	63727
34.63652	60725
34.64463	62949
34.65275	59056
34.66088	61939
34.66900	50835
34.67712	54598
34.68525	55996
34.69337	59106
34.70150	51868
34.70962	52021
34.71773	52264
34.72587	48890
34.73398	53891
34.74212	52419
34.75023	50699
34.75835	51251
34.76648	51237
34.77460	53362
34.78272	57152
34.79085	51816
34.79897	51433
34.80710	53134
34.81522	51949
34.82333	56559
34.83147	49249
34.83958	50278
34.84772	52746
34.85583	53299
34.86395	48177
34.87208	49712
34.88020	49464
34.88833	51826
34.89645	47298
34.90457	47920
34.91270	53498
34.92082	51935
34.92893	52230
34.93707	52794
34.94518	57576
34.95332	67409
34.96143	97660
34.96955	131980
34.97768	201873
34.98580	249042
34.99393	287120
35.00205	276871
35.01017	224601
35.01830	161596
35.02642	118703
35.03453	87605
35.04267	70077
35.05078	68351
35.05892	60390
35.06703	57262
35.07515	60416
35.08328	57123
35.09140	61360
35.09953	54275
35.10765	61353
35.11577	55982
35.12390	60411
35.13202	54085
35.14015	57972
35.14827	59068
35.15638	56375
35.16452	56899
35.17263	60998
35.18075	60584
35.18888	57197
35.19700	58967
35.20513	59640
35.21325	54076
35.22137	53489
35.22950	54053
35.23762	53544
35.24575	51574
35.25387	53911
35.26198	56897
35.27012	53913
35.27823	55737
35.28637	52543
35.29448	57565
35.30260	58228
35.31073	53262
35.31885	53480
35.32697	51308
35.33510	51109
35.34322	53202
35.35135	46282
35.35947	48344
35.36758	50431
35.37572	48006
35.38383	50312
35.39197	49809
35.40008	49570
35.40820	51072
35.41633	54077
35.42445	50998
35.43257	52013
35.44070	55757
35.44882	56690
35.45695	60904
35.46507	55707
35.47318	55303
35.48132	53436
35.48943	50211
35.49757	52939
35.50568	61140
35.51380	53902
35.52193	53175
35.53005	54252
35.53818	53714
35.54630	53785
35.55442	53933
35.56255	49162
35.57067	48350
35.57878	50981
35.58692	52304
35.59503	49742
35.60317	53761
35.61128	51066
35.61940	51716
35.62753	54059
35.63565	50464
35.64378	56449
35.65190	53839
35.66002	49682
35.66815	50197
35.67627	49785
35.68440	54903
35.69252	53013
35.70063	56070
35.70877	57781
35.71688	59382
35.72500	65248
35.73313	56321
35.74125	55089
35.74938	58354
35.75750	56270
35.76562	61417
35.77375	57201
35.78187	60847
35.79000	60141
35.79812	61127
35.80623	61552
35.81437	56123
35.82248	59934
35.83060	50730
35.83873	51637
35.84685	51723
35.85498	52589
35.86310	53225
35.87122	52480
35.87935	51857
35.88747	53650
35.89560	53576
35.90372	52055
35.91183	56292
35.91997	51839
35.92808	58065
35.93622	54724
35.94433	53434
35.95245	56170
35.96058	54236
35.96870	51552
35.97682	50447
35.98495	50680
35.99307	54827
36.00120	49149
36.00932	55926
36.01743	56707
36.02557	54882
36.03368	59284
36.04182	62006
36.04993	60462
36.05805	57288
36.06618	64112
36.07430	57320
36.08242	57217
36.09055	54484
36.09867	51970
36.10680	53643
36.11492	52846
36.12303	56688
36.13117	53589
36.13928	56975
36.14742	57189
36.15553	62191
36.16365	54399
36.17178	57863
36.17990	56527
36.18803	51683
36.19615	55021
36.20427	53629
36.21240	47809
36.22052	54960
36.22863	53975
36.23677	52032
36.24488	56327
36.25302	53951
36.26113	51406
36.26925	52918
36.27738	54838
36.28550	53337
36.29363	66310
36.30175	61650
36.30987	56324
36.31800	62304
36.32612	70157
36.33425	71006
36.34237	72082
36.35048	72460
36.35862	64402
36.36673	65295
36.37485	55559
36.38298	58172
36.39110	57360
36.39923	60716
36.40735	62888
36.41547	55373
36.42360	57103
36.43172	56446
36.43985	58786
36.44797	55756
36.45608	51083
36.46422	54248
36.47233	53486
36.48047	58742
36.48858	50952
36.49670	50459
36.50483	54577
36.51295	50792
36.52107	55176
36.52920	51621
36.53732	54236
36.54545	56980
36.55357	55139
36.56168	55057
36.56982	50964
36.57793	48662
36.58607	55815
36.59418	53988
36.60230	57093
36.61043	53817
36.61855	55425
36.62667	59385
36.63480	54010
36.64292	54319
36.65105	52556
36.65917	57700
36.66728	55545
36.67542	55386
36.68353	55899
36.69167	65671
36.69978	55360
36.70790	57812
36.71603	64755
36.72415	53530
36.73228	59841
36.74040	56507
36.74852	57844
36.75665	55619
36.76477	56744
36.77288	53487
36.78102	53326
36.78913	55060
36.79727	55580
36.80538	55434
36.81350	56560
36.82163	53271
36.82975	60054
36.83788	53519
36.84600	57610
36.85412	53852
36.86225	54822
36.87037	55214
36.87848	54346
36.88662	52520
36.89473	54254
36.90287	55663
36.91098	55165
36.91910	54926
36.92723	53431
36.93535	55256
36.94348	57613
36.95160	64280
36.95972	60146
36.96785	64602
36.97597	69213
36.98410	71604
36.99222	68000
37.00033	70882
37.00847	60612
37.01658	62686
37.02470	59879
37.03283	53575
37.04095	60707
37.04908	61742
37.05720	60923
37.06532	63891
37.07345	63561
37.08157	71430
37.08970	67725
37.09782	72825
37.10593	69448
37.11407	75542
37.12218	80370
37.13032	71415
37.13843	71268
37.14655	66621
37.15468	70966
37.16280	77202
37.17092	72882
37.17905	75589
37.18717	71236
37.19530	72133
37.20342	66505
37.21153	73046
37.21967	73655
37.22778	71749
37.23592	73216
37.24403	71149
37.25215	70153
37.26028	73252
37.26840	74042
37.27652	78164
37.28465	74719
37.29277	69204
37.30090	73691
37.30902	74275
37.31713	77119
37.32527	69264
37.33338	67872
37.34152	71488
37.34963	76192
37.35775	81331
37.36588	93158
37.37400	83398
37.38213	86675
37.39025	94371
37.39837	84781
37.40650	85472
37.41462	86063
37.42273	87144
37.43087	80074
37.43898	79701
37.44712	80344
37.45523	73507
37.46335	75283
37.47148	74779
37.47960	75952
37.48773	77936
