C:\MassHunter\GCMS\1\data\JTB-E18\JTB-E18-029-07.D Tue Oct 01 14:29:25 2019
Start of data points
2.09518,177232
2.10330,167607
2.11142,170463
2.11955,170213
2.12767,163131
2.13578,164495
2.14392,157502
2.15203,154496
2.16017,156361
2.16828,151636
2.17640,147739
2.18453,145248
2.19265,144564
2.20078,138855
2.20890,138024
2.21702,140487
2.22515,134659
2.23327,136857
2.24140,139589
2.24952,133060
2.25763,129191
2.26577,132507
2.27388,312574
2.28200,1165777
2.29013,1395454
2.29825,746461
2.30638,488396
2.31450,396945
2.32262,341088
2.33075,313837
2.33887,323751
2.34700,318525
2.35512,263281
2.36323,240291
2.37137,226323
2.37948,229440
2.38762,366643
2.39573,354185
2.40385,250554
2.41198,256743
2.42010,232782
2.42822,242872
2.43635,228417
2.44447,203215
2.45260,210004
2.46072,204209
2.46883,192780
2.47697,178425
2.48508,184902
2.49322,209315
2.50133,292663
2.50945,251485
2.51758,203068
2.52570,201023
2.53382,192808
2.54195,183264
2.55007,194352
2.55820,240518
2.56632,261600
2.57443,237202
2.58257,202276
2.59068,211316
2.59882,201565
2.60693,209630
2.61505,395438
2.62318,544203
2.63130,437523
2.63943,307722
2.64755,243583
2.65567,217388
2.66380,208167
2.67192,204504
2.68003,248103
2.68817,264727
2.69628,206449
2.70442,187318
2.71253,171912
2.72065,179335
2.72878,185978
2.73690,176674
2.74503,170216
2.75315,167655
2.76127,168828
2.76940,157766
2.77752,171743
2.78563,210102
2.79377,272023
2.80188,235819
2.81002,215718
2.81813,229780
2.82625,448587
2.83438,1234673
2.84250,1584552
2.85063,917913
2.85875,492809
2.86687,415695
2.87500,366186
2.88312,295154
2.89125,253035
2.89937,233617
2.90748,218468
2.91562,210997
2.92373,194770
2.93185,185489
2.93998,181895
2.94810,177308
2.95623,169358
2.96435,169350
2.97247,169217
2.98060,168910
2.98872,174288
2.99685,200374
3.00497,217781
3.01308,221111
3.02122,240500
3.02933,392286
3.03747,768070
3.04558,1063957
3.05370,2290134
3.06183,6575084
3.06995,9084499
3.07807,6114994
3.08620,3105912
3.09432,2371444
3.10245,2370034
3.11057,2363794
3.11868,2305931
3.12682,1678013
3.13493,1165994
3.14307,925093
3.15118,758196
3.15930,671944
3.16743,622881
3.17555,636037
3.18367,647270
3.19180,892673
3.19992,1294960
3.20805,1196699
3.21617,853372
3.22428,674445
3.23242,603747
3.24053,539236
3.24867,479968
3.25678,426925
3.26490,396646
3.27303,376003
3.28115,412269
3.28928,819709
3.29740,2446459
3.30552,5268609
3.31365,6986736
3.32177,6145937
3.32988,4382731
3.33802,3164153
3.34613,2509615
3.35427,2091181
3.36238,1776543
3.37050,1650218
3.37863,1718240
3.38675,1793859
3.39488,1627696
3.40300,1541731
3.41112,2319476
3.41925,3641336
3.42737,3749000
3.43550,2550238
3.44362,1613249
3.45173,1180630
3.45987,1011527
3.46798,922285
3.47610,848741
3.48423,776597
3.49235,717155
3.50048,673712
3.50860,637857
3.51672,602226
3.52485,604074
3.53297,599880
3.54110,580338
3.54922,549614
3.55733,509674
3.56547,502751
3.57358,564355
3.58170,644774
3.58983,605553
3.59795,518307
3.60608,491313
3.61420,504839
3.62232,820033
3.63045,1724792
3.63857,2807572
3.64670,2831723
3.65482,1958960
3.66293,1284941
3.67107,1776351
3.67918,3765644
3.68732,5121693
3.69543,3878104
3.70355,2201367
3.71168,1480563
3.71980,1175379
3.72792,1001452
3.73605,895428
3.74417,838848
3.75230,784118
3.76042,723914
3.76853,696292
3.77667,660061
3.78478,638330
3.79292,611533
3.80103,608180
3.80915,747220
3.81728,1033724
3.82540,1133336
3.83352,938846
3.84165,718580
3.84977,611213
3.85790,559585
3.86602,522981
3.87413,471868
3.88227,464689
3.89038,448278
3.89852,441104
3.90663,429556
3.91475,444985
3.92288,510679
3.93100,598194
3.93913,637307
3.94725,640731
3.95537,1021727
3.96350,1980940
3.97162,2731460
3.97973,2341411
3.98787,1525275
3.99598,1322625
4.00412,2780091
4.01223,6172815
4.02035,8414512
4.02848,6856117
4.03660,3887922
4.04473,2127665
4.05285,1413979
4.06097,1088543
4.06910,922789
4.07722,776876
4.08535,688181
4.09347,626574
4.10158,580365
4.10972,529426
4.11783,488904
4.12595,461383
4.13408,472203
4.14220,559811
4.15033,784199
4.15845,964120
4.16657,862636
4.17470,689138
4.18282,564639
4.19095,495430
4.19907,450370
4.20718,456458
4.21532,842742
4.22343,2724431
4.23155,6855105
4.23968,1.095932E+07
4.24780,1.153891E+07
4.25593,8538826
4.26405,5244218
4.27217,3509208
4.28030,2529328
4.28842,1972517
4.29655,1582574
4.30467,1319149
4.31278,1131940
4.32092,996085
4.32903,898855
4.33717,826178
4.34528,773040
4.35340,748605
4.36153,720117
4.36965,697555
4.37777,638239
4.38590,604545
4.39402,560364
4.40215,537776
4.41027,508304
4.41838,485916
4.42652,485870
4.43463,469528
4.44277,447441
4.45088,447542
4.45900,441502
4.46713,431034
4.47525,423779
4.48338,417470
4.49150,395860
4.49962,395785
4.50775,382426
4.51587,370263
4.52398,359840
4.53212,356704
4.54023,350628
4.54837,350922
4.55648,345951
4.56460,334746
4.57273,316931
4.58085,318092
4.58898,298536
4.59710,299115
4.60522,304932
4.61335,303512
4.62147,328851
4.62958,398352
4.63772,549169
4.64583,646335
4.65397,617511
4.66208,493452
4.67020,396074
4.67833,364657
4.68645,337403
4.69458,333361
4.70270,312464
4.71082,294432
4.71895,281737
4.72707,279393
4.73520,270454
4.74332,268148
4.75143,263564
4.75957,255598
4.76768,250210
4.77580,254372
4.78393,247933
4.79205,270318
4.80018,323518
4.80830,376392
4.81642,400470
4.82455,349904
4.83267,320737
4.84080,295193
4.84892,298312
4.85703,296093
4.86517,281521
4.87328,287304
4.88142,266197
4.88953,259486
4.89765,256399
4.90578,248980
4.91390,289978
4.92202,439994
4.93015,929198
4.93827,1902105
4.94640,3094681
4.95452,3670173
4.96263,3462875
4.97077,2735556
4.97888,2057652
4.98702,1561675
4.99513,1255677
5.00325,1069700
5.01138,916617
5.01950,830670
5.02762,856655
5.03575,1019935
5.04387,1210518
5.05200,1210829
5.06012,1027127
5.06823,851229
5.07637,724035
5.08448,637536
5.09262,591990
5.10073,580800
5.10885,593870
5.11698,617111
5.12510,608301
5.13323,581865
5.14135,522424
5.14947,488183
5.15760,485147
5.16572,511255
5.17383,560441
5.18197,595817
5.19008,597374
5.19822,574281
5.20633,552013
5.21445,525615
5.22258,472848
5.23070,444887
5.23883,416490
5.24695,404398
5.25507,387730
5.26320,357007
5.27132,343330
5.27943,330956
5.28757,322368
5.29568,317137
5.30382,316600
5.31193,309514
5.32005,302794
5.32818,301589
5.33630,299810
5.34443,298588
5.35255,309746
5.36067,289605
5.36880,283017
5.37692,294597
5.38505,293113
5.39317,307845
5.40128,310276
5.40942,294593
5.41753,286722
5.42565,278046
5.43378,264584
5.44190,256908
5.45003,266669
5.45815,269309
5.46627,264349
5.47440,254597
5.48252,246382
5.49065,245563
5.49877,241608
5.50688,240411
5.51502,246085
5.52313,235097
5.53127,235088
5.53938,231221
5.54750,230113
5.55563,242618
5.56375,261924
5.57187,293556
5.58000,297104
5.58812,286445
5.59625,269875
5.60437,255407
5.61248,238607
5.62062,238877
5.62873,238527
5.63687,238130
5.64498,231129
5.65310,234423
5.66123,234080
5.66935,230163
5.67747,233875
5.68560,255251
5.69372,258649
5.70185,266053
5.70997,272448
5.71808,285310
5.72622,286892
5.73433,297245
5.74247,287028
5.75058,275093
5.75870,279754
5.76683,282586
5.77495,285666
5.78308,283259
5.79120,267855
5.79932,274931
5.80745,345261
5.81557,526255
5.82368,825262
5.83182,1100167
5.83993,1226943
5.84807,1058220
5.85618,807939
5.86430,575855
5.87243,416598
5.88055,346425
5.88868,307352
5.89680,293279
5.90492,299704
5.91305,331047
5.92117,432644
5.92930,545785
5.93742,601810
5.94553,566378
5.95367,472847
5.96178,441722
5.96990,547355
5.97803,738844
5.98615,948182
5.99428,920834
6.00240,717830
6.01052,500949
6.01865,369902
6.02677,303905
6.03490,266144
6.04302,242897
6.05113,228638
6.05927,212954
6.06738,202080
6.07550,199110
6.08363,183997
6.09175,183981
6.09988,187581
6.10800,176613
6.11612,196243
6.12425,211687
6.13237,260573
6.14050,356942
6.14862,441020
6.15673,431993
6.16487,361805
6.17298,289651
6.18112,255248
6.18923,236283
6.19735,241275
6.20548,244199
6.21360,240709
6.22172,233921
6.22985,214912
6.23797,204016
6.24610,212236
6.25422,207577
6.26233,210968
6.27047,207932
6.27858,210125
6.28672,209400
6.29483,205788
6.30295,203321
6.31108,209289
6.31920,222822
6.32732,231502
6.33545,242952
6.34357,255714
6.35170,254805
6.35982,258569
6.36793,243974
6.37607,230943
6.38418,235449
6.39232,226477
6.40043,231399
6.40855,235224
6.41668,242879
6.42480,232351
6.43293,231753
6.44105,234194
6.44917,241723
6.45730,250871
6.46542,250040
6.47353,250596
6.48167,245247
6.48978,249567
6.49792,256394
6.50603,254394
6.51415,262028
6.52228,261834
6.53040,263890
6.53853,273012
6.54665,277900
6.55477,272677
6.56290,274196
6.57102,293205
6.57915,308142
6.58727,326536
6.59538,320664
6.60352,304247
6.61163,297684
6.61975,282473
6.62788,286995
6.63600,275762
6.64413,315914
6.65225,457460
6.66037,821057
6.66850,1367092
6.67662,1659619
6.68475,1488850
6.69287,1097276
6.70098,774584
6.70912,535253
6.71723,425012
6.72535,325395
6.73348,274337
6.74160,244020
6.74973,228160
6.75785,206986
6.76597,206066
6.77410,193255
6.78222,197172
6.79035,219522
6.79847,290359
6.80658,453570
6.81472,667423
6.82283,866906
6.83097,931142
6.83908,813254
6.84720,611833
6.85533,435350
6.86345,331380
6.87157,288820
6.87970,256295
6.88782,208666
6.89595,177552
6.90407,153755
6.91218,139629
6.92032,126650
6.92843,124492
6.93657,136681
6.94468,155202
6.95280,209699
6.96093,281023
6.96905,363474
6.97718,414279
6.98530,394556
6.99342,336822
7.00155,263424
7.00967,197713
7.01778,160141
7.02592,139330
7.03403,127745
7.04217,121755
7.05028,124872
7.05840,133667
7.06653,124334
7.07465,120574
7.08278,116850
7.09090,114526
7.09902,113659
7.10715,108182
7.11527,104802
7.12338,101995
7.13152,105974
7.13963,111298
7.14777,119066
7.15588,136387
7.16400,158586
7.17213,163212
7.18025,168333
7.18838,167593
7.19650,218233
7.20462,370492
7.21275,666754
7.22087,985447
7.22900,1074530
7.23712,900299
7.24523,620387
7.25337,406230
7.26148,304886
7.26960,236304
7.27773,190435
7.28585,177417
7.29398,152793
7.30210,140193
7.31022,141297
7.31835,167035
7.32647,203104
7.33460,247558
7.34272,284573
7.35083,300274
7.35897,279897
7.36708,232435
7.37520,192093
7.38333,153003
7.39145,127915
7.39958,123403
7.40770,121916
7.41582,121493
7.42395,131604
7.43207,153110
7.44020,181834
7.44832,204385
7.45643,209878
7.46457,199982
7.47268,175110
7.48082,147938
7.48893,125982
7.49705,116164
7.50518,100756
7.51330,106605
7.52142,110690
7.52955,135052
7.53767,183537
7.54580,246582
7.55392,333607
7.56203,401598
7.57017,425325
7.57828,397430
7.58642,315867
7.59453,247771
7.60265,188534
7.61078,155535
7.61890,129670
7.62703,120319
7.63515,114907
7.64327,109123
7.65140,103830
7.65952,100242
7.66763,93946
7.67577,97241
7.68388,90986
7.69202,93440
7.70013,96986
7.70825,92234
7.71638,94681
7.72450,95880
7.73263,93817
7.74075,90556
7.74887,93678
7.75700,98302
7.76512,94007
7.77325,99439
7.78137,95894
7.78948,92564
7.79762,94638
7.80573,97965
7.81385,101983
7.82198,93892
7.83010,94206
7.83823,91571
7.84635,93397
7.85447,90938
7.86260,89762
7.87072,94560
7.87885,98826
7.88697,102304
7.89508,105283
7.90322,94715
7.91133,95172
7.91945,89357
7.92758,95318
7.93570,102677
7.94383,114998
7.95195,116507
7.96007,113729
7.96820,112541
7.97632,102048
7.98445,89094
7.99257,85799
8.00068,77776
8.00882,81161
8.01693,76251
8.02507,78782
8.03318,77191
8.04130,77132
8.04943,80939
8.05755,77723
8.06567,75927
8.07380,70931
8.08192,76049
8.09005,75861
8.09817,72403
8.10628,74684
8.11442,72033
8.12253,74202
8.13067,76305
8.13878,85836
8.14690,89217
8.15503,98237
8.16315,93106
8.17127,86753
8.17940,85334
8.18752,82311
8.19565,74985
8.20377,75678
8.21188,74488
8.22002,74440
8.22813,73254
8.23627,74962
8.24438,69797
8.25250,78436
8.26063,68707
8.26875,70465
8.27688,71859
8.28500,75052
8.29312,74520
8.30125,68705
8.30937,74873
8.31748,77301
8.32562,81622
8.33373,85988
8.34187,79419
8.34998,77730
8.35810,73759
8.36623,70070
8.37435,65604
8.38248,67170
8.39060,63498
8.39872,62105
8.40685,63787
8.41497,62183
8.42310,62380
8.43122,66908
8.43933,63207
8.44747,61655
8.45558,63319
8.46370,63950
8.47183,68137
8.47995,65030
8.48808,67873
8.49620,67469
8.50432,68155
8.51245,74187
8.52057,84393
8.52870,105176
8.53682,137576
8.54493,153140
8.55307,160290
8.56118,131200
8.56930,108587
8.57743,86633
8.58555,79272
8.59368,75641
8.60180,77929
8.60992,73745
8.61805,77788
8.62617,70717
8.63430,66750
8.64242,67064
8.65053,68564
8.65867,67662
8.66678,62515
8.67492,64488
8.68303,69610
8.69115,70375
8.69928,74515
8.70740,71289
8.71552,78016
8.72365,130034
8.73177,248300
8.73990,508128
8.74802,837791
8.75613,1112813
8.76427,1180028
8.77238,974381
8.78052,673671
8.78863,450340
8.79675,311541
8.80488,249685
8.81300,225478
8.82113,226711
8.82925,203233
8.83737,199040
8.84550,177161
8.85362,171295
8.86173,153880
8.86987,151762
8.87798,136677
8.88612,133625
8.89423,121746
8.90235,125164
8.91048,120512
8.91860,118429
8.92673,115223
8.93485,125969
8.94297,122909
8.95110,121769
8.95922,119059
8.96733,113994
8.97547,111654
8.98358,107298
8.99172,111470
8.99983,108301
9.00795,101774
9.01608,91501
9.02420,91392
9.03233,94375
9.04045,93272
9.04857,89039
9.05670,88627
9.06482,87621
9.07295,87688
9.08107,88972
9.08918,93413
9.09732,94296
9.10543,102511
9.11355,110455
9.12168,113559
9.12980,111328
9.13793,107895
9.14605,98632
9.15417,90237
9.16230,86023
9.17042,81865
9.17855,84072
9.18667,80601
9.19478,79802
9.20292,82024
9.21103,75489
9.21915,78721
9.22728,76919
9.23540,75364
9.24353,73056
9.25165,73881
9.25977,74225
9.26790,71423
9.27602,73347
9.28415,73434
9.29227,72523
9.30038,73616
9.30852,71918
9.31663,69831
9.32477,72438
9.33288,74341
9.34100,76077
9.34913,79933
9.35725,72817
9.36537,73894
9.37350,65069
9.38162,68864
9.38975,65095
9.39787,76122
9.40598,77694
9.41412,84343
9.42223,94444
9.43037,106228
9.43848,114853
9.44660,109311
9.45473,110199
9.46285,99237
9.47098,82430
9.47910,78731
9.48722,71596
9.49535,71719
9.50347,75844
9.51158,78552
9.51972,80000
9.52783,75967
9.53597,72621
9.54408,64763
9.55220,60181
9.56033,56031
9.56845,52802
9.57658,55344
9.58470,55396
9.59282,60482
9.60095,61149
9.60907,53633
9.61718,53527
9.62532,48838
9.63343,45902
9.64157,46035
9.64968,48648
9.65780,48819
9.66593,46599
9.67405,52368
9.68218,46660
9.69030,45200
9.69842,40862
9.70655,46627
9.71467,44737
9.72280,44829
9.73092,39692
9.73903,42216
9.74717,42962
9.75528,41468
9.76340,42096
9.77153,43574
9.77965,44350
9.78778,39290
9.79590,38874
9.80402,41594
9.81215,41109
9.82027,39830
9.82840,40592
9.83652,42752
9.84463,43899
9.85277,44794
9.86088,45641
9.86902,48247
9.87713,44563
9.88525,47134
9.89338,44213
9.90150,45311
9.90962,44892
9.91775,44102
9.92587,46097
9.93400,59195
9.94212,69437
9.95023,92130
9.95837,101779
9.96648,99215
9.97462,97376
9.98273,82558
9.99085,66746
9.99898,61109
10.00710,54939
10.01522,50731
10.02335,46943
10.03147,47442
10.03960,46314
10.04772,49303
10.05583,49895
10.06397,47110
10.07208,46188
10.08022,47282
10.08833,49716
10.09645,48255
10.10458,42220
10.11270,45948
10.12083,42515
10.12895,43840
10.13707,45093
10.14520,42024
10.15332,43076
10.16143,40924
10.16957,43668
10.17768,41527
10.18582,39700
10.19393,45076
10.20205,40388
10.21018,42417
10.21830,47582
10.22643,50257
10.23455,50446
10.24267,58199
10.25080,56133
10.25892,80910
10.26703,147084
10.27517,293640
10.28328,535450
10.29142,855955
10.29953,1235065
10.30765,1751327
10.31578,2582732
10.32390,3506398
10.33203,3988101
10.34015,3707761
10.34827,2791444
10.35640,1940599
10.36452,1374842
10.37265,1077272
10.38077,844408
10.38888,637993
10.39702,443651
10.40513,310418
10.41325,229362
10.42138,194537
10.42950,170102
10.43763,165300
10.44575,150420
10.45387,149999
10.46200,145227
10.47012,139291
10.47825,124584
10.48637,112159
10.49448,111905
10.50262,111659
10.51073,106744
10.51887,107802
10.52698,100265
10.53510,93311
10.54323,95938
10.55135,90601
10.55947,84803
10.56760,85545
10.57572,80536
10.58385,81349
10.59197,76064
10.60008,73166
10.60822,76425
10.61633,71944
10.62447,73188
10.63258,69928
10.64070,72317
10.64883,67624
10.65695,68509
10.66507,63455
10.67320,72445
10.68132,68385
10.68945,68723
10.69757,71995
10.70568,70962
10.71382,69788
10.72193,68558
10.73007,62155
10.73818,62605
10.74630,62072
10.75443,58809
10.76255,55847
10.77068,58329
10.77880,60132
10.78692,55206
10.79505,58435
10.80317,59307
10.81128,61484
10.81942,60997
10.82753,58125
10.83567,52539
10.84378,55681
10.85190,53107
10.86003,50693
10.86815,50481
10.87628,51822
10.88440,51586
10.89252,44895
10.90065,50073
10.90877,51145
10.91690,49472
10.92502,51113
10.93313,50580
10.94127,48466
10.94938,48917
10.95750,49867
10.96563,49862
10.97375,53062
10.98188,53851
10.99000,55408
10.99812,54429
11.00625,52451
11.01437,52985
11.02250,50952
11.03062,46532
11.03873,48209
11.04687,51240
11.05498,44622
11.06310,48598
11.07123,51403
11.07935,51160
11.08748,54436
11.09560,56986
11.10372,59104
11.11185,57616
11.11997,60310
11.12810,60581
11.13622,57047
11.14433,53153
11.15247,52245
11.16058,52618
11.16872,51290
11.17683,52998
11.18495,53429
11.19308,54734
11.20120,53006
11.20932,52222
11.21745,53760
11.22557,45455
11.23370,45439
11.24182,41645
11.24993,49639
11.25807,57804
11.26618,73882
11.27432,90271
11.28243,117389
11.29055,150050
11.29868,174721
11.30680,210816
11.31493,267377
11.32305,394467
11.33117,547886
11.33930,698452
11.34742,766173
11.35553,688406
11.36367,559330
11.37178,401325
11.37992,288799
11.38803,223794
11.39615,189113
11.40428,161778
11.41240,150736
11.42053,132850
11.42865,116253
11.43677,105565
11.44490,98646
11.45302,94760
11.46113,87076
11.46927,82575
11.47738,93997
11.48552,95900
11.49363,99908
11.50175,101013
11.50988,114412
11.51800,103852
11.52613,102373
11.53425,100573
11.54237,100035
11.55050,98604
11.55862,95847
11.56675,82300
11.57487,79521
11.58298,76567
11.59112,76198
11.59923,81377
11.60735,87646
11.61548,95540
11.62360,94819
11.63173,88643
11.63985,75279
11.64797,70872
11.65610,67874
11.66422,66721
11.67235,66679
11.68047,63321
11.68858,66787
11.69672,72207
11.70483,81073
11.71295,84586
11.72108,90236
11.72920,91404
11.73733,87207
11.74545,86753
11.75357,77983
11.76170,71707
11.76982,65201
11.77795,64097
11.78607,60074
11.79418,59490
11.80232,58812
11.81043,56997
11.81857,57270
11.82668,56088
11.83480,55266
11.84293,52473
11.85105,53648
11.85917,51289
11.86730,48019
11.87542,49546
11.88355,48747
11.89167,47918
11.89978,48492
11.90792,51878
11.91603,59115
11.92417,71631
11.93228,74909
11.94040,81766
11.94853,79617
11.95665,72044
11.96478,65021
11.97290,60078
11.98102,55461
11.98915,55822
11.99727,59511
12.00538,69678
12.01352,69085
12.02163,63657
12.02977,60548
12.03788,55744
12.04600,52087
12.05413,51565
12.06225,52744
12.07038,51571
12.07850,55075
12.08662,58582
12.09475,56248
12.10287,59181
12.11098,58904
12.11912,53037
12.12723,59972
12.13537,57258
12.14348,52779
12.15160,53031
12.15973,45769
12.16785,43990
12.17598,47476
12.18410,45357
12.19222,45431
12.20035,41356
12.20847,42129
12.21660,50757
12.22472,46729
12.23283,47456
12.24097,44762
12.24908,41817
12.25720,46939
12.26533,41967
12.27345,45094
12.28158,44983
12.28970,47368
12.29782,46929
12.30595,50243
12.31407,50807
12.32220,48616
12.33032,46568
12.33843,44159
12.34657,41325
12.35468,45174
12.36282,42870
12.37093,40736
12.37905,43686
12.38718,45003
12.39530,55254
12.40342,69130
12.41155,91485
12.41967,101847
12.42780,108878
12.43592,102143
12.44403,87908
12.45217,72003
12.46028,61365
12.46842,56936
12.47653,51901
12.48465,48901
12.49278,46968
12.50090,47592
12.50902,47611
12.51715,44297
12.52527,45479
12.53340,53405
12.54152,56650
12.54963,70427
12.55777,74965
12.56588,87996
12.57402,83895
12.58213,75223
12.59025,64118
12.59838,56565
12.60650,53270
12.61463,51474
12.62275,49071
12.63087,47200
12.63900,46363
12.64712,44687
12.65523,40348
12.66337,41372
12.67148,40326
12.67962,44774
12.68773,42751
12.69585,37920
12.70398,42668
12.71210,40339
12.72023,44577
12.72835,48772
12.73647,51061
12.74460,46982
12.75272,47613
12.76083,49280
12.76897,47007
12.77708,48209
12.78522,45429
12.79333,50474
12.80145,52974
12.80958,51186
12.81770,48109
12.82583,46617
12.83395,43964
12.84207,41699
12.85020,44293
12.85832,43756
12.86645,41372
12.87457,41210
12.88268,43771
12.89082,40651
12.89893,38403
12.90705,41993
12.91518,40204
12.92330,40702
12.93143,48651
12.93955,58950
12.94767,75179
12.95580,102275
12.96392,118914
12.97205,137741
12.98017,134491
12.98828,123007
12.99642,112312
13.00453,92120
13.01267,90123
13.02078,87954
13.02890,82171
13.03703,72907
13.04515,70984
13.05327,63043
13.06140,60241
13.06952,58278
13.07765,50519
13.08577,49617
13.09388,49219
13.10202,48740
13.11013,47790
13.11827,45577
13.12638,47837
13.13450,44896
13.14263,48082
13.15075,45604
13.15888,45633
13.16700,47068
13.17512,44882
13.18325,49043
13.19137,41988
13.19948,44599
13.20762,47591
13.21573,45153
13.22387,48389
13.23198,49043
13.24010,49922
13.24823,53939
13.25635,60151
13.26448,61917
13.27260,60873
13.28072,60082
13.28885,58615
13.29697,58776
13.30508,55780
13.31322,55270
13.32133,64375
13.32947,57824
13.33758,59216
13.34570,58213
13.35383,53976
13.36195,51088
13.37008,53991
13.37820,46842
13.38632,46660
13.39445,50043
13.40257,47060
13.41070,42656
13.41882,45893
13.42693,44856
13.43507,42807
13.44318,43072
13.45130,42734
13.45943,43306
13.46755,46077
13.47568,43498
13.48380,46857
13.49192,44303
13.50005,42159
13.50817,40741
13.51630,40510
13.52442,41819
13.53253,47784
13.54067,46320
13.54878,50094
13.55690,51332
13.56503,56330
13.57315,55386
13.58128,59915
13.58940,63661
13.59752,70668
13.60565,86250
13.61377,99895
13.62190,113025
13.63002,117327
13.63813,106690
13.64627,101206
13.65438,81513
13.66252,71307
13.67063,63946
13.67875,62344
13.68688,57223
13.69500,59101
13.70312,55525
13.71125,51743
13.71937,54636
13.72750,53256
13.73562,48951
13.74373,52392
13.75187,58477
13.75998,75501
13.76812,80533
13.77623,95394
13.78435,105915
13.79248,111938
13.80060,120756
13.80872,138387
13.81685,163142
13.82497,194448
13.83310,201852
13.84122,208869
13.84933,175826
13.85747,153035
13.86558,126065
13.87372,109404
13.88183,98532
13.88995,93173
13.89808,94746
13.90620,85998
13.91433,84010
13.92245,84900
13.93057,75875
13.93870,76435
13.94682,70841
13.95493,72176
13.96307,70864
13.97118,69891
13.97932,70550
13.98743,71537
13.99555,69154
14.00368,66305
14.01180,63257
14.01993,70351
14.02805,64199
14.03617,65351
14.04430,63480
14.05242,62729
14.06055,59596
14.06867,54756
14.07678,56380
14.08492,56548
14.09303,49287
14.10115,55204
14.10928,53205
14.11740,59543
14.12553,74081
14.13365,112090
14.14177,189575
14.14990,305284
14.15802,421118
14.16615,482981
14.17427,459872
14.18238,374888
14.19052,268707
14.19863,199734
14.20677,151476
14.21488,135699
14.22300,122413
14.23113,114810
14.23925,103898
14.24737,109566
14.25550,102793
14.26362,97413
14.27175,86224
14.27987,80375
14.28798,73683
14.29612,72929
14.30423,69647
14.31237,69189
14.32048,55909
14.32860,54972
14.33673,48507
14.34485,46764
14.35297,46078
14.36110,40501
14.36922,42424
14.37735,40211
14.38547,48233
14.39358,55643
14.40172,74325
14.40983,99007
14.41797,128437
14.42608,134217
14.43420,128783
14.44233,108662
14.45045,83373
14.45858,73831
14.46670,65306
14.47482,63520
14.48295,59873
14.49107,60222
14.49918,57928
14.50732,53589
14.51543,50721
14.52357,49773
14.53168,49930
14.53980,49175
14.54793,46627
14.55605,44534
14.56418,43130
14.57230,41953
14.58042,44619
14.58855,40842
14.59667,39035
14.60478,41093
14.61292,41699
14.62103,40600
14.62917,43993
14.63728,39780
14.64540,38679
14.65353,41760
14.66165,38207
14.66978,36289
14.67790,37409
14.68602,36560
14.69415,41830
14.70227,42184
14.71040,39762
14.71852,38744
14.72663,42649
14.73477,41149
14.74288,38338
14.75100,40639
14.75913,39971
14.76725,39822
14.77538,41218
14.78350,45336
14.79162,81624
14.79975,144457
14.80787,296145
14.81600,517325
14.82412,756286
14.83223,896702
14.84037,834989
14.84848,651595
14.85662,425146
14.86473,266396
14.87285,180559
14.88098,140827
14.88910,106821
14.89722,99235
14.90535,88415
14.91347,84527
14.92160,80137
14.92972,79933
14.93783,72200
14.94597,65625
14.95408,62493
14.96222,62370
14.97033,59425
14.97845,57037
14.98658,60058
14.99470,55032
15.00282,54577
15.01095,59261
15.01907,54781
15.02720,55449
15.03532,54697
15.04343,52844
15.05157,53878
15.05968,49807
15.06782,49469
15.07593,53993
15.08405,45790
15.09218,46589
15.10030,44600
15.10843,43177
15.11655,45150
15.12467,50693
15.13280,51247
15.14092,51634
15.14903,47186
15.15717,55243
15.16528,42660
15.17342,42696
15.18153,44908
15.18965,43398
15.19778,42045
15.20590,41264
15.21403,40528
15.22215,39842
15.23027,40285
15.23840,38106
15.24652,40036
15.25465,39863
15.26277,40137
15.27088,38666
15.27902,36631
15.28713,36354
15.29525,37335
15.30338,39814
15.31150,37184
15.31963,33617
15.32775,36008
15.33587,37436
15.34400,37095
15.35212,33973
15.36025,35767
15.36837,38508
15.37648,35910
15.38462,33714
15.39273,36217
15.40085,37853
15.40898,37696
15.41710,35657
15.42523,40936
15.43335,34613
15.44147,35759
15.44960,37332
15.45772,43587
15.46585,58557
15.47397,74334
15.48208,102959
15.49022,132410
15.49833,153014
15.50647,165827
15.51458,160200
15.52270,134617
15.53083,116817
15.53895,106122
15.54707,90143
15.55520,81872
15.56332,73528
15.57145,63174
15.57957,61675
15.58768,53573
15.59582,49614
15.60393,50823
15.61207,46112
15.62018,43822
15.62830,44685
15.63643,43650
15.64455,43858
15.65267,43189
15.66080,36524
15.66892,39831
15.67705,43293
15.68517,43606
15.69328,40770
15.70142,42340
15.70953,39845
15.71767,41912
15.72578,38488
15.73390,37923
15.74203,41368
15.75015,47105
15.75828,53278
15.76640,65878
15.77452,82416
15.78265,94655
15.79077,97395
15.79888,95261
15.80702,80865
15.81513,64961
15.82327,57783
15.83138,51689
15.83950,44833
15.84763,44433
15.85575,45816
15.86388,46593
15.87200,44164
15.88012,43765
15.88825,43736
15.89637,42710
15.90450,44959
15.91262,40951
15.92073,44327
15.92887,45196
15.93698,40805
15.94510,42500
15.95323,44321
15.96135,39314
15.96948,41896
15.97760,42162
15.98572,47928
15.99385,48840
16.00197,50261
16.01010,58874
16.01822,58549
16.02633,61729
16.03447,54973
16.04258,54238
16.05070,57048
16.05883,50927
16.06695,47402
16.07508,48440
16.08320,42970
16.09132,45066
16.09945,43721
16.10757,46667
16.11570,44982
16.12382,46979
16.13193,43539
16.14007,45123
16.14818,48889
16.15632,47116
16.16443,45675
16.17255,41890
16.18068,41472
16.18880,41576
16.19692,40075
16.20505,45618
16.21317,39801
16.22130,41522
16.22942,42402
16.23753,41136
16.24567,40655
16.25378,37685
16.26192,42988
16.27003,40669
16.27815,41213
16.28628,43814
16.29440,46538
16.30253,45107
16.31065,48127
16.31877,46280
16.32690,44245
16.33502,43034
16.34313,43688
16.35127,41249
16.35938,44378
16.36752,42463
16.37563,46405
16.38375,46125
16.39188,45300
16.40000,43752
16.40813,40947
16.41625,42157
16.42437,38881
16.43250,41510
16.44062,46637
16.44873,53579
16.45687,64196
16.46498,95891
16.47312,115822
16.48123,132183
16.48935,128632
16.49748,107721
16.50560,91116
16.51373,69326
16.52185,58762
16.52997,52276
16.53810,52779
16.54622,49858
16.55435,47348
16.56247,45225
16.57058,44424
16.57872,46069
16.58683,44874
16.59495,46769
16.60308,43916
16.61120,49676
16.61933,46986
16.62745,44572
16.63557,42272
16.64370,45418
16.65182,41716
16.65995,41200
16.66807,42004
16.67618,39851
16.68432,37854
16.69243,46616
16.70057,39688
16.70868,41790
16.71680,41330
16.72493,41478
16.73305,38742
16.74117,39226
16.74930,38491
16.75742,37581
16.76555,39261
16.77367,36522
16.78178,39912
16.78992,43124
16.79803,39978
16.80617,41230
16.81428,38386
16.82240,40197
16.83053,38194
16.83865,39622
16.84677,38782
16.85490,38880
16.86302,37533
16.87115,39841
16.87927,37194
16.88738,36019
16.89552,35591
16.90363,35270
16.91177,42157
16.91988,37911
16.92800,40308
16.93613,40130
16.94425,35778
16.95238,37291
16.96050,38995
16.96862,35548
16.97675,39164
16.98487,37130
16.99298,38412
17.00112,41386
17.00923,37533
17.01737,43422
17.02548,36599
17.03360,40260
17.04173,39197
17.04985,40005
17.05798,41283
17.06610,39991
17.07422,42712
17.08235,41249
17.09047,40893
17.09858,39601
17.10672,41762
17.11483,46349
17.12297,39981
17.13108,42538
17.13920,44816
17.14733,43959
17.15545,42666
17.16358,41368
17.17170,48235
17.17982,41471
17.18795,44659
17.19607,40832
17.20420,37027
17.21232,38576
17.22043,39567
17.22857,40091
17.23668,39666
17.24480,38921
17.25293,38298
17.26105,38399
17.26918,37750
17.27730,39414
17.28542,40352
17.29355,37292
17.30167,40173
17.30980,39118
17.31792,42560
17.32603,43551
17.33417,48759
17.34228,48982
17.35042,50197
17.35853,47655
17.36665,52116
17.37478,49761
17.38290,49869
17.39102,47402
17.39915,48294
17.40727,49746
17.41540,51835
17.42352,51057
17.43163,53331
17.43977,51881
17.44788,46726
17.45602,44937
17.46413,43451
17.47225,41105
17.48038,43796
17.48850,41427
17.49662,44136
17.50475,45961
17.51287,48555
17.52100,48783
17.52912,49681
17.53723,55862
17.54537,61896
17.55348,61552
17.56162,73762
17.56973,80841
17.57785,91064
17.58598,112314
17.59410,135376
17.60223,146134
17.61035,143563
17.61847,130477
17.62660,107745
17.63472,88734
17.64283,78283
17.65097,74227
17.65908,65540
17.66722,66260
17.67533,63534
17.68345,57653
17.69158,58825
17.69970,59840
17.70783,58075
17.71595,56431
17.72407,58279
17.73220,55810
17.74032,55473
17.74845,53180
17.75657,48761
17.76468,48219
17.77282,48307
17.78093,49091
17.78905,45974
17.79718,49432
17.80530,50593
17.81343,60775
17.82155,61355
17.82967,67328
17.83780,71009
17.84592,67228
17.85405,71445
17.86217,67277
17.87028,64301
17.87842,58559
17.88653,54792
17.89465,52548
17.90278,48998
17.91090,46289
17.91903,46187
17.92715,45953
17.93527,44947
17.94340,44326
17.95152,42583
17.95965,42632
17.96777,44945
17.97588,47212
17.98402,41427
17.99213,41718
18.00027,43239
18.00838,43849
18.01650,53044
18.02463,57608
18.03275,59879
18.04087,66344
18.04900,77722
18.05712,101886
18.06525,167663
18.07337,289610
18.08148,471709
18.08962,645137
18.09773,712430
18.10587,675643
18.11398,509205
18.12210,366064
18.13023,253310
18.13835,182302
18.14647,145826
18.15460,127319
18.16272,110764
18.17085,102349
18.17897,96639
18.18708,89700
18.19522,89482
18.20333,81932
18.21147,77477
18.21958,76162
18.22770,74212
18.23583,69486
18.24395,68613
18.25208,66394
18.26020,62629
18.26832,61586
18.27645,59354
18.28457,57088
18.29268,57680
18.30082,48382
18.30893,49642
18.31707,47963
18.32518,56459
18.33330,62535
18.34143,74743
18.34955,82259
18.35768,89437
18.36580,93168
18.37392,93958
18.38205,95734
18.39017,101646
18.39830,103115
18.40642,106022
18.41453,107642
18.42267,117291
18.43078,113697
18.43890,120226
18.44703,125087
18.45515,130631
18.46328,134325
18.47140,142438
18.47952,142631
18.48765,131206
18.49577,126533
18.50390,119066
18.51202,115642
18.52013,102902
18.52827,106676
18.53638,104110
18.54452,96986
18.55263,94479
18.56075,100360
18.56888,90030
18.57700,95673
18.58512,93696
18.59325,94205
18.60137,101908
18.60950,99440
18.61762,103568
18.62573,102249
18.63387,101601
18.64198,96009
18.65012,94433
18.65823,81847
18.66635,82657
18.67448,85963
18.68260,82660
18.69072,76962
18.69885,81200
18.70697,78820
18.71510,79396
18.72322,73145
18.73133,71862
18.73947,69068
18.74758,66309
18.75572,66178
18.76383,69519
18.77195,66033
18.78008,69982
18.78820,70724
18.79633,67869
18.80445,64603
18.81257,69548
18.82070,65798
18.82882,64528
18.83693,55997
18.84507,59011
18.85318,66310
18.86132,64635
18.86943,64480
18.87755,65691
18.88568,62779
18.89380,68020
18.90193,64632
18.91005,67037
18.91817,65351
18.92630,63558
18.93442,60935
18.94253,66296
18.95067,63218
18.95878,64744
18.96692,61121
18.97503,57538
18.98315,58715
18.99128,57356
18.99940,58387
19.00753,57916
19.01565,61328
19.02377,59743
19.03190,57394
19.04002,56212
19.04815,58120
19.05627,52981
19.06438,54683
19.07252,54194
19.08063,56902
19.08875,61511
19.09688,66922
19.10500,67573
19.11313,68413
19.12125,69308
19.12937,71158
19.13750,72899
19.14562,69148
19.15375,70388
19.16187,68969
19.16998,69631
19.17812,67249
19.18623,63850
19.19437,60147
19.20248,58849
19.21060,59617
19.21873,52502
19.22685,54090
19.23497,51981
19.24310,51222
19.25122,53208
19.25935,50184
19.26747,56902
19.27558,57989
19.28372,62114
19.29183,68934
19.29997,68371
19.30808,65421
19.31620,59159
19.32433,64459
19.33245,57838
19.34057,58957
19.34870,61532
19.35682,58071
19.36495,67687
19.37307,70090
19.38118,67104
19.38932,63443
19.39743,68291
19.40557,66627
19.41368,69022
19.42180,77771
19.42993,106831
19.43805,145445
19.44618,198139
19.45430,265551
19.46242,303003
19.47055,282301
19.47867,220189
19.48678,158215
19.49492,112039
19.50303,88514
19.51117,75265
19.51928,73769
19.52740,71165
19.53553,68603
19.54365,65884
19.55178,60439
19.55990,59809
19.56802,62406
19.57615,56274
19.58427,54756
19.59240,57272
19.60052,53562
19.60863,49596
19.61677,55349
19.62488,60671
19.63300,66957
19.64113,91959
19.64925,108665
19.65738,131460
19.66550,137130
19.67362,135472
19.68175,119039
19.68987,116376
19.69800,98950
19.70612,87179
19.71423,82999
19.72237,77604
19.73048,65472
19.73860,66426
19.74673,67796
19.75485,70806
19.76298,68596
19.77110,64715
19.77922,77205
19.78735,79018
19.79547,76058
19.80360,78590
19.81172,74625
19.81983,69216
19.82797,65427
19.83608,61173
19.84422,58576
19.85233,73683
19.86045,103892
19.86858,181274
19.87670,310632
19.88482,473830
19.89295,660766
19.90107,766383
19.90920,759359
19.91732,623041
19.92543,452472
19.93357,336392
19.94168,237214
19.94982,185889
19.95793,159258
19.96605,138366
19.97418,136288
19.98230,127587
19.99042,117384
19.99855,110359
20.00667,111551
20.01480,109190
20.02292,106566
20.03103,94083
20.03917,95754
20.04728,91392
20.05542,91897
20.06353,96023
20.07165,101031
20.07978,112692
20.08790,104323
20.09603,100711
20.10415,94041
20.11227,80874
20.12040,76840
20.12852,76716
20.13663,85768
20.14477,102591
20.15288,129035
20.16102,166723
20.16913,218996
20.17725,274715
20.18538,318726
20.19350,344017
20.20163,323537
20.20975,291061
20.21787,244417
20.22600,213213
20.23412,208316
20.24225,212214
20.25037,239794
20.25848,276794
20.26662,296467
20.27473,291150
20.28285,267823
20.29098,227314
20.29910,185543
20.30723,147623
20.31535,126704
20.32347,105502
20.33160,89141
20.33972,81425
20.34785,72847
20.35597,65992
20.36408,66647
20.37222,64632
20.38033,63150
20.38845,61023
20.39658,62045
20.40470,68957
20.41283,73767
20.42095,70444
20.42907,72347
20.43720,71998
20.44532,64980
20.45345,60424
20.46157,57524
20.46968,60038
20.47782,56964
20.48593,58535
20.49407,51520
20.50218,49599
20.51030,53254
20.51843,55609
20.52655,51344
20.53467,46884
20.54280,48049
20.55092,48226
20.55905,47722
20.56717,48397
20.57528,47606
20.58342,50600
20.59153,49579
20.59967,49848
20.60778,49300
20.61590,50690
20.62403,50242
20.63215,50421
20.64028,51996
20.64840,54043
20.65652,53991
20.66465,49428
20.67277,49004
20.68088,47866
20.68902,46848
20.69713,49598
20.70527,48899
20.71338,45589
20.72150,48616
20.72963,50657
20.73775,51144
20.74588,50454
20.75400,51842
20.76212,51919
20.77025,54775
20.77837,58427
20.78648,74689
20.79462,89313
20.80273,116571
20.81087,132668
20.81898,145438
20.82710,129829
20.83523,109594
20.84335,88430
20.85148,75383
20.85960,65625
20.86772,57770
20.87585,56656
20.88397,55882
20.89210,57912
20.90022,60591
20.90833,60547
20.91647,60617
20.92458,60280
20.93270,63181
20.94083,59057
20.94895,57385
20.95708,57012
20.96520,55472
20.97332,51478
20.98145,49715
20.98957,47251
20.99770,43385
21.00582,55225
21.01393,54057
21.02207,47093
21.03018,50663
21.03832,50339
21.04643,52361
21.05455,49066
21.06268,57449
21.07080,51568
21.07892,48702
21.08705,46863
21.09517,52162
21.10330,49368
21.11142,44621
21.11953,49132
21.12767,48629
21.13578,57271
21.14392,64175
21.15203,68149
21.16015,74309
21.16828,68187
21.17640,66025
21.18452,59981
21.19265,57603
21.20077,56430
21.20890,54202
21.21702,55415
21.22513,53711
21.23327,58004
21.24138,53766
21.24952,57128
21.25763,52150
21.26575,54032
21.27388,56027
21.28200,57258
21.29013,53204
21.29825,49842
21.30637,52025
21.31450,56119
21.32262,54503
21.33073,54406
21.33887,53745
21.34698,49612
21.35512,50905
21.36323,52387
21.37135,55880
21.37948,54986
21.38760,52446
21.39573,56779
21.40385,56137
21.41197,57662
21.42010,59984
21.42822,58905
21.43633,55504
21.44447,56174
21.45258,52586
21.46072,55174
21.46883,48952
21.47695,50537
21.48508,50055
21.49320,50410
21.50133,48516
21.50945,47783
21.51757,51734
21.52570,49464
21.53382,49415
21.54195,51705
21.55007,53297
21.55818,48187
21.56632,49738
21.57443,54218
21.58255,58131
21.59068,66511
21.59880,71624
21.60693,73443
21.61505,69793
21.62317,71526
21.63130,63370
21.63942,62833
21.64755,58105
21.65567,57237
21.66378,59477
21.67192,54468
21.68003,53815
21.68817,54532
21.69628,49980
21.70440,54073
21.71253,50597
21.72065,50858
21.72877,49043
21.73690,52725
21.74502,50432
21.75315,46852
21.76127,52012
21.76938,55800
21.77752,56318
21.78563,59075
21.79377,64459
21.80188,65903
21.81000,63860
21.81813,55631
21.82625,61584
21.83437,53883
21.84250,55451
21.85062,46699
21.85875,47456
21.86687,47324
21.87498,44923
21.88312,45637
21.89123,43992
21.89937,49472
21.90748,42424
21.91560,47500
21.92373,47300
21.93185,42827
21.93998,45063
21.94810,45743
21.95622,57598
21.96435,60758
21.97247,66915
21.98058,70765
21.98872,72051
21.99683,73960
22.00497,73487
22.01308,80360
22.02120,76335
22.02933,78316
22.03745,76882
22.04558,80429
22.05370,79519
22.06182,84856
22.06995,82753
22.07807,78033
22.08620,79298
22.09432,74248
22.10243,72285
22.11057,75719
22.11868,72252
22.12680,71086
22.13493,66674
22.14305,70369
22.15118,67896
22.15930,64602
22.16742,68108
22.17555,66826
22.18367,69347
22.19180,69193
22.19992,69857
22.20803,63982
22.21617,63052
22.22428,61933
22.23240,58177
22.24053,57213
22.24865,55511
22.25678,59130
22.26490,57259
22.27302,57326
22.28115,56204
22.28927,56423
22.29740,60549
22.30552,58372
22.31363,56926
22.32177,56779
22.32988,53077
22.33802,53703
22.34613,54387
22.35425,55870
22.36238,50130
22.37050,52288
22.37862,61083
22.38675,63195
22.39487,58879
22.40300,68661
22.41112,72416
22.41923,73943
22.42737,69805
22.43548,75689
22.44362,61290
22.45173,60353
22.45985,60466
22.46798,52589
22.47610,63119
22.48422,60864
22.49235,65547
22.50047,65631
22.50860,69823
22.51672,64126
22.52483,65135
22.53297,57473
22.54108,53805
22.54922,54326
22.55733,52836
22.56545,53463
22.57358,43504
22.58170,47491
22.58983,48143
22.59795,42597
22.60607,45997
22.61420,44377
22.62232,46493
22.63043,46851
22.63857,43420
22.64668,41349
22.65482,43354
22.66293,41451
22.67105,45204
22.67918,45078
22.68730,46546
22.69543,50596
22.70355,55164
22.71167,51273
22.71980,52723
22.72792,51034
22.73605,50570
22.74417,48925
22.75228,44570
22.76042,46044
22.76853,49729
22.77665,44031
22.78478,51189
22.79290,52285
22.80103,58761
22.80915,59666
22.81727,58402
22.82540,54804
22.83352,52142
22.84165,52374
22.84977,51360
22.85788,54924
22.86602,59416
22.87413,64702
22.88227,67923
22.89038,73468
22.89850,84623
22.90663,91132
22.91475,94926
22.92287,101924
22.93100,106585
22.93912,101506
22.94725,90589
22.95537,78642
22.96348,73024
22.97162,68660
22.97973,66837
22.98787,63206
22.99598,56208
23.00410,54980
23.01223,52564
23.02035,50290
23.02847,47985
23.03660,46823
23.04472,46835
23.05285,46039
23.06097,47616
23.06908,45908
23.07722,45380
23.08533,49270
23.09347,47865
23.10158,42699
23.10970,43591
23.11783,43636
23.12595,41809
23.13408,42842
23.14220,42644
23.15032,42072
23.15845,40869
23.16657,42953
23.17468,39297
23.18282,42640
23.19093,43706
23.19907,40658
23.20718,39936
23.21530,41081
23.22343,44697
23.23155,37642
23.23968,41851
23.24780,42799
23.25592,44006
23.26405,44079
23.27217,46614
23.28028,49830
23.28842,44845
23.29653,42822
23.30467,40817
23.31278,44906
23.32090,42001
23.32903,44387
23.33715,48856
23.34528,63240
23.35340,63162
23.36152,76849
23.36965,81133
23.37777,86704
23.38590,91812
23.39402,91862
23.40213,92260
23.41027,93090
23.41838,81460
23.42650,83885
23.43463,80849
23.44275,78391
23.45088,73361
23.45900,72498
23.46712,68453
23.47525,68349
23.48337,64708
23.49150,61285
23.49962,59006
23.50773,57457
23.51587,57163
23.52398,58465
23.53212,57114
23.54023,60444
23.54835,63688
23.55648,66022
23.56460,71008
23.57272,83150
23.58085,88551
23.58897,101929
23.59710,112225
23.60522,117884
23.61333,102801
23.62147,91291
23.62958,88042
23.63772,73543
23.64583,68016
23.65395,66032
23.66208,70240
23.67020,68951
23.67832,67272
23.68645,58667
23.69457,60098
23.70270,56540
23.71082,65095
23.71893,64630
23.72707,77601
23.73518,113913
23.74332,225096
23.75143,514398
23.75955,1216836
23.76768,2347551
23.77580,3636176
23.78393,4409591
23.79205,4503422
23.80017,3929162
23.80830,3097962
23.81642,2313680
23.82453,1649201
23.83267,1235994
23.84078,939322
23.84892,737516
23.85703,612768
23.86515,518638
23.87328,439745
23.88140,404189
23.88953,361566
23.89765,332573
23.90577,302327
23.91390,278919
23.92202,257805
23.93015,239912
23.93827,234926
23.94638,225744
23.95452,215262
23.96263,198865
23.97075,190660
23.97888,181442
23.98700,169713
23.99513,168029
24.00325,164148
24.01137,161220
24.01950,157486
24.02762,147701
24.03575,145272
24.04387,138243
24.05198,139339
24.06012,135285
24.06823,128670
24.07635,128645
24.08448,124244
24.09260,130387
24.10073,122553
24.10885,115468
24.11697,115047
24.12510,112726
24.13322,112331
24.14135,114671
24.14947,115732
24.15758,115143
24.16572,116534
24.17383,113973
24.18197,121692
24.19008,112106
24.19820,109789
24.20633,109280
24.21445,104227
24.22257,96985
24.23070,89692
24.23882,87991
24.24695,87453
24.25507,81836
24.26318,86827
24.27132,78998
24.27943,79495
24.28757,79388
24.29568,85986
24.30380,86246
24.31193,92392
24.32005,121296
24.32817,149593
24.33630,196477
24.34442,220609
24.35255,225078
24.36067,195667
24.36878,147576
24.37692,118586
24.38503,91803
24.39317,79361
24.40128,73866
24.40940,68305
24.41753,75728
24.42565,72316
24.43378,74853
24.44190,81734
24.45002,86787
24.45815,90040
24.46627,91435
24.47438,90430
24.48252,88632
24.49063,83516
24.49877,84685
24.50688,82202
24.51500,81232
24.52313,81008
24.53125,88254
24.53938,100162
24.54750,100968
24.55562,104186
24.56375,99772
24.57187,94057
24.58000,89584
24.58812,77745
24.59623,72442
24.60437,67362
24.61248,68633
24.62060,65466
24.62873,66110
24.63685,66158
24.64498,66106
24.65310,65483
24.66122,59448
24.66935,63301
24.67747,59655
24.68560,67933
24.69372,58335
24.70183,57936
24.70997,55211
24.71808,60070
24.72620,56926
24.73433,64984
24.74245,58054
24.75058,56981
24.75870,55747
24.76682,57312
24.77495,59183
24.78307,61734
24.79120,61356
24.79932,60493
24.80743,60245
24.81557,62157
24.82368,73859
24.83182,71540
24.83993,74832
24.84805,85010
24.85618,98690
24.86430,110762
24.87242,124901
24.88055,141999
24.88867,146955
24.89680,146528
24.90492,129111
24.91303,101649
24.92117,88206
24.92928,77049
24.93742,69491
24.94553,65120
24.95365,75925
24.96178,83413
24.96990,89263
24.97803,100393
24.98615,98552
24.99427,94977
25.00240,99671
25.01052,102372
25.01863,100911
25.02677,98466
25.03488,95846
25.04302,101020
25.05113,92881
25.05925,95433
25.06738,92798
25.07550,88709
25.08363,92553
25.09175,98031
25.09987,120075
25.10800,162871
25.11612,232833
25.12423,348828
25.13237,499916
25.14048,598339
25.14862,639973
25.15673,540509
25.16485,434171
25.17298,309298
25.18110,219730
25.18923,166090
25.19735,126151
25.20547,110577
25.21360,100706
25.22172,96290
25.22985,95007
25.23797,101730
25.24608,112470
25.25422,116461
25.26233,132711
25.27045,128906
25.27858,126761
25.28670,114808
25.29483,103911
25.30295,98240
25.31107,86108
25.31920,83146
25.32732,78828
25.33545,80747
25.34357,73673
25.35168,69589
25.35982,64899
25.36793,65103
25.37605,65031
25.38418,64984
25.39230,60546
25.40043,65465
25.40855,63124
25.41667,62161
25.42480,62868
25.43292,61760
25.44105,59606
25.44917,59671
25.45728,58124
25.46542,55327
25.47353,57573
25.48167,56910
25.48978,57001
25.49790,59988
25.50603,58609
25.51415,56785
25.52227,58126
25.53040,55747
25.53852,52678
25.54665,59007
25.55477,54326
25.56288,53767
25.57102,49376
25.57913,54098
25.58727,51983
25.59538,53567
25.60350,51541
25.61163,51205
25.61975,50984
25.62788,51456
25.63600,49737
25.64412,53100
25.65225,52734
25.66037,58718
25.66848,54829
25.67662,52265
25.68473,52619
25.69287,55859
25.70098,51263
25.70910,50669
25.71723,52518
25.72535,47556
25.73348,48394
25.74160,46646
25.74972,51652
25.75785,48899
25.76597,48942
25.77408,49781
25.78222,49882
25.79033,46291
25.79847,45197
25.80658,48154
25.81470,47762
25.82283,47549
25.83095,53808
25.83908,48228
25.84720,48962
25.85532,45849
25.86345,46625
25.87157,44838
25.87970,49241
25.88782,45157
25.89593,47555
25.90407,43868
25.91218,47428
25.92030,44382
25.92843,43867
25.93655,45901
25.94468,45014
25.95280,42634
25.96092,43846
25.96905,45763
25.97717,44250
25.98530,45104
25.99342,41479
26.00153,43602
26.00967,44744
26.01778,45262
26.02592,46081
26.03403,47795
26.04215,44145
26.05028,40605
26.05840,44339
26.06652,45653
26.07465,42884
26.08277,43252
26.09090,46218
26.09902,48662
26.10713,46344
26.11527,53737
26.12338,49173
26.13152,51336
26.13963,53333
26.14775,55086
26.15588,55484
26.16400,54385
26.17212,51630
26.18025,52635
26.18837,53044
26.19650,49654
26.20462,47459
26.21273,48283
26.22087,45486
26.22898,42159
26.23712,43563
26.24523,45082
26.25335,44737
26.26148,43079
26.26960,46300
26.27773,40737
26.28585,39774
26.29397,43336
26.30210,43097
26.31022,42933
26.31833,40579
26.32647,41404
26.33458,45544
26.34272,48496
26.35083,49075
26.35895,62256
26.36708,79450
26.37520,96411
26.38333,115256
26.39145,118279
26.39957,117722
26.40770,106931
26.41582,95491
26.42395,72457
26.43207,65900
26.44018,53904
26.44832,50159
26.45643,47303
26.46455,48796
26.47268,50807
26.48080,46425
26.48893,44524
26.49705,44254
26.50517,44793
26.51330,43275
26.52142,43885
26.52955,46047
26.53767,41840
26.54578,39049
26.55392,43636
26.56203,45203
26.57015,42781
26.57828,41912
26.58640,40954
26.59453,42188
26.60265,42372
26.61077,41325
26.61890,42171
26.62702,48008
26.63515,44254
26.64327,41281
26.65138,44441
26.65952,42126
26.66763,46037
26.67577,44440
26.68388,43153
26.69200,42699
26.70013,46053
26.70825,42498
26.71637,45429
26.72450,51437
26.73262,44493
26.74075,43645
26.74887,47215
26.75698,42381
26.76512,43018
26.77323,45084
26.78137,41142
26.78948,46225
26.79760,46358
26.80573,47403
26.81385,49322
26.82197,52456
26.83010,43234
26.83822,43808
26.84635,44490
26.85447,41309
26.86258,43886
26.87072,40168
26.87883,44584
26.88697,44219
26.89508,41741
26.90320,46300
26.91133,41702
26.91945,48282
26.92758,49058
26.93570,52349
26.94382,65108
26.95195,107844
26.96007,179868
26.96818,319906
26.97632,531676
26.98443,809573
26.99257,1158270
27.00068,1524495
27.00880,1658549
27.01693,1565073
27.02505,1298859
27.03318,989734
27.04130,755060
27.04942,570347
27.05755,437146
27.06567,343742
27.07380,276246
27.08192,237487
27.09003,203717
27.09817,173828
27.10628,156074
27.11440,141737
27.12253,143678
27.13065,127180
27.13878,119856
27.14690,116478
27.15502,112420
27.16315,117734
27.17127,116692
27.17940,112701
27.18752,100368
27.19563,99685
27.20377,86882
27.21188,83482
27.22000,85701
27.22813,78209
27.23625,74928
27.24438,77633
27.25250,71362
27.26062,68277
27.26875,65606
27.27687,71202
27.28500,69956
27.29312,68173
27.30123,64825
27.30937,66899
27.31748,64756
27.32562,61023
27.33373,61121
27.34185,61347
27.34998,63069
27.35810,63044
27.36622,59708
27.37435,57470
27.38247,55441
27.39060,55298
27.39872,53343
27.40683,58283
27.41497,56447
27.42308,56533
27.43122,54702
27.43933,51932
27.44745,54182
27.45558,50643
27.46370,51526
27.47183,53163
27.47995,51171
27.48807,50402
27.49620,50074
27.50432,50799
27.51243,53223
27.52057,49789
27.52868,52999
27.53682,53604
27.54493,53334
27.55305,53021
27.56118,55506
27.56930,51132
27.57743,54622
27.58555,54878
27.59367,54835
27.60180,55543
27.60992,53732
27.61803,51975
27.62617,48927
27.63428,50210
27.64242,49733
27.65053,46643
27.65865,50773
27.66678,52420
27.67490,54428
27.68303,57250
27.69115,59957
27.69927,53400
27.70740,59662
27.71552,52555
27.72365,53964
27.73177,55488
27.73988,55912
27.74802,56667
27.75613,55304
27.76425,57323
27.77238,49563
27.78050,50632
27.78863,52465
27.79675,48535
27.80487,48221
27.81300,47638
27.82112,51828
27.82925,49303
27.83737,47187
27.84548,48334
27.85362,43449
27.86173,46995
27.86985,42940
27.87798,45962
27.88610,44278
27.89423,45658
27.90235,43461
27.91047,40273
27.91860,41183
27.92672,45007
27.93485,42115
27.94297,47049
27.95108,43195
27.95922,46328
27.96733,42685
27.97547,43653
27.98358,47909
27.99170,52084
27.99983,53321
28.00795,54999
28.01607,57580
28.02420,63908
28.03232,73177
28.04045,80091
28.04857,81824
28.05668,78132
28.06482,71881
28.07293,65133
28.08107,63884
28.08918,63170
28.09730,64777
28.10543,70241
28.11355,67147
28.12168,66669
28.12980,66067
28.13792,57113
28.14605,57876
28.15417,51646
28.16228,47748
28.17042,50292
28.17853,50995
28.18667,51140
28.19478,50392
28.20290,47028
28.21103,50545
28.21915,48425
28.22728,48548
28.23540,53975
28.24352,59139
28.25165,67994
28.25977,93215
28.26790,119040
28.27602,172674
28.28413,239035
28.29227,312082
28.30038,372512
28.30850,423221
28.31663,464461
28.32475,481388
28.33288,476826
28.34100,459641
28.34912,417005
28.35725,380515
28.36537,339820
28.37350,290124
28.38162,262070
28.38973,222868
28.39787,195458
28.40598,176934
28.41410,160355
28.42223,140412
28.43035,133082
28.43848,116554
28.44660,107838
28.45472,107403
28.46285,97013
28.47097,96031
28.47910,94049
28.48722,90225
28.49533,90059
28.50347,84530
28.51158,82712
28.51972,84903
28.52783,74301
28.53595,75266
28.54408,73593
28.55220,67907
28.56032,69348
28.56845,66439
28.57657,65876
28.58470,64777
28.59282,62481
28.60093,61267
28.60907,62754
28.61718,64062
28.62532,62296
28.63343,66979
28.64155,62036
28.64968,61074
28.65780,63841
28.66592,66730
28.67405,67985
28.68217,70612
28.69030,77520
28.69842,91748
28.70653,111677
28.71467,123613
28.72278,121327
28.73092,103627
28.73903,88304
28.74715,67826
28.75528,64595
28.76340,58346
28.77153,57598
28.77965,60147
28.78777,56631
28.79590,53167
28.80402,56009
28.81213,56856
28.82027,55921
28.82838,57920
28.83652,53179
28.84463,50223
28.85275,51075
28.86088,52391
28.86900,57315
28.87713,52296
28.88525,51807
28.89337,50287
28.90150,54035
28.90962,52310
28.91775,56210
28.92587,54156
28.93398,51582
28.94212,51153
28.95023,54820
28.95835,51116
28.96648,53379
28.97460,51189
28.98273,51474
28.99085,52967
28.99897,51488
29.00710,51728
29.01522,49646
29.02335,45894
29.03147,45977
29.03958,50262
29.04772,48395
29.05583,47592
29.06395,48820
29.07208,47462
29.08020,49443
29.08833,44669
29.09645,47531
29.10457,46434
29.11270,48581
29.12082,44203
29.12895,46353
29.13707,42251
29.14518,46381
29.15332,46683
29.16143,51120
29.16957,48325
29.17768,44556
29.18580,43315
29.19393,48922
29.20205,50612
29.21017,54845
29.21830,53554
29.22642,60762
29.23455,57839
29.24267,62722
29.25078,68504
29.25892,72254
29.26703,67656
29.27517,70321
29.28328,63593
29.29140,57058
29.29953,54959
29.30765,51228
29.31578,47372
29.32390,48660
29.33202,46262
29.34015,46535
29.34827,40932
29.35638,43831
29.36452,43430
29.37263,48987
29.38077,46551
29.38888,42898
29.39700,45089
29.40513,45872
29.41325,46479
29.42138,47654
29.42950,49218
29.43762,47014
29.44575,44293
29.45387,46832
29.46198,43030
29.47012,42722
29.47823,45092
29.48637,45921
29.49448,44531
29.50260,49250
29.51073,45142
29.51885,47791
29.52698,45463
29.53510,49007
29.54322,46175
29.55135,39905
29.55947,44120
29.56760,43436
29.57572,41957
29.58383,52989
29.59197,49574
29.60008,56245
29.60820,50161
29.61633,46333
29.62445,47112
29.63258,47395
29.64070,50111
29.64882,43531
29.65695,46013
29.66507,42901
29.67320,46396
29.68132,41553
29.68943,43600
29.69757,42729
29.70568,43534
29.71380,42277
29.72193,47357
29.73005,45912
29.73818,45213
29.74630,44465
29.75442,42518
29.76255,39652
29.77067,43686
29.77880,38697
29.78692,40987
29.79503,42571
29.80317,40694
29.81128,37430
29.81942,34414
29.82753,40638
29.83565,40140
29.84378,38482
29.85190,41052
29.86002,42450
29.86815,48331
29.87627,56219
29.88440,73479
29.89252,88091
29.90063,106026
29.90877,121556
29.91688,148430
29.92502,168096
29.93313,181833
29.94125,201537
29.94938,213340
29.95750,215195
29.96563,214591
29.97375,208819
29.98187,205188
29.99000,203747
29.99812,189546
30.00623,175923
30.01437,158485
30.02248,151739
30.03062,136882
30.03873,131369
30.04685,120069
30.05498,105830
30.06310,108499
30.07123,103924
30.07935,98422
30.08747,94638
30.09560,89802
30.10372,81906
30.11183,82810
30.11997,79159
30.12808,74527
30.13622,72682
30.14433,67013
30.15245,68592
30.16058,68845
30.16870,67777
30.17683,67916
30.18495,66388
30.19307,59675
30.20120,63422
30.20932,61886
30.21745,61494
30.22557,61566
30.23368,54698
30.24182,58776
30.24993,57901
30.25805,54418
30.26618,53911
30.27430,53403
30.28243,51533
30.29055,54402
30.29867,52507
30.30680,53595
30.31492,50963
30.32305,49915
30.33117,50208
30.33928,50295
30.34742,50759
30.35553,49763
30.36367,54021
30.37178,48962
30.37990,47724
30.38803,48553
30.39615,50136
30.40427,48153
30.41240,52353
30.42052,46853
30.42865,49433
30.43677,47513
30.44488,48207
30.45302,47029
30.46113,46075
30.46927,46581
30.47738,45714
30.48550,47321
30.49363,46395
30.50175,48759
30.50987,43850
30.51800,44323
30.52612,43227
30.53425,40803
30.54237,41884
30.55048,46798
30.55862,47523
30.56673,44303
30.57487,46965
30.58298,46693
30.59110,49184
30.59923,42050
30.60735,47177
30.61548,46027
30.62360,46939
30.63172,44433
30.63985,44133
30.64797,45160
30.65608,43345
30.66422,43974
30.67233,42463
30.68047,38994
30.68858,43407
30.69670,42312
30.70483,39884
30.71295,41690
30.72108,41853
30.72920,46529
30.73732,44650
30.74545,45307
30.75357,46272
30.76168,44004
30.76982,48473
30.77793,47407
30.78607,50777
30.79418,54431
30.80230,57283
30.81043,56770
30.81855,56951
30.82668,54497
30.83480,50675
30.84292,44738
30.85105,48339
30.85917,46617
30.86730,46275
30.87542,45965
30.88353,45015
30.89167,47890
30.89978,46150
30.90790,44279
30.91603,41822
30.92415,43967
30.93228,40017
30.94040,42929
30.94852,41120
30.95665,40487
30.96477,40941
30.97290,42059
30.98102,44468
30.98913,43109
30.99727,44885
31.00538,40261
31.01352,41313
31.02163,41758
31.02975,42461
31.03788,41929
31.04600,40277
31.05412,43655
31.06225,43684
31.07037,42215
31.07850,50090
31.08662,52763
31.09473,56116
31.10287,54692
31.11098,56652
31.11912,48392
31.12723,49444
31.13535,52257
31.14348,48723
31.15160,50491
31.15972,58747
31.16785,71717
31.17597,90666
31.18410,127652
31.19222,171162
31.20033,228793
31.20847,267466
31.21658,263093
31.22472,239461
31.23283,206897
31.24095,148357
31.24908,109130
31.25720,78746
31.26533,63828
31.27345,57876
31.28157,54369
31.28970,44091
31.29782,44028
31.30593,57065
31.31407,51080
31.32218,50791
31.33032,45388
31.33843,45260
31.34655,46411
31.35468,50245
31.36280,46380
31.37093,43746
31.37905,44629
31.38717,45842
31.39530,42527
31.40342,45743
31.41155,44219
31.41967,46842
31.42778,44999
31.43592,47184
31.44403,43571
31.45215,44698
31.46028,48142
31.46840,42191
31.47653,42090
31.48465,44073
31.49277,45461
31.50090,48369
31.50902,44923
31.51715,45831
31.52527,52696
31.53338,50324
31.54152,49120
31.54963,40511
31.55775,45364
31.56588,43141
31.57400,45000
31.58213,43923
31.59025,42196
31.59837,39742
31.60650,44466
31.61462,45538
31.62275,43449
31.63087,42405
31.63898,43001
31.64712,44340
31.65523,44592
31.66337,48090
31.67148,45455
31.67960,46839
31.68773,53306
31.69585,49040
31.70397,49426
31.71210,43225
31.72022,46808
31.72835,45231
31.73647,41769
31.74458,43136
31.75272,43003
31.76083,43513
31.76897,44740
31.77708,41428
31.78520,44646
31.79333,49079
31.80145,43336
31.80958,49283
31.81770,47658
31.82582,56943
31.83395,59548
31.84207,73257
31.85018,79558
31.85832,100818
31.86643,111727
31.87457,120725
31.88268,128642
31.89080,137397
31.89893,130681
31.90705,136033
31.91518,131491
31.92330,129980
31.93142,114082
31.93955,109075
31.94767,103144
31.95578,100642
31.96392,89468
31.97203,90706
31.98017,87940
31.98828,82277
31.99640,84984
32.00453,74259
32.01265,71082
32.02078,72150
32.02890,71404
32.03702,67648
32.04515,61114
32.05327,58107
32.06140,61493
32.06952,59898
32.07763,55810
32.08577,56814
32.09388,50989
32.10200,53661
32.11013,51132
32.11825,49438
32.12638,50860
32.13450,53288
32.14262,49556
32.15075,46863
32.15887,49226
32.16700,46289
32.17512,45233
32.18323,49950
32.19137,52494
32.19948,47374
32.20760,46252
32.21573,49109
32.22385,50321
32.23198,48583
32.24010,49034
32.24822,45748
32.25635,46106
32.26447,48080
32.27260,45627
32.28072,46455
32.28883,47207
32.29697,47912
32.30508,43372
32.31322,46438
32.32133,44567
32.32945,47514
32.33758,46220
32.34570,45232
32.35382,51394
32.36195,53493
32.37007,49874
32.37820,50232
32.38632,45502
32.39443,45565
32.40257,45430
32.41068,41936
32.41882,46219
32.42693,45961
32.43505,43244
32.44318,44589
32.45130,46530
32.45943,46261
32.46755,45531
32.47567,43602
32.48380,44959
32.49192,45399
32.50003,43143
32.50817,40864
32.51628,45285
32.52442,44258
32.53253,49158
32.54065,46015
32.54878,46906
32.55690,47874
32.56503,50717
32.57315,56021
32.58127,63386
32.58940,69373
32.59752,85114
32.60563,87029
32.61377,86127
32.62188,71795
32.63002,66160
32.63813,54531
32.64625,50105
32.65438,49489
32.66250,48632
32.67063,50685
32.67875,48517
32.68687,50540
32.69500,51077
32.70312,45908
32.71125,49184
32.71937,47777
32.72748,48446
32.73562,46647
32.74373,44298
32.75185,45217
32.75998,47681
32.76810,46220
32.77623,42629
32.78435,42336
32.79247,43452
32.80060,45473
32.80872,43989
32.81685,45198
32.82497,47034
32.83308,43722
32.84122,40619
32.84933,43985
32.85747,48461
32.86558,46859
32.87370,47827
32.88183,51447
32.88995,56160
32.89807,58551
32.90620,59080
32.91432,56689
32.92245,59353
32.93057,50153
32.93868,49897
32.94682,45765
32.95493,47207
32.96307,47701
32.97118,51555
32.97930,46953
32.98743,53298
32.99555,53434
33.00367,50174
33.01180,50377
33.01992,50434
33.02805,45487
33.03617,44544
33.04428,46657
33.05242,47115
33.06053,48706
33.06867,51552
33.07678,51393
33.08490,54042
33.09303,53074
33.10115,54954
33.10928,60687
33.11740,58769
33.12552,59862
33.13365,59147
33.14177,54311
33.14988,54929
33.15802,51436
33.16613,48596
33.17427,46281
33.18238,46751
33.19050,45450
33.19863,44100
33.20675,47959
33.21488,45017
33.22300,46922
33.23112,43401
33.23925,48757
33.24737,45178
33.25548,46110
33.26362,47705
33.27173,45965
33.27987,48950
33.28798,44037
33.29610,48734
33.30423,48593
33.31235,45037
33.32048,45386
33.32860,45963
33.33672,49843
33.34485,47334
33.35297,49485
33.36110,42616
33.36922,45073
33.37733,43160
33.38547,45415
33.39358,44137
33.40170,43559
33.40983,42528
33.41795,43130
33.42608,45357
33.43420,44279
33.44232,45476
33.45045,45814
33.45857,42130
33.46670,42729
33.47482,41886
33.48293,44809
33.49107,49079
33.49918,42401
33.50732,42997
33.51543,44825
33.52355,40901
33.53168,44519
33.53980,42823
33.54792,47252
33.55605,47177
33.56417,50710
33.57230,47712
33.58042,48223
33.58853,43576
33.59667,44417
33.60478,48106
33.61292,50959
33.62103,46377
33.62915,46020
33.63728,48577
33.64540,48782
33.65353,50309
33.66165,47046
33.66977,47325
33.67790,47589
33.68602,46783
33.69413,47939
33.70227,49063
33.71038,47329
33.71852,50550
33.72663,48705
33.73475,51558
33.74288,50701
33.75100,55278
33.75913,52935
33.76725,53940
33.77537,58681
33.78350,55060
33.79162,55412
33.79973,52440
33.80787,55863
33.81598,55526
33.82412,55864
33.83223,56134
33.84035,54923
33.84848,60555
33.85660,59530
33.86473,59333
33.87285,56175
33.88097,63638
33.88910,61988
33.89722,63207
33.90535,63448
33.91347,59068
33.92158,57477
33.92972,58562
33.93783,52696
33.94595,57520
33.95408,55826
33.96220,54927
33.97033,53031
33.97845,54364
33.98657,49998
33.99470,53507
34.00282,54997
34.01095,52449
34.01907,52566
34.02718,57004
34.03532,52684
34.04343,53171
34.05155,48896
34.05968,53087
34.06780,50173
34.07593,53771
34.08405,51678
34.09217,48822
34.10030,49206
34.10842,49237
34.11655,51205
34.12467,47503
34.13278,49341
34.14092,50717
34.14903,50389
34.15717,49859
34.16528,49939
34.17340,50407
34.18153,48876
34.18965,47269
34.19777,49261
34.20590,46791
34.21402,52026
34.22215,49052
34.23027,46700
34.23838,51048
34.24652,46862
34.25463,47735
34.26277,51245
34.27088,50177
34.27900,50907
34.28713,46361
34.29525,49691
34.30338,49670
34.31150,53737
34.31962,50499
34.32775,50357
34.33587,48851
34.34398,49391
34.35212,51059
34.36023,50111
34.36837,50964
34.37648,51530
34.38460,50461
34.39273,50016
34.40085,50969
34.40898,48768
34.41710,52336
34.42522,48102
34.43335,56621
34.44147,63482
34.44958,74791
34.45772,89628
34.46583,103440
34.47397,125983
34.48208,141183
34.49020,138430
34.49833,137163
34.50645,138642
34.51458,135100
34.52270,118041
34.53082,111006
34.53895,98413
34.54707,94290
34.55520,86873
34.56332,86153
34.57143,79987
34.57957,79096
34.58768,78627
34.59580,70259
34.60393,71137
34.61205,77672
34.62018,70041
34.62830,73576
34.63642,70321
34.64455,70414
34.65267,71483
34.66080,70811
34.66892,68722
34.67703,65101
34.68517,68448
34.69328,64965
34.70142,68366
34.70953,61897
34.71765,60991
34.72578,66028
34.73390,66017
34.74202,62807
34.75015,59591
34.75827,56394
34.76640,61807
34.77452,61091
34.78263,60276
34.79077,60596
34.79888,59674
34.80702,61329
34.81513,55907
34.82325,56609
34.83138,55400
34.83950,54017
34.84762,52795
34.85575,58009
34.86387,60548
34.87200,54381
34.88012,57018
34.88823,57998
34.89637,58534
34.90448,58366
34.91262,57490
34.92073,54309
34.92885,57323
34.93698,55425
34.94510,58982
34.95323,57694
34.96135,59174
34.96947,62546
34.97760,57513
34.98572,55488
34.99383,61580
35.00197,58075
35.01008,55306
35.01822,54460
35.02633,53474
35.03445,55326
35.04258,55402
35.05070,55934
35.05883,56429
35.06695,57420
35.07507,58035
35.08320,57328
35.09132,53993
35.09943,54594
35.10757,55944
35.11568,56457
35.12382,57221
35.13193,57618
35.14005,54898
35.14818,56958
35.15630,57280
35.16443,56444
35.17255,52826
35.18067,53083
35.18880,49891
35.19692,54655
35.20505,53880
35.21317,55057
35.22128,50601
35.22942,51286
35.23753,56476
35.24565,55350
35.25378,57042
35.26190,54965
35.27003,47062
35.27815,52150
35.28627,57778
35.29440,53928
35.30252,51529
35.31065,56718
35.31877,53984
35.32688,51844
35.33502,55210
35.34313,58540
35.35127,51087
35.35938,55835
35.36750,55870
35.37563,58638
35.38375,59851
35.39187,66529
35.40000,71874
35.40812,71045
35.41625,78632
35.42437,69489
35.43248,75506
35.44062,68928
35.44873,67504
35.45687,62606
35.46498,65637
35.47310,63457
35.48123,60741
35.48935,62383
35.49747,61267
35.50560,59059
35.51372,56068
35.52185,60566
35.52997,55452
35.53808,58206
35.54622,56056
35.55433,59869
35.56247,57316
35.57058,55351
35.57870,55784
35.58683,61009
35.59495,58096
35.60308,64238
35.61120,57602
35.61932,60087
35.62745,60855
35.63557,61271
35.64368,59021
35.65182,57728
35.65993,60430
35.66807,57939
35.67618,53745
35.68430,60309
35.69243,59085
35.70055,59599
35.70868,54501
35.71680,57878
35.72492,57654
35.73305,61572
35.74117,57555
35.74930,62612
35.75742,59960
35.76553,59366
35.77367,56897
35.78178,62540
35.78990,62052
35.79803,60859
35.80615,55222
35.81428,58870
35.82240,54071
35.83052,60641
35.83865,56043
35.84677,55631
35.85490,54383
35.86302,57751
35.87113,54151
35.87927,57534
35.88738,59770
35.89550,53841
35.90363,61986
35.91175,56923
35.91988,57969
35.92800,61151
35.93612,57780
35.94425,61415
35.95237,55624
35.96050,61665
35.96862,59224
35.97673,57707
35.98487,63408
35.99298,61669
36.00112,61893
36.00923,61227
36.01735,65867
36.02548,61575
36.03360,61067
36.04172,64369
36.04985,64341
36.05797,62575
36.06610,63749
36.07422,57086
36.08233,60802
36.09047,56311
36.09858,59793
36.10672,63433
36.11483,62760
36.12295,64281
36.13108,63464
36.13920,60997
36.14733,60602
36.15545,58693
36.16357,60979
36.17170,60062
36.17982,57338
36.18793,58799
36.19607,59415
36.20418,58956
36.21232,64083
36.22043,75722
36.22855,82860
36.23668,97728
36.24480,109868
36.25293,108502
36.26105,102231
36.26917,92594
36.27730,80962
36.28542,71583
36.29353,69763
36.30167,64289
36.30978,65929
36.31792,64225
36.32603,62761
36.33415,63782
36.34228,64346
36.35040,63460
36.35853,58104
36.36665,62657
36.37477,59976
36.38290,62283
36.39102,62776
36.39915,60878
36.40727,64209
36.41538,63677
36.42352,68362
36.43163,63950
36.43975,58187
36.44788,61141
36.45600,63566
36.46413,57912
36.47225,58970
36.48037,59497
36.48850,58575
36.49662,60983
36.50475,62585
36.51287,63442
36.52098,60500
36.52912,56497
36.53723,61610
36.54535,66150
36.55348,59126
36.56160,64367
36.56973,65671
36.57785,66469
36.58597,57872
36.59410,60043
36.60222,66061
36.61035,61207
36.61847,64217
36.62658,63308
36.63472,62150
36.64283,61150
36.65097,64550
36.65908,65729
36.66720,62826
36.67533,64862
36.68345,57830
36.69157,65295
36.69970,62680
36.70782,68994
36.71595,67591
36.72407,61493
36.73218,65502
36.74032,63316
36.74843,60243
36.75657,69183
36.76468,63420
36.77280,61945
36.78093,61478
36.78905,63980
36.79718,62213
36.80530,64350
36.81342,66302
36.82155,62301
36.82967,57842
36.83778,57982
36.84592,63848
36.85403,58622
36.86217,62388
36.87028,65469
36.87840,68660
36.88653,63465
36.89465,65152
36.90278,62999
36.91090,67274
36.91902,66456
36.92715,62953
36.93527,65628
36.94338,71624
36.95152,65224
36.95963,68751
36.96777,70105
36.97588,66080
36.98400,67134
36.99213,73366
37.00025,74417
37.00838,77919
37.01650,86175
37.02462,91329
37.03275,95742
37.04087,91541
37.04900,85980
37.05712,81567
37.06523,71184
37.07337,71912
37.08148,73734
37.08960,67943
37.09773,71646
37.10585,65041
37.11398,72140
37.12210,71131
37.13022,68530
37.13835,72741
37.14647,71800
37.15460,69215
37.16272,68629
37.17083,70500
37.17897,69291
37.18708,68001
37.19522,69665
37.20333,69690
37.21145,71562
37.21958,70949
37.22770,73673
37.23582,71370
37.24395,78391
37.25207,90445
37.26020,102218
37.26832,122634
37.27643,137217
37.28457,145681
37.29268,143902
37.30082,138156
37.30893,124069
37.31705,117293
37.32518,107453
37.33330,102826
37.34142,100229
37.34955,94311
37.35767,93621
37.36580,93246
37.37392,86556
37.38203,88546
37.39017,89468
37.39828,85264
37.40642,86309
37.41453,84301
37.42265,85698
37.43078,85997
37.43890,82228
37.44703,82442
37.45515,83333
37.46327,80838
37.47140,82614
37.47952,78793
37.48763,80632
