D:\MassHunter\GCMS\1\data\JTB-E02\BACandSTRAW\JTB-E12-002-09.D Fri Mar 15 12:28:16 2019
Start of data points
2.09520,100010
2.10333,102199
2.11145,102644
2.11957,101595
2.12770,99733
2.13582,104585
2.14393,102801
2.15207,98110
2.16018,98813
2.16832,95740
2.17643,98759
2.18455,94097
2.19268,91009
2.20080,87299
2.20893,89180
2.21705,82261
2.22517,78822
2.23330,79634
2.24142,75126
2.24955,73390
2.25767,78387
2.26578,77987
2.27392,75518
2.28203,73130
2.29015,73621
2.29828,74174
2.30640,74412
2.31453,71762
2.32265,74699
2.33077,69811
2.33890,72057
2.34702,73222
2.35515,69262
2.36327,69884
2.37138,70508
2.37952,70453
2.38763,71192
2.39575,210574
2.40388,6603819
2.41200,1.534192E+07
2.42013,1.545471E+07
2.42825,1.094227E+07
2.43637,6791368
2.44450,5520684
2.45262,4722800
2.46075,4032362
2.46887,3578511
2.47698,3201033
2.48512,2854188
2.49323,2597385
2.50137,2395929
2.50948,2229177
2.51760,2100530
2.52573,2009003
2.53385,1940737
2.54197,1869896
2.55010,1842599
2.55822,1760996
2.56635,1738077
2.57447,1725384
2.58258,1697756
2.59072,1665484
2.59883,1642832
2.60697,1627357
2.61508,1615523
2.62320,1620316
2.63133,1613032
2.63945,1641462
2.64758,1632733
2.65570,1591457
2.66382,1581736
2.67195,1576044
2.68007,1572218
2.68818,1552804
2.69632,1565124
2.70443,1574025
2.71257,1554161
2.72068,1551459
2.72880,1529953
2.73693,1528648
2.74505,1514393
2.75318,1851658
2.76130,6362470
2.76942,1.258147E+07
2.77755,9082334
2.78567,4793208
2.79378,3373324
2.80192,2770365
2.81003,2362772
2.81817,2143754
2.82628,1973776
2.83440,1833963
2.84253,1748388
2.85065,1706404
2.85878,1638633
2.86690,1571905
2.87502,1575810
2.88315,1541041
2.89127,1527680
2.89940,1491738
2.90752,1471955
2.91563,1449996
2.92377,1425873
2.93188,1455233
2.94000,1682186
2.94813,3051227
2.95625,3690479
2.96438,2474544
2.97250,1803272
2.98062,1651379
2.98875,1552981
2.99687,1477247
3.00500,1435063
3.01312,1406252
3.02123,1366278
3.02937,1353216
3.03748,1338906
3.04562,1307777
3.05373,1290113
3.06185,1256258
3.06998,1269679
3.07810,1265766
3.08622,1201625
3.09435,1224343
3.10247,1220990
3.11060,1185032
3.11872,1176331
3.12683,1190500
3.13497,1176293
3.14308,1173700
3.15122,1153410
3.15933,1157829
3.16745,1123690
3.17558,1173162
3.18370,1207488
3.19183,1156149
3.19995,1126874
3.20807,1108743
3.21620,1070644
3.22432,1095620
3.23243,1073899
3.24057,1045223
3.24868,1070277
3.25682,1051163
3.26493,1108797
3.27305,1378511
3.28118,4276281
3.28930,1.449562E+07
3.29743,1.887025E+07
3.30555,1.334331E+07
3.31367,7459254
3.32180,5157637
3.32992,4058126
3.33803,3309588
3.34617,2848804
3.35428,2703859
3.36242,9236467
3.37053,3.422687E+07
3.37865,5.056985E+07
3.38678,4.952483E+07
3.39490,3.885964E+07
3.40303,3.040413E+07
3.41115,2.593776E+07
3.41927,2.231E+07
3.42740,1.94126E+07
3.43552,1.686255E+07
3.44365,1.474194E+07
3.45177,1.280483E+07
3.45988,1.142515E+07
3.46802,1.028461E+07
3.47613,9742530
3.48425,9712552
3.49238,9376078
3.50050,8394976
3.50863,7509440
3.51675,6897748
3.52487,6332161
3.53300,5774262
3.54112,5362665
3.54925,4977518
3.55737,4668110
3.56548,4381008
3.57362,4124085
3.58173,3889636
3.58987,3692037
3.59798,3543009
3.60610,3371902
3.61423,3221934
3.62235,3105465
3.63047,2974677
3.63860,2830254
3.64672,2770684
3.65485,2630812
3.66297,2593521
3.67108,2481049
3.67922,2416808
3.68733,2343079
3.69547,2283406
3.70358,2186846
3.71170,2148108
3.71983,2091220
3.72795,2027600
3.73608,1990802
3.74420,1948380
3.75232,1890594
3.76045,1827366
3.76857,1821999
3.77668,1790621
3.78482,1750495
3.79293,1720981
3.80107,1675210
3.80918,1611094
3.81730,1596378
3.82543,1568583
3.83355,1527765
3.84168,1499159
3.84980,1510527
3.85792,2602320
3.86605,1.829865E+07
3.87417,5.703462E+07
3.88228,8.796503E+07
3.89042,1.045442E+08
3.89853,1.1223E+08
3.90667,1.16888E+08
3.91478,1.204574E+08
3.92290,1.22837E+08
3.93103,1.204175E+08
3.93915,8.45204E+07
3.94728,7.226036E+07
3.95540,6.71189E+07
3.96352,6.215966E+07
3.97165,5.787235E+07
3.97977,5.418009E+07
3.98790,5.077226E+07
3.99602,4.90964E+07
4.00413,5.50714E+07
4.01227,6.470954E+07
4.02038,6.170216E+07
4.02850,4.83454E+07
4.03663,4.02889E+07
4.04475,3.721707E+07
4.05288,3.504299E+07
4.06100,3.330836E+07
4.06912,3.186679E+07
4.07725,3.041713E+07
4.08537,2.942475E+07
4.09350,2.92383E+07
4.10162,2.98316E+07
4.10973,2.9284E+07
4.11787,2.707496E+07
4.12598,2.550536E+07
4.13412,2.444589E+07
4.14223,2.359257E+07
4.15035,2.287258E+07
4.15848,2.211637E+07
4.16660,2.149727E+07
4.17472,2.086741E+07
4.18285,2.023589E+07
4.19097,1.977461E+07
4.19910,1.914667E+07
4.20722,1.862826E+07
4.21533,1.80877E+07
4.22347,1.769418E+07
4.23158,1.729967E+07
4.23972,1.688478E+07
4.24783,1.661832E+07
4.25595,1.613471E+07
4.26408,1.565157E+07
4.27220,1.527398E+07
4.28032,1.489599E+07
4.28845,1.462945E+07
4.29657,1.435503E+07
4.30470,1.446606E+07
4.31282,1.471345E+07
4.32093,1.43129E+07
4.32907,1.346134E+07
4.33718,1.293426E+07
4.34532,1.250396E+07
4.35343,1.221888E+07
4.36155,1.194585E+07
4.36968,1.170089E+07
4.37780,1.153966E+07
4.38593,1.150589E+07
4.39405,1.178552E+07
4.40217,1.190136E+07
4.41030,1.169415E+07
4.41842,1.112797E+07
4.42653,1.062032E+07
4.43467,1.023968E+07
4.44278,9968922
4.45092,9863359
4.45903,1.170722E+07
4.46715,1.969844E+07
4.47528,3.062235E+07
4.48340,3.819269E+07
4.49153,4.234017E+07
4.49965,4.606521E+07
4.50777,4.954585E+07
4.51590,5.219712E+07
4.52402,5.088598E+07
4.53215,3.432311E+07
4.54027,2.299758E+07
4.54838,2.001463E+07
4.55652,1.787988E+07
4.56463,1.604396E+07
4.57275,1.470984E+07
4.58088,1.350835E+07
4.58900,1.268455E+07
4.59713,1.245363E+07
4.60525,1.204672E+07
4.61337,1.119294E+07
4.62150,1.039862E+07
4.62962,9787447
4.63775,9413664
4.64587,9005483
4.65398,8735152
4.66212,8427597
4.67023,8157434
4.67837,7997382
4.68648,7739986
4.69460,7588351
4.70273,7458966
4.71085,7218814
4.71897,7115501
4.72710,6922993
4.73522,6823776
4.74335,6627713
4.75147,6507946
4.75958,6477498
4.76772,6993565
4.77583,1.181366E+07
4.78397,2.555837E+07
4.79208,3.844413E+07
4.80020,4.002272E+07
4.80833,2.916391E+07
4.81645,1.722993E+07
4.82457,1.1897E+07
4.83270,9797941
4.84082,8869819
4.84895,8648399
4.85707,8616923
4.86518,8269744
4.87332,7448220
4.88143,6804390
4.88957,6529691
4.89768,7098536
4.90580,1.11425E+07
4.91393,2.586247E+07
4.92205,4.78657E+07
4.93018,6.083382E+07
4.93830,5.577055E+07
4.94642,3.545114E+07
4.95455,1.855678E+07
4.96267,1.166373E+07
4.97078,9138275
4.97892,7838665
4.98703,7008590
4.99517,6469301
5.00328,6052920
5.01140,5710483
5.01953,5521715
5.02765,5497255
5.03578,6456820
5.04390,1.008234E+07
5.05202,1.505996E+07
5.06015,1.603477E+07
5.06827,1.25934E+07
5.07640,8699092
5.08452,7757047
5.09263,9876362
5.10077,1.328077E+07
5.10888,1.352502E+07
5.11700,1.057581E+07
5.12513,7656503
5.13325,6177281
5.14138,5575886
5.14950,5342433
5.15762,5468960
5.16575,5899766
5.17387,6206289
5.18200,6103345
5.19012,5755485
5.19823,5329151
5.20637,5174399
5.21448,6529305
5.22260,1.294908E+07
5.23073,2.498066E+07
5.23885,3.253293E+07
5.24698,2.868932E+07
5.25510,1.886102E+07
5.26322,1.226307E+07
5.27135,9347687
5.27947,7675575
5.28760,6582484
5.29572,5938242
5.30383,5468650
5.31197,5132669
5.32008,4856618
5.32822,4729274
5.33633,4558497
5.34445,4366418
5.35258,4249003
5.36070,4165835
5.36882,4098399
5.37695,3988873
5.38507,3980638
5.39320,3820999
5.40132,3671473
5.40943,3538774
5.41757,3439594
5.42568,3387060
5.43382,3387479
5.44193,3321379
5.45005,3284284
5.45818,3227048
5.46630,3151678
5.47443,3113158
5.48255,3046026
5.49067,3042885
5.49880,3018913
5.50692,2974074
5.51503,2939472
5.52317,2878290
5.53128,2830448
5.53942,2789423
5.54753,2779831
5.55565,2717911
5.56378,2719440
5.57190,2707952
5.58003,2657870
5.58815,2652984
5.59627,2638253
5.60440,2672500
5.61252,2803063
5.62063,2840780
5.62877,2781766
5.63688,2850282
5.64502,4083383
5.65313,9003401
5.66125,1.945113E+07
5.66938,3.041837E+07
5.67750,3.403272E+07
5.68563,2.80533E+07
5.69375,1.835245E+07
5.70187,1.338618E+07
5.71000,2.015088E+07
5.71812,3.716167E+07
5.72625,5.477292E+07
5.73437,6.631765E+07
5.74248,6.820226E+07
5.75062,5.670445E+07
5.75873,3.576646E+07
5.76685,1.957344E+07
5.77498,1.249213E+07
5.78310,9353250
5.79123,7573485
5.79935,6491276
5.80747,5870703
5.81560,5348356
5.82372,5134969
5.83185,5615022
5.83997,7200884
5.84808,8746692
5.85622,8427055
5.86433,6640369
5.87247,4917938
5.88058,3968943
5.88870,3495076
5.89683,3245752
5.90495,3063789
5.91307,2960156
5.92120,2861167
5.92932,2751857
5.93745,2681023
5.94557,2598909
5.95368,2514040
5.96182,2512308
5.96993,2446384
5.97807,2428573
5.98618,2381573
5.99430,2367751
6.00243,2351152
6.01055,2329949
6.01868,2269059
6.02680,2205514
6.03492,2153920
6.04305,2147676
6.05117,2109445
6.05928,2073214
6.06742,2013648
6.07553,1970007
6.08367,1942835
6.09178,1919938
6.09990,1869214
6.10803,1887801
6.11615,1842002
6.12428,1833817
6.13240,1826582
6.14052,1811805
6.14865,1786915
6.15677,1772297
6.16488,2013111
6.17302,3899766
6.18113,1.281082E+07
6.18927,3.571456E+07
6.19738,6.54231E+07
6.20550,9.118858E+07
6.21363,1.108664E+08
6.22175,1.278304E+08
6.22988,1.40974E+08
6.23800,1.518554E+08
6.24612,1.595596E+08
6.25425,1.593843E+08
6.26237,1.116837E+08
6.27050,4.700351E+07
6.27862,3.451817E+07
6.28673,3.26607E+07
6.29487,3.610592E+07
6.30298,4.220256E+07
6.31110,4.354264E+07
6.31923,3.692829E+07
6.32735,2.753453E+07
6.33548,2.186988E+07
6.34360,1.918008E+07
6.35172,1.77082E+07
6.35985,1.674576E+07
6.36797,1.589376E+07
6.37610,1.505461E+07
6.38422,1.436025E+07
6.39233,1.337139E+07
6.40047,1.256147E+07
6.40858,1.200402E+07
6.41672,1.165533E+07
6.42483,1.12972E+07
6.43295,1.086768E+07
6.44108,1.049124E+07
6.44920,1.004786E+07
6.45732,9685397
6.46545,9330520
6.47357,8948912
6.48170,8576232
6.48982,8246772
6.49793,7987188
6.50607,7715226
6.51418,7417146
6.52232,7353680
6.53043,8348289
6.53855,1.404691E+07
6.54668,3.231889E+07
6.55480,6.152284E+07
6.56292,8.849032E+07
6.57105,1.085007E+08
6.57917,1.258226E+08
6.58730,1.39361E+08
6.59542,1.500409E+08
6.60353,1.523168E+08
6.61167,1.179238E+08
6.61978,4.143109E+07
6.62792,1.845166E+07
6.63603,1.531771E+07
6.64415,1.351975E+07
6.65228,1.214813E+07
6.66040,1.106762E+07
6.66853,1.022792E+07
6.67665,9447794
6.68477,8843721
6.69290,8340673
6.70102,7771008
6.70913,7407065
6.71727,7139780
6.72538,6754778
6.73352,6532324
6.74163,6237728
6.74975,6001537
6.75788,5742441
6.76600,5551926
6.77413,5349324
6.78225,5152101
6.79037,4935957
6.79850,4834045
6.80662,4686515
6.81475,4574557
6.82287,4404110
6.83098,4240906
6.83912,4195199
6.84723,4098310
6.85535,4342653
6.86348,6607227
6.87160,1.6028E+07
6.87973,3.716508E+07
6.88785,6.330558E+07
6.89597,8.143088E+07
6.90410,8.063977E+07
6.91222,5.593942E+07
6.92035,2.505501E+07
6.92847,1.165385E+07
6.93658,7716890
6.94472,6416753
6.95283,7189371
6.96095,1.256187E+07
6.96908,2.317191E+07
6.97720,3.20642E+07
6.98533,3.347813E+07
6.99345,2.73425E+07
7.00157,2.024546E+07
7.00970,1.42907E+07
7.01782,9370296
7.02595,6206903
7.03407,4810293
7.04218,4229756
7.05032,5422149
7.05843,5063496
7.06657,4769290
7.07468,4957839
7.08280,5134127
7.09093,4945661
7.09905,4806733
7.10717,4644884
7.11530,4517384
7.12342,4407961
7.13155,4414960
7.13967,4582437
7.14778,5070761
7.15592,5662688
7.16403,5934264
7.17217,5566924
7.18028,4891909
7.18840,4303798
7.19653,3899424
7.20465,3639628
7.21278,3530874
7.22090,3445518
7.22902,3482901
7.23715,3453310
7.24527,3435239
7.25338,3341816
7.26152,3268853
7.26963,3274098
7.27777,3399717
7.28588,3561837
7.29400,3572655
7.30213,3542694
7.31025,3406674
7.31838,3302369
7.32650,3232965
7.33462,3162973
7.34275,3114212
7.35087,3055231
7.35900,3008647
7.36712,2986014
7.37523,3041110
7.38337,3215587
7.39148,3904720
7.39960,5014471
7.40773,6112812
7.41585,6289121
7.42398,5483717
7.43210,4358131
7.44022,3502606
7.44835,3073960
7.45647,2841220
7.46460,2736439
7.47272,2656642
7.48083,2615860
7.48897,2580232
7.49708,2540907
7.50520,2528228
7.51333,2462869
7.52145,2448713
7.52958,2434677
7.53770,2505689
7.54582,2873222
7.55395,4248568
7.56207,6825516
7.57020,9244468
7.57832,9198220
7.58643,6759599
7.59457,4356000
7.60268,3105628
7.61082,2584651
7.61893,2375815
7.62705,2247237
7.63518,2168099
7.64330,2122840
7.65142,2086007
7.65955,2074369
7.66767,2048775
7.67580,2019313
7.68392,1995198
7.69203,1947225
7.70017,1936483
7.70828,1909668
7.71642,1923370
7.72453,1918143
7.73265,1904763
7.74078,1874778
7.74890,1887993
7.75703,1952670
7.76515,2104659
7.77327,2418276
7.78140,3007413
7.78952,3786070
7.79763,4296848
7.80577,4217199
7.81388,3647327
7.82202,3055349
7.83013,2713798
7.83825,2592321
7.84638,2424629
7.85450,2230834
7.86263,2083715
7.87075,1995888
7.87887,1895953
7.88700,1862457
7.89512,1806439
7.90323,1792472
7.91137,1745176
7.91948,1744042
7.92762,1741773
7.93573,1782986
7.94385,1825217
7.95198,1829439
7.96010,1784141
7.96823,1691383
7.97635,1601163
7.98447,1384758
7.99260,1123399
8.00072,938217
8.00885,843656
8.01697,806701
8.02508,811997
8.03322,784545
8.04133,770855
8.04945,765063
8.05758,745841
8.06570,728992
8.07383,725947
8.08195,719496
8.09007,712370
8.09820,718093
8.10632,716816
8.11445,696898
8.12257,682357
8.13068,685760
8.13882,772813
8.14693,1206295
8.15507,2913923
8.16318,7713219
8.17130,1.699916E+07
8.17943,2.886778E+07
8.18755,3.984794E+07
8.19567,4.914656E+07
8.20380,5.721306E+07
8.21192,6.565041E+07
8.22005,7.462848E+07
8.22817,8.360609E+07
8.23628,9.032694E+07
8.24442,8.981954E+07
8.25253,7.392122E+07
8.26067,4.195662E+07
8.26878,1.670732E+07
8.27690,9394874
8.28503,7220264
8.29315,5514251
8.30127,4170639
8.30940,3209743
8.31752,2842979
8.32565,2762402
8.33377,3128024
8.34188,3817015
8.35002,4460992
8.35813,4730601
8.36627,4639120
8.37438,4368315
8.38250,4050879
8.39063,3761230
8.39875,3494624
8.40688,3308329
8.41500,3103438
8.42312,3004147
8.43125,2945029
8.43937,2875758
8.44748,2792724
8.45562,2621276
8.46373,2430873
8.47187,2278016
8.47998,2187442
8.48810,2058340
8.49623,1994913
8.50435,1924270
8.51248,1825972
8.52060,1786977
8.52872,1917130
8.53685,2401735
8.54497,3444264
8.55310,4783838
8.56122,5437923
8.56933,4961332
8.57747,3752314
8.58558,2595115
8.59370,1916976
8.60183,1579391
8.60995,1436132
8.61808,1329464
8.62620,1234455
8.63432,1207275
8.64245,1194304
8.65057,1296020
8.65870,1636723
8.66682,2237209
8.67493,2957549
8.68307,3221354
8.69118,2938615
8.69932,2348127
8.70743,1823556
8.71555,1547058
8.72368,1398874
8.73180,1297881
8.73992,1155444
8.74805,1052087
8.75617,969564
8.76430,990746
8.77242,1011794
8.78053,1110217
8.78867,1205109
8.79678,1212908
8.80492,1119061
8.81303,1036250
8.82115,947346
8.82928,859398
8.83740,836596
8.84552,808483
8.85365,792914
8.86177,833718
8.86990,902009
8.87802,1114668
8.88613,1349320
8.89427,1615278
8.90238,1947791
8.91052,2491424
8.91863,2936354
8.92675,2788351
8.93488,2118625
8.94300,1364829
8.95113,970186
8.95925,776626
8.96737,718382
8.97550,691992
8.98362,654189
8.99173,668323
8.99987,685257
9.00798,792883
9.01612,1200741
9.02423,1915958
9.03235,2835394
9.04048,3383160
9.04860,3128852
9.05673,2405632
9.06485,1657140
9.07297,1164424
9.08110,940566
9.08922,869181
9.09735,917882
9.10547,1061147
9.11358,1155228
9.12172,1121349
9.12983,1024068
9.13795,872359
9.14608,737101
9.15420,679132
9.16233,630485
9.17045,602359
9.17857,594221
9.18670,638328
9.19482,912442
9.20295,1891563
9.21107,4254234
9.21918,8206945
9.22732,1.26341E+07
9.23543,1.511804E+07
9.24355,1.409642E+07
9.25168,1.008973E+07
9.25980,5848719
9.26793,3074703
9.27605,1718410
9.28417,1162722
9.29230,954198
9.30042,999138
9.30855,1848826
9.31667,4788476
9.32478,1.141402E+07
9.33292,2.070528E+07
9.34103,2.820988E+07
9.34917,3.095156E+07
9.35728,2.764681E+07
9.36540,2.014942E+07
9.37353,1.154819E+07
9.38165,6394676
9.38977,4082336
9.39790,3152355
9.40602,2934694
9.41415,2973403
9.42227,3182932
9.43038,3265957
9.43852,3168362
9.44663,2990911
9.45477,2857414
9.46288,2660019
9.47100,2485533
9.47913,2423558
9.48725,2314987
9.49538,2202437
9.50350,2097913
9.51162,2045737
9.51975,2050383
9.52787,2158608
9.53598,2372443
9.54412,2649489
9.55223,2778750
9.56037,2687460
9.56848,2320143
9.57660,1991337
9.58473,1692745
9.59285,1562904
9.60098,1512025
9.60910,1607189
9.61722,1930530
9.62535,2386742
9.63347,2799497
9.64158,2833173
9.64972,2403994
9.65783,1880111
9.66597,1485524
9.67408,1326759
9.68220,1325947
9.69033,1760298
9.69845,3092899
9.70658,6123716
9.71470,1.100362E+07
9.72282,1.627543E+07
9.73095,1.896393E+07
9.73907,1.770829E+07
9.74720,1.321704E+07
9.75532,8119074
9.76343,4527873
9.77157,2737384
9.77968,1975779
9.78780,1685089
9.79593,1571144
9.80405,1617672
9.81218,1668715
9.82030,1760413
9.82842,1786144
9.83655,1712447
9.84467,1595875
9.85280,1524027
9.86092,1475410
9.86903,1585354
9.87717,1862534
9.88528,2233506
9.89342,2403615
9.90153,2280748
9.90965,1898412
9.91778,1483325
9.92590,1248005
9.93402,1100253
9.94215,1022438
9.95027,984881
9.95840,976297
9.96652,966572
9.97463,971806
9.98277,1014856
9.99088,1403232
9.99902,2780185
10.00713,6087450
10.01525,1.147892E+07
10.02338,1.726812E+07
10.03150,2.016955E+07
10.03963,1.838273E+07
10.04775,1.297964E+07
10.05587,7441769
10.06400,4047415
10.07212,2540284
10.08023,2153973
10.08837,2400867
10.09648,2939441
10.10462,3679431
10.11273,4525087
10.12085,5476780
10.12898,6867986
10.13710,8720914
10.14523,1.062437E+07
10.15335,1.157658E+07
10.16147,1.062636E+07
10.16960,8272203
10.17772,5602286
10.18583,3622861
10.19397,2501138
10.20208,1980122
10.21022,1861644
10.21833,1902446
10.22645,2057901
10.23458,2276246
10.24270,2576700
10.25083,2775841
10.25895,2852635
10.26707,2713067
10.27520,2394872
10.28332,2059508
10.29145,1833181
10.29957,1697326
10.30768,1650573
10.31582,1578551
10.32393,1506075
10.33205,1413919
10.34018,1311190
10.34830,1210448
10.35643,1176156
10.36455,1099780
10.37267,1066977
10.38080,1040868
10.38892,1037391
10.39705,1007848
10.40517,993302
10.41328,974223
10.42142,961420
10.42953,928949
10.43767,863850
10.44578,791098
10.45390,736084
10.46203,704861
10.47015,679706
10.47827,659928
10.48640,621032
10.49452,616810
10.50265,605812
10.51077,583215
10.51888,553538
10.52702,551895
10.53513,561763
10.54327,544878
10.55138,522934
10.55950,524853
10.56763,523401
10.57575,523732
10.58387,504876
10.59200,506808
10.60012,492185
10.60825,494784
10.61637,484835
10.62448,466409
10.63262,474758
10.64073,472610
10.64887,488819
10.65698,666206
10.66510,1267556
10.67323,2849885
10.68135,5588306
10.68948,8764753
10.69760,1.065958E+07
10.70572,1.117142E+07
10.71385,1.246961E+07
10.72197,1.659316E+07
10.73008,2.239915E+07
10.73822,2.533188E+07
10.74633,2.211035E+07
10.75447,1.350442E+07
10.76258,5989463
10.77070,2349161
10.77883,1208952
10.78695,892439
10.79508,789172
10.80320,774644
10.81132,799731
10.81945,866015
10.82757,1029141
10.83570,1129755
10.84382,1090837
10.85193,976448
10.86007,845479
10.86818,780993
10.87630,694296
10.88443,644332
10.89255,576550
10.90068,548213
10.90880,489264
10.91692,475876
10.92505,475057
10.93317,490040
10.94130,579516
10.94942,772095
10.95753,1189097
10.96567,1718873
10.97378,2144636
10.98190,2114408
10.99003,1693432
10.99815,1129605
11.00628,693355
11.01440,472463
11.02252,375035
11.03065,348678
11.03877,357647
11.04690,343572
11.05502,341510
11.06313,323366
11.07127,315347
11.07938,284545
11.08752,275696
11.09563,255155
11.10375,245699
11.11188,237499
11.12000,253079
11.12812,276396
11.13625,298676
11.14437,297246
11.15250,300007
11.16062,342712
11.16873,465497
11.17687,692084
11.18498,947352
11.19312,1072306
11.20123,1029225
11.20935,856424
11.21748,615624
11.22560,433827
11.23373,332017
11.24185,288680
11.24997,264553
11.25810,249084
11.26622,236340
11.27433,235241
11.28247,257120
11.29058,344956
11.29872,551782
11.30683,882789
11.31495,1249100
11.32308,1558228
11.33120,1577878
11.33933,1370513
11.34745,1017668
11.35557,734082
11.36370,633766
11.37182,744297
11.37995,1228586
11.38807,1988626
11.39618,3027050
11.40432,4580218
11.41243,7992975
11.42055,1.538039E+07
11.42868,2.889187E+07
11.43680,4.796201E+07
11.44493,6.864774E+07
11.45305,8.85047E+07
11.46117,1.050418E+08
11.46930,1.187564E+08
11.47742,1.293748E+08
11.48555,1.361497E+08
11.49367,1.301146E+08
11.50178,9.86574E+07
11.50992,5.150499E+07
11.51803,2.730463E+07
11.52615,2.226323E+07
11.53428,2.434736E+07
11.54240,3.129537E+07
11.55053,4.135201E+07
11.55865,4.787557E+07
11.56677,4.528775E+07
11.57490,3.315526E+07
11.58302,1.985576E+07
11.59115,1.315504E+07
11.59927,1.071214E+07
11.60738,9604685
11.61552,8948547
11.62363,8405666
11.63177,7918411
11.63988,7353446
11.64800,6919612
11.65613,6615976
11.66425,6312014
11.67237,6063368
11.68050,5747605
11.68862,5602721
11.69675,5375131
11.70487,5194810
11.71298,4999857
11.72112,4810343
11.72923,4697994
11.73737,4444234
11.74548,4362086
11.75360,4190434
11.76173,4067076
11.76985,3990203
11.77798,3829135
11.78610,3711381
11.79422,3683089
11.80235,3514148
11.81047,3461385
11.81858,3529712
11.82672,3635094
11.83483,3888850
11.84297,4077817
11.85108,4146893
11.85920,3889518
11.86733,3516701
11.87545,3227323
11.88358,3074783
11.89170,3058722
11.89982,3199382
11.90795,3488974
11.91607,3784086
11.92418,3893166
11.93232,3807978
11.94043,3439277
11.94857,3045932
11.95668,2826450
11.96480,2634871
11.97293,2564177
11.98105,2467393
11.98918,2417494
11.99730,2333275
12.00542,2311284
12.01355,2316307
12.02167,2379876
12.02980,2435498
12.03792,2561537
12.04603,2617018
12.05417,2974641
12.06228,4758855
12.07040,1.054815E+07
12.07853,2.276023E+07
12.08665,3.741904E+07
12.09478,4.939745E+07
12.10290,5.499466E+07
12.11102,5.190801E+07
12.11915,4.179485E+07
12.12727,2.845223E+07
12.13540,1.806291E+07
12.14352,1.411038E+07
12.15163,1.317448E+07
12.15977,1.254577E+07
12.16788,1.161884E+07
12.17602,1.050922E+07
12.18413,9300501
12.19225,8491404
12.20038,7911661
12.20850,7281602
12.21662,6996759
12.22475,6625370
12.23287,6206991
12.24100,5866214
12.24912,5481451
12.25723,5148190
12.26537,4954247
12.27348,4701449
12.28162,4456749
12.28973,4316577
12.29785,4105072
12.30598,3947299
12.31410,3863011
12.32222,3725960
12.33035,3659762
12.33847,3762211
12.34660,3852891
12.35472,4141651
12.36283,4440057
12.37097,4557266
12.37908,4340733
12.38722,3940062
12.39533,3657620
12.40345,3687981
12.41158,4670163
12.41970,6644628
12.42783,9264892
12.43595,1.153617E+07
12.44407,1.214361E+07
12.45220,1.066351E+07
12.46032,8081546
12.46843,5728450
12.47657,4268291
12.48468,3681354
12.49282,3418294
12.50093,3252847
12.50905,3007898
12.51718,2833939
12.52530,2654787
12.53343,2561357
12.54155,2484311
12.54967,2398173
12.55780,2307894
12.56592,2257810
12.57405,2194300
12.58217,2152890
12.59028,2111141
12.59842,2338285
12.60653,3178316
12.61465,5777649
12.62278,1.195013E+07
12.63090,2.303915E+07
12.63903,3.738262E+07
12.64715,5.203121E+07
12.65527,6.400783E+07
12.66340,6.889428E+07
12.67152,6.446468E+07
12.67965,4.839717E+07
12.68777,2.781288E+07
12.69588,1.487192E+07
12.70402,1.00677E+07
12.71213,8134306
12.72027,6962818
12.72838,6202411
12.73650,5598549
12.74463,5227934
12.75275,4770383
12.76087,4501823
12.76900,4198997
12.77712,4049628
12.78525,4079180
12.79337,4343927
12.80148,5045741
12.80962,6232545
12.81773,7180056
12.82587,7232413
12.83398,6318932
12.84210,4859849
12.85023,3696633
12.85835,3021112
12.86647,2704119
12.87460,2637202
12.88272,2697623
12.89085,2815119
12.89897,2931609
12.90708,2853083
12.91522,2581262
12.92333,2303162
12.93147,2043073
12.93958,1852819
12.94770,1746113
12.95583,1658070
12.96395,1638978
12.97208,1785045
12.98020,2417338
12.98832,3905613
12.99645,6144528
13.00457,8217048
13.01268,8916303
13.02082,7718179
13.02893,5346414
13.03707,3316222
13.04518,2153841
13.05330,1618524
13.06143,1418436
13.06955,1309473
13.07768,1251145
13.08580,1224674
13.09392,1188227
13.10205,1166866
13.11017,1145984
13.11830,1142983
13.12642,1148656
13.13453,1192390
13.14267,1278424
13.15078,1382214
13.15890,1479856
13.16703,1602404
13.17515,1719542
13.18328,1796431
13.19140,1782972
13.19952,1661703
13.20765,1375289
13.21577,1088366
13.22390,879042
13.23202,725742
13.24013,626222
13.24827,580722
13.25638,530763
13.26450,518617
13.27263,506147
13.28075,484556
13.28888,467528
13.29700,440974
13.30512,420470
13.31325,417290
13.32137,463305
13.32950,558565
13.33762,787802
13.34573,1161103
13.35387,1611185
13.36198,1981434
13.37012,2143440
13.37823,2075284
13.38635,1833565
13.39448,1475514
13.40260,1125284
13.41072,872303
13.41885,698066
13.42697,613621
13.43510,539206
13.44322,481488
13.45133,443655
13.45947,406535
13.46758,385827
13.47572,357968
13.48383,351192
13.49195,344371
13.50008,329061
13.50820,335566
13.51633,359002
13.52445,408365
13.53257,519874
13.54070,663416
13.54882,768410
13.55693,855305
13.56507,881885
13.57318,763141
13.58132,634323
13.58943,509687
13.59755,416567
13.60568,357993
13.61380,323653
13.62193,308858
13.63005,323196
13.63817,363944
13.64630,397446
13.65442,438495
13.66253,443782
13.67067,407247
13.67878,365079
13.68692,354732
13.69503,313894
13.70315,290510
13.71128,264769
13.71940,253532
13.72753,249130
13.73565,270894
13.74377,315159
13.75190,352653
13.76002,384755
13.76815,375328
13.77627,345704
13.78438,301444
13.79252,262604
13.80063,237030
13.80875,232799
13.81688,211850
13.82500,208013
13.83313,206074
13.84125,197454
13.84937,194274
13.85750,185366
13.86562,190807
13.87375,182732
13.88187,180913
13.88998,195047
13.89812,191365
13.90623,201365
13.91437,183312
13.92248,181104
13.93060,179307
13.93873,159979
13.94685,148730
13.95497,137105
13.96310,118809
13.97122,119922
13.97935,149265
13.98747,240796
13.99558,441453
14.00372,848120
14.01183,1484207
14.01997,2301373
14.02808,3064151
14.03620,3377320
14.04433,3019903
14.05245,2310637
14.06058,1528865
14.06870,952531
14.07682,623021
14.08495,475897
14.09307,453507
14.10118,460290
14.10932,499828
14.11743,499912
14.12557,437673
14.13368,379394
14.14180,299852
14.14993,263684
14.15805,224390
14.16618,205582
14.17430,200746
14.18242,216086
14.19055,247091
14.19867,396100
14.20678,581662
14.21492,808488
14.22303,1013918
14.23117,1093343
14.23928,934912
14.24740,765868
14.25553,584580
14.26365,433541
14.27178,320250
14.27990,254679
14.28802,221493
14.29615,204165
14.30427,220485
14.31240,254945
14.32052,284011
14.32863,307521
14.33677,296118
14.34488,260673
14.35300,219222
14.36113,175652
14.36925,153563
14.37738,136194
14.38550,133503
14.39362,136343
14.40175,138731
14.40987,136296
14.41800,146628
14.42612,144930
14.43423,147589
14.44237,144314
14.45048,148936
14.45862,151191
14.46673,169008
14.47485,196169
14.48298,240752
14.49110,273723
14.49922,292057
14.50735,301003
14.51547,269043
14.52360,251977
14.53172,257998
14.53983,341447
14.54797,562716
14.55608,924849
14.56422,1355870
14.57233,1623099
14.58045,1528057
14.58858,1214651
14.59670,830558
14.60482,558419
14.61295,369828
14.62107,273289
14.62920,243423
14.63732,202005
14.64543,189195
14.65357,178987
14.66168,176767
14.66982,179596
14.67793,183362
14.68605,159878
14.69418,143571
14.70230,130035
14.71043,119719
14.71855,127437
14.72667,153568
14.73480,206702
14.74292,277091
14.75103,353800
14.75917,395360
14.76728,396609
14.77542,333673
14.78353,307756
14.79165,274041
14.79978,294200
14.80790,327554
14.81603,339468
14.82415,312423
14.83227,310135
14.84040,307991
14.84852,322813
14.85665,327142
14.86477,324336
14.87288,293948
14.88102,262275
14.88913,297009
14.89725,596028
14.90538,1427848
14.91350,3227055
14.92163,5988842
14.92975,8800064
14.93787,1.046961E+07
14.94600,9919661
14.95412,7609260
14.96225,4843995
14.97037,2826602
14.97848,1635495
14.98662,1147535
14.99473,911908
15.00285,811903
15.01098,760101
15.01910,740865
15.02723,672668
15.03535,600609
15.04347,513994
15.05160,449031
15.05972,391387
15.06785,362301
15.07597,321179
15.08408,311019
15.09222,295684
15.10033,289238
15.10847,270443
15.11658,271920
15.12470,276182
15.13283,277361
15.14095,282187
15.14907,337585
15.15720,439713
15.16532,632500
15.17345,1003334
15.18157,1341150
15.18968,1571285
15.19782,1542186
15.20593,1329310
15.21407,997585
15.22218,767525
15.23030,686903
15.23843,971252
15.24655,2029166
15.25468,4296719
15.26280,7480303
15.27092,1.030011E+07
15.27905,1.094848E+07
15.28717,9146079
15.29528,6186878
15.30342,3584879
15.31153,1982515
15.31967,1242762
15.32778,894512
15.33590,746349
15.34403,651037
15.35215,626372
15.36028,645354
15.36840,699532
15.37652,725658
15.38465,687794
15.39277,621220
15.40090,501302
15.40902,413127
15.41713,352495
15.42527,312345
15.43338,293987
15.44150,269903
15.44963,262181
15.45775,259404
15.46588,255371
15.47400,251428
15.48212,255441
15.49025,245018
15.49837,238535
15.50650,228978
15.51462,203822
15.52273,184967
15.53087,181671
15.53898,176548
15.54710,165336
15.55523,156322
15.56335,141271
15.57148,140365
15.57960,144524
15.58772,131786
15.59585,130049
15.60397,116139
15.61210,115666
15.62022,116764
15.62833,98780
15.63647,101523
15.64458,92702
15.65272,90269
15.66083,89821
15.66895,84549
15.67708,87594
15.68520,89405
15.69332,81036
15.70145,81026
15.70957,80018
15.71770,84513
15.72582,85612
15.73393,87081
15.74207,86621
15.75018,84213
15.75832,90105
15.76643,98245
15.77455,94956
15.78268,92322
15.79080,88340
15.79893,87428
15.80705,85709
15.81517,98017
15.82330,134671
15.83142,176199
15.83953,224084
15.84767,254872
15.85578,244369
15.86392,206839
15.87203,167884
15.88015,128660
15.88828,104033
15.89640,90728
15.90453,97146
15.91265,85829
15.92077,80770
15.92890,84741
15.93702,85835
15.94513,80476
15.95327,74965
15.96138,75070
15.96952,73168
15.97763,84858
15.98575,84318
15.99388,91175
16.00200,92426
16.01013,99819
16.01825,113076
16.02637,133296
16.03450,176372
16.04262,221736
16.05075,222507
16.05887,197162
16.06698,171512
16.07512,145097
16.08323,113283
16.09135,105356
16.09948,100151
16.10760,77891
16.11573,75078
16.12385,67212
16.13197,62925
16.14010,66100
16.14822,75895
16.15635,75380
16.16447,87044
16.17258,84239
16.18072,84549
16.18883,85123
16.19697,87828
16.20508,131577
16.21320,193666
16.22133,347308
16.22945,570600
16.23757,775948
16.24570,860192
16.25382,815971
16.26195,676417
16.27007,544799
16.27818,433743
16.28632,357002
16.29443,358741
16.30257,440980
16.31068,542792
16.31880,639875
16.32693,682724
16.33505,670497
16.34318,614101
16.35130,569560
16.35942,473905
16.36755,410414
16.37567,350539
16.38378,313507
16.39192,277356
16.40003,252922
16.40817,214540
16.41628,198165
16.42440,174077
16.43253,169263
16.44065,176477
16.44878,171231
16.45690,167878
16.46502,149768
16.47315,135340
16.48127,127390
16.48938,117111
16.49752,110832
16.50563,105123
16.51377,104766
16.52188,102208
16.53000,98095
16.53813,92574
16.54625,97024
16.55438,102982
16.56250,107322
16.57062,101471
16.57875,99200
16.58687,111172
16.59500,107754
16.60312,115238
16.61123,114774
16.61937,114800
16.62748,102678
16.63560,94885
16.64373,92415
16.65185,105453
16.65998,120268
16.66810,146762
16.67622,159402
16.68435,181530
16.69247,194157
16.70060,224168
16.70872,255887
16.71683,282662
16.72497,287834
16.73308,269370
16.74122,246438
16.74933,212235
16.75745,208763
16.76558,194431
16.77370,177826
16.78182,166820
16.78995,154563
16.79807,149665
16.80620,158336
16.81432,161358
16.82243,155417
16.83057,148832
16.83868,141798
16.84682,138045
16.85493,136643
16.86305,139299
16.87118,141403
16.87930,123050
16.88743,103510
16.89555,91893
16.90367,92945
16.91180,92166
16.91992,105964
16.92803,119478
16.93617,123054
16.94428,121848
16.95242,109767
16.96053,102279
16.96865,101379
16.97678,112040
16.98490,95613
16.99303,102111
17.00115,92350
17.00927,85377
17.01740,80915
17.02552,79457
17.03363,80926
17.04177,73149
17.04988,70518
17.05802,83785
17.06613,96589
17.07425,130762
17.08238,185087
17.09050,248889
17.09863,321753
17.10675,337536
17.11487,305171
17.12300,256869
17.13112,217804
17.13925,222513
17.14737,327936
17.15548,585594
17.16362,1115896
17.17173,1745575
17.17985,2371571
17.18798,2627656
17.19610,2360074
17.20423,1843734
17.21235,1266476
17.22047,803329
17.22860,520143
17.23672,344924
17.24485,271808
17.25297,230325
17.26108,191324
17.26922,170988
17.27733,159314
17.28547,142453
17.29358,134884
17.30170,133583
17.30983,124907
17.31795,119373
17.32607,114491
17.33420,116311
17.34232,127072
17.35045,128559
17.35857,130518
17.36668,136894
17.37482,142185
17.38293,121250
17.39107,112870
17.39918,105794
17.40730,97726
17.41543,86133
17.42355,84941
17.43167,73808
17.43980,65081
17.44792,67524
17.45605,65739
17.46417,68536
17.47228,71438
17.48042,63235
17.48853,72755
17.49667,90594
17.50478,138277
17.51290,247929
17.52103,468100
17.52915,748471
17.53728,1041095
17.54540,1167445
17.55352,1112282
17.56165,943813
17.56977,690973
17.57788,481759
17.58602,320266
17.59413,230350
17.60227,183643
17.61038,148562
17.61850,125485
17.62663,116659
17.63475,126611
17.64288,118281
17.65100,126471
17.65912,139144
17.66725,138095
17.67537,147729
17.68350,147033
17.69162,141236
17.69973,154615
17.70787,132331
17.71598,130935
17.72410,133591
17.73223,158057
17.74035,225599
17.74848,409400
17.75660,779621
17.76472,1300834
17.77285,1833587
17.78097,2098782
17.78910,2061641
17.79722,1648324
17.80533,1139212
17.81347,739715
17.82158,480632
17.82970,330334
17.83783,246087
17.84595,212977
17.85408,177177
17.86220,165361
17.87032,147690
17.87845,134991
17.88657,119205
17.89470,115834
17.90282,111137
17.91093,108752
17.91907,93446
17.92718,102407
17.93532,98955
17.94343,90404
17.95155,90369
17.95968,86794
17.96780,87053
17.97592,83996
17.98405,79465
17.99217,76642
18.00030,69815
18.00842,71010
18.01653,68056
18.02467,62170
18.03278,63068
18.04092,61849
18.04903,65621
18.05715,93080
18.06528,146976
18.07340,288035
18.08153,575235
18.08965,974125
18.09777,1466331
18.10590,1794873
18.11402,1838392
18.12213,1543611
18.13027,1125456
18.13838,711504
18.14652,457273
18.15463,303465
18.16275,2.822567E+07
18.17088,2.953995E+07
18.17900,2.835946E+07
18.18713,2.701368E+07
18.19525,2.538845E+07
18.20337,2.410618E+07
18.21150,2.256817E+07
18.21962,2.067752E+07
18.22775,1.906535E+07
18.23587,1.763203E+07
18.24398,1.634403E+07
18.25212,1.495332E+07
18.26023,1.366637E+07
18.26835,1.263562E+07
18.27648,1.151078E+07
18.28460,1.077816E+07
18.29273,9875874
18.30085,9226235
18.30897,8474769
18.31710,7901733
18.32522,7297057
18.33335,6865810
18.34147,6307694
18.34958,5911033
18.35772,5560748
18.36583,5196008
18.37395,4840312
18.38208,4595330
18.39020,4310179
18.39833,4045695
18.40645,3817194
18.41457,3628637
18.42270,3423210
18.43082,3234033
18.43895,3091565
18.44707,2905083
18.45518,2760349
18.46332,2669384
18.47143,2532922
18.47957,2460888
18.48768,2348153
18.49580,2347220
18.50393,2342699
18.51205,2431610
18.52017,2666472
18.52830,2732873
18.53642,2788080
18.54455,2649506
18.55267,2379651
18.56078,2109302
18.56892,1889088
18.57703,1729927
18.58517,1631717
18.59328,1564939
18.60140,1525763
18.60953,1456330
18.61765,1381669
18.62578,1284087
18.63390,1209090
18.64202,1133144
18.65015,1051122
18.65827,1035428
18.66638,992802
18.67452,965731
18.68263,943587
18.69077,937185
18.69888,920605
18.70700,889570
18.71513,849188
18.72325,798025
18.73138,740411
18.73950,738984
18.74762,685972
18.75575,653848
18.76387,641885
18.77198,611602
18.78012,584011
18.78823,555130
18.79637,548807
18.80448,519117
18.81260,509996
18.82073,501139
18.82885,490373
18.83698,485312
18.84510,487298
18.85322,504396
18.86135,452066
18.86947,443144
18.87760,420803
18.88572,394178
18.89383,381829
18.90197,368875
18.91008,354218
18.91820,337356
18.92633,324084
18.93445,323605
18.94258,348738
18.95070,329274
18.95882,341802
18.96695,362837
18.97507,341460
18.98320,354275
18.99132,354093
18.99943,473479
19.00757,773228
19.01568,1381821
19.02382,2363803
19.03193,3363995
19.04005,4090354
19.04818,4018992
19.05630,3392785
19.06442,2494231
19.07255,1610316
19.08067,993678
19.08880,661866
19.09692,483728
19.10503,401103
19.11317,352052
19.12128,312478
19.12942,293649
19.13753,290359
19.14565,274847
19.15378,265609
19.16190,271489
19.17002,264100
19.17815,252794
19.18627,241266
19.19440,240794
19.20252,243193
19.21063,261198
19.21877,287147
19.22688,265835
19.23502,261351
19.24313,231542
19.25125,223590
19.25938,206810
19.26750,205538
19.27563,185756
19.28375,176666
19.29187,175578
19.30000,163944
19.30812,160246
19.31623,148987
19.32437,155084
19.33248,147860
19.34062,150070
19.34873,157569
19.35685,168530
19.36498,181345
19.37310,202781
19.38123,208769
19.38935,190083
19.39747,179939
19.40560,164336
19.41372,158035
19.42185,151458
19.42997,152054
19.43808,145906
19.44622,143258
19.45433,148164
19.46245,130676
19.47058,129928
19.47870,129456
19.48683,126566
19.49495,116817
19.50307,117283
19.51120,122593
19.51932,120376
19.52745,142372
19.53557,165315
19.54368,186267
19.55182,214310
19.55993,251207
19.56807,263550
19.57618,244970
19.58430,241165
19.59243,204789
19.60055,193499
19.60867,177163
19.61680,173674
19.62492,157293
19.63305,164559
19.64117,145940
19.64928,150473
19.65742,142113
19.66553,129396
19.67367,119732
19.68178,120477
19.68990,118423
19.69803,117215
19.70615,117676
19.71427,124454
19.72240,125022
19.73052,140571
19.73865,135104
19.74677,129003
19.75488,118469
19.76302,125869
19.77113,123146
19.77927,130998
19.78738,155460
19.79550,201442
19.80363,224243
19.81175,250373
19.81988,245460
19.82800,224711
19.83612,194188
19.84425,155317
19.85237,132266
19.86048,112962
19.86862,112307
19.87673,103440
19.88487,105941
19.89298,99206
19.90110,106991
19.90923,95380
19.91735,107733
19.92548,93151
19.93360,92025
19.94172,94770
19.94985,97776
19.95797,105322
19.96610,117383
19.97422,142852
19.98233,159830
19.99047,168417
19.99858,176795
20.00670,172613
20.01483,177082
20.02295,196209
20.03108,253247
20.03920,334673
20.04732,447751
20.05545,544130
20.06357,587963
20.07170,551129
20.07982,472838
20.08793,370282
20.09607,283779
20.10418,223624
20.11230,194665
20.12043,164515
20.12855,155875
20.13668,130160
20.14480,125148
20.15292,113560
20.16105,112038
20.16917,106360
20.17730,113757
20.18542,115946
20.19353,123933
20.20167,129521
20.20978,140703
20.21792,129784
20.22603,126569
20.23415,113710
20.24228,99905
20.25040,101808
20.25852,99358
20.26665,96161
20.27477,90182
20.28290,96502
20.29102,96314
20.29913,96986
20.30727,91555
20.31538,89515
20.32352,96524
20.33163,104705
20.33975,150014
20.34788,217887
20.35600,318077
20.36413,431218
20.37225,492673
20.38037,476266
20.38850,441401
20.39662,343170
20.40473,285290
20.41287,225075
20.42098,199817
20.42912,185961
20.43723,181248
20.44535,175826
20.45348,179426
20.46160,191882
20.46973,194457
20.47785,205431
20.48597,176938
20.49410,167650
20.50222,143324
20.51033,130472
20.51847,111693
20.52658,105010
20.53472,97065
20.54283,97777
20.55095,93421
20.55908,91851
20.56720,91644
20.57533,112391
20.58345,130445
20.59157,155489
20.59970,208785
20.60782,275767
20.61595,352264
20.62407,406995
20.63218,420698
20.64032,368652
20.64843,318874
20.65655,247297
20.66468,215440
20.67280,181183
20.68093,165200
20.68905,147561
20.69717,140034
20.70530,126766
20.71342,109982
20.72155,104751
20.72967,102861
20.73778,102431
20.74592,98542
20.75403,97432
20.76217,107455
20.77028,123475
20.77840,146701
20.78653,162021
20.79465,168282
20.80277,162396
20.81090,153087
20.81902,140829
20.82715,132302
20.83527,129034
20.84338,126525
20.85152,130919
20.85963,151009
20.86777,159354
20.87588,160019
20.88400,141565
20.89213,138747
20.90025,122081
20.90838,121860
20.91650,113395
20.92462,111365
20.93275,104277
20.94087,101114
20.94898,98940
20.95712,101296
20.96523,103942
20.97337,87903
20.98148,92572
20.98960,89875
20.99773,93112
21.00585,93793
21.01398,100687
21.02210,102266
21.03022,129344
21.03835,156986
21.04647,176958
21.05458,181120
21.06272,170572
21.07083,148469
21.07897,139074
21.08708,136958
21.09520,124969
21.10333,113787
21.11145,108916
21.11958,105067
21.12770,105206
21.13582,100249
21.14395,106556
21.15207,100432
21.16020,97711
21.16832,102529
21.17643,97350
21.18457,88400
21.19268,87906
21.20080,86428
21.20893,88278
21.21705,90738
21.22518,114512
21.23330,196067
21.24142,343884
21.24955,661032
21.25767,1113181
21.26580,1520279
21.27392,1599459
21.28203,1324108
21.29017,913465
21.29828,570015
21.30642,342988
21.31453,222128
21.32265,162654
21.33078,138771
21.33890,119001
21.34702,102283
21.35515,95915
21.36327,90823
21.37140,87628
21.37952,97735
21.38763,105668
21.39577,113132
21.40388,115005
21.41202,127620
21.42013,138403
21.42825,146528
21.43638,151323
21.44450,121399
21.45262,114796
21.46075,108963
21.46887,109584
21.47700,96564
21.48512,105047
21.49323,114328
21.50137,116414
21.50948,116466
21.51762,116380
21.52573,113046
21.53385,104316
21.54198,97232
21.55010,87870
21.55823,91861
21.56635,85986
21.57447,88083
21.58260,97817
21.59072,133518
21.59883,213730
21.60697,366160
21.61508,590904
21.62322,788435
21.63133,875669
21.63945,780814
21.64758,590216
21.65570,395489
21.66383,262697
21.67195,184456
21.68007,157348
21.68820,151900
21.69632,145866
21.70445,148221
21.71257,136512
21.72068,138024
21.72882,119495
21.73693,105057
21.74505,110393
21.75318,100914
21.76130,101487
21.76943,106408
21.77755,100966
21.78567,103324
21.79380,104895
21.80192,100318
21.81005,100354
21.81817,88416
21.82628,85785
21.83442,80886
21.84253,81332
21.85065,93883
21.85878,81161
21.86690,84048
21.87503,79036
21.88315,76022
21.89127,77550
21.89940,81388
21.90752,76251
21.91565,75964
21.92377,78553
21.93188,89402
21.94002,101671
21.94813,124878
21.95627,137099
21.96438,149763
21.97250,142154
21.98063,133961
21.98875,116577
21.99687,103131
22.00500,94561
22.01312,94758
22.02125,84333
22.02937,83034
22.03748,84576
22.04562,88303
22.05373,86241
22.06187,91663
22.06998,112747
22.07810,143507
22.08623,157372
22.09435,162241
22.10248,163301
22.11060,141734
22.11872,138325
22.12685,170471
22.13497,223712
22.14308,285871
22.15122,330383
22.15933,352824
22.16747,313493
22.17558,268306
22.18370,220140
22.19183,270764
22.19995,355987
22.20808,404844
22.21620,410093
22.22432,431960
22.23245,437301
22.24057,404692
22.24870,410936
22.25682,387600
22.26493,355246
22.27307,345821
22.28118,331557
22.28930,291028
22.29743,279146
22.30555,256374
22.31368,245367
22.32180,240065
22.32992,210855
22.33805,208907
22.34617,195721
22.35430,186306
22.36242,178753
22.37053,172718
22.37867,182116
22.38678,178789
22.39490,158221
22.40303,150835
22.41115,153320
22.41928,152953
22.42740,134297
22.43552,125738
22.44365,126619
22.45177,127569
22.45990,122458
22.46802,115924
22.47613,115452
22.48427,109490
22.49238,106601
22.50052,108768
22.50863,119235
22.51675,103565
22.52488,115879
22.53300,138881
22.54112,211855
22.54925,420790
22.55737,925885
22.56550,1943014
22.57362,3240436
22.58173,4371377
22.58987,4604984
22.59798,4039002
22.60612,2988866
22.61423,1870444
22.62235,1092175
22.63048,665252
22.63860,477252
22.64673,355011
22.65485,296060
22.66297,268364
22.67110,239134
22.67922,216837
22.68733,192507
22.69547,169384
22.70358,162958
22.71172,172700
22.71983,152875
22.72795,158527
22.73608,168269
22.74420,179814
22.75233,171274
22.76045,167713
22.76857,157029
22.77670,138404
22.78482,136789
22.79293,128616
22.80107,119694
22.80918,120560
22.81732,116624
22.82543,109906
22.83355,99197
22.84168,97532
22.84980,97600
22.85793,93440
22.86605,89055
22.87417,94657
22.88230,97128
22.89042,91369
22.89855,84261
22.90667,92315
22.91478,83430
22.92292,80446
22.93103,84796
22.93915,86838
22.94728,82816
22.95540,81522
22.96353,84057
22.97165,89011
22.97977,89638
22.98790,88541
22.99602,88577
23.00415,83205
23.01227,88846
23.02038,85669
23.02852,81154
23.03663,76751
23.04477,74968
23.05288,72425
23.06100,75239
23.06913,74402
23.07725,76516
23.08537,86297
23.09350,102750
23.10162,114084
23.10975,143124
23.11787,157597
23.12598,176477
23.13412,173697
23.14223,152515
23.15037,126406
23.15848,113802
23.16660,115399
23.17473,120491
23.18285,123311
23.19097,129064
23.19910,127354
23.20722,116450
23.21535,116656
23.22347,107544
23.23158,104875
23.23972,96808
23.24783,90533
23.25597,93643
23.26408,84947
23.27220,79220
23.28033,83034
23.28845,85954
23.29658,87577
23.30470,106477
23.31282,134692
23.32095,184985
23.32907,242432
23.33718,288836
23.34532,302854
23.35343,331577
23.36157,329679
23.36968,340051
23.37780,356040
23.38593,368145
23.39405,357759
23.40218,332470
23.41030,317804
23.41842,285075
23.42655,270776
23.43467,258723
23.44280,242750
23.45092,232185
23.45903,216932
23.46717,220884
23.47528,196465
23.48340,184209
23.49153,175260
23.49965,158205
23.50778,139468
23.51590,127730
23.52402,114620
23.53215,111741
23.54027,113382
23.54840,101770
23.55652,106599
23.56463,119262
23.57277,131866
23.58088,159748
23.58902,190323
23.59713,220719
23.60525,243328
23.61338,274287
23.62150,299633
23.62962,322978
23.63775,350447
23.64587,327582
23.65400,265008
23.66212,220173
23.67023,160125
23.67837,122361
23.68648,100637
23.69462,85558
23.70273,81526
23.71085,82569
23.71898,85416
23.72710,76490
23.73522,79023
23.74335,73861
23.75147,73054
23.75960,80569
23.76772,80492
23.77583,83157
23.78397,88633
23.79208,84418
23.80022,76542
23.80833,71744
23.81645,67845
23.82458,73146
23.83270,66630
23.84083,65329
23.84895,69704
23.85707,62290
23.86520,66309
23.87332,73200
23.88143,78592
23.88957,71614
23.89768,75936
23.90582,89026
23.91393,95971
23.92205,111645
23.93018,135153
23.93830,145522
23.94643,182862
23.95455,327458
23.96267,413933
23.97080,462717
23.97892,483156
23.98705,497577
23.99517,500279
24.00328,490321
24.01142,485083
24.01953,466120
24.02765,458711
24.03578,451570
24.04390,444955
24.05203,441266
24.06015,412557
24.06827,397095
24.07640,369068
24.08452,351200
24.09265,325819
24.10077,318567
24.10888,319099
24.11702,329886
24.12513,378748
24.13325,457380
24.14138,540610
24.14950,624703
24.15763,723865
24.16575,817479
24.17387,867518
24.18200,829485
24.19012,715806
24.19825,539436
24.20637,413510
24.21448,321626
24.22262,289888
24.23073,317095
24.23887,538802
24.24698,1233873
24.25510,2631746
24.26323,4686023
24.27135,6470552
24.27947,7151027
24.28760,6730050
24.29572,5550532
24.30385,4290481
24.31197,3223547
24.32008,2413123
24.32822,1793500
24.33633,1349009
24.34447,1058989
24.35258,863311
24.36070,691321
24.36883,586693
24.37695,519982
24.38508,476151
24.39320,439437
24.40132,432290
24.40945,391521
24.41757,363148
24.42568,322751
24.43382,283027
24.44193,268858
24.45007,246600
24.45818,231554
24.46630,207993
24.47443,192105
24.48255,171385
24.49068,171443
24.49880,167421
24.50692,159199
24.51505,161289
24.52317,153760
24.53128,160123
24.53942,157888
24.54753,170986
24.55567,154334
24.56378,143327
24.57190,142057
24.58003,143121
24.58815,137378
24.59628,134983
24.60440,148413
24.61252,148662
24.62065,161816
24.62877,171639
24.63690,226454
24.64502,344034
24.65313,631381
24.66127,1157163
24.66938,1872065
24.67750,2498603
24.68563,2792688
24.69375,2632069
24.70188,2063687
24.71000,1409162
24.71812,873886
24.72625,558922
24.73437,378264
24.74250,268746
24.75062,215605
24.75873,206710
24.76687,196292
24.77498,192637
24.78312,182865
24.79123,157291
24.79935,155581
24.80748,147480
24.81560,143845
24.82372,135885
24.83185,129995
24.83997,125280
24.84810,114528
24.85622,103862
24.86433,97004
24.87247,93726
24.88058,97185
24.88872,84772
24.89683,93960
24.90495,82338
24.91308,84311
24.92120,93308
24.92933,92496
24.93745,104365
24.94557,106290
24.95370,98862
24.96182,95388
24.96993,95373
24.97807,94625
24.98618,91911
24.99432,95003
25.00243,91960
25.01055,86698
25.01868,83057
25.02680,77195
25.03493,81002
25.04305,81373
25.05117,80607
25.05930,84737
25.06742,91917
25.07553,86699
25.08367,85918
25.09178,102297
25.09992,103231
25.10803,115782
25.11615,139008
25.12428,149049
25.13240,162633
25.14053,162894
25.14865,160857
25.15677,532669
25.16490,841250
25.17302,1027163
25.18115,1097759
25.18927,1117552
25.19738,1085197
25.20552,1056665
25.21363,1012097
25.22175,970035
25.22988,897368
25.23800,854859
25.24613,794036
25.25425,741168
25.26237,684562
25.27050,623198
25.27862,594157
25.28675,547916
25.29487,499757
25.30298,471586
25.31112,431434
25.31923,415382
25.32737,394448
25.33548,384878
25.34360,369787
25.35173,346335
25.35985,332972
25.36797,301819
25.37610,290243
25.38422,270752
25.39235,272005
25.40047,298816
25.40858,306003
25.41672,310626
25.42483,314299
25.43297,276648
25.44108,244736
25.44920,226873
25.45733,206129
25.46545,200010
25.47357,192916
25.48170,164228
25.48982,158597
25.49795,146643
25.50607,140044
25.51418,137782
25.52232,129316
25.53043,128414
25.53857,125205
25.54668,125403
25.55480,123416
25.56293,130863
25.57105,130479
25.57918,131163
25.58730,145909
25.59542,150712
25.60355,190943
25.61167,229335
25.61978,279015
25.62792,331353
25.63603,364006
25.64417,392278
25.65228,379070
25.66040,349090
25.66853,309080
25.67665,233163
25.68478,188058
25.69290,163542
25.70102,146282
25.70915,139136
25.71727,127217
25.72540,131281
25.73352,119221
25.74163,106735
25.74977,110064
25.75788,97247
25.76600,96959
25.77413,98435
25.78225,106288
25.79038,101292
25.79850,105356
25.80662,116138
25.81475,108152
25.82287,107975
25.83100,126915
25.83912,112402
25.84723,114109
25.85537,129945
25.86348,143591
25.87160,159031
25.87973,167064
25.88785,162732
25.89598,145198
25.90410,121807
25.91222,108382
25.92035,98108
25.92847,92999
25.93660,91097
25.94472,92767
25.95283,86989
25.96097,86398
25.96908,80924
25.97722,81374
25.98533,79886
25.99345,82600
26.00158,82719
26.00970,78103
26.01782,80032
26.02595,74322
26.03407,79406
26.04220,79391
26.05032,78626
26.05843,78825
26.06657,80202
26.07468,77284
26.08282,76051
26.09093,74579
26.09905,77195
26.10718,72922
26.11530,69433
26.12343,73370
26.13155,72418
26.13967,78068
26.14780,70279
26.15592,74284
26.16403,76259
26.17217,81721
26.18028,84948
26.18842,88453
26.19653,93715
26.20465,95182
26.21278,100862
26.22090,101047
26.22903,95395
26.23715,92837
26.24527,85773
26.25340,79823
26.26152,76702
26.26965,75872
26.27777,83891
26.28588,88034
26.29402,102848
26.30213,98771
26.31025,104702
26.31838,105290
26.32650,117551
26.33463,134544
26.34275,155280
26.35087,201980
26.35900,226652
26.36712,253862
26.37525,255838
26.38337,222270
26.39148,206007
26.39962,183530
26.40773,174785
26.41585,198686
26.42398,238900
26.43210,295851
26.44023,295957
26.44835,277116
26.45647,230159
26.46460,165091
26.47272,121825
26.48085,99682
26.48897,85386
26.49708,71083
26.50522,72770
26.51333,79397
26.52147,78611
26.52958,75509
26.53770,70503
26.54583,77037
26.55395,74905
26.56207,69450
26.57020,72253
26.57832,67304
26.58645,77544
26.59457,65691
26.60268,77588
26.61082,65188
26.61893,67495
26.62707,68985
26.63518,72797
26.64330,83982
26.65143,94668
26.65955,103592
26.66768,115763
26.67580,116794
26.68392,115993
26.69205,110097
26.70017,107897
26.70828,96500
26.71642,90780
26.72453,81088
26.73267,84422
26.74078,76343
26.74890,77244
26.75703,70418
26.76515,68606
26.77328,66727
26.78140,68011
26.78952,64661
26.79765,60711
26.80577,69285
26.81388,67785
26.82202,70022
26.83013,62473
26.83827,64963
26.84638,60688
26.85450,71268
26.86263,65710
26.87075,64218
26.87888,70799
26.88700,67873
26.89512,64753
26.90325,67042
26.91137,62036
26.91950,60334
26.92762,61953
26.93573,60265
26.94387,61176
26.95198,64981
26.96010,64844
26.96823,62388
26.97635,60736
26.98448,62633
26.99260,71321
27.00072,63567
27.00885,62872
27.01697,63331
27.02510,64876
27.03322,64901
27.04133,62911
27.04947,63342
27.05758,61767
27.06572,65217
27.07383,67451
27.08195,65932
27.09008,67090
27.09820,74532
27.10632,65666
27.11445,66960
27.12257,72515
27.13070,69215
27.13882,72613
27.14693,71223
27.15507,76740
27.16318,70054
27.17132,72367
27.17943,68494
27.18755,76096
27.19568,71528
27.20380,77092
27.21192,70126
27.22005,76111
27.22817,84836
27.23630,79548
27.24442,82227
27.25253,95000
27.26067,80630
27.26878,80049
27.27692,83156
27.28503,78826
27.29315,74995
27.30128,76219
27.30940,73698
27.31753,72501
27.32565,67608
27.33377,79460
27.34190,70341
27.35002,76099
27.35813,66873
27.36627,72913
27.37438,72370
27.38252,78137
27.39063,69990
27.39875,78024
27.40688,93445
27.41500,139704
27.42313,244367
27.43125,438137
27.43937,757568
27.44750,1131414
27.45562,1564123
27.46375,1774055
27.47187,1817486
27.47998,1704204
27.48812,1495815
27.49623,1234955
27.50435,992983
27.51248,808179
27.52060,636085
27.52873,510027
27.53685,415945
27.54497,351012
27.55310,306209
27.56122,256254
27.56935,223384
27.57747,191841
27.58558,175547
27.59372,161626
27.60183,156899
27.60997,132595
27.61808,122525
27.62620,120178
27.63433,111423
27.64245,128777
27.65057,148096
27.65870,208289
27.66682,292969
27.67495,425319
27.68307,497816
27.69118,533707
27.69932,490016
27.70743,381818
27.71557,268384
27.72368,194350
27.73180,153275
27.73993,126764
27.74805,116449
27.75617,107299
27.76430,94838
27.77242,93979
27.78055,89671
27.78867,90424
27.79678,92684
27.80492,82117
27.81303,85177
27.82117,88056
27.82928,87217
27.83740,84968
27.84553,81901
27.85365,83644
27.86178,91528
27.86990,79840
27.87802,77963
27.88615,75628
27.89427,74269
27.90238,74941
27.91052,76693
27.91863,74425
27.92677,71922
27.93488,74568
27.94300,78283
27.95113,73112
27.95925,72558
27.96738,71206
27.97550,69550
27.98362,73644
27.99175,78083
27.99987,92463
28.00800,92835
28.01612,95133
28.02423,89923
28.03237,96180
28.04048,86621
28.04860,67984
28.05673,67112
28.06485,66081
28.07298,69535
28.08110,74815
28.08922,71736
28.09735,73802
28.10547,81442
28.11360,81652
28.12172,93754
28.12983,107046
28.13797,125140
28.14608,121010
28.15420,114988
28.16233,102912
28.17045,89562
28.17858,93653
28.18670,74228
28.19482,69588
28.20295,68956
28.21107,65080
28.21920,64013
28.22732,62263
28.23543,72420
28.24357,62410
28.25168,70303
28.25982,67789
28.26793,74222
28.27605,79157
28.28418,86887
28.29230,102057
28.30042,119387
28.30855,142048
28.31667,132713
28.32480,129258
28.33292,107602
28.34103,90576
28.34917,80949
28.35728,77739
28.36542,71886
28.37353,75389
28.38165,72952
28.38978,72407
28.39790,70841
28.40603,67557
28.41415,69941
28.42227,70908
28.43040,68382
28.43852,76613
28.44663,79499
28.45477,79340
28.46288,89969
28.47102,84532
28.47913,84359
28.48725,82584
28.49538,80299
28.50350,82911
28.51163,82962
28.51975,82774
28.52787,80741
28.53600,74390
28.54412,72631
28.55223,76024
28.56037,74119
28.56848,84298
28.57662,76426
28.58473,78513
28.59285,87494
28.60098,75143
28.60910,74930
28.61723,79874
28.62535,87233
28.63347,95844
28.64160,105332
28.64972,105187
28.65785,106822
28.66597,105083
28.67408,90730
28.68222,80089
28.69033,74987
28.69845,85760
28.70658,100697
28.71470,124642
28.72283,157248
28.73095,195369
28.73907,230601
28.74720,263951
28.75532,297473
28.76345,310570
28.77157,325841
28.77968,346533
28.78782,386193
28.79593,437814
28.80407,504137
28.81218,577095
28.82030,591494
28.82843,581623
28.83655,512831
28.84467,424360
28.85280,321118
28.86092,265226
28.86905,235746
28.87717,198507
28.88528,176366
28.89342,168325
28.90153,156883
28.90967,150572
28.91778,135624
28.92590,135449
28.93403,125924
28.94215,117896
28.95028,113101
28.95840,110650
28.96652,108310
28.97465,101809
28.98277,96815
28.99088,100051
28.99902,99832
29.00713,91737
29.01527,91294
29.02338,97076
29.03150,88633
29.03963,90854
29.04775,92374
29.05588,91273
29.06400,91451
29.07212,94956
29.08025,105243
29.08837,112960
29.09648,111208
29.10462,106364
29.11273,99886
29.12087,90811
29.12898,83405
29.13710,80424
29.14523,76361
29.15335,79216
29.16148,81686
29.16960,87147
29.17772,100634
29.18585,95922
29.19397,98478
29.20210,103927
29.21022,96099
29.21833,82020
29.22647,84247
29.23458,75226
29.24270,73665
29.25083,79854
29.25895,71164
29.26708,69112
29.27520,71101
29.28332,70524
29.29145,78389
29.29957,70450
29.30770,76468
29.31582,67476
29.32393,64437
29.33207,68956
29.34018,65408
29.34832,70822
29.35643,64079
29.36455,71770
29.37268,63484
29.38080,65508
29.38892,62726
29.39705,59603
29.40517,61145
29.41330,62843
29.42142,62262
29.42953,61167
29.43767,68342
29.44578,58649
29.45392,64081
29.46203,64695
29.47015,67740
29.47828,75340
29.48640,69923
29.49453,69400
29.50265,74255
29.51077,70715
29.51890,69159
29.52702,68695
29.53513,62592
29.54327,70367
29.55138,64884
29.55952,63449
29.56763,66542
29.57575,65994
29.58388,69136
29.59200,69450
29.60013,69687
29.60825,75514
29.61637,67019
29.62450,69811
29.63262,67522
29.64073,69361
29.64887,66379
29.65698,63350
29.66512,64647
29.67323,73125
29.68135,68256
29.68948,72917
29.69760,72508
29.70573,66505
29.71385,70176
29.72197,69262
29.73010,70870
29.73822,69833
29.74635,73300
29.75447,70335
29.76258,72554
29.77072,76939
29.77883,78242
29.78695,76759
29.79508,78944
29.80320,75714
29.81133,82045
29.81945,78328
29.82757,73514
29.83570,68310
29.84382,61606
29.85195,61662
29.86007,65112
29.86818,59531
29.87632,62015
29.88443,63866
29.89257,64002
29.90068,61422
29.90880,69914
29.91693,65654
29.92505,78597
29.93317,70167
29.94130,80779
29.94942,91003
29.95755,87337
29.96567,87018
29.97378,81252
29.98192,71215
29.99003,69435
29.99817,64949
30.00628,71679
30.01440,64202
30.02253,63504
30.03065,118496
30.03877,275568
30.04690,346072
30.05502,427390
30.06315,475153
30.07127,509120
30.07938,523148
30.08752,522590
30.09563,506454
30.10377,509138
30.11188,485536
30.12000,467609
30.12813,447277
30.13625,423329
30.14438,399290
30.15250,389507
30.16062,368286
30.16875,358791
30.17687,332713
30.18498,324968
30.19312,314033
30.20123,297726
30.20937,271197
30.21748,270797
30.22560,252987
30.23373,241546
30.24185,226054
30.24998,232524
30.25810,206981
30.26622,203979
30.27435,194646
30.28247,184479
30.29060,181800
30.29872,180202
30.30683,185797
30.31497,188124
30.32308,188394
30.33120,226909
30.33933,226445
30.34745,238470
30.35558,237150
30.36370,249864
30.37182,241812
30.37995,240659
30.38807,251176
30.39620,248930
30.40432,251893
30.41243,264419
30.42057,305621
30.42868,352981
30.43682,382473
30.44493,382133
30.45305,351901
30.46118,280613
30.46930,231634
30.47742,207162
30.48555,191796
30.49367,177785
30.50180,157230
30.50992,152662
30.51803,151097
30.52617,145074
30.53428,146476
30.54242,134950
30.55053,136077
30.55865,137625
30.56678,122368
30.57490,134949
30.58302,122184
30.59115,111359
30.59927,117808
30.60740,115286
30.61552,117395
30.62363,113682
30.63177,108468
30.63988,113641
30.64802,114848
30.65613,111657
30.66425,106016
30.67238,105641
30.68050,105760
30.68863,99652
30.69675,97265
30.70487,92563
30.71300,91395
30.72112,93807
30.72923,93504
30.73737,89472
30.74548,85724
30.75362,84066
30.76173,83891
30.76985,93882
30.77798,81066
30.78610,84756
30.79423,91832
30.80235,82995
30.81047,83927
30.81860,86434
30.82672,88678
30.83485,85231
30.84297,85601
30.85108,84431
30.85922,82660
30.86733,82670
30.87545,78984
30.88358,87765
30.89170,77075
30.89983,85560
30.90795,80852
30.91607,81876
30.92420,79115
30.93232,80177
30.94045,75852
30.94857,80620
30.95668,76840
30.96482,75224
30.97293,84475
30.98105,79095
30.98918,76323
30.99730,69560
31.00543,74513
31.01355,76982
31.02167,70120
31.02980,72664
31.03792,72952
31.04605,70025
31.05417,74260
31.06228,71607
31.07042,73745
31.07853,73021
31.08667,76706
31.09478,74726
31.10290,73453
31.11103,71723
31.11915,72781
31.12727,69385
31.13540,73208
31.14352,70786
31.15165,71054
31.15977,71879
31.16788,79655
31.17602,68964
31.18413,77962
31.19227,70527
31.20038,67199
31.20850,68513
31.21663,81341
31.22475,72853
31.23288,69144
31.24100,74722
31.24912,71717
31.25725,72274
31.26537,70434
31.27348,64010
31.28162,67703
31.28973,69205
31.29787,69504
31.30598,81280
31.31410,127335
31.32223,202240
31.33035,368970
31.33848,617097
31.34660,934692
31.35472,1121899
31.36285,1147550
31.37097,925054
31.37908,622309
31.38722,393076
31.39533,238971
31.40347,161907
31.41158,127396
31.41970,116454
31.42783,104071
31.43595,100409
31.44408,90370
31.45220,79569
31.46032,84157
31.46845,89305
31.47657,81228
31.48470,79749
31.49282,81165
31.50093,77481
31.50907,76436
31.51718,80633
31.52530,76029
31.53343,80034
31.54155,84971
31.54968,84833
31.55780,83807
31.56592,81117
31.57405,79680
31.58217,76861
31.59030,71299
31.59842,83051
31.60653,74394
31.61467,85229
31.62278,102478
31.63092,135740
31.63903,189421
31.64715,243180
31.65528,285531
31.66340,320324
31.67152,308894
31.67965,242411
31.68777,193589
31.69590,154720
31.70402,124025
31.71213,102902
31.72027,86008
31.72838,85630
31.73652,85993
31.74463,75974
31.75275,73756
31.76088,75429
31.76900,74500
31.77713,71096
31.78525,70922
31.79337,80178
31.80150,75356
31.80962,74243
31.81773,75808
31.82587,72907
31.83398,69648
31.84212,72464
31.85023,72167
31.85835,69132
31.86648,69774
31.87460,71854
31.88273,73739
31.89085,65076
31.89897,65362
31.90710,66944
31.91522,76387
31.92333,65238
31.93147,68377
31.93958,64392
31.94772,66323
31.95583,69968
31.96395,79002
31.97208,67450
31.98020,71232
31.98833,74581
31.99645,68734
32.00457,64758
32.01270,71337
32.02082,71582
32.02895,69631
32.03707,68031
32.04518,70460
32.05332,66549
32.06143,76443
32.06955,72918
32.07768,85094
32.08580,95234
32.09393,117276
32.10205,143761
32.11017,157977
32.11830,178506
32.12642,160858
32.13455,130821
32.14267,101220
32.15078,88840
32.15892,77805
32.16703,70666
32.17517,79275
32.18328,79647
32.19140,70980
32.19953,67736
32.20765,67659
32.21577,73874
32.22390,70625
32.23202,69591
32.24015,74463
32.24827,86338
32.25638,89926
32.26452,106479
32.27263,115007
32.28077,129189
32.28888,132200
32.29700,138227
32.30513,141311
32.31325,144294
32.32137,136565
32.32950,140593
32.33762,134389
32.34575,133001
32.35387,128038
32.36198,122777
32.37012,123964
32.37823,124248
32.38637,146237
32.39448,155787
32.40260,171692
32.41073,201695
32.41885,222668
32.42698,222483
32.43510,209419
32.44322,187323
32.45135,148331
32.45947,126023
32.46758,105867
32.47572,101935
32.48383,97350
32.49197,89608
32.50008,82577
32.50820,75585
32.51633,83364
32.52445,75321
32.53258,76984
32.54070,74594
32.54882,83460
32.55695,79608
32.56507,84422
32.57320,81936
32.58132,75284
32.58943,72849
32.59757,74824
32.60568,73551
32.61380,71389
32.62193,66627
32.63005,85274
32.63818,70280
32.64630,71930
32.65442,71978
32.66255,71331
32.67067,73053
32.67880,78099
32.68692,68872
32.69503,69974
32.70317,68164
32.71128,67318
32.71940,71807
32.72753,70344
32.73565,71097
32.74378,69125
32.75190,71013
32.76002,68540
32.76815,66891
32.77627,72761
32.78440,73017
32.79252,72876
32.80063,82294
32.80877,74820
32.81688,75447
32.82502,73831
32.83313,76922
32.84125,76206
32.84938,78125
32.85750,74883
32.86562,74560
32.87375,75045
32.88187,77359
32.89000,75288
32.89812,76323
32.90623,76991
32.91437,72557
32.92248,69997
32.93062,72472
32.93873,75777
32.94685,82738
32.95498,81115
32.96310,83193
32.97123,87057
32.97935,78736
32.98747,84616
32.99560,87125
33.00372,87529
33.01183,83585
33.01997,83857
33.02808,75586
33.03622,71317
33.04433,74432
33.05245,79136
33.06058,75946
33.06870,67819
33.07683,70850
33.08495,73635
33.09307,70997
33.10120,66949
33.10932,69297
33.11745,72234
33.12557,70583
33.13368,70829
33.14182,71225
33.14993,70263
33.15805,70217
33.16618,66253
33.17430,63047
33.18243,68742
33.19055,68690
33.19867,67447
33.20680,68075
33.21492,71941
33.22305,72988
33.23117,73912
33.23928,79504
33.24742,77229
33.25553,74204
33.26365,76582
33.27178,69210
33.27990,73380
33.28803,79904
33.29615,75981
33.30427,74224
33.31240,74506
33.32052,70526
33.32865,74463
33.33677,78855
33.34488,71898
33.35302,73521
33.36113,71015
33.36927,71347
33.37738,69468
33.38550,68435
33.39363,65072
33.40175,73101
33.40987,71176
33.41800,69447
33.42612,67676
33.43425,68634
33.44237,75917
33.45048,68213
33.45862,70070
33.46673,74107
33.47487,69212
33.48298,67492
33.49110,71706
33.49923,68528
33.50735,81170
33.51548,78208
33.52360,82029
33.53172,74912
33.53985,74097
33.54797,70886
33.55608,68330
33.56422,69101
33.57233,68874
33.58047,68146
33.58858,68968
33.59670,73228
33.60483,73513
33.61295,75856
33.62108,74016
33.62920,78346
33.63732,91964
33.64545,102639
33.65357,102528
33.66168,114455
33.66982,107320
33.67793,95798
33.68607,102507
33.69418,79266
33.70230,75356
33.71043,76643
33.71855,74110
33.72668,74817
33.73480,78368
33.74292,71416
33.75105,67980
33.75917,67772
33.76730,71848
33.77542,69167
33.78353,71583
33.79167,71296
33.79978,74702
33.80790,78024
33.81603,71847
33.82415,80550
33.83228,76634
33.84040,71658
33.84852,69649
33.85665,77594
33.86477,80477
33.87290,84988
33.88102,78852
33.88913,70848
33.89727,73462
33.90538,73527
33.91352,72947
33.92163,69791
33.92975,69051
33.93788,65645
33.94600,74769
33.95412,71769
33.96225,74454
33.97037,68004
33.97850,67367
33.98662,73297
33.99473,78230
34.00287,77988
34.01098,67305
34.01912,69790
34.02723,69683
34.03535,69639
34.04348,73880
34.05160,67068
34.05972,72716
34.06785,68047
34.07597,69432
34.08410,73460
34.09222,75325
34.10033,68832
34.10847,71570
34.11658,76352
34.12472,72497
34.13283,72758
34.14095,71144
34.14908,71688
34.15720,72555
34.16533,72310
34.17345,76788
34.18157,77841
34.18970,79604
34.19782,75130
34.20593,75759
34.21407,81126
34.22218,78810
34.23032,82083
34.23843,90441
34.24655,79375
34.25468,79059
34.26280,73571
34.27093,74812
34.27905,77617
34.28717,74880
34.29530,67186
34.30342,68461
34.31155,74130
34.31967,70037
34.32778,70526
34.33592,71690
34.34403,85895
34.35215,73669
34.36028,72097
34.36840,70146
34.37653,72008
34.38465,74142
34.39277,88354
34.40090,81422
34.40902,89421
34.41715,105703
34.42527,94744
34.43338,90056
34.44152,83835
34.44963,87714
34.45777,85361
34.46588,80529
34.47400,77233
34.48213,76095
34.49025,73794
34.49837,78067
34.50650,80914
34.51462,73824
34.52275,73361
34.53087,75701
34.53898,84240
34.54712,78361
34.55523,79234
34.56337,90485
34.57148,92067
34.57960,93385
34.58773,94134
34.59585,93317
34.60397,83323
34.61210,83578
34.62022,77640
34.62835,77916
34.63647,76370
34.64458,75481
34.65272,76994
34.66083,79643
34.66897,80110
34.67708,88903
34.68520,100935
34.69333,107587
34.70145,118689
34.70958,123396
34.71770,121884
34.72582,119232
34.73395,97696
34.74207,87791
34.75018,83613
34.75832,91493
34.76643,75477
34.77457,77177
34.78268,77907
34.79080,78121
34.79893,77982
34.80705,78255
34.81518,72671
34.82330,77872
34.83142,78454
34.83955,86120
34.84767,83313
34.85580,92220
34.86392,102825
34.87203,113453
34.88017,130856
34.88828,147897
34.89640,157295
34.90453,145321
34.91265,143045
34.92078,131121
34.92890,118905
34.93702,121065
34.94515,103784
34.95327,99518
34.96140,93620
34.96952,91736
34.97763,84863
34.98577,90425
34.99388,86380
35.00200,88396
35.01013,83027
35.01825,89400
35.02638,81774
35.03450,81853
35.04262,83120
35.05075,80269
35.05887,80504
35.06700,89949
35.07512,81195
35.08323,81061
35.09137,80219
35.09948,76252
35.10762,89525
35.11573,75519
35.12385,78195
35.13198,76640
35.14010,73280
35.14822,76958
35.15635,79288
35.16447,71398
35.17260,77044
35.18072,83987
35.18883,78990
35.19697,75886
35.20508,76214
35.21322,75206
35.22133,76538
35.22945,82951
35.23758,85519
35.24570,71894
35.25383,79164
35.26195,76226
35.27007,70357
35.27820,79363
35.28632,80396
35.29443,82156
35.30257,79092
35.31068,76212
35.31882,82761
35.32693,83111
35.33505,74885
35.34318,85893
35.35130,79057
35.35943,77660
35.36755,83628
35.37567,89398
35.38380,95924
35.39192,90459
35.40003,96770
35.40817,97917
35.41628,90971
35.42442,85539
35.43253,87087
35.44065,81182
35.44878,82678
35.45690,82538
35.46503,85645
35.47315,90514
35.48127,91623
35.48940,89605
35.49752,93011
35.50565,95751
35.51377,96857
35.52188,101199
35.53002,91230
35.53813,92620
35.54625,91623
35.55438,87017
35.56250,93741
35.57063,89034
35.57875,96391
35.58687,96612
35.59500,95836
35.60312,96019
35.61125,96139
35.61937,95827
35.62748,92913
35.63562,91928
35.64373,89029
35.65187,96770
35.65998,93198
35.66810,90477
35.67623,95488
35.68435,93235
35.69247,96834
35.70060,96117
35.70872,88009
35.71685,90532
35.72497,89126
35.73308,92832
35.74122,84599
35.74933,93937
35.75747,86726
35.76558,86657
35.77370,86759
35.78183,95495
35.78995,97656
35.79808,92870
35.80620,94130
35.81432,95157
35.82245,89705
35.83057,87541
35.83868,88008
35.84682,84212
35.85493,83630
35.86307,87983
35.87118,81668
35.87930,83528
35.88743,79139
35.89555,82672
35.90368,86021
35.91180,86128
35.91992,81001
35.92805,87563
35.93617,84277
35.94428,82491
35.95242,92288
35.96053,91087
35.96867,89557
35.97678,90103
35.98490,98761
35.99303,90561
36.00115,98958
36.00928,96505
36.01740,99251
36.02552,95517
36.03365,92969
36.04177,99193
36.04990,94638
36.05802,95247
36.06613,85611
36.07427,88788
36.08238,92173
36.09050,87395
36.09863,90255
36.10675,96879
36.11488,98362
36.12300,96238
36.13112,87618
36.13925,88787
36.14737,89531
36.15550,82650
36.16362,89872
36.17173,83104
36.17987,95649
36.18798,85808
36.19612,82905
36.20423,87796
36.21235,82212
36.22048,83630
36.22860,85340
36.23672,93382
36.24485,93782
36.25297,87645
36.26110,89505
36.26922,93460
36.27733,94691
36.28547,102506
36.29358,92482
36.30172,90927
36.30983,102206
36.31795,94344
36.32608,90193
36.33420,89051
36.34232,82691
36.35045,86657
36.35857,87845
36.36670,86695
36.37482,85008
36.38293,87917
36.39107,84712
36.39918,88353
36.40732,85740
36.41543,85567
36.42355,85456
36.43168,91336
36.43980,87771
36.44793,91753
36.45605,84985
36.46417,86859
36.47230,85424
36.48042,84409
36.48853,86678
36.49667,89398
36.50478,86885
36.51292,93004
36.52103,90446
36.52915,90999
36.53728,95738
36.54540,90360
36.55353,94735
36.56165,97981
36.56977,101347
36.57790,98204
36.58602,101665
36.59415,103305
36.60227,99941
36.61038,100136
36.61852,102461
36.62663,106239
36.63475,108574
36.64288,119179
36.65100,142595
36.65913,190396
36.66725,263380
36.67537,351024
36.68350,407540
36.69162,421890
36.69975,392403
36.70787,312924
36.71598,220937
36.72412,162760
36.73223,134693
36.74035,112376
36.74848,104817
36.75660,104245
36.76473,97983
36.77285,98700
36.78097,98201
36.78910,95752
36.79722,94712
36.80535,95143
36.81347,98577
36.82158,90610
36.82972,96658
36.83783,99657
36.84597,99345
36.85408,95120
36.86220,94821
36.87033,95207
36.87845,90521
36.88657,100051
36.89470,95441
36.90282,94431
36.91095,96292
36.91907,98333
36.92718,94497
36.93532,94485
36.94343,102143
36.95157,110775
36.95968,134209
36.96780,174047
36.97593,212814
36.98405,262564
36.99218,278475
37.00030,264491
37.00842,234543
37.01655,200402
37.02467,154161
37.03278,131239
37.04092,109476
37.04903,103536
37.05717,110242
37.06528,98889
37.07340,101555
37.08153,109656
37.08965,99168
37.09778,100840
37.10590,100891
37.11402,97616
37.12215,100258
37.13027,98931
37.13840,108035
37.14652,105515
37.15463,104560
37.16277,101963
37.17088,100959
37.17900,108695
37.18713,99862
37.19525,100954
37.20338,108260
37.21150,105261
37.21962,95336
37.22775,93571
37.23587,96420
37.24400,97500
37.25212,98144
37.26023,100827
37.26837,96707
37.27648,102592
37.28460,95965
37.29273,96312
37.30085,96551
37.30898,100561
37.31710,101420
37.32522,99294
37.33335,99792
37.34147,97660
37.34960,104081
37.35772,102504
37.36583,97954
37.37397,108155
37.38208,103745
37.39022,101992
37.39833,100400
37.40645,97412
37.41458,103742
37.42270,104212
37.43082,103630
37.43895,104442
37.44707,105670
37.45520,103221
37.46332,104261
37.47143,104137
37.47957,107386
37.48768,114195
