C:\MassHunter\GCMS\1\data\JTB-E18\JTB-E18-028-10.D Thu Sep 19 16:11:14 2019
Start of data points
2.09525,84958
2.10338,89706
2.11150,85557
2.11962,86852
2.12775,84151
2.13587,85355
2.14400,84974
2.15212,85180
2.16023,80879
2.16837,75697
2.17648,72703
2.18462,71693
2.19273,80746
2.20085,71942
2.20898,67591
2.21710,68133
2.22522,67536
2.23335,69092
2.24147,64655
2.24960,70824
2.25772,77952
2.26583,379123
2.27397,1592085
2.28208,1655618
2.29022,723626
2.29833,389068
2.30645,300780
2.31458,259768
2.32270,233595
2.33083,203151
2.33895,188623
2.34707,168743
2.35520,148228
2.36332,147792
2.37143,144141
2.37957,188242
2.38768,193105
2.39582,146699
2.40393,136072
2.41205,121519
2.42018,134251
2.42830,128200
2.43643,128383
2.44455,140088
2.45267,134294
2.46080,121423
2.46892,105463
2.47705,108893
2.48517,116958
2.49328,135443
2.50142,123298
2.50953,105695
2.51765,105016
2.52578,100112
2.53390,103416
2.54203,111211
2.55015,109176
2.55827,103097
2.56640,99651
2.57452,96993
2.58265,99921
2.59077,97097
2.59888,99066
2.60702,102608
2.61513,114268
2.62325,112661
2.63138,101623
2.63950,98169
2.64763,95646
2.65575,93838
2.66387,98511
2.67200,118931
2.68012,134004
2.68825,111736
2.69637,97188
2.70448,90537
2.71262,87823
2.72073,92422
2.72887,87828
2.73698,90987
2.74510,90445
2.75323,87915
2.76135,86610
2.76947,88395
2.77760,84228
2.78572,84902
2.79385,83198
2.80197,91566
2.81008,94002
2.81822,145433
2.82633,345509
2.83447,441400
2.84258,293034
2.85070,188567
2.85883,163176
2.86695,156566
2.87508,127387
2.88320,113535
2.89132,102948
2.89945,97274
2.90757,93371
2.91568,95240
2.92382,92426
2.93193,85398
2.94007,83249
2.94818,81127
2.95630,83414
2.96443,83654
2.97255,86219
2.98068,86524
2.98880,87557
2.99692,94904
3.00505,117211
3.01317,117007
3.02128,191419
3.02942,380734
3.03753,576804
3.04567,1213480
3.05378,3654658
3.06190,5610851
3.07003,4099987
3.07815,2033283
3.08628,1098030
3.09440,719564
3.10252,532001
3.11065,411853
3.11877,330615
3.12690,267641
3.13502,230538
3.14313,199001
3.15127,188368
3.15938,169698
3.16750,163617
3.17563,158536
3.18375,137800
3.19188,134322
3.20000,128873
3.20812,121638
3.21625,115663
3.22437,128967
3.23250,127908
3.24062,122712
3.24873,110304
3.25687,103288
3.26498,106341
3.27312,144774
3.28123,504814
3.28935,1901405
3.29748,4783729
3.30560,7059828
3.31372,6701042
3.32185,4752149
3.32997,3128325
3.33810,2202431
3.34622,1630172
3.35433,1299276
3.36247,1071493
3.37058,1071017
3.37872,1090653
3.38683,988552
3.39495,910134
3.40308,1350546
3.41120,2368791
3.41932,2655324
3.42745,1829562
3.43557,1073037
3.44370,732728
3.45182,580616
3.45993,508146
3.46807,447666
3.47618,398846
3.48432,361777
3.49243,329962
3.50055,309465
3.50868,284392
3.51680,274825
3.52493,257341
3.53305,253286
3.54117,241522
3.54930,231633
3.55742,222987
3.56553,221379
3.57367,219434
3.58178,209358
3.58992,200340
3.59803,208877
3.60615,221871
3.61428,344809
3.62240,731866
3.63053,1285424
3.63865,1449123
3.64677,1045128
3.65490,629332
3.66302,425738
3.67113,334374
3.67927,291012
3.68738,248186
3.69552,241658
3.70363,212696
3.71175,211518
3.71988,196886
3.72800,199912
3.73613,196717
3.74425,199434
3.75237,199192
3.76050,200664
3.76862,180960
3.77675,176468
3.78487,167774
3.79298,167879
3.80112,160617
3.80923,162437
3.81735,181076
3.82548,171766
3.83360,167724
3.84173,166773
3.84985,155079
3.85797,155214
3.86610,150320
3.87422,143636
3.88235,149042
3.89047,147098
3.89858,145812
3.90672,146065
3.91483,139250
3.92297,143769
3.93108,144324
3.93920,138510
3.94733,141886
3.95545,136140
3.96357,135177
3.97170,131652
3.97982,130274
3.98795,127210
3.99607,127709
4.00418,137488
4.01232,134252
4.02043,126655
4.02857,128626
4.03668,127692
4.04480,133265
4.05293,132989
4.06105,139363
4.06917,134669
4.07730,132595
4.08542,131750
4.09355,127347
4.10167,127458
4.10978,126250
4.11792,130307
4.12603,130242
4.13417,135513
4.14228,137855
4.15040,146111
4.15853,140592
4.16665,139343
4.17478,129337
4.18290,125698
4.19102,129493
4.19915,118050
4.20727,117273
4.21538,127109
4.22352,135484
4.23163,153210
4.23977,157657
4.24788,141501
4.25600,133086
4.26413,130052
4.27225,124256
4.28038,121823
4.28850,125777
4.29662,122851
4.30475,116669
4.31287,120142
4.32100,126188
4.32912,123492
4.33723,118269
4.34537,119149
4.35348,114554
4.36160,118411
4.36973,114115
4.37785,116343
4.38598,118538
4.39410,119172
4.40222,111317
4.41035,115436
4.41847,111163
4.42660,113624
4.43472,109845
4.44283,118894
4.45097,126502
4.45908,129475
4.46720,125764
4.47533,128387
4.48345,119464
4.49158,121245
4.49970,116439
4.50782,113658
4.51595,111493
4.52407,115381
4.53220,110188
4.54032,110926
4.54843,109250
4.55657,113123
4.56468,108472
4.57282,110993
4.58093,108082
4.58905,108470
4.59718,107764
4.60530,100528
4.61342,100153
4.62155,103360
4.62967,106124
4.63780,103171
4.64592,109619
4.65403,103438
4.66217,101806
4.67028,104715
4.67842,109965
4.68653,108408
4.69465,106294
4.70278,105023
4.71090,100181
4.71902,104890
4.72715,105986
4.73527,101316
4.74340,105716
4.75152,106271
4.75963,103549
4.76777,102480
4.77588,106729
4.78402,98126
4.79213,102639
4.80025,106216
4.80838,99239
4.81650,110650
4.82463,106363
4.83275,104168
4.84087,111398
4.84900,105225
4.85712,116064
4.86523,114436
4.87337,109825
4.88148,106031
4.88962,107297
4.89773,105280
4.90585,113614
4.91398,181429
4.92210,437450
4.93023,1074133
4.93835,2181365
4.94647,3208473
4.95460,3505405
4.96272,2987165
4.97085,2136929
4.97897,1435897
4.98708,1023065
4.99522,754188
5.00333,607072
5.01145,486658
5.01958,393960
5.02770,348632
5.03583,316228
5.04395,291088
5.05207,266771
5.06020,238613
5.06832,229865
5.07645,227029
5.08457,211102
5.09268,214917
5.10082,237632
5.10893,263759
5.11705,276687
5.12518,272283
5.13330,240998
5.14143,218801
5.14955,198137
5.15767,191051
5.16580,206302
5.17392,232271
5.18205,266468
5.19017,263549
5.19828,247677
5.20642,220010
5.21453,202901
5.22267,224166
5.23078,310426
5.23890,395972
5.24703,414940
5.25515,344688
5.26327,276024
5.27140,218387
5.27952,192433
5.28765,186075
5.29577,178435
5.30388,166604
5.31202,160905
5.32013,148544
5.32827,161839
5.33638,157190
5.34450,150017
5.35263,144980
5.36075,144882
5.36888,136903
5.37700,131008
5.38512,138242
5.39325,129919
5.40137,125717
5.40948,131896
5.41762,127632
5.42573,125626
5.43387,123482
5.44198,128268
5.45010,130899
5.45823,126305
5.46635,124824
5.47448,128332
5.48260,120987
5.49072,122604
5.49885,128244
5.50697,123819
5.51508,117879
5.52322,121118
5.53133,117214
5.53947,125738
5.54758,120227
5.55570,120897
5.56383,119190
5.57195,128196
5.58008,127048
5.58820,133731
5.59632,131453
5.60445,134378
5.61257,127043
5.62070,142110
5.62882,150858
5.63693,144735
5.64507,140348
5.65318,141187
5.66130,133863
5.66943,134104
5.67755,129931
5.68568,145198
5.69380,149792
5.70192,149430
5.71005,144897
5.71817,159748
5.72630,163931
5.73442,164769
5.74253,158820
5.75067,155799
5.75878,162824
5.76690,172251
5.77503,162542
5.78315,166728
5.79128,162801
5.79940,177486
5.80752,267423
5.81565,438041
5.82377,669162
5.83190,833149
5.84002,799100
5.84813,633139
5.85627,446219
5.86438,322560
5.87252,245768
5.88063,194191
5.88875,182469
5.89688,171087
5.90500,197538
5.91312,246925
5.92125,323293
5.92937,384285
5.93750,384786
5.94562,321227
5.95373,249898
5.96187,186834
5.96998,156907
5.97812,146341
5.98623,134084
5.99435,124251
6.00248,115997
6.01060,104793
6.01873,105478
6.02685,103205
6.03497,95027
6.04310,96103
6.05122,93302
6.05933,95635
6.06747,90683
6.07558,88371
6.08372,87674
6.09183,86509
6.09995,87298
6.10808,82693
6.11620,85187
6.12433,86247
6.13245,87045
6.14057,89932
6.14870,88475
6.15682,94195
6.16495,97421
6.17307,104647
6.18118,104988
6.18932,116785
6.19743,130317
6.20555,133092
6.21368,131875
6.22180,123803
6.22993,115226
6.23805,121279
6.24617,115883
6.25430,119586
6.26242,126547
6.27055,113135
6.27867,116249
6.28678,120995
6.29492,126654
6.30303,128682
6.31115,130031
6.31928,140310
6.32740,144358
6.33553,144360
6.34365,144284
6.35177,151253
6.35990,152907
6.36802,159774
6.37615,151120
6.38427,159302
6.39238,158718
6.40052,156921
6.40863,158742
6.41677,159922
6.42488,159865
6.43300,167703
6.44113,168813
6.44925,167104
6.45737,169144
6.46550,175842
6.47362,180287
6.48175,175135
6.48987,179530
6.49798,183819
6.50612,133437
6.51423,115178
6.52237,103913
6.53048,104915
6.53860,107741
6.54673,101681
6.55485,102611
6.56297,103963
6.57110,95915
6.57922,93897
6.58735,99441
6.59547,96663
6.60358,95775
6.61172,88645
6.61983,89981
6.62797,89588
6.63608,80058
6.64420,86634
6.65233,85911
6.66045,84948
6.66858,84172
6.67670,81416
6.68482,83575
6.69295,87519
6.70107,79465
6.70918,84311
6.71732,89290
6.72543,98474
6.73357,114056
6.74168,132001
6.74980,140365
6.75793,143554
6.76605,129025
6.77418,115206
6.78230,96589
6.79042,92563
6.79855,82436
6.80667,78537
6.81480,79696
6.82292,75287
6.83103,76023
6.83917,80678
6.84728,86232
6.85540,105748
6.86353,153925
6.87165,238868
6.87978,355087
6.88790,449616
6.89602,494952
6.90415,450525
6.91227,356508
6.92040,250741
6.92852,165176
6.93663,126280
6.94477,97961
6.95288,82702
6.96100,75709
6.96913,76481
6.97725,70251
6.98538,63260
6.99350,63728
7.00162,62509
7.00975,67464
7.01787,77527
7.02600,97866
7.03412,140230
7.04223,177443
7.05037,214946
7.05848,217372
7.06662,200323
7.07473,166448
7.08285,134160
7.09098,108402
7.09910,95855
7.10722,85986
7.11535,74556
7.12347,73615
7.13160,75787
7.13972,77572
7.14783,69386
7.15597,70373
7.16408,71182
7.17222,70795
7.18033,65145
7.18845,63656
7.19658,64368
7.20470,64868
7.21283,69782
7.22095,71581
7.22907,72181
7.23720,71544
7.24532,69349
7.25343,72341
7.26157,75446
7.26968,78220
7.27782,86173
7.28593,92422
7.29405,99065
7.30218,95333
7.31030,89279
7.31843,84606
7.32655,76711
7.33467,78459
7.34280,82424
7.35092,79028
7.35903,81111
7.36717,75362
7.37528,73422
7.38342,81220
7.39153,91405
7.39965,119668
7.40778,144265
7.41590,162293
7.42403,159328
7.43215,148640
7.44027,123221
7.44840,103018
7.45652,89491
7.46465,83000
7.47277,75167
7.48088,69861
7.48902,71928
7.49713,78746
7.50525,96808
7.51338,111308
7.52150,123831
7.52963,124599
7.53775,111225
7.54587,98683
7.55400,82594
7.56212,77608
7.57025,68253
7.57837,64380
7.58648,61151
7.59462,58875
7.60273,54623
7.61085,64884
7.61898,57625
7.62710,58047
7.63523,58219
7.64335,57889
7.65147,58889
7.65960,57367
7.66772,55831
7.67585,58313
7.68397,57867
7.69208,54257
7.70022,57931
7.70833,58832
7.71647,50972
7.72458,54835
7.73270,51355
7.74083,50230
7.74895,51201
7.75707,51884
7.76520,51634
7.77332,48247
7.78145,46851
7.78957,48676
7.79768,45311
7.80582,53450
7.81393,51361
7.82207,50059
7.83018,50103
7.83830,51047
7.84643,50490
7.85455,47470
7.86268,47877
7.87080,48362
7.87892,53080
7.88705,51127
7.89517,50396
7.90328,47603
7.91142,48925
7.91953,45030
7.92767,44806
7.93578,43962
7.94390,43771
7.95203,44053
7.96015,45137
7.96828,51745
7.97640,46808
7.98452,51261
7.99265,49045
8.00077,51822
8.00888,50806
8.01702,44636
8.02513,45460
8.03327,44236
8.04138,46641
8.04950,47357
8.05763,42210
8.06575,44498
8.07388,45155
8.08200,45003
8.09012,44795
8.09825,41950
8.10637,42750
8.11450,42623
8.12262,45150
8.13073,48787
8.13887,46268
8.14698,43966
8.15510,47926
8.16323,44664
8.17135,46988
8.17948,49180
8.18760,46201
8.19572,42942
8.20385,47894
8.21197,42733
8.22010,47162
8.22822,41798
8.23633,43372
8.24447,43233
8.25258,48397
8.26072,45254
8.26883,45366
8.27695,40825
8.28508,41764
8.29320,43566
8.30132,42984
8.30945,39406
8.31757,43162
8.32570,43211
8.33382,46025
8.34193,53721
8.35007,54142
8.35818,50943
8.36632,53475
8.37443,46220
8.38255,43772
8.39068,44804
8.39880,45107
8.40692,44718
8.41505,43790
8.42317,40880
8.43130,37916
8.43942,38776
8.44753,38515
8.45567,40644
8.46378,38987
8.47192,43131
8.48003,43606
8.48815,44689
8.49628,44398
8.50440,50666
8.51253,56039
8.52065,51988
8.52877,50605
8.53690,45529
8.54502,43949
8.55313,45793
8.56127,49508
8.56938,47628
8.57752,48458
8.58563,48056
8.59375,45223
8.60188,43544
8.61000,39344
8.61813,41885
8.62625,41733
8.63437,39960
8.64250,42528
8.65062,42863
8.65875,41347
8.66687,43821
8.67498,42113
8.68312,38975
8.69123,39961
8.69935,45436
8.70748,45694
8.71560,47830
8.72373,58168
8.73185,93592
8.73997,196349
8.74810,385484
8.75622,660837
8.76435,912891
8.77247,972611
8.78058,831416
8.78872,585269
8.79683,373251
8.80495,250478
8.81308,197777
8.82120,150263
8.82933,125141
8.83745,110043
8.84557,99246
8.85370,90905
8.86182,86241
8.86995,77186
8.87807,73504
8.88618,75662
8.89432,74068
8.90243,67847
8.91057,66030
8.91868,63935
8.92680,65093
8.93493,68184
8.94305,67140
8.95117,65649
8.95930,63546
8.96742,57389
8.97555,56347
8.98367,57097
8.99178,57319
8.99992,60687
9.00803,62502
9.01617,57090
9.02428,57773
9.03240,55302
9.04053,55864
9.04865,57459
9.05677,56929
9.06490,57220
9.07302,56957
9.08115,50438
9.08927,51017
9.09738,51299
9.10552,53186
9.11363,49470
9.12177,57899
9.12988,54769
9.13800,57080
9.14613,51272
9.15425,50595
9.16238,49733
9.17050,48571
9.17862,51657
9.18675,52973
9.19487,49936
9.20298,49467
9.21112,49437
9.21923,51814
9.22737,51155
9.23548,49159
9.24360,46415
9.25173,50503
9.25985,49380
9.26798,51583
9.27610,55729
9.28422,55207
9.29235,63504
9.30047,62390
9.30860,58915
9.31672,55406
9.32483,56055
9.33297,59211
9.34108,55013
9.34920,54965
9.35733,51260
9.36545,53352
9.37358,49799
9.38170,52706
9.38982,46996
9.39795,47255
9.40607,47621
9.41420,47514
9.42232,46093
9.43043,46090
9.43857,50441
9.44668,47946
9.45480,43841
9.46293,44009
9.47105,47720
9.47918,42833
9.48730,43424
9.49542,42756
9.50355,44300
9.51167,45466
9.51980,45295
9.52792,43138
9.53603,44457
9.54417,43658
9.55228,46175
9.56042,44419
9.56853,39400
9.57665,41959
9.58478,44252
9.59290,43411
9.60102,49178
9.60915,41306
9.61727,44886
9.62540,38644
9.63352,40010
9.64163,41223
9.64977,42381
9.65788,47477
9.66602,46848
9.67413,39835
9.68225,40241
9.69038,35894
9.69850,37450
9.70663,34399
9.71475,33598
9.72287,37059
9.73100,31818
9.73912,34409
9.74723,37723
9.75537,34998
9.76348,36953
9.77162,32730
9.77973,34889
9.78785,33208
9.79598,32197
9.80410,33254
9.81223,30689
9.82035,33244
9.82847,32738
9.83660,36493
9.84472,34660
9.85283,36138
9.86097,31026
9.86908,31682
9.87722,34781
9.88533,34541
9.89345,34766
9.90158,32729
9.90970,31099
9.91783,33883
9.92595,33527
9.93407,31045
9.94220,29959
9.95032,30484
9.95845,37851
9.96657,45512
9.97468,56157
9.98282,59982
9.99093,65447
9.99905,64828
10.00718,61316
10.01530,49985
10.02343,42480
10.03155,46193
10.03967,36952
10.04780,41032
10.05592,36532
10.06405,37009
10.07217,36364
10.08028,35755
10.08842,36681
10.09653,33865
10.10465,31933
10.11278,34601
10.12090,37175
10.12903,36469
10.13715,32125
10.14527,36293
10.15340,37071
10.16152,32334
10.16965,31429
10.17777,33134
10.18588,35426
10.19402,32260
10.20213,29327
10.21027,37859
10.21838,39019
10.22650,38306
10.23463,39958
10.24275,38246
10.25087,39886
10.25900,35077
10.26712,37262
10.27525,40942
10.28337,34164
10.29148,34889
10.29962,34937
10.30773,35537
10.31587,34390
10.32398,35444
10.33210,34729
10.34023,34378
10.34835,37762
10.35648,31672
10.36460,32984
10.37272,34360
10.38085,32003
10.38897,38908
10.39708,40601
10.40522,37624
10.41333,37734
10.42147,39775
10.42958,34556
10.43770,32705
10.44583,33874
10.45395,35688
10.46208,33495
10.47020,33015
10.47832,31659
10.48645,32501
10.49457,37318
10.50270,32832
10.51082,32802
10.51893,33771
10.52707,33835
10.53518,36924
10.54330,37553
10.55143,38988
10.55955,32342
10.56768,34193
10.57580,31718
10.58392,31856
10.59205,33452
10.60017,32798
10.60830,31924
10.61642,32725
10.62453,31378
10.63267,32260
10.64078,28765
10.64890,34032
10.65703,32163
10.66515,36453
10.67328,31137
10.68140,34221
10.68952,34922
10.69765,34369
10.70577,33221
10.71390,35563
10.72202,38663
10.73013,38207
10.73827,35929
10.74638,39504
10.75452,38285
10.76263,33937
10.77075,36591
10.77888,34275
10.78700,34913
10.79512,35107
10.80325,34783
10.81137,33489
10.81950,30978
10.82762,29687
10.83573,34388
10.84387,31375
10.85198,25847
10.86012,29686
10.86823,29714
10.87635,30177
10.88448,31160
10.89260,32501
10.90072,30601
10.90885,33441
10.91697,28251
10.92510,28652
10.93322,30102
10.94133,29572
10.94947,29000
10.95758,29469
10.96572,32766
10.97383,32049
10.98195,32856
10.99008,33535
10.99820,34929
11.00633,30691
11.01445,30772
11.02257,30674
11.03070,32540
11.03882,31817
11.04693,31085
11.05507,29084
11.06318,29901
11.07132,30187
11.07943,28382
11.08755,31274
11.09568,30912
11.10380,28792
11.11193,32650
11.12005,29614
11.12817,31620
11.13630,30742
11.14442,30853
11.15255,33269
11.16067,35989
11.16878,34817
11.17692,35324
11.18503,33862
11.19315,28016
11.20128,33638
11.20940,33278
11.21753,30748
11.22565,30905
11.23377,31018
11.24190,32077
11.25002,28819
11.25815,29854
11.26627,31459
11.27438,33481
11.28252,35007
11.29063,41195
11.29875,48050
11.30688,55624
11.31500,58116
11.32313,63204
11.33125,63611
11.33937,60608
11.34750,59616
11.35562,62044
11.36375,53393
11.37187,50213
11.37998,46257
11.38812,42742
11.39623,40990
11.40437,34840
11.41248,35975
11.42060,35944
11.42873,33669
11.43685,34428
11.44497,30366
11.45310,30957
11.46122,31968
11.46935,32176
11.47747,29435
11.48558,30927
11.49372,32109
11.50183,32684
11.50997,30594
11.51808,32171
11.52620,31926
11.53433,34528
11.54245,37404
11.55058,33354
11.55870,36799
11.56682,35011
11.57495,38262
11.58307,37014
11.59118,37117
11.59932,36239
11.60743,33616
11.61557,34023
11.62368,35231
11.63180,29520
11.63993,33326
11.64805,36633
11.65618,31420
11.66430,29601
11.67242,34614
11.68055,33197
11.68867,34194
11.69678,39413
11.70492,44711
11.71303,44312
11.72117,44191
11.72928,42942
11.73740,41452
11.74553,41944
11.75365,41563
11.76178,39573
11.76990,42093
11.77802,42297
11.78615,39965
11.79427,35657
11.80240,33888
11.81052,35551
11.81863,38272
11.82677,33485
11.83488,33574
11.84300,39587
11.85113,38645
11.85925,35130
11.86738,36788
11.87550,34545
11.88362,31319
11.89175,31906
11.89987,30174
11.90800,32019
11.91612,34621
11.92423,27945
11.93237,32383
11.94048,37317
11.94860,33398
11.95673,34829
11.96485,39600
11.97298,39024
11.98110,37390
11.98922,40496
11.99735,41376
12.00547,34944
12.01360,33524
12.02172,33016
12.02983,34334
12.03797,33063
12.04608,29095
12.05422,32719
12.06233,30768
12.07045,27772
12.07858,29236
12.08670,30461
12.09482,28130
12.10295,29844
12.11107,30338
12.11920,31405
12.12732,29218
12.13543,28298
12.14357,31190
12.15168,27780
12.15982,28926
12.16793,30318
12.17605,33024
12.18418,28499
12.19230,31341
12.20043,27816
12.20855,31494
12.21667,26104
12.22480,27236
12.23292,26608
12.24103,28744
12.24917,28807
12.25728,28342
12.26542,27374
12.27353,27949
12.28165,26963
12.28978,27948
12.29790,26303
12.30603,27668
12.31415,27650
12.32227,27517
12.33040,28352
12.33852,29987
12.34663,25580
12.35477,28436
12.36288,27334
12.37102,26478
12.37913,27114
12.38725,27118
12.39538,30605
12.40350,28645
12.41163,29449
12.41975,29273
12.42787,28283
12.43600,29530
12.44412,32893
12.45225,31441
12.46037,30655
12.46848,31691
12.47662,30795
12.48473,30918
12.49285,32704
12.50098,28391
12.50910,28534
12.51723,29423
12.52535,26159
12.53347,25952
12.54160,29680
12.54972,26680
12.55785,29416
12.56597,29417
12.57408,28987
12.58222,26894
12.59033,27291
12.59847,27567
12.60658,26507
12.61470,26064
12.62283,25710
12.63095,28446
12.63907,28391
12.64720,26077
12.65532,29235
12.66345,26869
12.67157,27084
12.67968,24889
12.68782,27742
12.69593,22713
12.70407,26692
12.71218,27850
12.72030,30928
12.72843,33063
12.73655,33610
12.74467,37467
12.75280,32914
12.76092,35989
12.76905,30999
12.77717,29653
12.78528,29083
12.79342,27862
12.80153,33969
12.80967,33205
12.81778,34165
12.82590,31270
12.83403,27569
12.84215,30146
12.85028,32427
12.85840,31547
12.86652,31032
12.87465,28330
12.88277,34418
12.89088,30122
12.89902,31174
12.90713,30923
12.91527,29030
12.92338,26536
12.93150,30048
12.93963,29331
12.94775,29053
12.95588,28731
12.96400,37464
12.97212,43939
12.98025,48550
12.98837,61019
12.99650,58366
13.00462,59534
13.01273,59794
13.02087,56063
13.02898,48277
13.03710,42109
13.04523,44677
13.05335,38370
13.06148,36513
13.06960,34144
13.07772,31993
13.08585,34110
13.09397,35402
13.10210,32194
13.11022,32936
13.11833,31099
13.12647,27821
13.13458,32388
13.14270,31810
13.15083,31225
13.15895,28185
13.16708,25770
13.17520,32633
13.18332,31754
13.19145,30673
13.19957,33140
13.20770,29684
13.21582,28546
13.22393,31589
13.23207,28200
13.24018,31295
13.24832,29699
13.25643,33504
13.26455,32485
13.27268,33615
13.28080,35805
13.28892,37515
13.29705,40501
13.30517,41074
13.31330,37437
13.32142,37041
13.32953,37848
13.33767,37525
13.34578,41587
13.35392,35963
13.36203,34100
13.37015,37256
13.37828,34903
13.38640,33983
13.39452,32684
13.40265,31266
13.41077,30367
13.41890,29625
13.42702,28741
13.43513,31278
13.44327,29317
13.45138,30330
13.45952,32286
13.46763,27107
13.47575,30217
13.48388,29228
13.49200,29600
13.50013,26199
13.50825,29078
13.51637,27510
13.52450,27459
13.53262,30467
13.54073,26655
13.54887,28816
13.55698,28922
13.56512,31114
13.57323,32756
13.58135,34358
13.58948,34318
13.59760,38005
13.60573,41030
13.61385,38188
13.62197,37133
13.63010,37966
13.63822,39415
13.64635,40179
13.65447,40742
13.66258,41201
13.67072,37495
13.67883,37372
13.68695,38107
13.69508,35078
13.70320,33788
13.71133,36284
13.71945,31636
13.72757,27739
13.73570,33334
13.74382,33710
13.75195,31190
13.76007,30277
13.76818,33632
13.77632,31461
13.78443,29809
13.79255,28408
13.80068,28954
13.80880,28304
13.81693,28590
13.82505,30858
13.83317,27261
13.84130,29540
13.84942,26524
13.85755,31950
13.86567,29110
13.87378,34934
13.88192,30292
13.89003,28693
13.89817,31236
13.90628,30728
13.91440,35067
13.92253,34046
13.93065,32818
13.93877,34279
13.94690,34310
13.95502,34558
13.96315,36892
13.97127,31235
13.97938,34149
13.98752,32715
13.99563,31367
14.00377,32482
14.01188,31483
14.02000,32452
14.02813,32058
14.03625,32320
14.04438,36045
14.05250,33023
14.06062,32914
14.06875,30643
14.07687,30054
14.08498,29611
14.09312,28967
14.10123,29827
14.10937,25520
14.11748,29521
14.12560,32725
14.13373,43296
14.14185,71263
14.14998,115714
14.15810,182872
14.16622,242090
14.17435,255739
14.18247,223595
14.19058,165074
14.19872,111688
14.20683,92061
14.21497,71249
14.22308,57609
14.23120,61783
14.23933,53867
14.24745,55220
14.25558,53938
14.26370,49427
14.27182,53356
14.27995,48236
14.28807,41062
14.29620,40991
14.30432,42620
14.31243,40885
14.32057,34601
14.32868,32056
14.33680,32287
14.34493,32698
14.35305,27874
14.36118,28995
14.36930,33295
14.37742,27062
14.38555,29734
14.39367,27411
14.40180,29083
14.40992,27458
14.41803,28824
14.42617,31074
14.43428,30532
14.44240,27456
14.45053,29545
14.45865,29036
14.46678,30856
14.47490,28219
14.48302,27945
14.49115,30414
14.49927,29078
14.50740,29907
14.51552,26386
14.52363,33062
14.53177,27837
14.53988,27875
14.54802,25237
14.55613,29338
14.56425,30091
14.57238,27613
14.58050,27235
14.58862,27187
14.59675,24987
14.60487,24803
14.61300,28507
14.62112,27419
14.62923,24722
14.63737,25963
14.64548,25617
14.65362,26250
14.66173,29022
14.66985,26729
14.67798,27611
14.68610,25784
14.69423,26955
14.70235,25404
14.71047,27997
14.71860,28580
14.72672,28407
14.73483,28360
14.74297,27660
14.75108,24289
14.75922,25217
14.76733,22774
14.77545,28650
14.78358,27091
14.79170,23397
14.79983,28513
14.80795,26806
14.81607,32723
14.82420,29744
14.83232,27716
14.84043,28555
14.84857,29379
14.85668,25859
14.86482,26784
14.87293,30896
14.88105,28349
14.88918,27254
14.89730,30255
14.90543,28266
14.91355,27108
14.92167,26242
14.92980,25849
14.93792,30138
14.94605,28353
14.95417,32337
14.96228,30947
14.97042,24851
14.97853,28441
14.98665,27858
14.99478,25983
15.00290,30515
15.01103,27827
15.01915,29335
15.02727,25206
15.03540,25192
15.04352,27829
15.05165,27409
15.05977,26981
15.06788,25674
15.07602,24726
15.08413,27840
15.09227,25694
15.10038,25645
15.10850,27200
15.11663,25843
15.12475,27445
15.13287,27102
15.14100,26107
15.14912,27206
15.15725,29927
15.16537,28642
15.17348,24001
15.18162,25870
15.18973,27867
15.19787,24837
15.20598,29392
15.21410,27161
15.22223,28188
15.23035,26185
15.23847,28424
15.24660,27203
15.25472,28852
15.26285,23759
15.27097,22430
15.27908,24868
15.28722,25401
15.29533,25245
15.30347,24983
15.31158,24922
15.31970,23431
15.32783,24833
15.33595,26113
15.34408,24826
15.35220,23415
15.36032,24623
15.36845,25712
15.37657,24651
15.38468,24520
15.39282,25190
15.40093,25590
15.40907,24517
15.41718,27791
15.42530,27342
15.43343,25414
15.44155,26126
15.44968,24220
15.45780,22719
15.46592,25983
15.47405,28878
15.48217,26789
15.49028,25452
15.49842,27257
15.50653,24206
15.51467,25285
15.52278,24884
15.53090,26165
15.53903,25434
15.54715,25839
15.55528,25979
15.56340,27514
15.57152,22989
15.57965,23843
15.58777,23750
15.59590,26756
15.60402,24795
15.61213,25240
15.62027,24855
15.62838,26325
15.63650,25902
15.64463,25669
15.65275,23313
15.66088,24250
15.66900,22884
15.67712,26803
15.68525,28587
15.69337,24346
15.70150,26833
15.70962,23666
15.71773,23997
15.72587,26910
15.73398,27265
15.74212,30977
15.75023,27104
15.75835,31379
15.76648,32525
15.77460,33176
15.78272,35659
15.79085,31516
15.79897,30797
15.80710,29664
15.81522,27620
15.82333,26108
15.83147,29681
15.83958,26992
15.84772,27678
15.85583,28250
15.86395,25625
15.87208,25432
15.88020,28117
15.88833,26867
15.89645,25873
15.90457,25529
15.91270,23475
15.92082,27744
15.92893,24371
15.93707,26275
15.94518,25091
15.95332,25556
15.96143,24717
15.96955,27479
15.97768,27622
15.98580,25788
15.99393,26492
16.00205,29087
16.01017,32115
16.01830,38687
16.02642,38914
16.03453,38259
16.04267,39211
16.05078,36154
16.05892,32747
16.06703,31574
16.07515,27619
16.08328,26793
16.09140,27015
16.09953,29234
16.10765,30398
16.11577,28656
16.12390,27646
16.13202,31067
16.14015,30617
16.14827,25540
16.15638,26810
16.16452,28034
16.17263,25771
16.18075,28840
16.18888,27626
16.19700,28497
16.20513,26424
16.21325,27691
16.22137,28356
16.22950,30310
16.23762,26657
16.24575,26012
16.25387,27719
16.26198,28733
16.27012,30072
16.27823,27295
16.28635,25934
16.29448,26882
16.30260,30449
16.31073,29164
16.31885,28839
16.32697,31395
16.33510,24908
16.34322,27979
16.35135,27615
16.35947,28953
16.36758,27355
16.37572,27357
16.38383,27021
16.39197,26456
16.40008,30161
16.40820,27860
16.41633,27944
16.42445,27692
16.43257,26544
16.44070,27578
16.44882,26588
16.45695,27249
16.46507,25994
16.47318,27873
16.48132,30459
16.48943,28263
16.49757,28606
16.50568,33512
16.51380,29547
16.52193,29017
16.53005,27722
16.53818,26505
16.54630,28556
16.55442,29648
16.56255,28311
16.57067,27058
16.57878,27925
16.58692,26557
16.59503,29814
16.60317,26590
16.61128,29229
16.61940,26427
16.62753,26691
16.63565,28709
16.64378,23549
16.65190,27750
16.66002,28222
16.66815,28816
16.67627,26469
16.68438,27444
16.69252,27571
16.70063,29513
16.70877,25160
16.71688,28904
16.72500,27044
16.73313,23866
16.74125,26543
16.74938,27741
16.75750,28742
16.76562,31609
16.77375,27295
16.78187,28339
16.79000,25947
16.79812,29104
16.80623,27856
16.81437,31503
16.82248,28637
16.83060,28638
16.83873,29951
16.84685,27074
16.85498,27052
16.86310,31066
16.87122,29375
16.87935,30305
16.88747,27244
16.89560,27283
16.90372,26781
16.91183,28160
16.91997,28897
16.92808,24660
16.93622,24348
16.94433,29406
16.95245,29328
16.96058,30751
16.96870,29372
16.97682,25156
16.98495,25436
16.99307,29232
17.00120,29068
17.00932,25427
17.01743,25714
17.02557,29076
17.03368,26853
17.04182,29266
17.04993,29832
17.05805,28076
17.06618,26196
17.07430,27238
17.08242,28271
17.09055,28331
17.09867,28572
17.10680,27979
17.11492,28426
17.12303,28106
17.13117,27280
17.13928,28681
17.14742,29365
17.15553,28114
17.16365,30051
17.17178,29314
17.17990,27120
17.18803,28451
17.19615,29228
17.20427,27139
17.21240,27275
17.22052,30540
17.22863,31600
17.23677,27487
17.24488,26909
17.25302,25327
17.26113,29108
17.26925,25610
17.27738,27718
17.28550,28189
17.29363,30120
17.30175,30132
17.30987,29734
17.31800,29751
17.32612,30107
17.33423,28139
17.34237,27750
17.35048,31834
17.35862,31177
17.36673,30716
17.37485,28971
17.38298,30240
17.39110,31045
17.39923,29154
17.40735,31463
17.41547,29361
17.42360,33821
17.43172,32343
17.43985,32050
17.44797,32291
17.45608,29641
17.46422,32963
17.47233,29126
17.48045,29920
17.48858,31515
17.49670,30564
17.50483,29812
17.51295,32350
17.52107,31202
17.52920,35814
17.53732,37710
17.54545,41083
17.55357,42764
17.56168,42093
17.56982,45690
17.57793,43333
17.58607,38720
17.59418,35839
17.60230,31952
17.61043,33161
17.61855,30506
17.62667,29510
17.63480,29614
17.64292,30110
17.65105,28591
17.65917,29408
17.66728,30005
17.67542,34363
17.68353,32559
17.69167,30841
17.69978,34858
17.70790,32997
17.71603,30286
17.72415,26139
17.73227,28351
17.74040,33144
17.74852,29698
17.75665,29450
17.76477,31231
17.77288,29609
17.78102,27710
17.78913,30557
17.79727,29184
17.80538,29886
17.81350,31642
17.82163,34079
17.82975,32436
17.83788,31121
17.84600,30304
17.85412,31822
17.86225,33343
17.87037,32399
17.87848,30984
17.88662,32085
17.89473,30405
17.90287,30451
17.91098,30182
17.91910,32017
17.92723,28691
17.93535,26924
17.94348,29294
17.95160,27710
17.95972,28346
17.96785,30341
17.97597,29113
17.98410,29223
17.99222,25855
18.00033,30547
18.00847,28826
18.01658,28095
18.02470,31626
18.03283,30041
18.04095,31162
18.04908,28563
18.05720,29459
18.06532,31986
18.07345,32545
18.08157,31812
18.08970,31548
18.09782,32358
18.10593,32930
18.11407,35706
18.12218,30722
18.13030,30562
18.13843,30840
18.14655,31098
18.15468,27802
18.16280,30887
18.17092,27569
18.17905,29087
18.18717,27820
18.19530,29246
18.20342,28745
18.21153,31118
18.21967,27888
18.22778,30877
18.23592,31171
18.24403,30320
18.25215,35704
18.26028,33081
18.26840,31598
18.27652,31917
18.28465,31774
18.29277,28872
18.30090,29622
18.30902,29702
18.31713,30524
18.32527,28580
18.33338,28993
18.34152,31788
18.34963,28911
18.35775,27077
18.36588,29292
18.37400,31776
18.38212,30251
18.39025,28436
18.39837,31963
18.40650,28462
18.41462,26761
18.42273,26162
18.43087,26996
18.43898,25846
18.44712,25385
18.45523,27237
18.46335,27145
18.47148,29954
18.47960,27021
18.48773,26483
18.49585,28977
18.50397,31426
18.51210,27422
18.52022,28921
18.52833,27268
18.53647,26410
18.54458,28560
18.55272,24082
18.56083,26544
18.56895,29773
18.57708,27613
18.58520,29206
18.59333,27472
18.60145,31667
18.60957,33150
18.61770,36025
18.62582,33303
18.63395,32103
18.64207,33367
18.65018,33013
18.65832,32449
18.66643,35110
18.67455,32663
18.68268,33102
18.69080,35023
18.69893,35426
18.70705,32658
18.71517,34754
18.72330,33352
18.73142,33061
18.73955,34940
18.74767,32797
18.75578,34430
18.76392,33785
18.77203,33415
18.78015,32720
18.78828,32475
18.79640,31232
18.80453,30391
18.81265,33995
18.82077,33057
18.82890,33188
18.83702,31437
18.84515,30850
18.85327,32822
18.86138,34315
18.86952,31498
18.87763,31523
18.88577,30146
18.89388,30953
18.90200,32429
18.91013,34732
18.91825,36787
18.92637,35463
18.93450,31542
18.94262,34864
18.95075,31330
18.95887,31669
18.96698,34598
18.97512,31300
18.98323,31145
18.99137,32171
18.99948,35861
19.00760,33079
19.01573,32657
19.02385,34370
19.03198,36582
19.04010,36115
19.04822,32932
19.05635,31356
19.06447,31283
19.07258,38812
19.08072,36350
19.08883,43729
19.09697,49726
19.10508,49721
19.11320,48137
19.12133,45089
19.12945,40725
19.13758,44505
19.14570,43255
19.15382,46270
19.16195,46683
19.17007,45260
19.17818,43198
19.18632,47971
19.19443,43990
19.20257,41241
19.21068,36423
19.21880,32867
19.22693,33124
19.23505,33314
19.24318,34567
19.25130,35284
19.25942,37004
19.26755,37681
19.27567,34268
19.28380,40353
19.29192,40268
19.30003,38552
19.30817,39813
19.31628,37359
19.32440,35555
19.33253,32519
19.34065,32684
19.34878,30347
19.35690,32420
19.36502,33403
19.37315,30379
19.38127,30942
19.38940,30825
19.39752,32786
19.40563,30048
19.41377,33349
19.42188,35729
19.43002,38395
19.43813,48782
19.44625,64119
19.45438,88109
19.46250,114363
19.47062,123937
19.47875,119931
19.48687,94265
19.49500,70909
19.50312,53530
19.51123,44460
19.51937,38780
19.52748,39567
19.53562,34426
19.54373,35657
19.55185,37688
19.55998,37010
19.56810,31949
19.57622,35139
19.58435,31620
19.59247,30258
19.60060,34680
19.60872,29337
19.61683,32323
19.62497,35144
19.63308,40380
19.64122,48477
19.64933,62942
19.65745,64452
19.66558,73538
19.67370,72000
19.68183,62052
19.68995,53148
19.69807,46790
19.70620,42284
19.71432,37876
19.72243,34376
19.73057,41060
19.73868,35339
19.74682,33153
19.75493,34737
19.76305,35451
19.77118,39382
19.77930,34685
19.78743,36770
19.79555,32187
19.80367,31300
19.81180,32436
19.81992,32701
19.82803,31067
19.83617,34272
19.84428,34751
19.85242,32836
19.86053,33433
19.86865,37625
19.87678,43789
19.88490,47259
19.89303,55211
19.90115,59024
19.90927,63280
19.91740,58561
19.92552,62016
19.93365,55793
19.94177,57709
19.94988,60022
19.95802,54064
19.96613,50800
19.97425,50021
19.98238,54196
19.99050,50608
19.99863,52301
20.00675,50013
20.01487,48571
20.02300,47085
20.03112,44894
20.03925,43437
20.04737,42371
20.05548,41140
20.06362,38326
20.07173,34954
20.07987,36288
20.08798,34868
20.09610,36989
20.10423,33818
20.11235,39534
20.12047,34371
20.12860,36620
20.13672,32797
20.14485,34840
20.15297,33947
20.16108,34110
20.16922,34135
20.17733,36065
20.18547,37673
20.19358,35822
20.20170,36507
20.20983,37698
20.21795,38058
20.22607,40357
20.23420,43159
20.24232,48733
20.25045,59783
20.25857,59829
20.26668,63865
20.27482,62050
20.28293,58068
20.29107,50387
20.29918,47475
20.30730,42808
20.31543,39007
20.32355,41552
20.33168,36268
20.33980,34539
20.34792,34651
20.35605,34438
20.36417,34788
20.37228,35253
20.38042,36572
20.38853,36175
20.39667,33437
20.40478,35730
20.41290,39666
20.42103,38503
20.42915,40980
20.43728,36452
20.44540,36165
20.45352,37321
20.46165,37341
20.46977,35571
20.47790,36502
20.48602,37833
20.49413,34879
20.50227,32207
20.51038,34697
20.51850,30674
20.52663,33060
20.53475,34145
20.54288,33787
20.55100,29493
20.55912,28208
20.56725,31784
20.57537,29624
20.58350,30514
20.59162,30086
20.59973,38531
20.60787,31526
20.61598,29211
20.62410,29589
20.63223,30306
20.64035,30720
20.64848,30435
20.65660,31805
20.66472,31703
20.67285,31297
20.68097,33084
20.68910,31395
20.69722,33356
20.70533,35805
20.71347,29715
20.72158,28172
20.72972,27747
20.73783,35238
20.74595,33606
20.75408,29467
20.76220,28450
20.77032,29693
20.77845,30089
20.78657,31776
20.79470,33815
20.80282,29078
20.81093,28849
20.81907,30392
20.82718,29999
20.83532,33776
20.84343,31852
20.85155,28311
20.85968,31667
20.86780,33959
20.87592,32208
20.88405,33098
20.89217,28034
20.90030,28737
20.90842,29461
20.91653,32626
20.92467,32829
20.93278,29935
20.94092,28360
20.94903,30772
20.95715,29328
20.96528,32049
20.97340,26769
20.98153,27207
20.98965,29752
20.99777,29894
21.00590,30666
21.01402,30773
21.02213,31564
21.03027,31364
21.03838,29612
21.04652,32925
21.05463,30462
21.06275,32135
21.07088,31046
21.07900,28182
21.08713,28454
21.09525,29668
21.10337,31428
21.11150,33570
21.11962,38357
21.12775,34776
21.13587,31827
21.14398,29711
21.15212,31271
21.16023,29068
21.16835,31762
21.17648,31322
21.18460,31900
21.19273,32114
21.20085,32610
21.20897,35154
21.21710,31301
21.22522,31817
21.23335,32998
21.24147,32882
21.24958,28078
21.25772,33124
21.26583,32481
21.27397,31850
21.28208,31359
21.29020,33913
21.29833,30350
21.30645,31677
21.31457,31505
21.32270,28275
21.33082,29661
21.33895,31185
21.34707,30802
21.35518,32635
21.36332,34326
21.37143,31449
21.37957,29372
21.38768,31779
21.39580,35925
21.40393,31503
21.41205,31432
21.42017,29677
21.42830,29941
21.43642,35989
21.44455,30109
21.45267,30765
21.46078,27810
21.46892,30966
21.47703,29174
21.48517,31505
21.49328,32201
21.50140,30685
21.50953,31446
21.51765,30628
21.52578,29054
21.53390,35017
21.54202,28781
21.55015,27177
21.55827,33296
21.56638,31730
21.57452,35829
21.58263,34921
21.59077,33851
21.59888,35118
21.60700,40760
21.61513,41138
21.62325,42127
21.63138,37876
21.63950,36947
21.64762,36105
21.65575,34955
21.66387,33482
21.67198,30799
21.68012,34358
21.68823,32872
21.69637,30986
21.70448,31820
21.71260,27850
21.72073,31598
21.72885,28012
21.73698,30556
21.74510,30953
21.75322,30995
21.76135,31287
21.76947,33463
21.77760,36031
21.78572,36466
21.79383,38097
21.80197,39190
21.81008,41716
21.81820,36399
21.82633,35216
21.83445,33947
21.84258,33810
21.85070,36051
21.85882,32856
21.86695,29759
21.87507,29036
21.88320,31917
21.89132,29645
21.89943,30340
21.90757,28276
21.91568,33482
21.92382,28906
21.93193,31390
21.94005,29627
21.94818,29529
21.95630,28068
21.96442,28104
21.97255,28775
21.98067,28517
21.98880,28158
21.99692,27466
22.00503,27690
22.01317,29230
22.02128,28655
22.02942,28418
22.03753,29703
22.04565,29537
22.05378,29371
22.06190,31479
22.07002,27704
22.07815,31300
22.08627,32062
22.09440,29574
22.10252,29040
22.11063,28716
22.11877,33146
22.12688,28399
22.13502,31031
22.14313,30223
22.15125,29729
22.15938,28135
22.16750,30469
22.17563,31325
22.18375,29517
22.19187,28688
22.20000,31402
22.20812,28073
22.21623,33123
22.22437,28350
22.23248,30493
22.24062,26558
22.24873,25595
22.25685,26582
22.26498,31762
22.27310,30943
22.28123,26781
22.28935,27078
22.29747,27030
22.30560,26698
22.31372,28034
22.32185,29828
22.32997,27160
22.33808,29815
22.34622,27825
22.35433,27933
22.36245,29053
22.37058,25865
22.37870,29270
22.38683,30403
22.39495,29457
22.40307,26128
22.41120,27954
22.41932,25888
22.42745,27068
22.43557,27837
22.44368,28213
22.45182,26545
22.45993,28988
22.46805,30201
22.47618,27273
22.48430,28873
22.49243,27074
22.50055,24769
22.50867,26424
22.51680,28255
22.52492,26929
22.53305,28869
22.54117,26533
22.54928,28123
22.55742,28710
22.56553,27476
22.57367,25735
22.58178,27924
22.58990,29264
22.59803,25293
22.60615,28106
22.61427,24062
22.62240,26249
22.63052,29720
22.63865,30850
22.64677,24845
22.65488,26516
22.66302,25043
22.67113,23627
22.67927,26004
22.68738,28062
22.69550,26174
22.70363,28391
22.71175,27296
22.71987,25764
22.72800,27240
22.73612,25146
22.74425,29247
22.75237,25995
22.76048,26563
22.76862,27069
22.77673,27747
22.78487,31016
22.79298,27711
22.80110,29572
22.80923,26675
22.81735,25212
22.82548,24713
22.83360,25758
22.84172,25758
22.84985,28684
22.85797,29775
22.86608,28187
22.87422,31183
22.88233,28888
22.89047,29479
22.89858,30993
22.90670,33003
22.91483,35237
22.92295,42428
22.93108,46860
22.93920,42130
22.94732,42209
22.95545,44404
22.96357,41796
22.97170,39157
22.97982,39903
22.98793,38622
22.99607,40764
23.00418,37547
23.01230,38782
23.02043,33446
23.02855,30951
23.03668,28975
23.04480,29983
23.05292,28431
23.06105,29218
23.06917,30664
23.07730,29267
23.08542,28272
23.09353,27449
23.10167,26189
23.10978,28163
23.11790,28839
23.12603,32308
23.13415,28177
23.14228,27827
23.15040,31575
23.15852,27762
23.16665,29590
23.17477,31325
23.18290,29010
23.19102,27901
23.19913,26342
23.20727,26468
23.21538,27901
23.22352,28528
23.23163,29086
23.23975,28410
23.24788,26438
23.25600,27874
23.26412,27482
23.27225,32427
23.28037,24872
23.28850,29431
23.29662,27437
23.30473,29106
23.31287,27319
23.32098,27528
23.32912,29190
23.33723,27978
23.34535,29402
23.35348,29606
23.36160,29184
23.36973,32072
23.37785,33397
23.38597,31271
23.39410,32979
23.40222,29632
23.41033,26606
23.41847,30424
23.42658,31059
23.43472,30717
23.44283,24584
23.45095,29320
23.45908,26052
23.46720,26660
23.47533,27436
23.48345,25584
23.49157,25047
23.49970,27615
23.50782,28212
23.51593,30546
23.52407,27711
23.53218,27639
23.54032,30468
23.54843,31288
23.55655,30843
23.56468,35228
23.57280,30035
23.58093,28843
23.58905,32138
23.59717,31220
23.60530,32397
23.61342,30612
23.62155,26854
23.62967,28697
23.63778,32231
23.64592,30808
23.65403,31491
23.66215,33010
23.67028,37264
23.67840,34553
23.68653,34726
23.69465,35610
23.70277,34236
23.71090,33903
23.71902,37161
23.72715,40481
23.73527,61289
23.74338,129193
23.75152,273482
23.75963,591498
23.76777,1151834
23.77588,1784632
23.78400,2213940
23.79213,2301579
23.80025,2087335
23.80837,1616890
23.81650,1202071
23.82462,869232
23.83275,676553
23.84087,514732
23.84898,407275
23.85712,345287
23.86523,289199
23.87337,262691
23.88148,225114
23.88960,203678
23.89773,181995
23.90585,162244
23.91397,146690
23.92210,138458
23.93022,130256
23.93835,124279
23.94647,120547
23.95458,110713
23.96272,105403
23.97083,100784
23.97897,94485
23.98708,96501
23.99520,92005
24.00333,85634
24.01145,82904
24.01958,82200
24.02770,79573
24.03582,74320
24.04395,71316
24.05207,70439
24.06018,71063
24.06832,68410
24.07643,74630
24.08457,73388
24.09268,68988
24.10080,67531
24.10893,63827
24.11705,65960
24.12518,60968
24.13330,60698
24.14142,59527
24.14955,61912
24.15767,60600
24.16578,59410
24.17392,62757
24.18203,62401
24.19017,60133
24.19828,61779
24.20640,59717
24.21453,58613
24.22265,58061
24.23078,54616
24.23890,49242
24.24702,46365
24.25515,50980
24.26327,45763
24.27140,45516
24.27952,45589
24.28763,45914
24.29577,43142
24.30388,49041
24.31200,48906
24.32013,55172
24.32825,60007
24.33638,68549
24.34450,85987
24.35262,96948
24.36075,103922
24.36887,87146
24.37700,72895
24.38512,59751
24.39323,50856
24.40137,46770
24.40948,45808
24.41762,45477
24.42573,43660
24.43385,45318
24.44198,44105
24.45010,44375
24.45822,47467
24.46635,49688
24.47447,48750
24.48260,47027
24.49072,47778
24.49883,44749
24.50697,44501
24.51508,39925
24.52322,41967
24.53133,40406
24.53945,45972
24.54758,39912
24.55570,39016
24.56382,35325
24.57195,38548
24.58007,38382
24.58820,41158
24.59632,38513
24.60443,37593
24.61257,38995
24.62068,37224
24.62882,35991
24.63693,35638
24.64505,36573
24.65318,39931
24.66130,36062
24.66943,38682
24.67755,36353
24.68567,36812
24.69380,35557
24.70192,35864
24.71003,33310
24.71817,37604
24.72628,36562
24.73442,33678
24.74253,35600
24.75065,33500
24.75878,35342
24.76690,31987
24.77503,34476
24.78315,34133
24.79127,38933
24.79940,36674
24.80752,36039
24.81565,38439
24.82377,36019
24.83188,34279
24.84002,36402
24.84813,34749
24.85625,34066
24.86438,31484
24.87250,34476
24.88063,36095
24.88875,32581
24.89687,37182
24.90500,36316
24.91312,31275
24.92125,34640
24.92937,36937
24.93748,33144
24.94562,33392
24.95373,32514
24.96185,29691
24.96998,34852
24.97810,32974
24.98623,30117
24.99435,36685
25.00247,34662
25.01060,29926
25.01872,33061
25.02685,32080
25.03497,35320
25.04308,33311
25.05122,31637
25.05933,31805
25.06747,33127
25.07558,30676
25.08370,33120
25.09183,32334
25.09995,33066
25.10807,29712
25.11620,35119
25.12432,31017
25.13245,35305
25.14057,33251
25.14868,34717
25.15682,32545
25.16493,33577
25.17307,36445
25.18118,34073
25.18930,32223
25.19743,33745
25.20555,30235
25.21367,30011
25.22180,28320
25.22992,31303
25.23805,30317
25.24617,36164
25.25428,29408
25.26242,29707
25.27053,30328
25.27867,32389
25.28678,32705
25.29490,35517
25.30303,36451
25.31115,37163
25.31928,32913
25.32740,36822
25.33552,35077
25.34365,35361
25.35177,34606
25.35988,35063
25.36802,30288
25.37613,28530
25.38427,28357
25.39238,32457
25.40050,30416
25.40863,30148
25.41675,32559
25.42488,30026
25.43300,27709
25.44112,30806
25.44925,27778
25.45737,30492
25.46550,30958
25.47362,25997
25.48173,24958
25.48987,27202
25.49798,28204
25.50610,31137
25.51423,32999
25.52235,27792
25.53048,30921
25.53860,28889
25.54672,30182
25.55485,28632
25.56297,25845
25.57110,28425
25.57922,29052
25.58733,29623
25.59547,31312
25.60358,27066
25.61170,32620
25.61983,27196
25.62795,27062
25.63608,26222
25.64420,26197
25.65232,27429
25.66045,27293
25.66857,28402
25.67670,29130
25.68482,27685
25.69293,25011
25.70107,24214
25.70918,24628
25.71732,26530
25.72543,26921
25.73355,29576
25.74168,28573
25.74980,26321
25.75792,26694
25.76605,27108
25.77417,25649
25.78230,28937
25.79042,26560
25.79853,27034
25.80667,25899
25.81478,26977
25.82292,24984
25.83103,26176
25.83915,24010
25.84728,24151
25.85540,29511
25.86353,25714
25.87165,23246
25.87977,27912
25.88790,25533
25.89602,27804
25.90413,26658
25.91227,28484
25.92038,25109
25.92852,27216
25.93663,26120
25.94475,24224
25.95288,24305
25.96100,26054
25.96913,25668
25.97725,27571
25.98537,25158
25.99350,28308
26.00162,24488
26.00973,27465
26.01787,25038
26.02598,26122
26.03412,26072
26.04223,25578
26.05035,25418
26.05848,25733
26.06660,25531
26.07473,28986
26.08285,24961
26.09097,28580
26.09910,26884
26.10722,31920
26.11535,31005
26.12347,33973
26.13158,30311
26.13972,32374
26.14783,33463
26.15595,31976
26.16408,31899
26.17220,28094
26.18033,29346
26.18845,29466
26.19657,28661
26.20470,28837
26.21282,30347
26.22095,28802
26.22907,28102
26.23718,29065
26.24532,23128
26.25343,27456
26.26155,28482
26.26968,25008
26.27780,26598
26.28593,25167
26.29405,25309
26.30217,27063
26.31030,25108
26.31842,26797
26.32655,29266
26.33467,27109
26.34278,25541
26.35092,28767
26.35903,24167
26.36717,27410
26.37528,24533
26.38340,27470
26.39153,25980
26.39965,26698
26.40777,29156
26.41590,27040
26.42402,24410
26.43215,27600
26.44027,27556
26.44838,28512
26.45652,25241
26.46463,28491
26.47277,23652
26.48088,24274
26.48900,24896
26.49713,24038
26.50525,28088
26.51338,26854
26.52150,27096
26.52962,27159
26.53775,25157
26.54587,24600
26.55398,25580
26.56212,27194
26.57023,25890
26.57837,24388
26.58648,26586
26.59460,24025
26.60273,21478
26.61085,24833
26.61898,27204
26.62710,27963
26.63522,26474
26.64335,24193
26.65147,26746
26.65960,25267
26.66772,28482
26.67583,27084
26.68397,26255
26.69208,25322
26.70020,24991
26.70833,26076
26.71645,29242
26.72458,28558
26.73270,28629
26.74082,26768
26.74895,26015
26.75707,27195
26.76520,26098
26.77332,28866
26.78143,27422
26.78957,25954
26.79768,26139
26.80580,26669
26.81393,27441
26.82205,28003
26.83018,30118
26.83830,29379
26.84642,25938
26.85455,25431
26.86267,27036
26.87080,26522
26.87892,25750
26.88703,27085
26.89517,26866
26.90328,28429
26.91142,28275
26.91953,25227
26.92765,28934
26.93578,31274
26.94390,40786
26.95202,56214
26.96015,90044
26.96827,143896
26.97640,230294
26.98452,315471
26.99263,399564
27.00077,483263
27.00888,510486
27.01702,483517
27.02513,407013
27.03325,336936
27.04138,263420
27.04950,213951
27.05762,176987
27.06575,140961
27.07387,120455
27.08200,106632
27.09012,94177
27.09823,92430
27.10637,77511
27.11448,68519
27.12262,66714
27.13073,62219
27.13885,59314
27.14698,58130
27.15510,57258
27.16323,58345
27.17135,52772
27.17947,49649
27.18760,50708
27.19572,49323
27.20383,46088
27.21197,45980
27.22008,45136
27.22822,45740
27.23633,45445
27.24445,45951
27.25258,46903
27.26070,43686
27.26883,38336
27.27695,37784
27.28507,37653
27.29320,37779
27.30132,40633
27.30945,38209
27.31757,39142
27.32568,35939
27.33382,35298
27.34193,35839
27.35005,34141
27.35818,38877
27.36630,40832
27.37443,35302
27.38255,36409
27.39067,33299
27.39880,36085
27.40692,39407
27.41505,34078
27.42317,33231
27.43128,29749
27.43942,33732
27.44753,33219
27.45565,32937
27.46378,31122
27.47190,35354
27.48003,30425
27.48815,31928
27.49627,32667
27.50440,35751
27.51252,31671
27.52065,31234
27.52877,30552
27.53688,31748
27.54502,33624
27.55313,33956
27.56127,27970
27.56938,34949
27.57750,33678
27.58563,29287
27.59375,30722
27.60187,29992
27.61000,29612
27.61812,28887
27.62625,32843
27.63437,27388
27.64248,25805
27.65062,27266
27.65873,29709
27.66687,28741
27.67498,33442
27.68310,29130
27.69123,27553
27.69935,30867
27.70748,26785
27.71560,29162
27.72372,30987
27.73185,34553
27.73997,32683
27.74808,31052
27.75622,33892
27.76433,36228
27.77247,32432
27.78058,29689
27.78870,29841
27.79683,32183
27.80495,30640
27.81308,29906
27.82120,29972
27.82932,27248
27.83745,27720
27.84557,29019
27.85368,28415
27.86182,28193
27.86993,31343
27.87807,30383
27.88618,29044
27.89430,28617
27.90243,32116
27.91055,27839
27.91868,27726
27.92680,25971
27.93492,26739
27.94305,28390
27.95117,29360
27.95930,26883
27.96742,26126
27.97553,27453
27.98367,37100
27.99178,30744
27.99990,30831
28.00803,29762
28.01615,27783
28.02428,24517
28.03240,26187
28.04052,28511
28.04865,25420
28.05677,29591
28.06490,29605
28.07302,30565
28.08113,30919
28.08927,33246
28.09738,39290
28.10550,38151
28.11363,42220
28.12175,39598
28.12988,37258
28.13800,36311
28.14612,36161
28.15425,35822
28.16237,31986
28.17050,35772
28.17862,28443
28.18673,28487
28.19487,27380
28.20298,28473
28.21112,29457
28.21923,28858
28.22735,29661
28.23548,32349
28.24360,32873
28.25172,39442
28.25985,52968
28.26797,72716
28.27610,98671
28.28422,130058
28.29233,169115
28.30047,198411
28.30858,224078
28.31672,249411
28.32483,255843
28.33295,254313
28.34108,256563
28.34920,237032
28.35733,206431
28.36545,188714
28.37357,172409
28.38170,156049
28.38982,134852
28.39793,119289
28.40607,106101
28.41418,98856
28.42232,92367
28.43043,87400
28.43855,81059
28.44668,70834
28.45480,64757
28.46293,64179
28.47105,65809
28.47917,60323
28.48730,52929
28.49542,54359
28.50353,54205
28.51167,50532
28.51978,49709
28.52792,48176
28.53603,51384
28.54415,51114
28.55228,47984
28.56040,45997
28.56853,43555
28.57665,46445
28.58477,42107
28.59290,42918
28.60102,41512
28.60915,40997
28.61727,41667
28.62538,42548
28.63352,43068
28.64163,44619
28.64975,44399
28.65788,44193
28.66600,41040
28.67413,44885
28.68225,47541
28.69037,43660
28.69850,44516
28.70662,54697
28.71475,55987
28.72287,65156
28.73098,62214
28.73912,57259
28.74723,53363
28.75537,41697
28.76348,37899
28.77160,38584
28.77973,33771
28.78785,34620
28.79597,40740
28.80410,35858
28.81222,37348
28.82035,35757
28.82847,33390
28.83658,32121
28.84472,37555
28.85283,38033
28.86097,33784
28.86908,31769
28.87720,32981
28.88533,34541
28.89345,35897
28.90157,33532
28.90970,33648
28.91782,31791
28.92595,35312
28.93407,32301
28.94218,34307
28.95032,35261
28.95843,34358
28.96657,35166
28.97468,37709
28.98280,35889
28.99093,36907
28.99905,33871
29.00718,35451
29.01530,30858
29.02342,35960
29.03155,33599
29.03967,34148
29.04778,31169
29.05592,31202
29.06403,33383
29.07217,33674
29.08028,32016
29.08840,28989
29.09653,34251
29.10465,30689
29.11278,30987
29.12090,29691
29.12902,30510
29.13715,33463
29.14527,33492
29.15340,32929
29.16152,33175
29.16963,30596
29.17777,30480
29.18588,30027
29.19400,32563
29.20213,32049
29.21025,29776
29.21838,31177
29.22650,31755
29.23462,33324
29.24275,32833
29.25087,35899
29.25900,33349
29.26712,31964
29.27523,30909
29.28337,32898
29.29148,30649
29.29960,31165
29.30773,32178
29.31585,31579
29.32398,30729
29.33210,29078
29.34022,30985
29.34835,33067
29.35647,27318
29.36460,30958
29.37272,31008
29.38083,29649
29.38897,31401
29.39708,29602
29.40522,31300
29.41333,29992
29.42145,30778
29.42958,34156
29.43770,30189
29.44582,30230
29.45395,32798
29.46207,29924
29.47020,29314
29.47832,32327
29.48643,31705
29.49457,29531
29.50268,30628
29.51082,33402
29.51893,34539
29.52705,29537
29.53518,27658
29.54330,31936
29.55142,30221
29.55955,28808
29.56767,30204
29.57580,31703
29.58392,37692
29.59203,34101
29.60017,35959
29.60828,36083
29.61642,33567
29.62453,32925
29.63265,33269
29.64078,32932
29.64890,28908
29.65703,28542
29.66515,32352
29.67327,27673
29.68140,27460
29.68952,29770
29.69763,29686
29.70577,30331
29.71388,30770
29.72202,29381
29.73013,29944
29.73825,33244
29.74638,28940
29.75450,29052
29.76263,33148
29.77075,29816
29.77887,29988
29.78700,28034
29.79512,29874
29.80325,31145
29.81137,31454
29.81948,26088
29.82762,28098
29.83573,32237
29.84385,28793
29.85198,26893
29.86010,30410
29.86823,30536
29.87635,33850
29.88447,43515
29.89260,51973
29.90072,57266
29.90885,66814
29.91697,84928
29.92508,92741
29.93322,105117
29.94133,113568
29.94945,118985
29.95758,126223
29.96570,122559
29.97383,119127
29.98195,119137
29.99007,111760
29.99820,107876
30.00632,100849
30.01445,94904
30.02257,89327
30.03068,83468
30.03882,86178
30.04693,76698
30.05507,68313
30.06318,65100
30.07130,63857
30.07943,57440
30.08755,55182
30.09567,56479
30.10380,54536
30.11192,53090
30.12005,53012
30.12817,47700
30.13628,47001
30.14442,45681
30.15253,45142
30.16067,41684
30.16878,42264
30.17690,41378
30.18503,39923
30.19315,39599
30.20128,38709
30.20940,46680
30.21752,38834
30.22565,38167
30.23377,35961
30.24188,38145
30.25002,38364
30.25813,35428
30.26627,37219
30.27438,38442
30.28250,36874
30.29063,38827
30.29875,35411
30.30688,35476
30.31500,33353
30.32312,37227
30.33125,32393
30.33937,35171
30.34748,32992
30.35562,33747
30.36373,34742
30.37187,34091
30.37998,34189
30.38810,36692
30.39623,34259
30.40435,34633
30.41248,33379
30.42060,33979
30.42872,30198
30.43685,32286
30.44497,30703
30.45310,33317
30.46122,35550
30.46933,32909
30.47747,33037
30.48558,35418
30.49370,30965
30.50183,29314
30.50995,31305
30.51808,27449
30.52620,29526
30.53432,34228
30.54245,32669
30.55057,34409
30.55870,32334
30.56682,29404
30.57493,30470
30.58307,30325
30.59118,31453
30.59930,33590
30.60743,34276
30.61555,32036
30.62368,28671
30.63180,31451
30.63992,29413
30.64805,27081
30.65617,30426
30.66430,30608
30.67242,33907
30.68053,29859
30.68867,32733
30.69678,34418
30.70492,31931
30.71303,32130
30.72115,30669
30.72928,32204
30.73740,35256
30.74552,32596
30.75365,32959
30.76177,29354
30.76990,30699
30.77802,32066
30.78613,30875
30.79427,31508
30.80238,34168
30.81052,31377
30.81863,32245
30.82675,31077
30.83488,32089
30.84300,28835
30.85113,31960
30.85925,29722
30.86737,29773
30.87550,32265
30.88362,30705
30.89173,26767
30.89987,26669
30.90798,30093
30.91612,29270
30.92423,30704
30.93235,31054
30.94048,31654
30.94860,29816
30.95673,29051
30.96485,28515
30.97297,28912
30.98110,30480
30.98922,26993
30.99733,30411
31.00547,27069
31.01358,29977
31.02172,29307
31.02983,29930
31.03795,30280
31.04608,28894
31.05420,31373
31.06233,28036
31.07045,31087
31.07857,35616
31.08670,36822
31.09482,31474
31.10295,34892
31.11107,32938
31.11918,33099
31.12732,33078
31.13543,33429
31.14355,35100
31.15168,31476
31.15980,28567
31.16793,36192
31.17605,41153
31.18417,52425
31.19230,59478
31.20042,67178
31.20855,76529
31.21667,74295
31.22478,67655
31.23292,60323
31.24103,51346
31.24917,45040
31.25728,33270
31.26540,37811
31.27353,37088
31.28165,33075
31.28977,32856
31.29790,31187
31.30602,30331
31.31415,31613
31.32227,36518
31.33038,28865
31.33852,32307
31.34663,31224
31.35477,36130
31.36288,33112
31.37100,32103
31.37913,30161
31.38725,30700
31.39537,29365
31.40350,32943
31.41162,33761
31.41975,33186
31.42787,32050
31.43598,30971
31.44412,33115
31.45223,33088
31.46037,33271
31.46848,29903
31.47660,28603
31.48473,31373
31.49285,30248
31.50098,30747
31.50910,33677
31.51722,28247
31.52535,32564
31.53347,31114
31.54158,28763
31.54972,28804
31.55783,30638
31.56597,33275
31.57408,31697
31.58220,30664
31.59033,31960
31.59845,33854
31.60658,30476
31.61470,29618
31.62282,27450
31.63095,32403
31.63907,33326
31.64718,32505
31.65532,30314
31.66343,29868
31.67157,31353
31.67968,31650
31.68780,35760
31.69593,36333
31.70405,36124
31.71218,35101
31.72030,34641
31.72842,29029
31.73655,30933
31.74467,32172
31.75280,27763
31.76092,31920
31.76903,31197
31.77717,31614
31.78528,34050
31.79340,30386
31.80153,34876
31.80965,32494
31.81778,35551
31.82590,38993
31.83402,43113
31.84215,47448
31.85027,49524
31.85840,59588
31.86652,71675
31.87463,70044
31.88277,79279
31.89088,79216
31.89902,76981
31.90713,80549
31.91525,85608
31.92338,81501
31.93150,79122
31.93962,74450
31.94775,71613
31.95587,71934
31.96400,69637
31.97212,59615
31.98023,62541
31.98837,55533
31.99648,53852
32.00462,50292
32.01273,55275
32.02085,50317
32.02898,50127
32.03710,47408
32.04523,42968
32.05335,48607
32.06147,44301
32.06960,43042
32.07772,39893
32.08583,39832
32.09397,43965
32.10208,36966
32.11022,37836
32.11833,36966
32.12645,41196
32.13458,37057
32.14270,35565
32.15083,36221
32.15895,34048
32.16707,33865
32.17520,34998
32.18332,32809
32.19143,31225
32.19957,37235
32.20768,36614
32.21582,38234
32.22393,34756
32.23205,34611
32.24018,38920
32.24830,34571
32.25643,31995
32.26455,33913
32.27267,33433
32.28080,36788
32.28892,35682
32.29705,32753
32.30517,31248
32.31328,36012
32.32142,34895
32.32953,34665
32.33765,33630
32.34578,34564
32.35390,35674
32.36203,33251
32.37015,34006
32.37827,35248
32.38640,33310
32.39452,32333
32.40265,31008
32.41077,33735
32.41888,33896
32.42702,35477
32.43513,33891
32.44325,30101
32.45138,31913
32.45950,31282
32.46763,33029
32.47575,31429
32.48387,36009
32.49200,32902
32.50012,33152
32.50825,30204
32.51637,34512
32.52448,31545
32.53262,33075
32.54073,37054
32.54887,30755
32.55698,34924
32.56510,35955
32.57323,35309
32.58135,34109
32.58947,40290
32.59760,45946
32.60572,53255
32.61385,50612
32.62197,55548
32.63008,45983
32.63822,40635
32.64633,36929
32.65447,38175
32.66258,34863
32.67070,36267
32.67883,34974
32.68695,31029
32.69508,36697
32.70320,33021
32.71132,36553
32.71945,34768
32.72757,35472
32.73568,33609
32.74382,35316
32.75193,32036
32.76007,33995
32.76818,31425
32.77630,30765
32.78443,32746
32.79255,34400
32.80068,30852
32.80880,31338
32.81692,33615
32.82505,33027
32.83317,32945
32.84128,31684
32.84942,30539
32.85753,31403
32.86567,29890
32.87378,32866
32.88190,32929
32.89003,35898
32.89815,37045
32.90628,37208
32.91440,36345
32.92252,31344
32.93065,32810
32.93877,33081
32.94690,35859
32.95502,30124
32.96313,31589
32.97127,31445
32.97938,34894
32.98750,31727
32.99563,32741
33.00375,35211
33.01188,33016
33.02000,34438
33.02812,32593
33.03625,32946
33.04437,32138
33.05250,31457
33.06062,33049
33.06873,30439
33.07687,31808
33.08498,33313
33.09312,42735
33.10123,43450
33.10935,49924
33.11748,48571
33.12560,47693
33.13372,40619
33.14185,42005
33.14997,40089
33.15810,37057
33.16622,34565
33.17433,34594
33.18247,38594
33.19058,36351
33.19872,36840
33.20683,34716
33.21495,34852
33.22308,42659
33.23120,32344
33.23932,32421
33.24745,33478
33.25557,29370
33.26370,31092
33.27182,35645
33.27993,33603
33.28807,38514
33.29618,35724
33.30432,35191
33.31243,33367
33.32055,31338
33.32868,34718
33.33680,30203
33.34493,31978
33.35305,32505
33.36117,35482
33.36930,35230
33.37742,33764
33.38553,32329
33.39367,36782
33.40178,35381
33.40992,35703
33.41803,30262
33.42615,32067
33.43428,30478
33.44240,30640
33.45053,32966
33.45865,34775
33.46677,35461
33.47490,34779
33.48302,35914
33.49113,35983
33.49927,31430
33.50738,32603
33.51552,32203
33.52363,35686
33.53175,31910
33.53988,34086
33.54800,34010
33.55613,33053
33.56425,33052
33.57237,32900
33.58050,36379
33.58862,36901
33.59675,33474
33.60487,33692
33.61298,32817
33.62112,34946
33.62923,32745
33.63735,32731
33.64548,34391
33.65360,32937
33.66173,32668
33.66985,31087
33.67797,35209
33.68610,32545
33.69422,33529
33.70235,31513
33.71047,32605
33.71858,32737
33.72672,31856
33.73483,35117
33.74297,33974
33.75108,35614
33.75920,38180
33.76733,38533
33.77545,38509
33.78357,37118
33.79170,38146
33.79982,38160
33.80795,37810
33.81607,39373
33.82418,33275
33.83232,37174
33.84043,39189
33.84857,36729
33.85668,38752
33.86480,38329
33.87293,42271
33.88105,41960
33.88917,41636
33.89730,42755
33.90542,38969
33.91355,39859
33.92167,44915
33.92978,43750
33.93792,42328
33.94603,39477
33.95417,42341
33.96228,43675
33.97040,45655
33.97853,43663
33.98665,44159
33.99478,41516
34.00290,41217
34.01102,42597
34.01915,45171
34.02727,38810
34.03538,38813
34.04352,42088
34.05163,41280
34.05977,41067
34.06788,38742
34.07600,41186
34.08413,40108
34.09225,33455
34.10038,38788
34.10850,35315
34.11662,37677
34.12475,34814
34.13287,35942
34.14100,38077
34.14912,36130
34.15723,37035
34.16537,36689
34.17348,36180
34.18160,35304
34.18973,35777
34.19785,35057
34.20598,36271
34.21410,37079
34.22222,37224
34.23035,36057
34.23847,34848
34.24660,37913
34.25472,37194
34.26283,35477
34.27097,35421
34.27908,35982
34.28720,33115
34.29533,35324
34.30345,38288
34.31158,39733
34.31970,38416
34.32782,38592
34.33595,35232
34.34407,36216
34.35220,36465
34.36032,39662
34.36843,41884
34.37657,37826
34.38468,35572
34.39282,37974
34.40093,37019
34.40905,36069
34.41718,40177
34.42530,37307
34.43342,37415
34.44155,41813
34.44967,45023
34.45780,51035
34.46592,63787
34.47403,69662
34.48217,85294
34.49028,86626
34.49842,90986
34.50653,90923
34.51465,88277
34.52278,82271
34.53090,73540
34.53902,75066
34.54715,63240
34.55527,61315
34.56340,59125
34.57152,52003
34.57963,60199
34.58777,46951
34.59588,47980
34.60402,53751
34.61213,49397
34.62025,49894
34.62838,50349
34.63650,49826
34.64463,47842
34.65275,51289
34.66087,48810
34.66900,46559
34.67712,47254
34.68523,43226
34.69337,46235
34.70148,47928
34.70962,40213
34.71773,44918
34.72585,43660
34.73398,41974
34.74210,45509
34.75023,47563
34.75835,46054
34.76647,46155
34.77460,43371
34.78272,43859
34.79085,45152
34.79897,40945
34.80708,40076
34.81522,43430
34.82333,44615
34.83145,42132
34.83958,41519
34.84770,41958
34.85583,40212
34.86395,42339
34.87207,45450
34.88020,46247
34.88832,43912
34.89645,49999
34.90457,44940
34.91268,45534
34.92082,41111
34.92893,46287
34.93705,45553
34.94518,44307
34.95330,46231
34.96143,45476
34.96955,43696
34.97767,44018
34.98580,40754
34.99392,41204
35.00205,40362
35.01017,39433
35.01828,42450
35.02642,42776
35.03453,42517
35.04267,42084
35.05078,42333
35.05890,42006
35.06703,43203
35.07515,42526
35.08327,44337
35.09140,42468
35.09952,43523
35.10765,41662
35.11577,42532
35.12388,39885
35.13202,46128
35.14013,44449
35.14827,43320
35.15638,42078
35.16450,36473
35.17263,41757
35.18075,40785
35.18888,43644
35.19700,41849
35.20512,44741
35.21325,40890
35.22137,42299
35.22948,41631
35.23762,40483
35.24573,45377
35.25387,42098
35.26198,40678
35.27010,43174
35.27823,38722
35.28635,39649
35.29448,42451
35.30260,42488
35.31072,39804
35.31885,42105
35.32697,41686
35.33508,40462
35.34322,39050
35.35133,42039
35.35947,42667
35.36758,37792
35.37570,42154
35.38383,44874
35.39195,42526
35.40008,42884
35.40820,41801
35.41632,41223
35.42445,44038
35.43257,42233
35.44070,46404
35.44882,44138
35.45693,47689
35.46507,47271
35.47318,46117
35.48130,43766
35.48943,44867
35.49755,42154
35.50568,44002
35.51380,43985
35.52192,45549
35.53005,42462
35.53817,44620
35.54630,41008
35.55442,43683
35.56253,43145
35.57067,44120
35.57878,44722
35.58692,44944
35.59503,48763
35.60315,46424
35.61128,45490
35.61940,46668
35.62752,48361
35.63565,45041
35.64377,48566
35.65190,46169
35.66002,43329
35.66813,46969
35.67627,44379
35.68438,47890
35.69252,39537
35.70063,44777
35.70875,46151
35.71688,41780
35.72500,41779
35.73312,42180
35.74125,42832
35.74937,43893
35.75750,44093
35.76562,43011
35.77373,42038
35.78187,42069
35.78998,43395
35.79812,43628
35.80623,44552
35.81435,45969
35.82248,42569
35.83060,43384
35.83873,43314
35.84685,45367
35.85497,43248
35.86310,44581
35.87122,41818
35.87933,41226
35.88747,44651
35.89558,44610
35.90372,46285
35.91183,46380
35.91995,41966
35.92808,43449
35.93620,42789
35.94433,44640
35.95245,43048
35.96057,43160
35.96870,41245
35.97682,46359
35.98493,50331
35.99307,45573
36.00118,46467
36.00932,45072
36.01743,48867
36.02555,46604
36.03368,45706
36.04180,44303
36.04993,48638
36.05805,48748
36.06617,47685
36.07430,46357
36.08242,44445
36.09055,48898
36.09867,44923
36.10678,46110
36.11492,42015
36.12303,44908
36.13115,45612
36.13928,46574
36.14740,45930
36.15553,43037
36.16365,44639
36.17177,46111
36.17990,44896
36.18802,46744
36.19615,42070
36.20427,43132
36.21238,47832
36.22052,46805
36.22863,50605
36.23677,55383
36.24488,59753
36.25300,68265
36.26113,68500
36.26925,58658
36.27737,58258
36.28550,54209
36.29362,52765
36.30175,46802
36.30987,50323
36.31798,46733
36.32612,46622
36.33423,43075
36.34237,48583
36.35048,46885
36.35860,45640
36.36673,48701
36.37485,49139
36.38297,51430
36.39110,48309
36.39922,50512
36.40735,48152
36.41547,50113
36.42358,45404
36.43172,47712
36.43983,50260
36.44797,45910
36.45608,46976
36.46420,46537
36.47233,51401
36.48045,48972
36.48858,50042
36.49670,47787
36.50482,45507
36.51295,46989
36.52107,43443
36.52918,48497
36.53732,46950
36.54543,48650
36.55357,44527
36.56168,46770
36.56980,44827
36.57793,47825
36.58605,48314
36.59418,47894
36.60230,52115
36.61042,50900
36.61855,48340
36.62667,51454
36.63480,49155
36.64292,49697
36.65103,51418
36.65917,51078
36.66728,47271
36.67540,45698
36.68353,48714
36.69165,46647
36.69978,49320
36.70790,45431
36.71602,49377
36.72415,48226
36.73227,47720
36.74040,49908
36.74852,49982
36.75663,46678
36.76477,50890
36.77288,50154
36.78100,49025
36.78913,50137
36.79725,50334
36.80538,48917
36.81350,50617
36.82162,50305
36.82975,47169
36.83787,54593
36.84600,48811
36.85412,47960
36.86223,50600
36.87037,49334
36.87848,44525
36.88662,52000
36.89473,49968
36.90285,54448
36.91098,53642
36.91910,50886
36.92722,46588
36.93535,50049
36.94347,54703
36.95160,49692
36.95972,48097
36.96783,50085
36.97597,50865
36.98408,58044
36.99222,62763
37.00033,70365
37.00845,74758
37.01658,95754
37.02470,99506
37.03282,102384
37.04095,98571
37.04907,85739
37.05720,71952
37.06532,71092
37.07343,60975
37.08157,59794
37.08968,58301
37.09782,52624
37.10593,55269
37.11405,56918
37.12218,56793
37.13030,53687
37.13843,58497
37.14655,55401
37.15467,55220
37.16280,55438
37.17092,55465
37.17903,58679
37.18717,56265
37.19528,52305
37.20342,52862
37.21153,53501
37.21965,54833
37.22778,52835
37.23590,50771
37.24403,54930
37.25215,61121
37.26027,66781
37.26840,73269
37.27652,82718
37.28465,90275
37.29277,100927
37.30088,100764
37.30902,97147
37.31713,94329
37.32525,89146
37.33338,85496
37.34150,83039
37.34963,73155
37.35775,73824
37.36587,67527
37.37400,65852
37.38212,64153
37.39025,63870
37.39837,67114
37.40648,65360
37.41462,63018
37.42273,63868
37.43085,63796
37.43898,63622
37.44710,60688
37.45523,61156
37.46335,59570
37.47147,58930
37.47960,59032
37.48772,61202
