C:\MassHunter\GCMS\1\data\JTB-E02\BACandBLUE\JTB-E18-009-07.D Thu May 16 09:35:58 2019
Start of data points
2.09515,60867
2.10327,67244
2.11138,66584
2.11952,62866
2.12763,62048
2.13577,59085
2.14388,58690
2.15200,55853
2.16013,60230
2.16825,58364
2.17637,54384
2.18450,56412
2.19262,56899
2.20075,54945
2.20887,57000
2.21698,52511
2.22512,49952
2.23323,49387
2.24137,50149
2.24948,50897
2.25760,52862
2.26573,49242
2.27385,148199
2.28197,1048183
2.29010,1521062
2.29822,647040
2.30635,312461
2.31447,241625
2.32258,217985
2.33072,189480
2.33883,170549
2.34697,156982
2.35508,148219
2.36320,138692
2.37133,132117
2.37945,127218
2.38758,123368
2.39570,122165
2.40382,115417
2.41195,111851
2.42007,111414
2.42818,108500
2.43632,106863
2.44443,100773
2.45257,100119
2.46068,102527
2.46880,97223
2.47693,94613
2.48505,97039
2.49318,93417
2.50130,106319
2.50942,101182
2.51755,96369
2.52567,87360
2.53380,94323
2.54192,86894
2.55003,89026
2.55817,95301
2.56628,147756
2.57440,188050
2.58253,147268
2.59065,117442
2.59878,110565
2.60690,122797
2.61502,433899
2.62315,1033338
2.63127,754059
2.63940,395806
2.64752,269568
2.65563,219865
2.66377,178469
2.67188,153287
2.68000,135870
2.68813,130815
2.69625,124970
2.70438,115108
2.71250,110523
2.72062,108930
2.72875,98469
2.73687,98390
2.74500,103764
2.75312,95296
2.76123,96764
2.76937,93465
2.77748,93222
2.78562,201045
2.79373,800487
2.80185,1184027
2.80998,708305
2.81810,423723
2.82622,351820
2.83435,321509
2.84247,258521
2.85060,214750
2.85872,186889
2.86683,175403
2.87497,161545
2.88308,151148
2.89122,137059
2.89933,134208
2.90745,124499
2.91558,124224
2.92370,118493
2.93183,112575
2.93995,109901
2.94807,106601
2.95620,104085
2.96432,106600
2.97243,127824
2.98057,139253
2.98868,123882
2.99682,114568
3.00493,113134
3.01305,106103
3.02118,101545
3.02930,101544
3.03743,96548
3.04555,101563
3.05367,84147
3.06180,86255
3.06992,86165
3.07803,90911
3.08617,124747
3.09428,567646
3.10242,2096337
3.11053,3500392
3.11865,4184380
3.12678,4136957
3.13490,2794802
3.14303,1773282
3.15115,1344322
3.15927,1053685
3.16740,870785
3.17552,742526
3.18365,684978
3.19177,689295
3.19988,1059886
3.20802,1703809
3.21613,1641001
3.22425,1171094
3.23238,932662
3.24050,775045
3.24863,665089
3.25675,586300
3.26487,518265
3.27300,465037
3.28112,418797
3.28925,379456
3.29737,397807
3.30548,698394
3.31362,1761604
3.32173,3454450
3.32985,4176164
3.33798,3429851
3.34610,2375530
3.35423,1696031
3.36235,1340850
3.37047,1152938
3.37860,982670
3.38672,903660
3.39485,812610
3.40297,770770
3.41108,715274
3.41922,680281
3.42733,628467
3.43547,625487
3.44358,597528
3.45170,585969
3.45983,563358
3.46795,554465
3.47607,526861
3.48420,534243
3.49232,528825
3.50045,482220
3.50857,443620
3.51668,405939
3.52482,369735
3.53293,341172
3.54107,324628
3.54918,331479
3.55730,325625
3.56543,315366
3.57355,323064
3.58168,448699
3.58980,666456
3.59792,702265
3.60605,615748
3.61417,530110
3.62228,499396
3.63042,502681
3.63853,495868
3.64667,496867
3.65478,469452
3.66290,451104
3.67103,532706
3.67915,1669678
3.68728,6424528
3.69540,1.269914E+07
3.70352,1.293253E+07
3.71165,8956673
3.71977,6062586
3.72788,4694074
3.73602,3865198
3.74413,3346137
3.75227,2953768
3.76038,2653427
3.76850,2342770
3.77663,2191884
3.78475,2037545
3.79288,1861174
3.80100,1752543
3.80912,1660414
3.81725,1733465
3.82537,2118919
3.83350,2548930
3.84162,2410335
3.84973,2000065
3.85787,1714520
3.86598,1520936
3.87410,1395394
3.88223,1294724
3.89035,1201876
3.89848,1086253
3.90660,1018420
3.91472,946658
3.92285,913228
3.93097,925154
3.93910,1040793
3.94722,1134929
3.95533,1115458
3.96347,1424348
3.97158,2870163
3.97972,5108315
3.98783,5847794
3.99595,4503875
4.00408,3190174
4.01220,4384962
4.02032,1.109788E+07
4.02845,2.101391E+07
4.03657,2.433521E+07
4.04470,1.817439E+07
4.05282,1.044827E+07
4.06093,6153868
4.06907,4299752
4.07718,3315688
4.08532,2701158
4.09343,2287213
4.10155,1983085
4.10968,1772679
4.11780,1601727
4.12592,1457151
4.13405,1333195
4.14217,1251475
4.15030,1163831
4.15842,1108082
4.16653,1086102
4.17467,1013882
4.18278,965192
4.19092,919073
4.19903,876147
4.20715,803032
4.21528,780751
4.22340,1074477
4.23153,3020483
4.23965,8256549
4.24777,1.425421E+07
4.25590,1.655822E+07
4.26402,1.33289E+07
4.27213,8189795
4.28027,5172096
4.28838,3766177
4.29652,2951356
4.30463,2402923
4.31275,2052090
4.32088,1799567
4.32900,1600274
4.33713,1458917
4.34525,1333756
4.35337,1254587
4.36150,1168616
4.36962,1135179
4.37773,1123236
4.38587,1111447
4.39398,1060384
4.40212,947195
4.41023,896662
4.41835,834407
4.42648,774345
4.43460,735460
4.44273,680604
4.45085,646345
4.45897,607228
4.46710,567481
4.47522,561661
4.48335,555190
4.49147,528148
4.49958,538500
4.50772,527025
4.51583,530131
4.52395,522397
4.53208,526416
4.54020,529826
4.54833,517697
4.55645,527347
4.56457,517891
4.57270,506099
4.58082,478503
4.58895,475941
4.59707,456240
4.60518,438175
4.61332,437582
4.62143,423733
4.62957,436070
4.63768,460566
4.64580,579195
4.65393,748895
4.66205,868009
4.67017,826638
4.67830,684455
4.68642,577832
4.69455,536318
4.70267,511703
4.71078,486353
4.71892,448087
4.72703,430460
4.73517,411822
4.74328,396167
4.75140,393335
4.75953,379475
4.76765,386034
4.77577,370587
4.78390,360305
4.79202,362097
4.80015,358487
4.80827,374771
4.81638,421754
4.82452,488410
4.83263,490215
4.84077,453848
4.84888,431801
4.85700,433034
4.86513,458746
4.87325,454901
4.88138,452951
4.88950,436883
4.89762,410248
4.90575,381114
4.91387,365585
4.92198,347141
4.93012,337406
4.93823,339076
4.94637,337505
4.95448,400802
4.96260,580140
4.97073,998102
4.97885,1574945
4.98698,1978627
4.99510,1941880
5.00322,1607965
5.01135,1268706
5.01947,1002950
5.02760,861061
5.03572,787022
5.04383,772751
5.05197,814110
5.06008,875992
5.06820,879216
5.07633,800170
5.08445,705050
5.09258,640687
5.10070,593151
5.10882,536036
5.11695,499333
5.12507,497000
5.13320,487127
5.14132,475139
5.14943,487219
5.15757,490111
5.16568,510452
5.17380,554084
5.18193,634233
5.19005,661855
5.19818,613461
5.20630,551576
5.21442,535780
5.22255,559526
5.23067,577385
5.23880,569705
5.24692,515587
5.25503,504786
5.26317,477718
5.27128,445040
5.27942,431761
5.28753,403670
5.29565,402183
5.30378,395034
5.31190,376675
5.32002,380615
5.32815,367643
5.33627,368455
5.34440,367489
5.35252,374935
5.36063,378093
5.36877,386677
5.37688,367461
5.38502,355021
5.39313,351538
5.40125,347909
5.40938,380586
5.41750,378783
5.42562,371426
5.43375,362901
5.44187,351187
5.45000,337779
5.45812,326315
5.46623,351841
5.47437,353645
5.48248,366967
5.49062,357139
5.49873,343045
5.50685,336992
5.51498,320805
5.52310,307743
5.53123,303093
5.53935,306739
5.54747,313064
5.55560,309557
5.56372,302627
5.57183,347406
5.57997,417531
5.58808,521193
5.59622,602443
5.60433,568141
5.61245,491262
5.62058,416964
5.62870,358139
5.63683,338384
5.64495,327584
5.65307,323768
5.66120,321083
5.66932,314845
5.67745,311330
5.68557,302202
5.69368,312936
5.70182,335335
5.70993,344688
5.71805,354550
5.72618,338129
5.73430,315589
5.74243,306828
5.75055,294394
5.75867,282495
5.76680,274326
5.77492,279024
5.78305,274591
5.79117,271933
5.79928,270067
5.80742,268057
5.81553,267876
5.82367,267881
5.83178,255674
5.83990,257018
5.84803,253311
5.85615,263998
5.86427,260410
5.87240,259987
5.88052,262548
5.88865,250794
5.89677,248085
5.90488,243792
5.91302,220715
5.92113,200284
5.92927,192368
5.93738,202711
5.94550,196254
5.95363,195020
5.96175,196495
5.96987,209853
5.97800,236062
5.98612,267047
5.99425,305474
6.00237,364092
6.01048,402369
6.01862,397419
6.02673,342040
6.03487,282279
6.04298,252399
6.05110,220765
6.05923,209722
6.06735,202448
6.07548,198281
6.08360,192339
6.09172,190364
6.09985,184656
6.10797,181135
6.11608,177173
6.12422,178374
6.13233,179066
6.14047,196418
6.14858,250267
6.15670,361248
6.16483,454330
6.17295,508265
6.18108,456408
6.18920,365578
6.19732,309920
6.20545,278943
6.21357,246346
6.22168,239113
6.22982,224869
6.23793,220037
6.24607,214925
6.25418,215395
6.26230,217236
6.27043,219203
6.27855,228911
6.28668,229091
6.29480,222354
6.30292,211473
6.31105,196311
6.31917,197212
6.32730,198769
6.33542,202727
6.34353,206653
6.35167,228308
6.35978,237148
6.36790,244803
6.37603,235943
6.38415,217777
6.39228,209323
6.40040,197021
6.40852,204104
6.41665,202420
6.42477,201486
6.43290,187720
6.44102,197232
6.44913,184997
6.45727,182868
6.46538,195536
6.47352,192770
6.48163,183817
6.48975,182378
6.49788,188769
6.50600,187738
6.51412,184297
6.52225,194354
6.53037,190081
6.53850,192092
6.54662,193371
6.55473,195656
6.56287,192102
6.57098,192271
6.57912,216335
6.58723,253307
6.59535,318626
6.60348,371281
6.61160,365980
6.61972,319938
6.62785,259962
6.63597,238968
6.64410,222804
6.65222,222172
6.66033,214401
6.66847,229063
6.67658,262702
6.68472,331933
6.69283,391075
6.70095,375541
6.70908,338152
6.71720,275980
6.72533,234056
6.73345,220517
6.74157,218159
6.74970,209705
6.75782,201427
6.76593,188970
6.77407,174688
6.78218,169924
6.79032,174748
6.79843,172064
6.80655,166126
6.81468,172726
6.82280,172244
6.83093,155006
6.83905,157473
6.84717,151294
6.85530,161651
6.86342,176200
6.87155,202445
6.87967,243469
6.88778,280843
6.89592,277111
6.90403,222573
6.91215,169707
6.92028,135914
6.92840,117757
6.93653,106283
6.94465,108042
6.95277,105273
6.96090,97903
6.96902,104069
6.97715,100170
6.98527,116806
6.99338,130115
7.00152,139388
7.00963,142057
7.01775,127599
7.02588,112812
7.03400,109581
7.04213,105630
7.05025,100428
7.05837,104391
7.06650,111654
7.07462,113408
7.08275,113616
7.09087,118140
7.09898,120589
7.10712,108170
7.11523,97749
7.12337,98944
7.13148,88178
7.13960,90561
7.14773,86320
7.15585,95289
7.16397,119513
7.17210,152581
7.18022,199938
7.18835,216152
7.19647,205932
7.20458,173411
7.21272,152997
7.22083,198191
7.22897,398511
7.23708,937741
7.24520,1702221
7.25333,2303349
7.26145,2178996
7.26957,1592671
7.27770,970522
7.28582,621902
7.29395,422586
7.30207,294878
7.31018,198742
7.31832,155445
7.32643,129345
7.33457,122265
7.34268,127171
7.35080,122307
7.35893,119717
7.36705,118256
7.37518,108844
7.38330,104000
7.39142,109585
7.39955,101281
7.40767,102567
7.41578,108571
7.42392,104755
7.43203,103118
7.44017,102272
7.44828,97492
7.45640,89505
7.46453,101855
7.47265,94703
7.48078,93481
7.48890,96601
7.49702,93609
7.50515,91588
7.51327,89084
7.52140,92396
7.52952,95566
7.53763,124973
7.54577,193545
7.55388,346449
7.56200,551121
7.57013,819836
7.57825,1029975
7.58638,1053394
7.59450,956152
7.60262,732608
7.61075,531069
7.61887,369048
7.62700,264065
7.63512,205810
7.64323,162117
7.65137,144865
7.65948,124792
7.66760,115451
7.67573,108613
7.68385,96843
7.69198,95453
7.70010,93787
7.70822,85749
7.71635,85143
7.72447,89696
7.73260,85978
7.74072,86809
7.74883,88432
7.75697,84725
7.76508,88487
7.77322,84574
7.78133,91144
7.78945,96182
7.79758,99065
7.80570,106328
7.81382,109403
7.82195,120930
7.83007,126587
7.83820,124246
7.84632,115807
7.85443,104495
7.86257,98597
7.87068,93293
7.87882,104291
7.88693,109814
7.89505,121909
7.90318,133574
7.91130,136906
7.91943,129111
7.92755,120281
7.93567,102394
7.94380,106594
7.95192,117295
7.96003,136713
7.96817,142144
7.97628,144689
7.98442,129599
7.99253,117620
8.00065,109858
8.00878,94381
8.01690,90660
8.02503,86172
8.03315,84343
8.04127,82868
8.04940,86626
8.05752,93578
8.06563,82302
8.07377,81540
8.08188,83436
8.09002,81265
8.09813,75928
8.10625,82568
8.11438,79727
8.12250,74423
8.13063,74485
8.13875,71266
8.14687,79008
8.15500,87636
8.16312,103079
8.17125,111981
8.17937,109313
8.18748,99679
8.19562,91972
8.20373,92310
8.21185,79108
8.21998,78841
8.22810,74179
8.23623,71802
8.24435,74178
8.25247,73757
8.26060,69617
8.26872,68166
8.27685,67802
8.28497,67085
8.29308,67253
8.30122,70085
8.30933,68198
8.31747,71412
8.32558,69811
8.33370,77365
8.34183,83497
8.34995,85265
8.35807,80132
8.36620,74985
8.37432,69400
8.38245,70673
8.39057,69088
8.39868,67296
8.40682,69134
8.41493,63956
8.42307,66950
8.43118,61720
8.43930,73710
8.44743,62574
8.45555,61671
8.46367,63381
8.47180,61158
8.47992,62323
8.48805,69542
8.49617,62551
8.50428,64570
8.51242,62812
8.52053,64964
8.52867,64098
8.53678,71565
8.54490,94839
8.55303,148214
8.56115,233655
8.56928,303363
8.57740,300160
8.58552,259795
8.59365,175209
8.60177,126258
8.60988,101298
8.61802,89086
8.62613,96131
8.63427,86636
8.64238,87835
8.65050,82951
8.65863,77807
8.66675,74997
8.67488,74378
8.68300,72025
8.69112,73031
8.69925,70803
8.70737,70594
8.71548,66830
8.72362,65668
8.73173,70088
8.73987,69419
8.74798,65786
8.75610,64914
8.76423,63481
8.77235,72640
8.78048,103038
8.78860,171811
8.79672,272237
8.80485,393475
8.81297,462476
8.82110,449431
8.82922,373600
8.83733,297637
8.84547,228602
8.85358,201158
8.86170,178634
8.86983,175456
8.87795,174934
8.88608,188261
8.89420,178269
8.90232,180600
8.91045,179330
8.91857,163539
8.92670,164206
8.93482,164415
8.94293,169242
8.95107,173768
8.95918,192677
8.96732,208870
8.97543,202970
8.98355,194825
8.99168,182146
8.99980,184498
9.00792,176661
9.01605,171116
9.02417,167294
9.03230,152780
9.04042,140298
9.04853,138910
9.05667,135364
9.06478,132302
9.07292,131546
9.08103,127904
9.08915,130431
9.09728,124644
9.10540,136940
9.11352,136926
9.12165,157540
9.12977,176047
9.13790,186331
9.14602,189039
9.15413,178600
9.16227,155879
9.17038,140263
9.17852,127170
9.18663,121784
9.19475,119195
9.20288,116622
9.21100,118420
9.21913,119569
9.22725,122280
9.23537,111682
9.24350,110866
9.25162,114096
9.25973,112311
9.26787,108717
9.27598,107764
9.28412,101970
9.29223,101972
9.30035,98352
9.30848,98462
9.31660,98856
9.32473,100458
9.33285,101559
9.34097,96473
9.34910,99441
9.35722,100637
9.36535,97820
9.37347,98830
9.38158,91976
9.38972,90089
9.39783,90541
9.40595,95374
9.41408,96190
9.42220,107424
9.43033,113578
9.43845,128166
9.44657,140143
9.45470,156172
9.46282,158904
9.47095,145457
9.47907,141559
9.48718,121308
9.49532,110001
9.50343,97652
9.51155,98059
9.51968,101085
9.52780,102914
9.53593,113175
9.54405,118943
9.55217,120880
9.56030,112570
9.56842,101191
9.57655,93870
9.58467,83681
9.59278,89282
9.60092,85286
9.60903,93361
9.61717,97090
9.62528,89568
9.63340,78337
9.64153,74601
9.64965,66387
9.65777,61374
9.66590,59397
9.67402,57345
9.68215,56746
9.69027,59098
9.69838,61467
9.70652,57931
9.71463,57390
9.72277,55198
9.73088,55651
9.73900,62087
9.74713,57641
9.75525,56009
9.76337,52833
9.77150,56661
9.77962,52027
9.78775,51826
9.79587,56932
9.80398,47553
9.81212,51874
9.82023,53945
9.82837,51274
9.83648,54683
9.84460,50718
9.85273,52968
9.86085,50968
9.86898,52532
9.87710,56750
9.88522,61875
9.89335,64570
9.90147,60263
9.90958,56859
9.91772,55425
9.92583,54895
9.93397,57278
9.94208,72234
9.95020,97170
9.95833,150375
9.96645,229987
9.97458,287236
9.98270,313386
9.99082,274985
9.99895,222707
10.00707,168799
10.01520,130158
10.02332,109627
10.03143,99816
10.03957,94949
10.04768,89742
10.05580,82727
10.06393,81064
10.07205,80192
10.08018,83379
10.08830,73858
10.09642,76651
10.10455,81122
10.11267,74320
10.12080,72510
10.12892,74128
10.13703,71926
10.14517,69351
10.15328,71811
10.16142,67303
10.16953,63320
10.17765,67659
10.18578,65382
10.19390,61524
10.20202,63726
10.21015,62383
10.21827,62941
10.22640,60665
10.23452,59359
10.24263,63053
10.25077,64709
10.25888,63465
10.26702,71841
10.27513,107831
10.28325,214396
10.29138,500728
10.29950,1075825
10.30762,1922193
10.31575,2906562
10.32387,3983186
10.33200,5652650
10.34012,8142402
10.34823,1.092269E+07
10.35637,1.225013E+07
10.36448,1.10936E+07
10.37262,8049572
10.38073,4893629
10.38885,2844298
10.39698,1806479
10.40510,1270852
10.41323,943861
10.42135,690827
10.42947,515949
10.43760,420337
10.44572,360636
10.45383,340711
10.46197,310185
10.47008,314717
10.47822,300589
10.48633,276643
10.49445,256503
10.50258,244085
10.51070,217687
10.51883,206408
10.52695,205590
10.53507,191894
10.54320,184390
10.55132,185833
10.55943,178611
10.56757,173578
10.57568,168508
10.58382,166505
10.59193,158810
10.60005,157761
10.60818,150012
10.61630,142843
10.62443,139724
10.63255,134152
10.64067,129750
10.64880,127410
10.65692,120817
10.66505,121037
10.67317,118666
10.68128,114897
10.68942,115702
10.69753,109623
10.70565,116790
10.71378,113856
10.72190,116447
10.73003,112334
10.73815,108777
10.74627,106340
10.75440,109287
10.76252,101282
10.77065,103485
10.77877,98643
10.78688,103851
10.79502,97863
10.80313,100303
10.81127,92791
10.81938,100351
10.82750,98906
10.83563,98151
10.84375,94351
10.85187,92854
10.86000,85682
10.86812,85279
10.87625,77841
10.88437,82806
10.89248,83164
10.90062,77477
10.90873,75923
10.91687,73939
10.92498,80040
10.93310,73613
10.94123,74515
10.94935,72028
10.95747,72111
10.96560,70023
10.97372,69106
10.98185,72316
10.98997,69872
10.99808,70342
11.00622,73398
11.01433,72672
11.02247,74092
11.03058,73653
11.03870,75772
11.04683,68693
11.05495,67903
11.06308,62599
11.07120,69778
11.07932,66387
11.08745,68179
11.09557,73553
11.10368,70301
11.11182,76596
11.11993,69852
11.12807,66888
11.13618,60585
11.14430,62246
11.15243,57357
11.16055,52110
11.16868,51830
11.17680,56681
11.18492,54708
11.19305,61143
11.20117,64076
11.20930,63476
11.21742,60570
11.22553,57669
11.23367,55846
11.24178,57311
11.24990,52236
11.25803,53573
11.26615,50455
11.27428,52450
11.28240,50358
11.29052,45048
11.29865,49368
11.30677,55003
11.31490,74155
11.32302,104461
11.33113,173859
11.33927,308067
11.34738,484906
11.35550,670604
11.36363,749112
11.37175,684229
11.37988,550896
11.38800,383431
11.39612,267343
11.40425,189557
11.41237,154317
11.42050,134190
11.42862,133227
11.43673,127058
11.44487,114655
11.45298,109265
11.46112,103538
11.46923,91207
11.47735,92436
11.48548,91364
11.49360,108774
11.50172,127419
11.50985,151637
11.51797,166472
11.52610,180481
11.53422,153226
11.54233,136101
11.55047,122556
11.55858,102343
11.56672,95629
11.57483,93012
11.58295,88961
11.59108,86923
11.59920,83838
11.60732,93306
11.61545,107840
11.62357,130289
11.63170,157606
11.63982,174758
11.64793,167111
11.65607,146132
11.66418,114960
11.67232,95251
11.68043,78302
11.68855,76378
11.69668,70985
11.70480,74470
11.71293,67394
11.72105,65730
11.72917,67205
11.73730,66147
11.74542,68155
11.75353,63484
11.76167,63006
11.76978,64709
11.77792,59386
11.78603,62944
11.79415,60481
11.80228,61613
11.81040,59382
11.81853,57706
11.82665,60640
11.83477,58050
11.84290,57474
11.85102,57394
11.85915,57330
11.86727,56384
11.87538,51391
11.88352,49194
11.89163,51678
11.89975,51379
11.90788,43748
11.91600,48499
11.92413,50229
11.93225,55429
11.94037,57108
11.94850,57648
11.95662,60074
11.96475,53880
11.97287,54507
11.98098,53031
11.98912,54021
11.99723,53990
12.00535,61076
12.01348,79412
12.02160,107945
12.02973,116532
12.03785,115756
12.04597,103591
12.05410,88439
12.06222,77894
12.07035,67354
12.07847,69036
12.08658,63177
12.09472,57647
12.10283,65316
12.11097,61454
12.11908,69882
12.12720,82412
12.13533,107695
12.14345,126517
12.15157,148508
12.15970,146898
12.16782,133858
12.17595,105185
12.18407,85780
12.19218,72278
12.20032,66003
12.20843,68007
12.21657,61006
12.22468,65572
12.23280,66835
12.24093,66981
12.24905,68544
12.25718,62004
12.26530,60141
12.27342,62751
12.28155,60216
12.28967,55662
12.29778,63010
12.30592,56033
12.31403,56995
12.32217,57030
12.33028,51454
12.33840,56538
12.34653,52421
12.35465,48612
12.36278,52258
12.37090,52741
12.37902,55157
12.38715,44773
12.39527,49397
12.40338,52964
12.41152,61729
12.41963,70861
12.42777,80999
12.43588,101298
12.44400,105344
12.45213,101204
12.46025,101058
12.46838,92014
12.47650,84060
12.48462,72733
12.49275,70820
12.50087,68366
12.50900,61716
12.51712,59670
12.52523,62870
12.53337,57742
12.54148,57552
12.54960,65623
12.55773,67712
12.56585,75847
12.57398,80099
12.58210,92157
12.59022,89268
12.59835,81507
12.60647,71626
12.61460,71500
12.62272,62388
12.63083,59416
12.63897,57091
12.64708,56221
12.65520,58796
12.66333,58602
12.67145,56704
12.67958,53240
12.68770,50465
12.69582,51941
12.70395,48526
12.71207,53060
12.72020,48475
12.72832,51598
12.73643,55483
12.74457,60719
12.75268,62353
12.76082,63743
12.76893,63420
12.77705,58568
12.78518,49785
12.79330,48257
12.80142,51287
12.80955,46364
12.81767,44425
12.82580,42153
12.83392,43547
12.84203,41177
12.85017,40945
12.85828,39939
12.86642,42843
12.87453,40030
12.88265,38635
12.89078,38631
12.89890,40509
12.90703,38062
12.91515,38801
12.92327,36966
12.93140,39930
12.93952,37225
12.94763,37341
12.95577,41240
12.96388,41629
12.97202,43401
12.98013,59201
12.98825,73386
12.99638,88334
13.00450,95330
13.01263,91602
13.02075,80576
13.02887,64813
13.03700,57573
13.04512,46723
13.05323,47466
13.06137,46303
13.06948,43282
13.07762,46059
13.08573,46799
13.09385,45221
13.10198,41783
13.11010,48824
13.11823,44002
13.12635,42785
13.13447,43612
13.14260,39800
13.15072,42232
13.15885,41164
13.16697,41800
13.17508,46805
13.18322,45434
13.19133,42167
13.19945,44150
13.20758,47056
13.21570,50240
13.22383,46178
13.23195,45073
13.24007,51044
13.24820,48241
13.25632,49865
13.26445,46620
13.27257,43937
13.28068,44803
13.28882,40443
13.29693,41004
13.30507,40122
13.31318,39582
13.32130,37028
13.32943,35956
13.33755,34576
13.34567,39234
13.35380,37164
13.36192,41000
13.37005,38452
13.37817,40403
13.38628,36611
13.39442,38965
13.40253,33985
13.41067,34044
13.41878,36505
13.42690,37141
13.43503,33656
13.44315,40661
13.45127,36717
13.45940,36339
13.46752,39405
13.47565,37182
13.48377,42770
13.49188,37833
13.50002,38255
13.50813,39268
13.51627,38461
13.52438,36974
13.53250,36582
13.54063,37424
13.54875,38646
13.55688,39155
13.56500,39554
13.57312,39117
13.58125,37880
13.58937,40884
13.59748,40755
13.60562,42506
13.61373,45986
13.62187,45826
13.62998,51276
13.63810,53077
13.64623,50053
13.65435,44935
13.66248,42173
13.67060,42283
13.67872,35863
13.68685,36740
13.69497,34238
13.70310,36982
13.71122,37919
13.71933,38199
13.72747,33615
13.73558,35614
13.74370,35724
13.75183,47148
13.75995,64962
13.76808,100901
13.77620,169119
13.78432,256762
13.79245,337006
13.80057,383498
13.80870,361429
13.81682,324513
13.82493,291458
13.83307,280378
13.84118,278543
13.84930,288889
13.85743,285662
13.86555,261199
13.87368,214371
13.88180,188119
13.88992,149888
13.89805,128412
13.90617,115588
13.91430,103486
13.92242,92044
13.93053,82720
13.93867,83502
13.94678,73399
13.95492,73218
13.96303,75057
13.97115,75054
13.97928,72036
13.98740,73019
13.99552,78166
14.00365,81807
14.01177,83546
14.01990,79100
14.02802,76715
14.03613,73634
14.04427,71715
14.05238,69574
14.06052,69445
14.06863,64722
14.07675,67450
14.08488,64580
14.09300,68263
14.10112,69033
14.10925,60791
14.11737,62804
14.12550,65586
14.13362,60904
14.14173,62336
14.14987,63306
14.15798,65705
14.16612,66793
14.17423,65860
14.18235,74799
14.19048,77232
14.19860,84530
14.20673,106699
14.21485,141503
14.22297,171659
14.23110,204693
14.23922,198803
14.24733,205103
14.25547,200762
14.26358,200184
14.27172,185138
14.27983,168399
14.28795,163839
14.29608,143750
14.30420,136801
14.31233,120567
14.32045,109502
14.32857,112835
14.33670,97973
14.34482,99150
14.35295,89353
14.36107,89432
14.36918,82973
14.37732,73097
14.38543,67307
14.39355,60801
14.40168,55976
14.40980,57336
14.41793,58140
14.42605,65780
14.43417,67016
14.44230,67611
14.45042,67805
14.45855,65914
14.46667,62965
14.47478,59799
14.48292,56060
14.49103,60644
14.49915,55341
14.50728,57651
14.51540,52146
14.52353,52850
14.53165,52967
14.53977,57418
14.54790,53106
14.55602,51389
14.56415,50376
14.57227,51415
14.58038,49490
14.58852,47818
14.59663,46719
14.60477,43496
14.61288,43932
14.62100,45299
14.62913,45152
14.63725,44518
14.64537,45753
14.65350,40054
14.66162,39342
14.66975,39951
14.67787,42221
14.68598,41091
14.69412,40999
14.70223,41082
14.71037,40663
14.71848,43023
14.72660,42853
14.73473,42348
14.74285,40917
14.75098,41424
14.75910,42238
14.76722,44815
14.77535,39567
14.78347,43150
14.79158,48003
14.79972,79332
14.80783,167889
14.81597,464429
14.82408,1129433
14.83220,2277459
14.84033,3525357
14.84845,4480557
14.85658,4382434
14.86470,3606208
14.87282,2474882
14.88095,1516425
14.88907,932996
14.89718,633632
14.90532,472370
14.91343,377609
14.92157,319234
14.92968,277686
14.93780,257258
14.94593,239368
14.95405,214299
14.96218,204171
14.97030,190533
14.97842,169525
14.98655,167449
14.99467,152708
15.00280,149968
15.01092,144672
15.01903,145715
15.02717,135011
15.03528,131948
15.04340,121235
15.05153,122459
15.05965,115521
15.06778,107403
15.07590,106252
15.08402,102560
15.09215,101651
15.10027,95372
15.10840,98175
15.11652,92493
15.12463,88359
15.13277,93555
15.14088,101637
15.14900,107404
15.15713,108384
15.16525,109953
15.17338,101966
15.18150,87045
15.18962,73671
15.19775,64686
15.20587,57547
15.21400,55880
15.22212,51360
15.23023,58347
15.23837,53017
15.24648,51513
15.25462,53271
15.26273,48190
15.27085,44816
15.27898,44814
15.28710,47600
15.29522,45462
15.30335,45252
15.31147,43876
15.31960,47682
15.32772,45321
15.33583,40113
15.34397,44713
15.35208,43991
15.36022,42331
15.36833,42392
15.37645,45885
15.38458,43940
15.39270,43965
15.40083,43710
15.40895,42379
15.41707,40680
15.42520,40078
15.43332,44056
15.44143,43136
15.44957,42542
15.45768,41791
15.46582,39560
15.47393,46370
15.48205,51740
15.49018,62275
15.49830,80051
15.50643,101500
15.51455,118310
15.52267,123768
15.53080,121881
15.53892,104292
15.54705,94808
15.55517,81755
15.56328,72405
15.57142,66296
15.57953,59499
15.58765,55797
15.59578,50222
15.60390,51957
15.61203,49850
15.62015,47573
15.62827,45477
15.63640,43941
15.64452,45802
15.65265,50261
15.66077,43311
15.66888,42761
15.67702,42832
15.68513,45483
15.69325,44815
15.70138,43248
15.70950,37384
15.71763,37208
15.72575,40883
15.73387,42041
15.74200,36823
15.75012,42051
15.75825,47589
15.76637,58981
15.77448,90432
15.78262,127616
15.79073,200933
15.79887,278706
15.80698,308374
15.81510,286896
15.82323,229819
15.83135,164514
15.83947,120384
15.84760,95472
15.85572,79753
15.86385,80027
15.87197,65522
15.88008,61288
15.88822,61783
15.89633,60834
15.90447,62273
15.91258,55930
15.92070,52216
15.92883,54831
15.93695,52991
15.94507,49543
15.95320,52647
15.96132,51372
15.96945,51787
15.97757,54567
15.98568,60631
15.99382,58746
16.00193,60440
16.01007,62527
16.01818,66953
16.02630,69637
16.03443,69499
16.04255,74846
16.05068,73778
16.05880,70689
16.06692,66187
16.07505,58871
16.08317,54552
16.09128,48565
16.09942,48335
16.10753,48115
16.11567,43982
16.12378,44569
16.13190,48386
16.14003,50898
16.14815,50402
16.15628,53415
16.16440,55725
16.17252,55723
16.18065,53365
16.18877,51949
16.19690,49077
16.20502,45859
16.21313,45477
16.22127,46408
16.22938,46466
16.23750,43569
16.24563,43217
16.25375,44119
16.26188,47199
16.27000,43700
16.27812,45087
16.28625,44948
16.29437,47071
16.30250,47141
16.31062,53316
16.31873,54905
16.32687,52111
16.33498,49219
16.34310,48610
16.35123,49597
16.35935,46806
16.36748,58184
16.37560,58686
16.38372,68522
16.39185,78130
16.39997,84156
16.40810,75308
16.41622,63969
16.42433,59148
16.43247,54735
16.44058,57210
16.44872,56550
16.45683,81731
16.46495,145238
16.47308,272724
16.48120,492910
16.48932,784651
16.49745,931417
16.50557,948282
16.51370,741559
16.52182,529946
16.52993,331366
16.53807,219141
16.54618,163773
16.55432,137461
16.56243,110575
16.57055,101845
16.57868,92120
16.58680,92708
16.59493,86778
16.60305,86719
16.61117,83674
16.61930,82644
16.62742,80655
16.63553,75433
16.64367,71279
16.65178,70905
16.65992,65638
16.66803,65825
16.67615,62294
16.68428,60479
16.69240,60969
16.70053,56481
16.70865,52864
16.71677,49707
16.72490,53830
16.73302,49189
16.74113,47663
16.74927,49648
16.75738,53339
16.76552,52112
16.77363,54113
16.78175,59955
16.78988,58130
16.79800,55505
16.80613,49986
16.81425,46234
16.82237,44859
16.83050,44295
16.83862,43700
16.84675,44906
16.85487,40216
16.86298,45212
16.87112,40229
16.87923,41797
16.88735,38655
16.89548,39679
16.90360,41879
16.91173,41478
16.91985,39493
16.92797,39318
16.93610,40942
16.94422,42529
16.95235,39899
16.96047,39600
16.96858,42916
16.97672,42051
16.98483,38030
16.99295,44673
17.00108,43446
17.00920,40760
17.01733,38033
17.02545,41519
17.03357,39338
17.04170,42129
17.04982,43065
17.05795,45673
17.06607,45192
17.07418,48969
17.08232,52140
17.09043,45789
17.09857,47136
17.10668,41688
17.11480,44138
17.12293,39928
17.13105,42311
17.13917,42448
17.14730,43012
17.15542,45218
17.16355,41333
17.17167,47109
17.17978,42134
17.18792,43400
17.19603,42704
17.20417,38831
17.21228,40366
17.22040,37959
17.22853,40698
17.23665,39178
17.24478,39387
17.25290,39281
17.26102,38493
17.26915,39659
17.27727,37206
17.28538,41815
17.29352,37820
17.30163,38860
17.30977,39266
17.31788,40209
17.32600,41343
17.33413,47890
17.34225,50155
17.35038,58002
17.35850,62247
17.36662,58598
17.37475,65480
17.38287,61016
17.39098,59417
17.39912,54156
17.40723,57202
17.41537,53915
17.42348,53252
17.43160,52660
17.43973,56830
17.44785,55368
17.45598,56614
17.46410,50230
17.47222,51164
17.48035,45954
17.48847,43648
17.49660,41188
17.50472,47724
17.51283,46002
17.52097,42474
17.52908,46157
17.53720,38967
17.54533,44761
17.55345,46126
17.56158,46167
17.56970,53071
17.57782,71226
17.58595,111258
17.59407,172998
17.60220,258984
17.61032,370733
17.61843,466705
17.62657,485412
17.63468,446546
17.64282,354561
17.65093,249898
17.65905,195899
17.66718,153443
17.67530,124577
17.68342,122942
17.69155,106330
17.69967,93929
17.70780,92354
17.71592,78655
17.72403,77934
17.73217,79520
17.74028,74162
17.74842,69439
17.75653,64783
17.76465,62311
17.77278,61861
17.78090,61849
17.78902,57951
17.79715,57064
17.80527,70571
17.81340,91367
17.82152,135762
17.82963,191807
17.83777,246675
17.84588,263984
17.85402,257356
17.86213,208320
17.87025,173194
17.87838,144127
17.88650,128451
17.89463,106388
17.90275,92027
17.91087,79422
17.91900,73763
17.92712,67724
17.93523,66592
17.94337,58148
17.95148,56831
17.95962,56928
17.96773,55098
17.97585,54661
17.98398,51155
17.99210,47506
18.00023,50239
18.00835,58995
18.01647,54406
18.02460,60175
18.03272,63201
18.04083,78312
18.04897,95130
18.05708,106975
18.06522,133846
18.07333,210961
18.08145,420137
18.08958,753309
18.09770,1157307
18.10583,1465689
18.11395,1595933
18.12207,1419055
18.13020,1139796
18.13832,859705
18.14645,628379
18.15457,508066
18.16268,425254
18.17082,351369
18.17893,319318
18.18705,270423
18.19518,251352
18.20330,232482
18.21143,214973
18.21955,196429
18.22767,179465
18.23580,166123
18.24392,150796
18.25205,152269
18.26017,144544
18.26828,132313
18.27642,124492
18.28453,113205
18.29267,99792
18.30078,81536
18.30890,75137
18.31703,62544
18.32515,57123
18.33327,56163
18.34140,51321
18.34952,58439
18.35765,48609
18.36577,54412
18.37388,48370
18.38202,50436
18.39013,48755
18.39827,50563
18.40638,50455
18.41450,49317
18.42263,51606
18.43075,50224
18.43887,56316
18.44700,61190
18.45512,72987
18.46325,91258
18.47137,103842
18.47948,134832
18.48762,158116
18.49573,177776
18.50387,181003
18.51198,159443
18.52010,133932
18.52823,111202
18.53635,87699
18.54448,72691
18.55260,66932
18.56072,65946
18.56885,61039
18.57697,54907
18.58508,57743
18.59322,58091
18.60133,54696
18.60947,60831
18.61758,57021
18.62570,56951
18.63383,58742
18.64195,63791
18.65008,62966
18.65820,54767
18.66632,51347
18.67445,49170
18.68257,46731
18.69070,46885
18.69882,46967
18.70693,45103
18.71507,44274
18.72318,44568
18.73130,42474
18.73943,38997
18.74755,42203
18.75568,41065
18.76380,42212
18.77192,43118
18.78005,41208
18.78817,40298
18.79630,42269
18.80442,39351
18.81253,40584
18.82067,41808
18.82878,42866
18.83690,41050
18.84503,41371
18.85315,44367
18.86128,43414
18.86940,42862
18.87752,51876
18.88565,63913
18.89377,82051
18.90190,92085
18.91002,101167
18.91813,112702
18.92627,114366
18.93438,120874
18.94252,127778
18.95063,132382
18.95875,135377
18.96688,135404
18.97500,138039
18.98312,139447
18.99125,137072
18.99937,132169
19.00750,134920
19.01562,139638
19.02373,130388
19.03187,134586
19.03998,127315
19.04812,130778
19.05623,135684
19.06435,132278
19.07248,143219
19.08060,157323
19.08873,211839
19.09685,286292
19.10497,401541
19.11310,492245
19.12122,538370
19.12933,501975
19.13747,422887
19.14558,340600
19.15372,278253
19.16183,225146
19.16995,200450
19.17808,170872
19.18620,160400
19.19433,154769
19.20245,149068
19.21057,143435
19.21870,144481
19.22682,134788
19.23493,131742
19.24307,136252
19.25118,129271
19.25932,128108
19.26743,125901
19.27555,130269
19.28368,130347
19.29180,138048
19.29993,141371
19.30805,138416
19.31617,143104
19.32430,140777
19.33242,136035
19.34055,132235
19.34867,129653
19.35678,128839
19.36492,135268
19.37303,157000
19.38115,166312
19.38928,180401
19.39740,174332
19.40553,163570
19.41365,157445
19.42177,128871
19.42990,126346
19.43802,128269
19.44615,119195
19.45427,116042
19.46238,118511
19.47052,110911
19.47863,113353
19.48675,110145
19.49488,120823
19.50300,139994
19.51113,178681
19.51925,207251
19.52737,229100
19.53550,234075
19.54362,211831
19.55175,182312
19.55987,155166
19.56798,133346
19.57612,115297
19.58423,112173
19.59237,105898
19.60048,104614
19.60860,106624
19.61673,99226
19.62485,98768
19.63297,101097
19.64110,103945
19.64922,124389
19.65735,165429
19.66547,226447
19.67358,277795
19.68172,353379
19.68983,386048
19.69797,379410
19.70608,350597
19.71420,308764
19.72233,266803
19.73045,242487
19.73858,207549
19.74670,178941
19.75482,175679
19.76295,151397
19.77107,138319
19.77918,130355
19.78732,136488
19.79543,126532
19.80357,135538
19.81168,134396
19.81980,133514
19.82793,130786
19.83605,120089
19.84418,119262
19.85230,105972
19.86042,123926
19.86855,196375
19.87667,367485
19.88478,738075
19.89292,1347931
19.90103,2082436
19.90917,2657465
19.91728,2883987
19.92540,2630581
19.93353,2133333
19.94165,1538437
19.94978,1070501
19.95790,785701
19.96602,600536
19.97415,513095
19.98227,458589
19.99040,404790
19.99852,381397
20.00663,354267
20.01477,333015
20.02288,306789
20.03100,299116
20.03913,278886
20.04725,256669
20.05538,233553
20.06350,201938
20.07162,174927
20.07975,169880
20.08787,153601
20.09600,141048
20.10412,137721
20.11223,135474
20.12037,126044
20.12848,118963
20.13662,117647
20.14473,109691
20.15285,111333
20.16098,111779
20.16910,122574
20.17722,136126
20.18535,160095
20.19347,180835
20.20160,200797
20.20972,204649
20.21783,205202
20.22597,184582
20.23408,171968
20.24222,158418
20.25033,159728
20.25845,196052
20.26658,245146
20.27470,315915
20.28282,416734
20.29095,494476
20.29907,516384
20.30720,487205
20.31532,430600
20.32343,353706
20.33157,271039
20.33968,224092
20.34782,182471
20.35593,153002
20.36405,130099
20.37218,115336
20.38030,106955
20.38843,99631
20.39655,97790
20.40467,94828
20.41280,91657
20.42092,90562
20.42903,92725
20.43717,106228
20.44528,104714
20.45342,121771
20.46153,127715
20.46965,121978
20.47778,113823
20.48590,114901
20.49403,102274
20.50215,95311
20.51027,88373
20.51840,83793
20.52652,79570
20.53463,76175
20.54277,80826
20.55088,75857
20.55902,78893
20.56713,73282
20.57525,73900
20.58338,75531
20.59150,70580
20.59963,70255
20.60775,69110
20.61587,66209
20.62400,66345
20.63212,68576
20.64025,68693
20.64837,73690
20.65648,70981
20.66462,68280
20.67273,66282
20.68085,74426
20.68898,64898
20.69710,64057
20.70523,64881
20.71335,63078
20.72147,64559
20.72960,60172
20.73772,61492
20.74585,62173
20.75397,63791
20.76208,63614
20.77022,66318
20.77833,64633
20.78647,76058
20.79458,85980
20.80270,119566
20.81083,160796
20.81895,210483
20.82707,259829
20.83520,274933
20.84332,252990
20.85145,199247
20.85957,147415
20.86768,120280
20.87582,88363
20.88393,78898
20.89207,77520
20.90018,71881
20.90830,71785
20.91643,67208
20.92455,67845
20.93268,67833
20.94080,66890
20.94892,71974
20.95705,72225
20.96517,74777
20.97328,65586
20.98142,66481
20.98953,67959
20.99767,62794
21.00578,65338
21.01390,63571
21.02203,65814
21.03015,62074
21.03828,62440
21.04640,65526
21.05452,67621
21.06265,67757
21.07077,65123
21.07888,67752
21.08702,66971
21.09513,65640
21.10327,69195
21.11138,64328
21.11950,61247
21.12763,69797
21.13575,58975
21.14388,71986
21.15200,77571
21.16012,92772
21.16825,111393
21.17637,114628
21.18450,117014
21.19262,99830
21.20073,88723
21.20887,83263
21.21698,77321
21.22510,68174
21.23323,65839
21.24135,66442
21.24948,66856
21.25760,68391
21.26572,63814
21.27385,62042
21.28197,56557
21.29010,61068
21.29822,57287
21.30633,60266
21.31447,57524
21.32258,59817
21.33070,54604
21.33883,51398
21.34695,55592
21.35508,51254
21.36320,52375
21.37132,49289
21.37945,53466
21.38757,54701
21.39570,63309
21.40382,72525
21.41193,82181
21.42007,92965
21.42818,98917
21.43632,92249
21.44443,78865
21.45255,74313
21.46068,65845
21.46880,65928
21.47692,61154
21.48505,56944
21.49317,56236
21.50130,61021
21.50942,53600
21.51753,54952
21.52567,51932
21.53378,50259
21.54192,52451
21.55003,49415
21.55815,52644
21.56628,55095
21.57440,52282
21.58253,58231
21.59065,57767
21.59877,59973
21.60690,70641
21.61502,70914
21.62313,69422
21.63127,77165
21.63938,83061
21.64752,89793
21.65563,100663
21.66375,99216
21.67188,104900
21.68000,95759
21.68813,94365
21.69625,86853
21.70437,80417
21.71250,72240
21.72062,71713
21.72873,63609
21.73687,62838
21.74498,56619
21.75312,57049
21.76123,54892
21.76935,54223
21.77748,53413
21.78560,53175
21.79373,52480
21.80185,53060
21.80997,56044
21.81810,63171
21.82622,61905
21.83435,74179
21.84247,79078
21.85058,90194
21.85872,92410
21.86683,89241
21.87495,81174
21.88308,70275
21.89120,67030
21.89933,60016
21.90745,58981
21.91557,55310
21.92370,57329
21.93182,50517
21.93995,53491
21.94807,51669
21.95618,49307
21.96432,48547
21.97243,48896
21.98057,46529
21.98868,43999
21.99680,43443
22.00493,42030
22.01305,46414
22.02117,44086
22.02930,48096
22.03742,49383
22.04555,47430
22.05367,51627
22.06178,51496
22.06992,45145
22.07803,45685
22.08617,50209
22.09428,52621
22.10240,58671
22.11053,68765
22.11865,70382
22.12677,74804
22.13490,76567
22.14302,77347
22.15115,81128
22.15927,82652
22.16738,87777
22.17552,84956
22.18363,85872
22.19177,83256
22.19988,82302
22.20800,82791
22.21613,86626
22.22425,90780
22.23238,89510
22.24050,96353
22.24862,99324
22.25675,93896
22.26487,95001
22.27298,96547
22.28112,96051
22.28923,94165
22.29737,90795
22.30548,92655
22.31360,87867
22.32173,92700
22.32985,85862
22.33798,81376
22.34610,68879
22.35422,67806
22.36235,64522
22.37047,66964
22.37858,62970
22.38672,63100
22.39483,69455
22.40297,79063
22.41108,94197
22.41920,109010
22.42733,124155
22.43545,133203
22.44358,126993
22.45170,108947
22.45982,90928
22.46795,84004
22.47607,74762
22.48420,73922
22.49232,72818
22.50043,76472
22.50857,82014
22.51668,84864
22.52480,76345
22.53293,80362
22.54105,73495
22.54918,69756
22.55730,64949
22.56542,64179
22.57355,58426
22.58167,61091
22.58980,53516
22.59792,53385
22.60603,51121
22.61417,53573
22.62228,55101
22.63042,68209
22.63853,82700
22.64665,95627
22.65478,100613
22.66290,116171
22.67102,124638
22.67915,123906
22.68727,134997
22.69540,139495
22.70352,137852
22.71163,148925
22.71977,150466
22.72788,162786
22.73602,168116
22.74413,164296
22.75225,148436
22.76038,154282
22.76850,147414
22.77662,147883
22.78475,149433
22.79287,162963
22.80100,166447
22.80912,168267
22.81723,177698
22.82537,184753
22.83348,185761
22.84162,174314
22.84973,166208
22.85785,159929
22.86598,156717
22.87410,156919
22.88223,158922
22.89035,164632
22.89847,167734
22.90660,180143
22.91472,189589
22.92283,208081
22.93097,211008
22.93908,238306
22.94722,237156
22.95533,236568
22.96345,211390
22.97158,195993
22.97970,179472
22.98783,171031
22.99595,163848
23.00407,158699
23.01220,147831
23.02032,144036
23.02845,134944
23.03657,138691
23.04468,127334
23.05282,129757
23.06093,132905
23.06905,117107
23.07718,119654
23.08530,119783
23.09343,117820
23.10155,123602
23.10967,121179
23.11780,118963
23.12592,112559
23.13405,111668
23.14217,117675
23.15028,109790
23.15842,113480
23.16653,109324
23.17465,112951
23.18278,105448
23.19090,105694
23.19903,108952
23.20715,100754
23.21527,106944
23.22340,103270
23.23152,102454
23.23965,95498
23.24777,104871
23.25588,105736
23.26402,108129
23.27213,113327
23.28027,106957
23.28838,102728
23.29650,113942
23.30463,98695
23.31275,98236
23.32087,97256
23.32900,97521
23.33712,97792
23.34525,113766
23.35337,131025
23.36148,167976
23.36962,223900
23.37773,298840
23.38587,393251
23.39398,477147
23.40210,579526
23.41023,645067
23.41835,717654
23.42648,745303
23.43460,747289
23.44272,735350
23.45085,710159
23.45897,692142
23.46708,647999
23.47522,614421
23.48333,567566
23.49147,526334
23.49958,482390
23.50770,450749
23.51583,422207
23.52395,391600
23.53208,358699
23.54020,337725
23.54832,328492
23.55645,305407
23.56457,305737
23.57268,293526
23.58082,302236
23.58893,310736
23.59707,335214
23.60518,368836
23.61330,371007
23.62143,362014
23.62955,341524
23.63768,294646
23.64580,266148
23.65392,243284
23.66205,222900
23.67017,215076
23.67830,203779
23.68642,203773
23.69453,187491
23.70267,179973
23.71078,165175
23.71890,153693
23.72703,151173
23.73515,147301
23.74328,144594
23.75140,160803
23.75952,226817
23.76765,379207
23.77577,730994
23.78390,1248345
23.79202,1903043
23.80013,2483751
23.80827,2685600
23.81638,2534514
23.82450,2153742
23.83263,1686420
23.84075,1263834
23.84888,972127
23.85700,752843
23.86512,612657
23.87325,534842
23.88137,442838
23.88950,384554
23.89762,350514
23.90573,324788
23.91387,313785
23.92198,300607
23.93012,278517
23.93823,257886
23.94635,239473
23.95448,226781
23.96260,211721
23.97072,202679
23.97885,186830
23.98697,183846
23.99510,169093
24.00322,162654
24.01133,160667
24.01947,166743
24.02758,171070
24.03572,176695
24.04383,188683
24.05195,180226
24.06008,173482
24.06820,159758
24.07633,153141
24.08445,137776
24.09257,128637
24.10070,130126
24.10882,123588
24.11693,120095
24.12507,119156
24.13318,128206
24.14132,123407
24.14943,127601
24.15755,131072
24.16568,124289
24.17380,123912
24.18193,123558
24.19005,119128
24.19817,121769
24.20630,122067
24.21442,118462
24.22253,120004
24.23067,118690
24.23878,120200
24.24692,106822
24.25503,103553
24.26315,100791
24.27128,94704
24.27940,98551
24.28753,92029
24.29565,87739
24.30377,89015
24.31190,87494
24.32002,89708
24.32815,93793
24.33627,108451
24.34438,137869
24.35252,152881
24.36063,165434
24.36875,185941
24.37688,188290
24.38500,212564
24.39313,227518
24.40125,250799
24.40937,258454
24.41750,264059
24.42562,270775
24.43375,259428
24.44187,242456
24.44998,231790
24.45812,241263
24.46623,231377
24.47437,243710
24.48248,250240
24.49060,273360
24.49873,275835
24.50685,272795
24.51497,275652
24.52310,276798
24.53122,271002
24.53935,259420
24.54747,253545
24.55558,253814
24.56372,252073
24.57183,241238
24.57997,241665
24.58808,231101
24.59620,228735
24.60433,218700
24.61245,207749
24.62057,206984
24.62870,200092
24.63682,197305
24.64495,195976
24.65307,198234
24.66118,186809
24.66932,191079
24.67743,193393
24.68557,189333
24.69368,183392
24.70180,188522
24.70993,175269
24.71805,180377
24.72618,177701
24.73430,171690
24.74242,169082
24.75055,171992
24.75867,168176
24.76678,169718
24.77492,169856
24.78303,170015
24.79117,172021
24.79928,170833
24.80740,176988
24.81553,176254
24.82365,169276
24.83178,175301
24.83990,181152
24.84802,205769
24.85615,222679
24.86427,275968
24.87238,346152
24.88052,437036
24.88863,521454
24.89677,620303
24.90488,627128
24.91300,600405
24.92113,511472
24.92925,412874
24.93738,322915
24.94550,261142
24.95362,226663
24.96175,195387
24.96987,191716
24.97800,181077
24.98612,178730
24.99423,175568
25.00237,173390
25.01048,168845
25.01860,168090
25.02673,167931
25.03485,169577
25.04298,161867
25.05110,152745
25.05922,155431
25.06735,155138
25.07547,154152
25.08360,151493
25.09172,162598
25.09983,176956
25.10797,222567
25.11608,339371
25.12422,616292
25.13233,1044316
25.14045,1686840
25.14858,2277154
25.15670,2536646
25.16482,2355247
25.17295,1945285
25.18107,1389798
25.18920,922397
25.19732,592557
25.20543,394901
25.21357,276028
25.22168,218028
25.22982,191114
25.23793,176504
25.24605,186355
25.25418,194827
25.26230,213445
25.27042,232928
25.27855,243639
25.28667,238068
25.29480,220778
25.30292,203241
25.31103,178213
25.31917,152835
25.32728,131393
25.33542,121037
25.34353,113022
25.35165,104112
25.35978,98239
25.36790,94305
25.37603,89482
25.38415,83645
25.39227,75278
25.40040,77426
25.40852,75636
25.41663,79270
25.42477,76497
25.43288,73887
25.44102,69601
25.44913,73078
25.45725,73529
25.46538,69140
25.47350,74615
25.48163,75640
25.48975,74270
25.49787,72442
25.50600,70892
25.51412,70121
25.52225,71275
25.53037,64343
25.53848,67388
25.54662,67403
25.55473,64841
25.56285,66743
25.57098,63133
25.57910,64275
25.58723,60861
25.59535,64858
25.60347,64112
25.61160,61539
25.61972,62165
25.62785,62829
25.63597,61107
25.64408,62343
25.65222,64837
25.66033,58831
25.66845,64169
25.67658,60179
25.68470,58829
25.69283,59495
25.70095,59832
25.70907,67413
25.71720,76600
25.72532,94731
25.73345,124189
25.74157,136564
25.74968,140933
25.75782,153274
25.76593,150755
25.77407,160750
25.78218,163765
25.79030,166990
25.79843,166617
25.80655,179764
25.81467,177493
25.82280,181774
25.83092,180082
25.83905,183422
25.84717,189065
25.85528,179325
25.86342,184818
25.87153,185240
25.87967,179074
25.88778,175004
25.89590,171491
25.90403,170859
25.91215,171234
25.92027,177731
25.92840,158758
25.93652,169201
25.94465,163466
25.95277,158538
25.96088,158634
25.96902,165269
25.97713,165149
25.98527,157754
25.99338,165827
26.00150,155221
26.00963,153373
26.01775,148017
26.02588,152508
26.03400,150664
26.04212,143399
26.05025,142747
26.05837,144914
26.06648,142743
26.07462,140175
26.08273,143781
26.09087,146273
26.09898,145294
26.10710,146055
26.11523,138562
26.12335,147569
26.13148,141279
26.13960,142521
26.14772,148884
26.15585,150510
26.16397,152897
26.17210,148253
26.18022,142025
26.18833,142146
26.19647,138834
26.20458,140224
26.21270,130501
26.22083,129838
26.22895,132172
26.23708,122699
26.24520,116874
26.25332,122248
26.26145,118139
26.26957,117435
26.27770,118336
26.28582,117644
26.29393,121349
26.30207,113705
26.31018,111287
26.31832,111830
26.32643,103234
26.33455,111431
26.34268,101122
26.35080,102933
26.35892,106514
26.36705,106603
26.37517,111810
26.38330,120442
26.39142,126561
26.39953,136546
26.40767,145571
26.41578,142114
26.42392,143342
26.43203,143178
26.44015,127337
26.44828,113959
26.45640,109883
26.46452,106061
26.47265,106705
26.48077,99623
26.48890,98782
26.49702,103287
26.50513,92335
26.51327,95154
26.52138,95597
26.52952,89499
26.53763,85873
26.54575,87901
26.55388,85399
26.56200,85033
26.57013,80933
26.57825,81512
26.58637,80018
26.59450,80432
26.60262,79528
26.61073,76309
26.61887,77589
26.62698,76440
26.63512,75413
26.64323,73326
26.65135,76236
26.65948,80395
26.66760,80631
26.67573,83139
26.68385,85856
26.69197,81183
26.70010,75615
26.70822,73372
26.71633,73465
26.72447,69848
26.73258,72530
26.74072,68201
26.74883,71910
26.75695,70715
26.76508,70822
26.77320,70698
26.78133,66436
26.78945,69455
26.79757,70832
26.80570,70496
26.81382,66932
26.82195,73987
26.83007,70480
26.83818,69708
26.84632,64144
26.85443,66599
26.86255,70253
26.87068,63801
26.87880,66479
26.88693,68649
26.89505,64849
26.90317,65486
26.91130,62282
26.91942,60560
26.92755,64661
26.93567,61805
26.94378,62541
26.95192,59962
26.96003,65284
26.96817,64382
26.97628,76186
26.98440,93851
26.99253,120173
27.00065,183179
27.00877,254299
27.01690,347089
27.02502,435426
27.03315,514733
27.04127,534644
27.04938,499861
27.05752,456516
27.06563,382285
27.07377,314580
27.08188,259730
27.09000,224910
27.09813,202876
27.10625,176704
27.11437,164079
27.12250,152899
27.13062,148552
27.13875,131895
27.14687,130699
27.15498,127072
27.16312,119950
27.17123,121855
27.17937,122488
27.18748,121759
27.19560,135054
27.20373,125995
27.21185,123228
27.21998,115462
27.22810,118399
27.23622,110621
27.24435,103574
27.25247,97407
27.26058,98027
27.26872,87220
27.27683,88296
27.28497,83669
27.29308,76395
27.30120,85314
27.30933,79518
27.31745,79606
27.32558,75829
27.33370,73196
27.34182,70865
27.34995,77619
27.35807,77127
27.36620,70703
27.37432,75717
27.38243,70018
27.39057,67323
27.39868,72665
27.40680,68913
27.41493,64073
27.42305,66041
27.43118,66519
27.43930,65763
27.44742,62464
27.45555,66620
27.46367,61236
27.47180,61522
27.47992,59859
27.48803,62917
27.49617,58843
27.50428,66625
27.51240,62036
27.52053,61095
27.52865,66846
27.53678,60956
27.54490,65074
27.55302,65529
27.56115,61891
27.56927,63223
27.57740,68196
27.58552,74045
27.59363,77507
27.60177,81041
27.60988,85484
27.61802,85117
27.62613,76019
27.63425,73875
27.64238,69946
27.65050,64427
27.65862,62430
27.66675,55054
27.67487,62437
27.68300,61294
27.69112,61483
27.69923,57063
27.70737,58506
27.71548,58018
27.72362,53842
27.73173,57505
27.73985,55814
27.74798,57955
27.75610,56798
27.76422,52253
27.77235,52605
27.78047,55770
27.78860,61232
27.79672,54970
27.80483,53931
27.81297,59629
27.82108,55943
27.82922,55606
27.83733,60658
27.84545,56176
27.85358,56412
27.86170,56336
27.86983,54070
27.87795,54303
27.88607,55867
27.89420,50377
27.90232,52610
27.91043,54731
27.91857,50142
27.92668,52182
27.93482,46776
27.94293,48030
27.95105,47599
27.95918,46847
27.96730,49491
27.97543,51635
27.98355,51870
27.99167,52446
27.99980,49781
28.00792,52981
28.01605,54200
28.02417,53814
28.03228,54402
28.04042,57755
28.04853,62215
28.05665,63641
28.06478,64526
28.07290,65219
28.08103,65543
28.08915,62188
28.09727,62526
28.10540,60790
28.11352,59812
28.12165,59763
28.12977,52111
28.13788,50905
28.14602,50756
28.15413,47588
28.16225,45086
28.17038,48785
28.17850,49626
28.18663,51533
28.19475,57355
28.20287,63381
28.21100,76691
28.21912,84791
28.22725,89414
28.23537,88011
28.24348,75773
28.25162,74003
28.25973,68776
28.26787,63716
28.27598,58678
28.28410,56144
28.29223,51717
28.30035,50746
28.30847,58332
28.31660,62458
28.32472,67764
28.33285,78009
28.34097,84098
28.34908,87425
28.35722,97136
28.36533,98067
28.37347,111883
28.38158,118556
28.38970,131407
28.39783,126140
28.40595,136551
28.41408,129257
28.42220,120590
28.43032,125305
28.43845,113496
28.44657,108374
28.45468,99847
28.46282,100625
28.47093,95628
28.47907,88075
28.48718,83466
28.49530,80347
28.50343,80819
28.51155,79429
28.51968,77058
28.52780,75763
28.53592,69961
28.54405,72635
28.55217,67202
28.56028,66061
28.56842,61858
28.57653,64877
28.58467,67237
28.59278,62723
28.60090,59547
28.60903,57814
28.61715,64377
28.62528,62242
28.63340,61345
28.64152,68397
28.64965,67772
28.65777,70944
28.66590,70841
28.67402,70831
28.68213,69946
28.69027,68477
28.69838,70774
28.70650,64650
28.71463,63025
28.72275,57823
28.73088,61673
28.73900,59885
28.74712,58576
28.75525,54451
28.76337,63765
28.77150,69781
28.77962,76056
28.78773,81725
28.79587,77601
28.80398,78816
28.81212,73661
28.82023,66234
28.82835,69809
28.83648,67799
28.84460,58203
28.85272,55265
28.86085,58371
28.86897,54673
28.87710,59493
28.88522,61861
28.89333,65875
28.90147,66655
28.90958,67698
28.91772,66187
28.92583,60751
28.93395,57587
28.94208,55683
28.95020,59607
28.95832,58574
28.96645,56929
28.97457,62552
28.98270,58972
28.99082,54734
28.99893,54651
29.00707,54499
29.01518,53229
29.02332,48444
29.03143,52328
29.03955,47835
29.04768,54732
29.05580,50681
29.06393,51623
29.07205,52381
29.08017,52570
29.08830,52923
29.09642,51996
29.10453,56705
29.11267,54760
29.12078,51379
29.12892,54040
29.13703,51938
29.14515,47087
29.15328,48284
29.16140,49540
29.16953,51253
29.17765,53782
29.18577,53963
29.19390,62431
29.20202,65429
29.21013,74065
29.21827,83761
29.22638,88351
29.23452,84926
29.24263,78790
29.25075,80756
29.25888,78687
29.26700,79516
29.27513,79466
29.28325,78025
29.29137,73447
29.29950,70499
29.30762,60625
29.31575,57632
29.32387,53005
29.33198,53014
29.34012,49344
29.34823,52130
29.35635,49221
29.36448,51872
29.37260,49874
29.38073,50577
29.38885,45915
29.39697,47707
29.40510,48384
29.41322,47829
29.42135,52027
29.42947,47287
29.43758,46989
29.44572,49671
29.45383,48963
29.46197,51297
29.47008,47350
29.47820,48531
29.48633,49651
29.49445,54665
29.50257,56584
29.51070,55910
29.51882,57178
29.52695,55444
29.53507,52764
29.54318,54578
29.55132,50125
29.55943,48613
29.56757,49458
29.57568,50874
29.58380,49401
29.59193,45688
29.60005,45220
29.60817,45331
29.61630,48576
29.62442,45780
29.63255,47777
29.64067,46370
29.64878,42611
29.65692,47830
29.66503,44303
29.67317,44235
29.68128,47434
29.68940,50743
29.69753,48009
29.70565,49224
29.71378,50715
29.72190,51395
29.73002,49745
29.73815,49518
29.74627,48462
29.75438,42837
29.76252,48186
29.77063,44774
29.77877,44969
29.78688,46493
29.79500,41505
29.80313,44263
29.81125,44911
29.81938,44152
29.82750,45507
29.83562,43007
29.84375,43953
29.85187,46118
29.86000,43374
29.86812,45266
29.87623,54110
29.88437,53984
29.89248,62149
29.90060,76528
29.90873,75602
29.91685,75171
29.92498,68735
29.93310,68155
29.94122,60674
29.94935,52922
29.95747,51875
29.96560,53434
29.97372,51905
29.98183,56021
29.98997,65204
29.99808,63557
30.00620,71362
30.01433,74316
30.02245,75033
30.03058,80842
30.03870,84295
30.04682,83646
30.05495,91581
30.06307,85960
30.07120,92848
30.07932,86161
30.08743,88768
30.09557,87414
30.10368,81131
30.11182,80278
30.11993,80988
30.12805,76679
30.13618,75486
30.14430,77496
30.15242,71955
30.16055,69577
30.16867,68348
30.17680,67484
30.18492,66659
30.19303,67967
30.20117,66493
30.20928,68422
30.21742,61077
30.22553,59360
30.23365,57922
30.24178,59248
30.24990,55879
30.25802,52200
30.26615,53634
30.27427,49845
30.28240,48057
30.29052,49328
30.29863,52183
30.30677,52973
30.31488,45485
30.32302,49949
30.33113,46180
30.33925,51176
30.34738,52457
30.35550,49377
30.36363,48601
30.37175,49173
30.37987,53176
30.38800,49011
30.39612,48866
30.40423,45371
30.41237,45426
30.42048,43982
30.42862,51572
30.43673,43437
30.44485,42357
30.45298,49960
30.46110,47344
30.46923,45680
30.47735,45356
30.48547,43347
30.49360,42149
30.50172,43336
30.50985,42145
30.51797,46698
30.52608,44130
30.53422,39841
30.54233,47805
30.55045,41682
30.55858,43542
30.56670,40711
30.57483,40412
30.58295,46291
30.59107,47059
30.59920,43352
30.60732,41272
30.61545,49141
30.62357,45959
30.63168,42057
30.63982,41735
30.64793,39674
30.65605,40627
30.66418,44175
30.67230,43697
30.68043,42194
30.68855,44471
30.69667,43800
30.70480,43245
30.71292,43523
30.72105,42016
30.72917,43079
30.73728,40640
30.74542,39070
30.75353,45848
30.76167,41379
30.76978,46413
30.77790,47489
30.78603,48162
30.79415,62492
30.80227,74609
30.81040,80047
30.81852,89378
30.82665,86693
30.83477,78396
30.84288,67743
30.85102,59827
30.85913,55505
30.86727,51710
30.87538,52007
30.88350,45648
30.89163,42102
30.89975,42778
30.90788,41281
30.91600,43762
30.92412,42279
30.93225,42018
30.94037,40413
30.94848,42220
30.95662,44607
30.96473,41681
30.97287,44194
30.98098,45084
30.98910,40687
30.99723,42798
31.00535,37915
31.01348,43481
31.02160,43576
31.02972,50572
31.03785,53024
31.04597,51329
31.05408,60990
31.06222,58125
31.07033,61553
31.07847,65734
31.08658,68833
31.09470,73916
31.10283,80585
31.11095,88404
31.11908,84581
31.12720,86737
31.13532,77106
31.14345,78450
31.15157,69129
31.15970,75884
31.16782,72983
31.17593,72028
31.18407,79344
31.19218,98796
31.20030,121474
31.20843,154019
31.21655,184955
31.22468,215661
31.23280,236768
31.24092,228909
31.24905,198838
31.25717,155324
31.26530,123080
31.27342,96885
31.28153,83729
31.28967,74819
31.29778,69063
31.30592,68473
31.31403,70687
31.32215,67878
31.33028,69121
31.33840,67459
31.34652,71648
31.35465,69211
31.36277,63105
31.37090,67737
31.37902,59965
31.38713,63413
31.39527,72338
31.40338,64589
31.41152,64097
31.41963,61535
31.42775,62374
31.43588,64507
31.44400,61185
31.45212,63612
31.46025,61466
31.46837,59572
31.47650,63896
31.48462,58869
31.49273,59776
31.50087,60305
31.50898,60632
31.51712,56304
31.52523,59447
31.53335,58004
31.54148,58920
31.54960,61259
31.55773,62457
31.56585,57425
31.57397,55391
31.58210,57960
31.59022,59736
31.59833,58340
31.60647,57791
31.61458,50422
31.62272,54855
31.63083,56167
31.63895,49396
31.64708,57701
31.65520,61750
31.66333,57099
31.67145,61566
31.67957,57736
31.68770,54147
31.69582,55897
31.70395,60532
31.71207,58343
31.72018,55299
31.72832,52771
31.73643,56525
31.74455,47563
31.75268,51784
31.76080,47414
31.76893,48767
31.77705,54832
31.78517,49171
31.79330,51581
31.80142,52319
31.80955,50430
31.81767,55182
31.82578,51188
31.83392,53077
31.84203,53437
31.85015,56862
31.85828,56462
31.86640,60829
31.87453,63939
31.88265,62549
31.89077,63550
31.89890,64671
31.90702,61923
31.91515,62936
31.92327,66488
31.93138,70743
31.93952,72221
31.94763,78639
31.95577,75196
31.96388,85500
31.97200,88108
31.98013,91285
31.98825,94743
31.99637,91899
32.00450,94610
32.01262,97571
32.02075,93923
32.02887,88786
32.03698,83936
32.04512,85350
32.05323,80644
32.06137,79626
32.06948,75587
32.07760,81837
32.08573,81064
32.09385,75482
32.10197,74231
32.11010,71102
32.11822,65231
32.12635,68870
32.13447,67271
32.14258,60096
32.15072,62892
32.15883,55330
32.16697,56768
32.17508,56144
32.18320,58820
32.19133,57872
32.19945,54894
32.20758,62221
32.21570,56084
32.22382,60129
32.23195,54601
32.24007,57205
32.24818,56273
32.25632,65430
32.26443,59456
32.27257,55494
32.28068,64765
32.28880,59236
32.29693,62321
32.30505,55898
32.31318,49625
32.32130,58582
32.32942,50793
32.33755,53309
32.34567,52874
32.35380,53437
32.36192,52157
32.37003,53222
32.37817,52531
32.38628,51780
32.39440,52083
32.40253,51039
32.41065,52510
32.41878,51051
32.42690,49215
32.43502,51077
32.44315,53688
32.45127,49781
32.45940,50885
32.46752,49288
32.47563,49607
32.48377,47942
32.49188,49581
32.50000,53075
32.50813,46989
32.51625,49894
32.52438,50054
32.53250,48395
32.54062,48413
32.54875,47939
32.55687,48433
32.56500,50160
32.57312,50128
32.58123,49052
32.58937,48644
32.59748,49723
32.60562,44166
32.61373,47108
32.62185,46962
32.62998,44966
32.63810,54084
32.64622,45936
32.65435,50544
32.66247,54429
32.67060,62850
32.67872,58448
32.68683,63995
32.69497,59154
32.70308,63404
32.71122,57989
32.71933,57413
32.72745,53396
32.73558,55606
32.74370,53342
32.75183,50387
32.75995,46445
32.76807,44826
32.77620,47162
32.78432,47101
32.79243,48688
32.80057,46507
32.80868,45394
32.81682,46975
32.82493,42792
32.83305,49892
32.84118,45388
32.84930,43820
32.85743,41879
32.86555,41987
32.87367,46433
32.88180,47226
32.88992,47022
32.89803,48416
32.90617,49662
32.91428,48605
32.92242,49649
32.93053,48993
32.93865,49694
32.94678,46161
32.95490,48592
32.96303,48531
32.97115,48694
32.97927,53612
32.98740,56282
32.99552,57135
33.00365,65180
33.01177,64613
33.01988,63326
33.02802,65032
33.03613,54406
33.04425,56093
33.05238,55669
33.06050,56407
33.06863,54693
33.07675,57812
33.08487,63512
33.09300,72007
33.10112,70088
33.10925,73570
33.11737,80639
33.12548,75227
33.13362,75931
33.14173,71544
33.14985,65126
33.15798,57836
33.16610,52957
33.17423,53973
33.18235,54771
33.19047,58838
33.19860,53805
33.20672,52619
33.21485,50728
33.22297,52947
33.23108,52500
33.23922,51087
33.24733,55127
33.25547,49549
33.26358,45582
33.27170,47322
33.27983,48025
33.28795,47108
33.29607,48894
33.30420,44323
33.31232,52258
33.32045,49509
33.32857,54225
33.33668,46004
33.34482,47407
33.35293,52625
33.36107,53287
33.36918,54040
33.37730,54487
33.38543,50955
33.39355,49449
33.40168,49257
33.40980,45652
33.41792,47940
33.42605,43840
33.43417,43202
33.44228,47893
33.45042,45832
33.45853,47464
33.46667,43965
33.47478,44536
33.48290,45793
33.49103,44542
33.49915,47391
33.50728,48213
33.51540,50499
33.52352,47302
33.53165,52007
33.53977,51018
33.54788,53228
33.55602,50993
33.56413,63469
33.57227,55253
33.58038,55195
33.58850,56089
33.59663,50540
33.60475,49305
33.61288,50585
33.62100,48600
33.62912,48583
33.63725,50159
33.64537,46217
33.65350,46188
33.66162,48426
33.66973,47628
33.67787,48511
33.68598,49703
33.69410,53050
33.70223,48899
33.71035,46985
33.71848,47468
33.72660,48517
33.73472,45135
33.74285,47291
33.75097,47543
33.75910,46748
33.76722,46110
33.77533,47602
33.78347,44888
33.79158,46697
33.79972,46026
33.80783,48602
33.81595,50340
33.82408,46842
33.83220,50699
33.84032,50204
33.84845,48352
33.85657,51533
33.86470,47453
33.87282,49888
33.88093,49409
33.88907,44645
33.89718,49883
33.90532,49060
33.91343,49374
33.92155,47321
33.92968,49552
33.93780,49882
33.94592,50416
33.95405,49952
33.96217,50111
33.97030,50585
33.97842,45785
33.98653,49346
33.99467,46378
34.00278,45883
34.01092,45544
34.01903,45183
34.02715,45705
34.03528,45180
34.04340,44674
34.05153,46991
34.05965,48874
34.06777,45508
34.07590,48402
34.08402,49567
34.09213,46433
34.10027,49483
34.10838,54275
34.11652,47608
34.12463,50623
34.13275,50705
34.14088,47716
34.14900,49468
34.15713,45935
34.16525,49672
34.17337,51766
34.18150,54249
34.18962,54040
34.19775,51321
34.20587,49474
34.21398,48047
34.22212,52161
34.23023,51576
34.23835,55886
34.24648,55795
34.25460,54996
34.26273,53470
34.27085,54366
34.27897,53612
34.28710,54652
34.29522,57851
34.30335,56205
34.31147,58730
34.31958,55691
34.32772,56401
34.33583,55362
34.34395,53403
34.35208,53455
34.36020,57205
34.36833,54401
34.37645,50315
34.38457,52643
34.39270,56962
34.40082,53812
34.40895,57465
34.41707,52019
34.42518,50917
34.43332,58326
34.44143,52379
34.44957,57811
34.45768,54494
34.46580,51536
34.47393,52641
34.48205,52610
34.49017,55421
34.49830,55095
34.50642,52365
34.51455,55281
34.52267,62050
34.53078,61547
34.53892,74623
34.54703,84393
34.55517,85949
34.56328,88176
34.57140,94708
34.57953,87784
34.58765,87811
34.59577,84828
34.60390,82778
34.61202,82276
34.62015,77949
34.62827,72248
34.63638,70768
34.64452,66511
34.65263,65140
34.66077,61162
34.66888,64735
34.67700,63199
34.68513,61660
34.69325,62422
34.70138,61697
34.70950,63648
34.71762,56287
34.72575,59671
34.73387,55504
34.74198,59212
34.75012,58467
34.75823,59859
34.76637,59717
34.77448,58171
34.78260,55649
34.79073,55836
34.79885,58533
34.80698,57066
34.81510,55215
34.82322,56943
34.83135,57382
34.83947,54775
34.84760,53121
34.85572,55484
34.86383,58956
34.87197,54744
34.88008,54425
34.88820,53803
34.89633,55359
34.90445,57474
34.91258,52544
34.92070,62349
34.92882,55287
34.93695,58595
34.94507,61672
34.95320,60167
34.96132,61289
34.96943,61806
34.97757,62550
34.98568,66208
34.99380,64203
35.00193,62747
35.01005,60261
35.01818,61549
35.02630,60405
35.03442,58522
35.04255,61842
35.05067,59552
35.05880,60435
35.06692,56076
35.07503,57433
35.08317,58540
35.09128,60452
35.09942,57018
35.10753,57995
35.11565,55228
35.12378,56429
35.13190,56434
35.14002,60663
35.14815,54033
35.15627,56885
35.16440,60946
35.17252,59027
35.18063,62124
35.18877,56557
35.19688,54564
35.20502,56375
35.21313,56401
35.22125,52098
35.22938,57046
35.23750,52841
35.24563,55502
35.25375,54955
35.26187,59374
35.27000,56664
35.27812,59950
35.28623,57232
35.29437,57389
35.30248,56055
35.31062,57026
35.31873,54949
35.32685,50226
35.33498,54271
35.34310,54572
35.35123,54002
35.35935,54260
35.36747,55046
35.37560,49597
35.38372,51368
35.39183,56521
35.39997,52056
35.40808,53941
35.41622,58172
35.42433,58372
35.43245,58515
35.44058,56609
35.44870,58557
35.45683,59600
35.46495,57657
35.47307,58600
35.48120,58909
35.48932,57828
35.49745,60526
35.50557,56346
35.51368,58874
35.52182,54827
35.52993,55384
35.53805,52842
35.54618,55816
35.55430,52143
35.56243,56801
35.57055,59218
35.57867,56316
35.58680,51452
35.59492,50297
35.60305,53924
35.61117,56720
35.61928,49683
35.62742,48537
35.63553,51914
35.64365,54548
35.65178,55049
35.65990,51307
35.66803,56322
35.67615,57480
35.68427,58231
35.69240,62233
35.70052,53427
35.70865,62825
35.71677,59804
35.72488,60161
35.73302,61467
35.74113,60402
35.74927,62757
35.75738,61912
35.76550,68581
35.77363,65696
35.78175,71630
35.78987,66868
35.79800,66205
35.80612,61763
35.81425,58946
35.82237,61983
35.83048,55881
35.83862,58490
35.84673,52774
35.85487,56495
35.86298,56943
35.87110,58330
35.87923,57755
35.88735,55803
35.89548,52246
35.90360,55454
35.91172,55781
35.91985,59276
35.92797,55537
35.93608,52738
35.94422,54206
35.95233,54547
35.96047,54823
35.96858,54085
35.97670,53007
35.98483,55970
35.99295,59516
36.00108,56434
36.00920,54787
36.01732,57149
36.02545,58443
36.03357,59625
36.04170,61592
36.04982,60220
36.05793,63330
36.06607,56723
36.07418,58797
36.08230,57921
36.09043,59589
36.09855,57989
36.10668,59827
36.11480,54786
36.12292,57546
36.13105,58772
36.13917,60679
36.14730,63253
36.15542,62115
36.16353,60965
36.17167,65307
36.17978,59686
36.18790,56749
36.19603,65042
36.20415,59699
36.21228,55867
36.22040,55169
36.22852,58359
36.23665,57336
36.24477,55228
36.25290,58497
36.26102,57704
36.26913,58554
36.27727,56779
36.28538,60677
36.29352,63708
36.30163,64998
36.30975,68436
36.31788,69717
36.32600,67620
36.33412,70160
36.34225,69155
36.35037,66761
36.35850,67333
36.36662,66721
36.37473,60660
36.38287,61118
36.39098,60901
36.39912,65145
36.40723,62588
36.41535,64851
36.42348,64644
36.43160,60393
36.43972,59413
36.44785,58853
36.45597,55015
36.46410,58370
36.47222,58233
36.48033,60868
36.48847,58646
36.49658,57842
36.50472,58941
36.51283,56253
36.52095,60849
36.52908,54649
36.53720,55841
36.54533,60539
36.55345,60579
36.56157,61732
36.56970,54388
36.57782,53384
36.58593,58668
36.59407,57330
36.60218,61304
36.61032,59011
36.61843,59384
36.62655,58836
36.63468,63577
36.64280,64792
36.65093,64709
36.65905,63659
36.66717,63920
36.67530,64686
36.68342,66756
36.69155,69832
36.69967,61388
36.70778,70465
36.71592,67525
36.72403,65763
36.73215,66227
36.74028,68372
36.74840,64609
36.75653,64574
36.76465,63803
36.77277,61319
36.78090,63593
36.78902,62417
36.79715,63131
36.80527,60181
36.81338,63619
36.82152,66623
36.82963,67841
36.83775,64378
36.84588,60686
36.85400,61499
36.86213,62912
36.87025,61135
36.87837,60078
36.88650,59553
36.89462,60087
36.90275,63972
36.91087,63778
36.91898,67643
36.92712,63331
36.93523,63161
36.94337,67439
36.95148,64030
36.95960,72370
36.96773,74428
36.97585,71738
36.98397,69722
36.99210,70024
37.00022,69679
37.00835,72457
37.01647,65643
37.02458,64613
37.03272,60076
37.04083,65452
37.04897,65774
37.05708,64629
37.06520,64480
37.07333,67846
37.08145,67640
37.08958,66510
37.09770,65360
37.10582,68288
37.11395,65541
37.12207,67447
37.13018,64922
37.13832,61450
37.14643,64618
37.15457,69257
37.16268,66136
37.17080,67735
37.17893,68564
37.18705,67325
37.19518,67853
37.20330,68090
37.21142,70394
37.21955,65941
37.22767,61976
37.23578,68070
37.24392,61666
37.25203,62246
37.26017,62546
37.26828,61791
37.27640,64961
37.28453,67713
37.29265,58935
37.30078,64006
37.30890,64036
37.31702,68262
37.32515,68273
37.33327,73156
37.34140,80339
37.34952,82436
37.35763,87201
37.36577,92039
37.37388,91710
37.38200,95255
37.39013,89777
37.39825,90516
37.40638,84468
37.41450,85440
37.42262,88196
37.43075,82504
37.43887,82510
37.44700,79198
37.45512,80950
37.46323,76206
37.47137,73271
37.47948,75590
37.48760,77768
