Z:\data\JTB-E02\BACandBLUE\JTB-E02-199-13.D Wed Feb 27 14:18:15 2019
Start of data points
2.09537,90786
2.10348,89526
2.11162,83258
2.11973,81834
2.12785,94580
2.13598,82795
2.14410,81177
2.15223,79899
2.16035,82512
2.16847,75755
2.17660,78573
2.18472,78137
2.19283,74582
2.20097,72715
2.20908,73690
2.21722,69022
2.22533,70025
2.23345,64061
2.24158,64459
2.24970,69083
2.25783,69530
2.26595,158890
2.27407,1014988
2.28220,2514332
2.29032,2822264
2.29843,1526363
2.30657,844872
2.31468,638479
2.32282,530486
2.33093,451699
2.33905,408950
2.34718,366951
2.35530,337331
2.36343,300007
2.37155,286536
2.37967,260841
2.38780,248538
2.39592,238531
2.40405,233746
2.41217,226455
2.42028,225416
2.42842,226790
2.43653,216216
2.44465,203344
2.45278,191678
2.46090,191392
2.46903,185309
2.47715,183292
2.48527,178107
2.49340,172893
2.50152,171139
2.50965,165563
2.51777,167008
2.52588,162988
2.53402,167766
2.54213,147210
2.55027,162154
2.55838,195082
2.56650,388302
2.57463,604138
2.58275,513954
2.59087,401074
2.59900,353657
2.60712,378597
2.61525,687770
2.62337,1008590
2.63148,829735
2.63962,574600
2.64773,426423
2.65587,351877
2.66398,304075
2.67210,274942
2.68023,260064
2.68835,238940
2.69647,219759
2.70460,213724
2.71272,202384
2.72085,190603
2.72897,194402
2.73708,188125
2.74522,183005
2.75333,177388
2.76147,176319
2.76958,173371
2.77770,271148
2.78583,1035146
2.79395,2725029
2.80208,3317174
2.81020,2281085
2.81832,1491692
2.82645,1161059
2.83457,947335
2.84268,794586
2.85082,682015
2.85893,583182
2.86707,522929
2.87518,480830
2.88330,440165
2.89143,404639
2.89955,372828
2.90768,358116
2.91580,313969
2.92392,289511
2.93205,272254
2.94017,257971
2.94830,247535
2.95642,234693
2.96453,229501
2.97267,243512
2.98078,254352
2.98890,239127
2.99703,226961
3.00515,240550
3.01328,322232
3.02140,393464
3.02952,347877
3.03765,262436
3.04577,236257
3.05390,211617
3.06202,214461
3.07013,211516
3.07827,207641
3.08638,300686
3.09450,832721
3.10263,2008700
3.11075,3364566
3.11888,4633651
3.12700,5035253
3.13512,3962347
3.14325,2882065
3.15137,2169679
3.15950,1731204
3.16762,1441664
3.17573,1221645
3.18387,1128826
3.19198,1115303
3.20012,1489708
3.20823,2011439
3.21635,1962833
3.22448,1542698
3.23260,1260469
3.24072,1085714
3.24885,945790
3.25697,831890
3.26510,728354
3.27322,657364
3.28133,600439
3.28947,579073
3.29758,748250
3.30572,1700475
3.31383,4344456
3.32195,7728855
3.33008,8837249
3.33820,7363140
3.34633,5256799
3.35445,3803809
3.36257,2908111
3.37070,2351819
3.37882,2025959
3.38693,1737907
3.39507,1572824
3.40318,1428393
3.41132,1339537
3.41943,1221804
3.42755,1153533
3.43568,1061877
3.44380,995526
3.45193,924129
3.46005,860855
3.46817,799084
3.47630,762052
3.48442,773681
3.49253,775607
3.50067,745681
3.50878,739454
3.51692,722095
3.52503,681536
3.53315,652684
3.54128,638972
3.54940,624853
3.55753,578874
3.56565,540824
3.57377,519075
3.58190,560689
3.59002,645876
3.59815,652884
3.60627,597313
3.61438,527905
3.62252,477819
3.63063,473048
3.63875,472256
3.64688,476880
3.65500,464827
3.66313,465942
3.67125,714888
3.67937,2514692
3.68750,8048788
3.69562,1.431155E+07
3.70375,1.524922E+07
3.71187,1.187999E+07
3.71998,8666985
3.72812,6884819
3.73623,5804513
3.74435,5015279
3.75248,4377289
3.76060,3909707
3.76873,3584727
3.77685,3242747
3.78497,2991499
3.79310,2787725
3.80122,2703112
3.80935,2643576
3.81747,2887463
3.82558,3674290
3.83372,4469006
3.84183,4418188
3.84997,3712586
3.85808,3095550
3.86620,2724644
3.87433,2481051
3.88245,2291138
3.89057,2099518
3.89870,1950577
3.90682,1875599
3.91495,1753930
3.92307,1648732
3.93118,1652329
3.93932,1675903
3.94743,1687291
3.95557,1686463
3.96368,1935071
3.97180,3036577
3.97993,4587125
3.98805,5118319
3.99618,4326185
4.00430,3598460
4.01242,5129505
4.02055,1.104248E+07
4.02867,1.889826E+07
4.03678,2.166672E+07
4.04492,1.749036E+07
4.05303,1.13527E+07
4.06117,7235004
4.06928,5229676
4.07740,4052955
4.08553,3333256
4.09365,2816475
4.10178,2456456
4.10990,2178234
4.11802,1955240
4.12615,1756988
4.13427,1607082
4.14238,1506056
4.15052,1425481
4.15863,1412909
4.16677,1404008
4.17488,1385306
4.18300,1326475
4.19113,1259602
4.19925,1187888
4.20738,1105294
4.21550,1061796
4.22362,1301263
4.23175,2817951
4.23987,6637461
4.24800,1.194576E+07
4.25612,1.501158E+07
4.26423,1.388944E+07
4.27237,9771142
4.28048,6337840
4.28860,4476294
4.29673,3365761
4.30485,2702930
4.31298,2233463
4.32110,1898643
4.32922,1665146
4.33735,1484144
4.34547,1387638
4.35360,1279094
4.36172,1205578
4.36983,1194906
4.37797,1236416
4.38608,1249187
4.39422,1185248
4.40233,1037480
4.41045,923541
4.41858,836618
4.42670,777593
4.43482,723945
4.44295,710111
4.45107,678210
4.45920,629452
4.46732,611488
4.47543,574286
4.48357,555210
4.49168,539955
4.49982,517603
4.50793,516073
4.51605,499414
4.52418,492685
4.53230,486213
4.54042,499510
4.54855,492102
4.55667,492620
4.56480,514354
4.57292,515901
4.58103,492544
4.58917,485836
4.59728,451445
4.60542,439626
4.61353,440105
4.62165,432175
4.62978,421352
4.63790,485579
4.64603,653444
4.65415,877810
4.66227,1055688
4.67040,999923
4.67852,834923
4.68663,724612
4.69477,640819
4.70288,601746
4.71102,560799
4.71913,498084
4.72725,463157
4.73538,424445
4.74350,411478
4.75163,405120
4.75975,374299
4.76787,382430
4.77600,365508
4.78412,357723
4.79223,351278
4.80037,354311
4.80848,377202
4.81662,433892
4.82473,503544
4.83285,525368
4.84098,495493
4.84910,468712
4.85723,453079
4.86535,472211
4.87347,472367
4.88160,440295
4.88972,432652
4.89785,411893
4.90597,386562
4.91408,361766
4.92222,361974
4.93033,338096
4.93845,322815
4.94658,336259
4.95470,365385
4.96283,504300
4.97095,840097
4.97907,1377930
4.98720,1879262
4.99532,2041943
5.00345,1869755
5.01157,1545894
5.01968,1278747
5.02782,1077570
5.03593,943597
5.04407,876401
5.05218,902662
5.06030,940203
5.06843,920410
5.07655,858937
5.08467,806946
5.09280,713134
5.10092,684959
5.10905,642154
5.11717,594766
5.12528,565908
5.13342,521499
5.14153,502018
5.14967,477485
5.15778,470478
5.16590,488797
5.17403,556378
5.18215,635832
5.19027,688097
5.19840,683498
5.20652,651918
5.21465,666710
5.22277,697452
5.23088,729838
5.23902,709956
5.24713,638770
5.25527,576658
5.26338,524656
5.27150,477990
5.27963,427219
5.28775,383057
5.29588,381311
5.30400,351261
5.31212,346064
5.32025,339714
5.32837,338477
5.33648,335829
5.34462,362769
5.35273,394445
5.36087,429210
5.36898,427980
5.37710,397213
5.38523,375457
5.39335,363964
5.40148,369227
5.40960,410631
5.41772,429955
5.42585,447314
5.43397,416608
5.44210,373444
5.45022,335149
5.45833,338973
5.46647,354456
5.47458,395928
5.48270,410542
5.49083,393473
5.49895,347247
5.50708,320252
5.51520,293327
5.52332,292012
5.53145,301200
5.53957,288613
5.54770,291896
5.55582,285428
5.56393,295152
5.57207,370602
5.58018,585777
5.58830,848118
5.59643,1063494
5.60455,1071746
5.61268,866173
5.62080,668506
5.62892,502607
5.63705,415390
5.64517,383002
5.65330,344746
5.66142,334547
5.66953,310821
5.67767,296751
5.68578,292125
5.69392,300970
5.70203,326489
5.71015,388815
5.71828,431085
5.72640,425491
5.73452,408819
5.74265,344869
5.75077,322347
5.75890,285461
5.76702,275939
5.77513,259628
5.78327,251827
5.79138,247040
5.79952,233025
5.80763,229215
5.81575,235567
5.82388,224081
5.83200,227794
5.84012,226371
5.84825,231549
5.85637,234713
5.86450,227022
5.87262,225229
5.88073,215933
5.88887,217199
5.89698,210039
5.90512,211778
5.91323,219994
5.92135,196092
5.92948,206734
5.93760,225036
5.94573,229425
5.95385,227688
5.96197,207456
5.97010,224962
5.97822,284589
5.98633,466417
5.99447,816578
6.00258,1191460
6.01072,1376557
6.01883,1246887
6.02695,989269
6.03508,741341
6.04320,574537
6.05133,492670
6.05945,430269
6.06757,391524
6.07570,355379
6.08382,333598
6.09195,324731
6.10007,312674
6.10818,293191
6.11632,290182
6.12443,265803
6.13255,275864
6.14068,274018
6.14880,311443
6.15693,409515
6.16505,515172
6.17317,584123
6.18130,563667
6.18942,476218
6.19755,404962
6.20567,378736
6.21378,342956
6.22192,315522
6.23003,310338
6.23817,300091
6.24628,296574
6.25440,289422
6.26253,306017
6.27065,345988
6.27877,385226
6.28690,412408
6.29502,390110
6.30315,351093
6.31127,312871
6.31938,295627
6.32752,294944
6.33563,273097
6.34377,282410
6.35188,274330
6.36000,281244
6.36813,284834
6.37625,272705
6.38437,258989
6.39250,268927
6.40062,275094
6.40875,268052
6.41687,262981
6.42498,261954
6.43312,256584
6.44123,252286
6.44937,251903
6.45748,257219
6.46560,252283
6.47373,266270
6.48185,272132
6.48998,277730
6.49810,270631
6.50622,268088
6.51435,274001
6.52247,272346
6.53058,260174
6.53872,261230
6.54683,268194
6.55497,265137
6.56308,267576
6.57120,272010
6.57933,338980
6.58745,513471
6.59558,799511
6.60370,1101684
6.61182,1115205
6.61995,907322
6.62807,634110
6.63618,459001
6.64432,379958
6.65243,319886
6.66057,339711
6.66868,559957
6.67680,1358569
6.68493,2891249
6.69305,4565838
6.70118,5245862
6.70930,4518169
6.71742,3176389
6.72555,2062286
6.73367,1388950
6.74180,1046308
6.74992,843770
6.75803,722049
6.76617,641521
6.77428,569710
6.78240,530186
6.79053,470177
6.79865,432091
6.80678,386156
6.81490,348733
6.82302,325584
6.83115,288919
6.83927,277386
6.84740,263853
6.85552,247691
6.86363,256556
6.87177,259151
6.87988,277267
6.88802,300866
6.89613,305847
6.90425,305996
6.91238,261974
6.92050,220225
6.92862,187779
6.93675,179916
6.94487,165530
6.95300,179790
6.96112,206926
6.96923,228705
6.97737,235946
6.98548,250419
6.99362,279609
7.00173,316199
7.00985,309950
7.01798,301006
7.02610,260820
7.03422,223869
7.04235,205958
7.05047,202345
7.05860,187002
7.06672,184865
7.07483,185392
7.08297,213041
7.09108,259492
7.09922,328341
7.10733,375325
7.11545,394215
7.12358,361447
7.13170,313542
7.13983,261541
7.14795,228630
7.15607,205503
7.16420,212265
7.17232,241270
7.18043,283402
7.18857,317535
7.19668,394782
7.20482,645847
7.21293,1188049
7.22105,1909509
7.22918,2321008
7.23730,2173789
7.24543,1528470
7.25355,876536
7.26167,448439
7.26980,257965
7.27792,187051
7.28605,166282
7.29417,161362
7.30228,158653
7.31042,162295
7.31853,162005
7.32665,162815
7.33478,157404
7.34290,156336
7.35103,163676
7.35915,162388
7.36727,184558
7.37540,198001
7.38352,207211
7.39165,190382
7.39977,186255
7.40788,166568
7.41602,154696
7.42413,156212
7.43225,151845
7.44038,138892
7.44850,141722
7.45663,131927
7.46475,138538
7.47287,132825
7.48100,133787
7.48912,127236
7.49725,131824
7.50537,129200
7.51348,122722
7.52162,129159
7.52973,122666
7.53787,124648
7.54598,139413
7.55410,216523
7.56223,423500
7.57035,908417
7.57847,1784619
7.58660,3102147
7.59472,4573649
7.60285,5495244
7.61097,5611795
7.61908,4849333
7.62722,3602786
7.63533,2403166
7.64347,1522177
7.65158,997671
7.65970,725296
7.66783,526806
7.67595,413906
7.68407,330612
7.69220,280432
7.70032,210764
7.70845,186825
7.71657,162819
7.72468,166782
7.73282,207943
7.74093,257017
7.74907,326232
7.75718,364111
7.76530,369431
7.77343,360685
7.78155,326039
7.78968,290138
7.79780,263062
7.80592,228974
7.81405,233667
7.82217,225476
7.83028,234919
7.83842,247958
7.84653,224536
7.85467,211898
7.86278,196743
7.87090,175749
7.87903,177558
7.88715,184745
7.89528,197985
7.90340,233889
7.91152,272935
7.91965,307857
7.92777,309263
7.93590,304090
7.94402,278006
7.95213,316342
7.96027,403226
7.96838,479581
7.97650,494822
7.98463,418710
7.99275,327212
8.00088,250749
8.00900,196882
8.01712,172824
8.02525,161508
8.03337,140268
8.04150,136511
8.04962,127689
8.05773,126850
8.06587,115616
8.07398,116533
8.08210,110245
8.09023,114427
8.09835,112851
8.10648,114851
8.11460,111483
8.12272,113859
8.13085,107842
8.13897,112370
8.14710,102705
8.15522,114194
8.16333,124265
8.17147,134673
8.17958,153979
8.18772,153127
8.19583,137135
8.20395,129362
8.21208,125721
8.22020,117692
8.22832,112638
8.23645,105649
8.24457,100654
8.25270,102233
8.26082,100280
8.26893,92751
8.27707,91300
8.28518,95363
8.29332,94848
8.30143,96103
8.30955,88445
8.31768,88585
8.32580,98760
8.33393,96456
8.34205,110973
8.35017,120324
8.35830,127330
8.36642,136632
8.37453,127215
8.38267,113614
8.39078,108209
8.39892,104620
8.40703,102965
8.41515,106787
8.42328,101971
8.43140,90482
8.43953,91910
8.44765,85144
8.45577,83177
8.46390,84762
8.47202,84689
8.48013,87550
8.48827,92075
8.49638,93808
8.50452,89079
8.51263,97609
8.52075,94870
8.52888,109486
8.53700,161545
8.54513,261942
8.55325,365702
8.56137,408882
8.56950,386179
8.57762,288796
8.58575,209077
8.59387,157065
8.60198,139040
8.61012,130322
8.61823,127133
8.62635,131147
8.63448,127245
8.64260,133675
8.65073,141752
8.65885,137658
8.66697,125817
8.67510,117030
8.68322,105673
8.69135,109523
8.69947,104712
8.70758,96445
8.71572,95322
8.72383,93273
8.73197,103470
8.74008,95519
8.74820,95175
8.75633,96559
8.76445,87345
8.77257,91962
8.78070,89422
8.78882,112934
8.79695,158056
8.80507,246532
8.81318,360232
8.82132,449972
8.82943,478763
8.83757,436982
8.84568,363326
8.85380,298916
8.86193,263514
8.87005,254229
8.87817,223552
8.88630,210928
8.89442,194242
8.90255,177590
8.91067,177909
8.91878,175701
8.92692,164999
8.93503,154243
8.94317,164172
8.95128,171971
8.95940,189083
8.96753,188090
8.97565,173058
8.98378,158136
8.99190,164190
9.00002,171945
9.00815,175346
9.01627,186331
9.02438,184429
9.03252,166466
9.04063,157026
9.04877,146616
9.05688,138675
9.06500,132477
9.07313,125314
9.08125,126102
9.08938,120994
9.09750,119334
9.10562,123723
9.11375,129280
9.12187,143389
9.12998,176777
9.13812,212287
9.14623,243128
9.15437,241428
9.16248,216960
9.17060,192644
9.17873,156945
9.18685,137553
9.19498,135235
9.20310,128428
9.21122,134024
9.21935,130233
9.22747,123075
9.23560,121359
9.24372,121889
9.25183,115550
9.25997,115524
9.26808,121476
9.27620,119342
9.28433,132925
9.29245,125758
9.30058,122443
9.30870,124740
9.31682,114584
9.32495,117732
9.33307,108038
9.34120,106139
9.34932,104600
9.35743,104178
9.36557,101003
9.37368,107979
9.38182,104305
9.38993,99533
9.39805,98239
9.40618,101067
9.41430,108999
9.42242,127085
9.43055,172275
9.43867,211045
9.44680,258519
9.45492,301801
9.46303,332241
9.47117,363196
9.47928,356750
9.48742,313690
9.49553,255619
9.50365,194509
9.51178,158916
9.51990,143689
9.52802,151940
9.53615,162635
9.54427,190490
9.55240,211051
9.56052,220791
9.56863,219867
9.57677,190541
9.58488,166262
9.59302,138647
9.60113,119180
9.60925,122424
9.61738,123541
9.62550,125556
9.63363,110411
9.64175,108467
9.64987,102044
9.65800,93293
9.66612,91337
9.67423,89566
9.68237,89532
9.69048,89810
9.69862,88191
9.70673,86282
9.71485,82920
9.72298,77524
9.73110,77226
9.73923,75463
9.74735,76277
9.75547,74332
9.76360,77071
9.77172,74578
9.77985,81964
9.78797,67356
9.79608,69142
9.80422,69734
9.81233,68687
9.82045,72355
9.82858,70442
9.83670,67346
9.84483,68931
9.85295,78814
9.86107,72068
9.86920,77232
9.87732,78559
9.88545,76134
9.89357,76690
9.90168,72399
9.90982,70231
9.91793,66348
9.92605,73758
9.93418,72865
9.94230,75149
9.95043,80612
9.95855,94331
9.96667,133237
9.97480,216918
9.98292,303581
9.99105,394731
9.99917,450423
10.00728,410642
10.01542,333648
10.02353,247927
10.03167,171229
10.03978,138384
10.04790,129291
10.05603,126565
10.06415,129035
10.07227,134035
10.08040,134805
10.08852,129136
10.09665,124262
10.10477,122452
10.11288,112900
10.12102,118019
10.12913,111339
10.13727,115084
10.14538,97038
10.15350,97247
10.16163,89439
10.16975,89178
10.17787,86036
10.18600,83842
10.19412,83177
10.20225,79724
10.21037,79668
10.21848,82723
10.22662,75522
10.23473,79032
10.24287,82825
10.25098,80541
10.25910,87066
10.26723,104566
10.27535,146159
10.28348,280503
10.29160,601698
10.29972,1168075
10.30785,2042080
10.31597,3051266
10.32408,4356944
10.33222,6348706
10.34033,9050916
10.34847,1.135815E+07
10.35658,1.182357E+07
10.36470,1.01601E+07
10.37283,7277453
10.38095,5382726
10.38908,4817457
10.39720,4964429
10.40532,4958244
10.41345,4301066
10.42157,3311732
10.42970,2239708
10.43782,1533799
10.44593,1172977
10.45407,1020133
10.46218,966210
10.47030,884547
10.47843,801455
10.48655,688900
10.49468,572720
10.50280,497961
10.51092,428809
10.51905,403785
10.52717,360582
10.53530,345231
10.54342,321075
10.55153,290014
10.55967,288779
10.56778,272778
10.57592,269619
10.58403,250098
10.59215,237136
10.60028,232906
10.60840,220813
10.61652,212732
10.62465,207998
10.63277,202011
10.64090,189269
10.64902,181020
10.65713,187856
10.66527,176285
10.67338,163660
10.68152,162870
10.68963,162984
10.69775,155315
10.70588,159716
10.71400,171669
10.72212,178448
10.73025,186270
10.73837,188800
10.74650,177279
10.75462,166926
10.76273,158418
10.77087,144987
10.77898,141547
10.78712,142178
10.79523,148217
10.80335,143280
10.81148,142953
10.81960,147978
10.82773,152564
10.83585,170502
10.84397,172664
10.85210,160324
10.86022,142779
10.86833,130691
10.87647,120146
10.88458,113180
10.89272,105423
10.90083,108196
10.90895,107195
10.91708,107631
10.92520,101089
10.93333,97609
10.94145,102926
10.94957,96404
10.95770,96756
10.96582,96515
10.97393,94893
10.98207,94750
10.99018,98620
10.99832,98506
11.00643,96780
11.01455,103724
11.02268,116147
11.03080,124919
11.03893,136264
11.04705,133635
11.05517,124950
11.06330,115020
11.07142,105568
11.07955,100855
11.08767,103323
11.09578,118357
11.10392,136253
11.11203,142708
11.12015,150930
11.12828,149011
11.13640,146590
11.14453,135783
11.15265,115691
11.16077,112809
11.16890,109995
11.17702,101948
11.18515,103238
11.19327,101610
11.20138,105798
11.20952,108535
11.21763,95364
11.22575,92111
11.23388,95970
11.24200,93959
11.25013,80616
11.25825,76086
11.26637,75682
11.27450,70220
11.28262,70458
11.29075,75384
11.29887,71249
11.30698,67785
11.31512,81384
11.32323,124337
11.33137,242375
11.33948,520860
11.34760,1108299
11.35573,1987209
11.36385,2948884
11.37197,3540103
11.38010,3615657
11.38822,3063108
11.39635,2314315
11.40447,1712324
11.41258,1308260
11.42072,1026421
11.42883,845512
11.43697,682661
11.44508,553188
11.45320,461274
11.46133,384405
11.46945,334479
11.47758,305348
11.48570,272763
11.49382,264715
11.50195,268965
11.51007,289940
11.51818,313235
11.52632,322902
11.53443,326433
11.54257,327451
11.55068,279265
11.55880,265497
11.56693,237256
11.57505,227751
11.58318,210438
11.59130,207737
11.59942,213526
11.60755,205994
11.61567,209011
11.62380,221494
11.63192,222161
11.64003,228361
11.64817,223061
11.65628,208286
11.66440,178899
11.67253,152213
11.68065,140590
11.68878,128758
11.69690,130848
11.70502,132568
11.71315,135919
11.72127,145230
11.72940,152431
11.73752,156157
11.74563,152008
11.75377,140675
11.76188,133401
11.77000,118398
11.77813,112262
11.78625,104972
11.79438,99804
11.80250,100422
11.81062,99989
11.81875,86930
11.82687,93101
11.83500,89367
11.84312,90486
11.85123,92200
11.85937,101924
11.86748,122678
11.87562,121597
11.88373,127257
11.89185,119806
11.89998,106381
11.90810,99578
11.91622,86750
11.92435,83427
11.93247,85567
11.94060,82657
11.94872,82799
11.95683,86490
11.96497,81610
11.97308,77050
11.98122,77502
11.98933,77865
11.99745,73215
12.00558,78101
12.01370,87503
12.02182,99884
12.02995,99067
12.03807,101738
12.04620,99862
12.05432,89886
12.06243,84369
12.07057,75507
12.07868,74550
12.08682,81314
12.09493,87308
12.10305,91505
12.11118,112325
12.11930,144812
12.12743,245596
12.13555,493468
12.14367,883869
12.15180,1429738
12.15992,1900060
12.16803,2132766
12.17617,1956482
12.18428,1519882
12.19242,1083044
12.20053,779025
12.20865,593160
12.21678,516738
12.22490,433234
12.23303,360585
12.24115,299772
12.24927,261581
12.25740,230135
12.26552,225089
12.27365,203946
12.28177,186028
12.28988,185450
12.29802,175376
12.30613,172356
12.31425,157648
12.32238,144944
12.33050,134982
12.33863,131206
12.34675,123939
12.35487,122436
12.36300,112565
12.37112,120849
12.37925,113364
12.38737,117787
12.39548,118555
12.40362,117730
12.41173,123535
12.41985,154302
12.42798,195853
12.43610,254147
12.44423,304348
12.45235,304165
12.46047,275298
12.46860,232707
12.47672,199785
12.48485,175747
12.49297,159166
12.50108,148783
12.50922,138090
12.51733,133935
12.52547,124571
12.53358,121082
12.54170,121269
12.54983,122944
12.55795,131722
12.56607,145037
12.57420,155483
12.58232,159940
12.59045,155020
12.59857,146229
12.60668,133385
12.61482,121973
12.62293,113913
12.63107,119470
12.63918,110426
12.64730,109704
12.65543,101214
12.66355,98642
12.67168,94823
12.67980,97312
12.68792,86934
12.69605,89614
12.70417,84061
12.71228,82330
12.72042,82465
12.72853,86191
12.73667,88099
12.74478,88515
12.75290,97558
12.76103,97709
12.76915,98435
12.77728,94594
12.78540,91218
12.79352,85053
12.80165,76941
12.80977,76130
12.81788,81302
12.82602,72758
12.83413,73678
12.84227,65731
12.85038,60662
12.85850,58997
12.86663,55810
12.87475,56609
12.88288,58000
12.89100,55820
12.89912,56331
12.90725,53888
12.91537,58746
12.92350,63093
12.93162,58954
12.93973,59240
12.94787,54666
12.95598,56463
12.96410,59676
12.97223,57557
12.98035,62398
12.98848,63627
12.99660,61999
13.00472,67277
13.01285,63733
13.02097,63750
13.02910,60608
13.03722,59894
13.04533,57481
13.05347,60969
13.06158,59356
13.06970,57762
13.07783,58409
13.08595,56371
13.09408,54965
13.10220,63148
13.11032,60005
13.11845,53175
13.12657,55882
13.13470,59027
13.14282,60439
13.15093,52943
13.15907,50467
13.16718,57793
13.17532,54379
13.18343,57731
13.19155,58202
13.19968,62993
13.20780,64771
13.21592,62851
13.22405,60950
13.23217,66019
13.24030,74070
13.24842,71149
13.25653,66291
13.26467,67311
13.27278,62055
13.28092,66633
13.28903,57212
13.29715,61810
13.30528,52620
13.31340,54195
13.32153,54447
13.32965,55365
13.33777,56918
13.34590,50347
13.35402,52479
13.36213,54489
13.37027,52313
13.37838,53959
13.38652,54246
13.39463,51235
13.40275,49242
13.41088,48900
13.41900,52939
13.42713,51312
13.43525,53359
13.44337,51242
13.45150,48662
13.45962,49766
13.46773,51188
13.47587,55893
13.48398,61884
13.49212,60375
13.50023,61699
13.50835,59469
13.51648,58673
13.52460,58025
13.53273,56328
13.54085,59646
13.54897,58083
13.55710,56195
13.56522,48889
13.57335,58249
13.58147,60608
13.58958,65547
13.59772,67151
13.60583,73884
13.61395,88252
13.62208,83408
13.63020,79812
13.63833,78882
13.64645,82503
13.65457,72589
13.66270,70842
13.67082,70758
13.67895,61839
13.68707,52650
13.69518,54126
13.70332,50404
13.71143,46421
13.71957,55592
13.72768,52304
13.73580,56109
13.74393,57427
13.75205,61346
13.76017,66287
13.76830,72311
13.77642,92543
13.78455,113658
13.79267,151355
13.80078,182433
13.80892,218572
13.81703,218746
13.82517,246117
13.83328,275166
13.84140,339491
13.84953,411026
13.85765,496310
13.86577,518528
13.87390,509809
13.88202,451724
13.89015,363254
13.89827,276224
13.90638,209893
13.91452,172799
13.92263,134539
13.93077,117538
13.93888,105802
13.94700,97851
13.95513,90718
13.96325,88852
13.97138,88089
13.97950,104121
13.98762,130205
13.99575,163889
14.00387,168695
14.01198,160290
14.02012,152012
14.02823,125153
14.03637,102251
14.04448,97504
14.05260,81736
14.06073,87991
14.06885,80419
14.07698,80810
14.08510,80411
14.09322,79216
14.10135,74870
14.10947,74545
14.11760,72874
14.12572,70711
14.13383,68898
14.14197,65121
14.15008,66609
14.15820,70692
14.16633,78364
14.17445,88236
14.18258,96202
14.19070,111118
14.19882,114972
14.20695,122858
14.21507,130717
14.22320,158785
14.23132,180737
14.23943,200832
14.24757,203223
14.25568,192700
14.26380,185062
14.27193,181996
14.28005,180231
14.28818,164040
14.29630,155123
14.30442,133136
14.31255,121546
14.32067,110483
14.32880,96345
14.33692,94726
14.34503,89188
14.35317,83237
14.36128,79396
14.36942,78860
14.37753,75408
14.38565,70536
14.39378,70485
14.40190,65824
14.41002,68077
14.41815,73777
14.42627,75902
14.43440,83694
14.44252,87011
14.45063,90258
14.45877,78233
14.46688,79274
14.47502,76954
14.48313,76849
14.49125,76943
14.49938,82072
14.50750,87465
14.51562,89840
14.52375,85435
14.53187,86282
14.54000,79245
14.54812,78536
14.55623,74051
14.56437,73949
14.57248,69701
14.58062,66488
14.58873,63505
14.59685,63727
14.60498,57839
14.61310,58302
14.62123,55213
14.62935,49069
14.63747,54166
14.64560,54234
14.65372,53330
14.66183,52550
14.66997,49293
14.67808,50994
14.68622,52162
14.69433,51371
14.70245,46799
14.71058,52246
14.71870,50802
14.72683,52496
14.73495,53173
14.74307,51015
14.75120,53605
14.75932,55291
14.76745,59799
14.77557,62304
14.78368,63909
14.79182,65889
14.79993,72959
14.80805,108460
14.81618,244789
14.82430,609740
14.83243,1373147
14.84055,2617867
14.84867,3905938
14.85680,4578277
14.86492,4354364
14.87305,3360001
14.88117,2197012
14.88928,1356398
14.89742,855901
14.90553,584470
14.91365,466577
14.92178,369653
14.92990,344186
14.93803,312915
14.94615,279435
14.95427,261827
14.96240,249896
14.97052,235167
14.97865,227178
14.98677,200201
14.99488,197770
15.00302,187022
15.01113,170491
15.01927,167320
15.02738,159182
15.03550,149209
15.04363,148962
15.05175,145196
15.05987,147937
15.06800,142621
15.07612,143858
15.08425,134129
15.09237,121269
15.10048,115778
15.10862,117544
15.11673,122871
15.12487,102915
15.13298,109614
15.14110,107660
15.14923,112660
15.15735,112437
15.16548,117085
15.17360,114955
15.18172,108045
15.18985,99977
15.19797,82718
15.20608,80059
15.21422,76068
15.22233,77935
15.23047,76575
15.23858,70391
15.24670,72617
15.25483,72197
15.26295,70705
15.27108,67247
15.27920,73032
15.28732,65810
15.29545,57902
15.30357,63532
15.31168,63334
15.31982,60735
15.32793,56670
15.33607,59437
15.34418,56987
15.35230,60348
15.36043,60902
15.36855,61535
15.37668,56070
15.38480,59141
15.39292,62188
15.40105,66255
15.40917,56893
15.41730,56067
15.42542,59064
15.43353,58161
15.44167,57342
15.44978,57777
15.45790,57295
15.46603,60943
15.47415,58960
15.48228,81010
15.49040,110266
15.49852,165858
15.50665,253842
15.51477,366991
15.52290,461074
15.53102,541548
15.53913,535104
15.54727,495262
15.55538,426674
15.56350,344306
15.57163,282590
15.57975,232330
15.58788,195949
15.59600,152536
15.60412,128772
15.61225,121840
15.62037,100600
15.62850,102927
15.63662,101274
15.64473,90086
15.65287,87867
15.66098,88154
15.66912,83024
15.67723,80875
15.68535,80353
15.69348,74534
15.70160,71310
15.70972,74626
15.71785,70246
15.72597,67644
15.73410,72543
15.74222,66539
15.75033,64976
15.75847,66362
15.76658,73921
15.77472,87685
15.78283,115583
15.79095,164940
15.79908,232667
15.80720,293398
15.81533,312400
15.82345,281282
15.83157,230121
15.83970,179170
15.84782,135495
15.85593,116426
15.86407,95697
15.87218,88876
15.88032,91461
15.88843,86474
15.89655,84618
15.90468,83504
15.91280,84399
15.92093,90997
15.92905,88809
15.93717,86672
15.94530,80646
15.95342,72782
15.96155,72244
15.96967,76162
15.97778,83620
15.98592,92986
15.99403,91051
16.00215,95308
16.01028,99042
16.01840,100490
16.02653,104145
16.03465,119835
16.04277,123998
16.05090,133913
16.05902,131732
16.06715,115780
16.07527,110694
16.08338,91178
16.09152,79068
16.09963,79890
16.10775,73701
16.11588,67337
16.12400,68463
16.13213,68303
16.14025,72538
16.14837,73683
16.15650,82550
16.16462,85724
16.17275,87009
16.18087,85668
16.18898,85778
16.19712,79538
16.20523,72196
16.21337,69995
16.22148,73137
16.22960,65362
16.23773,71920
16.24585,66960
16.25397,66857
16.26210,65354
16.27022,64002
16.27835,60209
16.28647,66109
16.29458,63375
16.30272,73680
16.31083,78131
16.31897,84965
16.32708,90355
16.33520,89162
16.34333,88767
16.35145,85177
16.35957,83209
16.36770,81787
16.37582,86030
16.38395,100529
16.39207,108828
16.40018,108360
16.40832,117224
16.41643,106474
16.42457,96659
16.43268,79295
16.44080,78447
16.44893,68717
16.45705,78566
16.46518,99485
16.47330,163705
16.48142,291141
16.48955,492837
16.49767,715163
16.50578,848114
16.51392,854767
16.52203,685585
16.53017,481057
16.53828,309627
16.54640,215441
16.55453,162989
16.56265,142653
16.57078,123490
16.57890,119629
16.58702,101721
16.59515,104326
16.60327,102565
16.61140,101541
16.61952,108843
16.62763,115193
16.63577,114194
16.64388,114214
16.65200,105331
16.66013,104781
16.66825,88083
16.67638,89121
16.68450,77927
16.69262,79216
16.70075,78118
16.70887,74200
16.71700,67288
16.72512,71622
16.73323,64502
16.74137,68325
16.74948,59824
16.75760,65806
16.76573,67635
16.77385,65925
16.78198,72373
16.79010,71520
16.79822,70263
16.80635,75437
16.81447,66212
16.82260,61016
16.83072,62139
16.83883,56810
16.84697,56777
16.85508,61231
16.86322,56460
16.87133,56142
16.87945,52351
16.88758,48337
16.89570,48742
16.90382,52945
16.91195,53563
16.92007,54477
16.92820,48983
16.93632,55262
16.94443,53768
16.95257,53174
16.96068,51451
16.96882,53299
16.97693,56335
16.98505,55371
16.99318,53231
17.00130,54902
17.00943,54746
17.01755,50869
17.02567,50397
17.03380,53878
17.04192,53489
17.05003,58921
17.05817,57119
17.06628,58260
17.07442,62181
17.08253,60027
17.09065,64487
17.09878,58693
17.10690,62007
17.11503,63154
17.12315,58530
17.13127,62174
17.13940,64002
17.14752,68033
17.15563,68138
17.16377,69021
17.17188,67379
17.18002,63175
17.18813,64500
17.19625,58343
17.20438,56986
17.21250,55288
17.22063,57300
17.22875,55433
17.23687,49733
17.24500,48124
17.25312,49784
17.26125,51548
17.26937,52119
17.27748,49716
17.28562,53798
17.29373,52235
17.30185,55171
17.30998,48715
17.31810,50021
17.32623,51463
17.33435,52887
17.34247,59927
17.35060,62157
17.35872,69755
17.36685,82400
17.37497,80860
17.38308,85210
17.39122,82084
17.39933,84275
17.40745,81060
17.41558,82381
17.42370,81352
17.43183,85931
17.43995,87406
17.44807,87209
17.45620,89802
17.46432,81984
17.47245,80613
17.48057,78403
17.48868,72061
17.49682,68109
17.50493,66113
17.51307,66363
17.52118,59715
17.52930,58920
17.53743,60558
17.54555,62203
17.55367,59062
17.56180,60263
17.56992,65928
17.57805,70946
17.58617,92962
17.59428,142697
17.60242,211430
17.61053,323299
17.61867,441793
17.62678,525375
17.63490,533903
17.64303,489010
17.65115,377181
17.65928,315919
17.66740,293994
17.67552,284183
17.68365,294119
17.69177,308130
17.69988,287344
17.70802,245635
17.71613,205412
17.72427,172922
17.73238,145110
17.74050,131522
17.74863,121280
17.75675,131227
17.76488,121864
17.77300,110217
17.78112,108777
17.78925,103713
17.79737,93577
17.80548,92241
17.81362,87413
17.82173,89702
17.82987,88269
17.83798,93684
17.84610,103848
17.85423,101553
17.86235,107801
17.87048,113369
17.87860,122755
17.88672,129097
17.89485,122894
17.90297,107831
17.91110,97642
17.91922,83588
17.92733,76641
17.93547,74943
17.94358,73816
17.95170,70541
17.95983,66227
17.96795,64879
17.97608,71990
17.98420,61258
17.99232,65027
18.00045,61295
18.00857,62131
18.01670,62620
18.02482,64616
18.03293,71521
18.04107,85838
18.04918,102881
18.05732,114275
18.06543,125286
18.07355,146620
18.08168,228345
18.08980,373612
18.09792,654542
18.10605,982508
18.11417,1245948
18.12230,1345031
18.13042,1248381
18.13853,1007128
18.14667,772375
18.15478,603682
18.16292,478561
18.17103,407978
18.17915,337909
18.18728,319298
18.19540,287868
18.20352,260802
18.21165,229892
18.21977,224851
18.22790,195845
18.23602,192617
18.24413,172478
18.25227,162712
18.26038,154885
18.26852,149812
18.27663,138504
18.28475,121643
18.29288,120837
18.30100,102404
18.30913,91254
18.31725,77855
18.32537,71014
18.33350,64756
18.34162,62159
18.34973,65926
18.35787,63265
18.36598,60337
18.37412,64515
18.38223,61003
18.39035,59612
18.39848,60785
18.40660,59525
18.41473,61264
18.42285,64668
18.43097,69926
18.43910,90192
18.44722,103622
18.45535,133844
18.46347,149243
18.47158,171703
18.47972,191933
18.48783,213738
18.49595,233000
18.50408,242462
18.51220,225266
18.52033,195845
18.52845,162401
18.53657,126619
18.54470,116037
18.55282,88794
18.56095,79545
18.56907,77902
18.57718,77398
18.58532,75377
18.59343,74555
18.60155,70889
18.60968,72546
18.61780,81864
18.62593,93639
18.63405,99314
18.64217,103739
18.65030,107739
18.65842,102781
18.66655,91909
18.67467,91453
18.68278,84308
18.69092,73147
18.69903,69344
18.70717,65993
18.71528,66692
18.72340,62796
18.73153,64625
18.73965,64103
18.74777,64045
18.75590,65504
18.76402,59417
18.77215,63204
18.78027,54590
18.78838,59998
18.79652,56315
18.80463,59888
18.81277,54980
18.82088,53277
18.82900,51641
18.83713,56818
18.84525,51241
18.85337,56920
18.86150,56960
18.86962,59069
18.87775,60854
18.88587,73600
18.89398,78844
18.90212,85988
18.91023,89576
18.91837,92408
18.92648,78715
18.93460,73251
18.94273,75972
18.95085,70319
18.95898,71486
18.96710,72339
18.97522,85068
18.98335,81692
18.99147,71692
18.99958,76202
19.00772,75451
19.01583,68664
19.02397,66098
19.03208,68361
19.04020,59585
19.04833,58400
19.05645,58193
19.06458,57578
19.07270,54424
19.08082,54351
19.08895,58970
19.09707,66796
19.10520,83808
19.11332,104331
19.12143,124379
19.12957,135869
19.13768,141094
19.14580,125460
19.15393,112774
19.16205,99136
19.17018,93199
19.17830,93326
19.18642,92663
19.19455,91783
19.20267,98224
19.21080,94441
19.21892,94246
19.22703,85127
19.23517,82274
19.24328,74016
19.25140,79157
19.25953,64586
19.26765,63567
19.27578,64404
19.28390,76325
19.29202,101348
19.30015,119295
19.30827,141169
19.31640,152319
19.32452,157563
19.33263,167366
19.34077,159590
19.34888,177557
19.35702,166946
19.36513,166347
19.37325,169595
19.38138,180125
19.38950,196115
19.39762,204858
19.40575,197508
19.41387,183789
19.42200,178851
19.43012,173539
19.43823,163142
19.44637,162558
19.45448,155721
19.46262,162226
19.47073,151095
19.47885,158369
19.48698,154356
19.49510,152765
19.50323,155362
19.51135,170833
19.51947,195831
19.52760,219055
19.53572,227162
19.54383,236360
19.55197,229084
19.56008,210271
19.56822,194578
19.57633,185653
19.58445,170718
19.59258,170443
19.60070,157868
19.60883,147616
19.61695,139818
19.62507,140947
19.63320,149780
19.64132,149912
19.64943,184076
19.65757,258892
19.66568,396232
19.67382,635691
19.68193,885198
19.69005,1081966
19.69818,1152286
19.70630,1065278
19.71443,871467
19.72255,667897
19.73067,513762
19.73880,396033
19.74692,338108
19.75505,285042
19.76317,247513
19.77128,231595
19.77942,211357
19.78753,211993
19.79565,216735
19.80378,231053
19.81190,268158
19.82003,266471
19.82815,270699
19.83627,269707
19.84440,251515
19.85252,218478
19.86065,264475
19.86877,502137
19.87688,1306208
19.88502,3486161
19.89313,7891633
19.90125,1.515684E+07
19.90938,2.38792E+07
19.91750,3.054087E+07
19.92563,3.411096E+07
19.93375,3.331347E+07
19.94187,2.845778E+07
19.95000,2.111642E+07
19.95812,1.42299E+07
19.96625,9744380
19.97437,7036095
19.98248,5573018
19.99062,4756039
19.99873,4120886
20.00687,3725716
20.01498,3406929
20.02310,3133479
20.03123,2902846
20.03935,2630573
20.04747,2385574
20.05560,2087488
20.06372,1792856
20.07185,1424453
20.07997,1148287
20.08808,953618
20.09622,820599
20.10433,751004
20.11247,715920
20.12058,675601
20.12870,597127
20.13683,530573
20.14495,489233
20.15308,461024
20.16120,494960
20.16932,595461
20.17745,823888
20.18557,1204556
20.19368,1732535
20.20182,2271697
20.20993,2678632
20.21807,2898862
20.22618,2782221
20.23430,2474785
20.24243,2005408
20.25055,1584153
20.25868,1412640
20.26680,1397261
20.27492,1588246
20.28305,1918353
20.29117,2199322
20.29930,2339846
20.30742,2293849
20.31553,2003366
20.32367,1606207
20.33178,1269023
20.33990,925443
20.34803,687170
20.35615,530755
20.36428,423414
20.37240,336084
20.38052,283669
20.38865,251853
20.39677,222220
20.40490,205083
20.41302,194504
20.42113,179202
20.42927,174980
20.43738,188815
20.44550,202976
20.45363,225792
20.46175,233296
20.46988,233015
20.47800,237258
20.48612,232872
20.49425,206701
20.50237,190270
20.51050,173873
20.51862,159948
20.52673,150867
20.53487,139837
20.54298,128886
20.55112,129211
20.55923,124910
20.56735,124578
20.57548,122096
20.58360,125155
20.59172,121074
20.59985,116876
20.60797,114322
20.61610,111132
20.62422,110541
20.63233,117115
20.64047,111385
20.64858,115197
20.65672,123788
20.66483,118927
20.67295,124709
20.68108,132961
20.68920,115002
20.69732,112529
20.70545,114560
20.71357,102314
20.72170,101087
20.72982,91688
20.73793,99988
20.74607,102668
20.75418,98103
20.76232,99127
20.77043,105623
20.77855,109257
20.78668,106343
20.79480,127914
20.80293,150261
20.81105,207963
20.81917,300466
20.82730,405270
20.83542,512591
20.84353,530051
20.85167,493536
20.85978,381389
20.86792,277012
20.87603,201775
20.88415,152253
20.89228,132132
20.90040,122540
20.90853,119850
20.91665,126536
20.92477,137183
20.93290,148541
20.94102,167369
20.94915,184622
20.95727,187733
20.96538,179036
20.97352,179460
20.98163,166000
20.98975,140653
20.99788,129639
21.00600,117624
21.01413,110842
21.02225,107234
21.03037,100384
21.03850,109808
21.04662,104008
21.05475,106947
21.06287,103579
21.07098,98499
21.07912,107023
21.08723,94667
21.09535,97111
21.10348,79073
21.11160,86997
21.11973,82246
21.12785,85423
21.13597,88894
21.14410,95400
21.15222,117772
21.16035,140149
21.16847,174092
21.17658,202875
21.18472,220102
21.19283,208702
21.20097,192630
21.20908,155455
21.21720,129722
21.22533,123057
21.23345,106329
21.24157,100187
21.24970,96820
21.25782,101170
21.26595,92689
21.27407,91413
21.28218,94719
21.29032,92057
21.29843,94927
21.30657,91419
21.31468,84080
21.32280,84358
21.33093,84826
21.33905,81311
21.34718,80970
21.35530,84392
21.36342,90313
21.37155,84004
21.37967,86743
21.38778,95024
21.39592,92999
21.40403,100747
21.41217,120224
21.42028,154404
21.42840,200452
21.43653,248351
21.44465,276608
21.45278,280410
21.46090,259680
21.46902,227864
21.47715,193224
21.48527,165527
21.49338,133240
21.50152,116032
21.50963,114205
21.51777,104511
21.52588,99114
21.53400,98043
21.54213,100646
21.55025,94164
21.55838,95380
21.56650,90987
21.57462,91935
21.58275,94163
21.59087,95280
21.59900,94043
21.60712,96544
21.61523,104072
21.62337,97255
21.63148,104090
21.63960,112373
21.64773,124409
21.65585,139666
21.66398,153913
21.67210,149131
21.68022,150140
21.68835,145665
21.69647,145464
21.70460,133813
21.71272,118953
21.72083,110151
21.72897,102977
21.73708,90591
21.74520,85867
21.75333,84983
21.76145,78139
21.76958,81870
21.77770,84401
21.78582,85863
21.79395,87034
21.80207,81459
21.81020,84496
21.81832,85164
21.82643,90741
21.83457,97950
21.84268,104830
21.85082,121330
21.85893,144368
21.86705,149455
21.87518,147815
21.88330,138549
21.89142,127152
21.89955,117890
21.90767,104146
21.91580,96292
21.92392,85053
21.93203,84820
21.94017,83901
21.94828,84922
21.95642,76787
21.96453,71136
21.97265,71832
21.98078,66219
21.98890,69754
21.99703,66393
22.00515,64641
22.01327,70002
22.02140,63014
22.02952,69699
22.03763,70129
22.04577,76368
22.05388,75781
22.06202,72660
22.07013,72786
22.07825,70546
22.08638,71794
22.09450,73134
22.10263,72288
22.11075,77088
22.11887,77475
22.12700,72844
22.13512,71515
22.14323,71519
22.15137,78340
22.15948,72179
22.16762,68723
22.17573,64656
22.18385,67438
22.19198,65851
22.20010,62969
22.20823,59170
22.21635,65846
22.22447,62835
22.23260,65143
22.24072,70037
22.24885,72993
22.25697,70381
22.26508,66343
22.27322,69454
22.28133,71818
22.28945,70440
22.29758,71681
22.30570,78533
22.31383,89237
22.32195,91796
22.33007,110121
22.33820,134303
22.34632,161059
22.35445,183114
22.36257,177176
22.37068,158368
22.37882,135943
22.38693,115791
22.39507,101444
22.40318,99296
22.41130,111410
22.41943,132135
22.42755,148566
22.43567,171814
22.44380,170800
22.45192,164787
22.46005,132031
22.46817,121781
22.47628,97451
22.48442,88723
22.49253,88391
22.50067,84069
22.50878,90195
22.51690,103538
22.52503,112168
22.53315,122708
22.54127,120923
22.54940,125032
22.55752,110952
22.56565,100708
22.57377,91886
22.58188,86034
22.59002,75414
22.59813,73360
22.60627,74287
22.61438,60034
22.62250,62671
22.63063,69078
22.63875,55987
22.64688,65509
22.65500,63130
22.66312,60993
22.67125,59700
22.67937,69977
22.68748,77977
22.69562,80822
22.70373,93303
22.71187,94033
22.71998,104317
22.72810,113575
22.73623,116560
22.74435,110506
22.75248,115532
22.76060,106409
22.76872,97714
22.77685,92468
22.78497,99177
22.79308,100010
22.80122,105608
22.80933,108682
22.81747,120599
22.82558,128020
22.83370,128774
22.84183,131401
22.84995,123484
22.85808,113527
22.86620,116387
22.87432,126104
22.88245,131346
22.89057,157901
22.89870,179693
22.90682,198016
22.91493,213674
22.92307,223347
22.93118,217199
22.93930,215532
22.94743,224546
22.95555,215833
22.96368,202739
22.97180,183176
22.97992,162205
22.98805,150788
22.99617,139117
23.00430,122313
23.01242,116367
23.02053,111335
23.02867,104865
23.03678,101848
23.04492,102592
23.05303,102047
23.06115,95717
23.06928,98811
23.07740,94734
23.08552,98538
23.09365,97496
23.10177,95577
23.10990,95143
23.11802,95568
23.12613,93661
23.13427,84127
23.14238,83629
23.15052,90488
23.15863,79878
23.16675,78691
23.17488,78682
23.18300,76836
23.19112,70408
23.19925,71369
23.20737,66177
23.21550,63128
23.22362,64441
23.23173,68496
23.23987,69532
23.24798,65154
23.25612,76424
23.26423,86598
23.27235,94774
23.28048,104410
23.28860,103763
23.29673,95468
23.30485,85717
23.31297,74830
23.32110,77726
23.32922,66214
23.33733,67422
23.34547,77764
23.35358,87611
23.36172,100923
23.36983,125261
23.37795,141029
23.38608,161004
23.39420,174129
23.40233,163283
23.41045,152292
23.41857,143134
23.42670,128332
23.43482,141236
23.44295,144316
23.45107,142776
23.45918,149640
23.46732,142690
23.47543,141435
23.48355,138661
23.49168,138721
23.49980,137469
23.50793,140165
23.51605,141830
23.52417,132891
23.53230,131771
23.54042,135877
23.54855,134542
23.55667,136599
23.56478,143469
23.57292,162286
23.58103,180105
23.58915,194796
23.59728,233922
23.60540,273008
23.61353,317316
23.62165,336157
23.62977,339636
23.63790,311242
23.64602,302676
23.65415,312351
23.66227,410835
23.67038,510885
23.67852,665868
23.68663,732859
23.69477,703548
23.70288,611589
23.71100,469457
23.71913,350850
23.72725,258452
23.73537,200436
23.74350,170154
23.75162,177239
23.75975,232350
23.76787,422318
23.77598,996479
23.78412,2130187
23.79223,3958105
23.80037,5719674
23.80848,6877670
23.81660,6687632
23.82473,5743165
23.83285,4432702
23.84098,3215951
23.84910,2170340
23.85722,1616645
23.86535,1210730
23.87347,959686
23.88158,802417
23.88972,680874
23.89783,618372
23.90597,542826
23.91408,492228
23.92220,460374
23.93033,436974
23.93845,424744
23.94658,379811
23.95470,361330
23.96282,344113
23.97095,327194
23.97907,300871
23.98718,288349
23.99532,281568
24.00343,271829
24.01157,254981
24.01968,251390
24.02780,253962
24.03593,251497
24.04405,255804
24.05218,260105
24.06030,253356
24.06842,260100
24.07655,256200
24.08467,241887
24.09280,233493
24.10092,223666
24.10903,193577
24.11717,188183
24.12528,193100
24.13340,187786
24.14153,186074
24.14965,193386
24.15778,206001
24.16590,220381
24.17402,223525
24.18215,209777
24.19027,212566
24.19840,210058
24.20652,209086
24.21463,197329
24.22277,205739
24.23088,193241
24.23900,192204
24.24713,189452
24.25525,183149
24.26338,159153
24.27150,156835
24.27962,145505
24.28775,143708
24.29587,142494
24.30400,140947
24.31212,140957
24.32023,132838
24.32837,138634
24.33648,143217
24.34462,135117
24.35273,132104
24.36085,131673
24.36898,127113
24.37710,119286
24.38522,129556
24.39335,133762
24.40147,131040
24.40960,143456
24.41772,151287
24.42583,156327
24.43397,159438
24.44208,146986
24.45022,135574
24.45833,124268
24.46645,122401
24.47458,120821
24.48270,126304
24.49083,132930
24.49895,143990
24.50707,142738
24.51520,141905
24.52332,158715
24.53143,169290
24.53957,191544
24.54768,231228
24.55582,273921
24.56393,327712
24.57205,352046
24.58018,345282
24.58830,330395
24.59643,285904
24.60455,254167
24.61267,217905
24.62080,187962
24.62892,170565
24.63703,158377
24.64517,150481
24.65328,143595
24.66142,131217
24.66953,134528
24.67765,130750
24.68578,129813
24.69390,127119
24.70203,119969
24.71015,117242
24.71827,109841
24.72640,103277
24.73452,101046
24.74265,102821
24.75077,98178
24.75888,98424
24.76702,95067
24.77513,100375
24.78325,101876
24.79138,98991
24.79950,94737
24.80763,91163
24.81575,96504
24.82387,97925
24.83200,106184
24.84012,106797
24.84825,106185
24.85637,122692
24.86448,150871
24.87262,176894
24.88073,228534
24.88887,301223
24.89698,366309
24.90510,448323
24.91323,484675
24.92135,452289
24.92947,388950
24.93760,291367
24.94572,221127
24.95385,164688
24.96197,131199
24.97008,110161
24.97822,101285
24.98633,93100
24.99447,91860
25.00258,85924
25.01070,84520
25.01883,83511
25.02695,81411
25.03507,82974
25.04320,84451
25.05132,86924
25.05945,76582
25.06757,82123
25.07568,80827
25.08382,79903
25.09193,86016
25.10007,87201
25.10818,103016
25.11630,139497
25.12443,246376
25.13255,468617
25.14068,929698
25.14880,1548720
25.15692,2220573
25.16505,2606535
25.17317,2557840
25.18128,2160805
25.18942,1568573
25.19753,1039922
25.20567,663904
25.21378,436456
25.22190,321425
25.23003,251168
25.23815,234204
25.24628,230524
25.25440,238458
25.26252,243984
25.27065,273145
25.27877,302379
25.28688,320027
25.29502,314909
25.30313,305069
25.31127,287200
25.31938,260526
25.32750,239203
25.33563,226821
25.34375,212729
25.35188,204839
25.36000,197642
25.36812,187137
25.37625,189693
25.38437,184188
25.39250,177375
25.40062,172811
25.40873,172621
25.41687,169207
25.42498,169906
25.43310,169900
25.44123,170384
25.44935,164957
25.45748,160484
25.46560,169853
25.47372,175649
25.48185,168408
25.48997,168261
25.49810,165177
25.50622,169371
25.51433,171080
25.52247,167567
25.53058,168248
25.53872,160463
25.54683,158583
25.55495,153190
25.56308,143965
25.57120,147408
25.57932,147231
25.58745,143289
25.59557,140793
25.60370,137836
25.61182,142286
25.61993,140161
25.62807,143328
25.63618,143162
25.64432,139111
25.65243,145415
25.66055,143602
25.66868,148141
25.67680,147002
25.68492,153382
25.69305,144932
25.70117,144398
25.70930,143365
25.71742,140429
25.72553,138173
25.73367,133652
25.74178,126082
25.74992,122248
25.75803,114804
25.76615,104902
25.77428,109223
25.78240,97078
25.79053,95791
25.79865,87658
25.80677,90663
25.81490,90411
25.82302,81802
25.83113,91647
25.83927,94908
25.84738,91421
25.85552,93165
25.86363,99461
25.87175,94893
25.87988,88896
25.88800,87903
25.89613,82797
25.90425,80712
25.91237,85004
25.92050,79515
25.92862,83967
25.93675,82265
25.94487,73818
25.95298,78710
25.96112,76539
25.96923,75500
25.97735,76834
25.98548,77421
25.99360,79067
26.00173,72436
26.00985,69609
26.01797,68634
26.02610,67206
26.03422,70391
26.04235,68093
26.05047,63951
26.05858,66362
26.06672,66587
26.07483,71653
26.08295,70427
26.09108,72741
26.09920,76847
26.10733,77572
26.11545,79817
26.12357,81230
26.13170,104944
26.13982,124553
26.14795,159228
26.15607,179425
26.16418,188925
26.17232,198229
26.18043,202816
26.18857,207050
26.19668,209671
26.20480,208858
26.21293,205380
26.22105,203902
26.22917,195221
26.23730,193990
26.24542,195316
26.25355,195393
26.26167,189913
26.26978,190750
26.27792,192569
26.28603,192858
26.29417,190322
26.30228,193179
26.31040,189143
26.31853,194818
26.32665,193212
26.33478,189896
26.34290,185764
26.35102,192841
26.35915,209455
26.36727,236438
26.37538,320741
26.38352,450583
26.39163,648224
26.39977,907529
26.40788,1136832
26.41600,1265984
26.42413,1235543
26.43225,1066097
26.44038,827821
26.44850,596375
26.45662,415597
26.46475,322842
26.47287,257013
26.48098,222181
26.48912,208026
26.49723,197875
26.50537,184541
26.51348,180600
26.52160,181847
26.52973,167304
26.53785,160151
26.54598,161337
26.55410,161092
26.56222,158701
26.57035,159397
26.57847,163703
26.58660,161544
26.59472,152083
26.60283,149953
26.61097,149204
26.61908,158489
26.62720,149388
26.63533,143697
26.64345,149524
26.65158,147768
26.65970,146592
26.66782,144003
26.67595,155611
26.68407,158119
26.69220,161185
26.70032,154318
26.70843,152999
26.71657,148192
26.72468,147432
26.73282,146079
26.74093,138014
26.74905,130932
26.75718,137321
26.76530,138708
26.77342,137281
26.78155,139626
26.78967,133543
26.79780,132667
26.80592,142830
26.81403,138257
26.82217,149247
26.83028,140850
26.83842,145621
26.84653,144100
26.85465,140420
26.86278,131727
26.87090,128261
26.87902,146555
26.88715,132842
26.89527,125194
26.90340,124231
26.91152,131605
26.91963,119123
26.92777,124450
26.93588,128852
26.94402,124473
26.95213,124355
26.96025,131016
26.96838,135965
26.97650,170828
26.98463,236212
26.99275,410376
27.00087,741061
27.00900,1302028
27.01712,2230086
27.02523,3180355
27.03337,3752424
27.04148,3842947
27.04962,3345748
27.05773,2625229
27.06585,1993049
27.07398,1428448
27.08210,1084804
27.09023,824144
27.09835,659808
27.10647,538046
27.11460,467212
27.12272,410917
27.13083,365040
27.13897,337553
27.14708,313608
27.15522,298625
27.16333,277219
27.17145,274774
27.17958,272725
27.18770,281452
27.19583,291040
27.20395,282878
27.21207,270405
27.22020,252796
27.22832,235710
27.23645,206133
27.24457,200767
27.25268,187137
27.26082,180875
27.26893,173057
27.27705,171355
27.28518,167431
27.29330,154034
27.30143,152500
27.30955,156328
27.31767,144616
27.32580,145640
27.33392,149202
27.34205,145129
27.35017,147380
27.35828,143190
27.36642,143902
27.37453,136372
27.38267,132900
27.39078,134414
27.39890,129816
27.40703,126847
27.41515,125540
27.42327,130635
27.43140,127212
27.43952,122443
27.44765,123003
27.45577,119089
27.46388,119274
27.47202,115327
27.48013,113799
27.48827,110490
27.49638,107025
27.50450,107584
27.51263,103906
27.52075,104631
27.52887,112388
27.53700,106920
27.54512,106994
27.55325,111679
27.56137,101521
27.56948,101075
27.57762,101446
27.58573,111578
27.59387,111286
27.60198,116615
27.61010,130134
27.61823,126006
27.62635,127008
27.63448,128240
27.64260,126039
27.65072,111464
27.65885,108871
27.66697,105438
27.67508,96760
27.68322,99184
27.69133,98584
27.69947,100662
27.70758,102065
27.71570,107408
27.72383,94879
27.73195,89494
27.74008,90510
27.74820,90681
27.75632,89418
27.76445,76830
27.77257,85855
27.78070,87049
27.78882,89974
27.79693,93857
27.80507,89125
27.81318,87067
27.82130,87332
27.82943,91159
27.83755,88563
27.84568,87815
27.85380,90423
27.86192,91115
27.87005,87594
27.87817,81890
27.88630,83216
27.89442,75976
27.90253,81100
27.91067,77581
27.91878,78896
27.92690,75238
27.93503,75929
27.94315,79764
27.95128,73592
27.95940,81406
27.96752,85983
27.97565,72432
27.98377,74897
27.99190,76886
28.00002,79256
28.00813,77732
28.01627,85800
28.02438,88050
28.03252,90844
28.04063,92963
28.04875,110198
28.05688,117129
28.06500,127111
28.07312,119448
28.08125,117087
28.08937,111618
28.09750,99179
28.10562,97976
28.11373,100133
28.12187,89189
28.12998,85053
28.13812,87333
28.14623,83688
28.15435,89634
28.16248,76751
28.17060,80917
28.17872,71435
28.18685,67950
28.19497,76270
28.20310,80799
28.21122,84772
28.21933,96675
28.22747,100043
28.23558,111273
28.24372,107641
28.25183,105867
28.25995,103935
28.26808,97081
28.27620,85023
28.28433,78581
28.29245,78208
28.30057,78559
28.30870,86508
28.31682,89397
28.32493,112077
28.33307,143420
28.34118,172767
28.34932,217040
28.35743,257048
28.36555,302678
28.37368,325289
28.38180,361673
28.38993,367456
28.39805,375827
28.40617,360727
28.41430,333333
28.42242,288428
28.43055,264827
28.43867,242224
28.44678,215829
28.45492,197430
28.46303,167423
28.47115,172354
28.47928,163231
28.48740,144200
28.49553,142913
28.50365,145453
28.51177,137231
28.51990,134759
28.52802,124890
28.53615,130496
28.54427,116012
28.55238,117754
28.56052,103277
28.56863,104306
28.57675,97577
28.58488,99625
28.59300,93581
28.60113,90849
28.60925,83040
28.61737,89787
28.62550,96628
28.63362,94080
28.64175,95428
28.64987,98392
28.65798,99015
28.66612,101643
28.67423,106625
28.68237,97172
28.69048,97152
28.69860,94183
28.70673,89117
28.71485,88927
28.72297,79894
28.73110,79865
28.73922,81746
28.74735,76438
28.75547,76992
28.76358,81502
28.77172,83896
28.77983,82536
28.78797,88500
28.79608,93939
28.80420,97521
28.81233,89445
28.82045,84563
28.82858,87075
28.83670,84838
28.84482,83056
28.85295,80152
28.86107,79847
28.86918,77705
28.87732,80769
28.88543,76216
28.89357,82234
28.90168,76363
28.90980,82002
28.91793,82909
28.92605,83355
28.93418,84847
28.94230,79341
28.95042,87452
28.95855,88008
28.96667,94039
28.97478,92152
28.98292,89715
28.99103,87731
28.99917,81039
29.00728,83683
29.01540,80848
29.02353,76211
29.03165,73521
29.03978,74075
29.04790,73052
29.05602,76193
29.06415,68969
29.07227,71413
29.08040,68969
29.08852,69703
29.09663,71553
29.10477,74244
29.11288,70173
29.12100,70720
29.12913,70999
29.13725,69720
29.14538,75321
29.15350,72758
29.16162,74148
29.16975,67951
29.17787,81851
29.18600,72388
29.19412,76489
29.20223,84077
29.21037,92436
29.21848,99119
29.22662,106961
29.23473,110824
29.24285,111734
29.25098,108037
29.25910,98343
29.26722,101386
29.27535,102144
29.28347,93391
29.29160,93999
29.29972,87317
29.30783,83457
29.31597,75920
29.32408,74624
29.33222,71278
29.34033,66146
29.34845,64168
29.35658,66658
29.36470,66692
29.37282,69008
29.38095,61902
29.38907,65389
29.39720,66603
29.40532,66258
29.41343,66571
29.42157,70879
29.42968,64615
29.43782,70238
29.44593,64130
29.45405,63356
29.46218,67420
29.47030,61979
29.47843,65400
29.48655,64931
29.49467,63000
29.50280,64542
29.51092,65171
29.51903,71729
29.52717,69812
29.53528,73673
29.54342,70290
29.55153,68549
29.55965,60397
29.56778,64107
29.57590,62219
29.58403,60901
29.59215,58274
29.60027,58721
29.60840,57317
29.61652,57819
29.62463,61631
29.63277,58836
29.64088,63177
29.64902,60864
29.65713,57311
29.66525,62216
29.67338,58166
29.68150,58234
29.68963,59062
29.69775,64606
29.70587,67506
29.71400,66498
29.72212,58615
29.73025,60999
29.73837,60558
29.74648,62617
29.75462,60467
29.76273,61503
29.77085,60976
29.77898,61167
29.78710,56871
29.79523,57091
29.80335,62576
29.81147,56664
29.81960,56335
29.82772,54514
29.83585,52980
29.84397,54797
29.85208,56764
29.86022,53654
29.86833,58311
29.87647,60360
29.88458,68230
29.89270,90288
29.90083,105707
29.90895,132781
29.91707,141211
29.92520,137282
29.93332,129084
29.94145,115513
29.94957,94043
29.95768,80957
29.96582,76178
29.97393,80703
29.98207,87450
29.99018,98589
29.99830,113332
30.00643,122589
30.01455,136669
30.02267,149312
30.03080,159560
30.03892,156866
30.04705,154563
30.05517,154855
30.06328,145743
30.07142,147851
30.07953,144377
30.08767,141118
30.09578,132899
30.10390,127668
30.11203,120822
30.12015,112032
30.12828,112827
30.13640,103334
30.14452,96117
30.15265,95258
30.16077,93237
30.16888,87504
30.17702,91466
30.18513,93282
30.19327,90091
30.20138,91912
30.20950,94863
30.21763,94011
30.22575,95982
30.23388,85134
30.24200,81152
30.25012,80290
30.25825,75592
30.26637,75655
30.27450,65148
30.28262,64748
30.29073,66178
30.29887,61624
30.30698,68372
30.31510,73606
30.32323,65947
30.33135,65198
30.33948,69505
30.34760,67392
30.35572,77581
30.36385,70279
30.37197,70058
30.38010,65758
30.38822,64919
30.39633,66687
30.40447,69153
30.41258,69242
30.42070,62899
30.42883,61373
30.43695,62014
30.44508,59913
30.45320,60667
30.46132,63907
30.46945,58433
30.47757,56641
30.48570,60519
30.49382,61791
30.50193,62367
30.51007,53666
30.51818,56983
30.52632,59128
30.53443,57832
30.54255,60634
30.55068,56952
30.55880,62079
30.56692,57891
30.57505,57847
30.58317,59724
30.59130,63399
30.59942,60322
30.60753,55662
30.61567,60582
30.62378,58260
30.63192,60793
30.64003,55353
30.64815,52710
30.65628,59576
30.66440,52203
30.67252,56072
30.68065,55250
30.68877,53465
30.69690,57278
30.70502,53488
30.71313,52096
30.72127,55625
30.72938,54985
30.73752,62591
30.74563,58417
30.75375,59232
30.76188,54905
30.77000,57186
30.77813,58141
30.78625,60189
30.79437,64432
30.80250,69393
30.81062,80113
30.81873,82148
30.82687,90297
30.83498,86820
30.84312,88088
30.85123,76055
30.85935,71374
30.86748,71516
30.87560,75631
30.88373,69038
30.89185,71489
30.89997,66630
30.90810,73083
30.91622,72285
30.92435,66767
30.93247,67821
30.94058,67614
30.94872,64169
30.95683,69306
30.96495,65140
30.97308,67873
30.98120,63162
30.98933,66231
30.99745,63839
31.00557,60503
31.01370,61854
31.02182,73085
31.02995,77558
31.03807,75131
31.04618,81340
31.05432,82876
31.06243,76893
31.07057,77497
31.07868,77211
31.08680,84556
31.09493,102832
31.10305,141495
31.11117,191952
31.11930,232500
31.12742,257276
31.13555,240073
31.14367,199631
31.15178,154350
31.15992,105634
31.16803,92229
31.17617,80273
31.18428,75236
31.19240,72183
31.20053,83268
31.20865,95469
31.21677,112772
31.22490,120035
31.23302,132068
31.24115,137094
31.24927,127341
31.25738,110275
31.26552,96636
31.27363,83472
31.28177,74919
31.28988,67658
31.29800,60838
31.30613,57444
31.31425,56928
31.32238,57786
31.33050,63087
31.33862,66458
31.34675,63839
31.35487,62766
31.36298,60484
31.37112,60836
31.37923,67300
31.38737,68710
31.39548,74008
31.40360,72921
31.41173,72680
31.41985,65025
31.42798,71591
31.43610,63918
31.44422,61423
31.45235,61209
31.46047,58696
31.46858,57708
31.47672,59330
31.48483,57167
31.49297,57330
31.50108,58415
31.50920,57693
31.51733,62762
31.52545,64130
31.53358,64797
31.54170,67147
31.54982,60315
31.55795,64267
31.56607,63301
31.57420,61141
31.58232,58197
31.59043,54836
31.59857,55636
31.60668,55026
31.61480,57165
31.62293,55070
31.63105,52903
31.63918,56821
31.64730,55235
31.65542,60117
31.66355,63858
31.67167,67578
31.67980,76729
31.68792,67523
31.69603,72987
31.70417,67423
31.71228,68496
31.72042,67464
31.72853,67654
31.73665,70200
31.74478,64821
31.75290,66769
31.76102,70982
31.76915,68132
31.77727,61483
31.78540,68898
31.79352,69709
31.80163,77427
31.80977,68043
31.81788,68070
31.82602,73903
31.83413,69983
31.84225,71566
31.85038,73415
31.85850,80603
31.86662,75836
31.87475,78033
31.88287,79796
31.89100,82563
31.89912,82031
31.90723,81006
31.91537,82851
31.92348,90952
31.93162,91819
31.93973,99986
31.94785,106270
31.95598,106262
31.96410,112572
31.97223,117736
31.98035,114955
31.98847,124928
31.99660,121541
32.00472,123352
32.01283,121843
32.02097,116834
32.02908,113113
32.03722,106772
32.04533,105137
32.05345,95989
32.06158,89158
32.06970,85453
32.07783,85780
32.08595,90840
32.09407,84042
32.10220,88619
32.11032,82698
32.11845,82845
32.12657,80093
32.13468,75361
32.14282,74408
32.15093,72996
32.15905,69225
32.16718,72608
32.17530,67850
32.18343,76203
32.19155,68580
32.19967,66826
32.20780,64850
32.21592,64167
32.22405,67790
32.23217,68120
32.24028,64872
32.24842,64812
32.25653,60042
32.26465,66343
32.27278,67847
32.28090,68237
32.28903,69252
32.29715,71407
32.30527,63225
32.31340,68863
32.32152,66136
32.32965,66910
32.33777,64097
32.34588,71368
32.35402,74586
32.36213,75128
32.37027,71724
32.37838,71584
32.38650,68139
32.39463,66982
32.40275,66320
32.41087,62024
32.41900,59101
32.42712,57455
32.43525,56816
32.44337,56920
32.45148,57612
32.45962,57741
32.46773,54885
32.47587,61763
32.48398,57299
32.49210,59725
32.50023,57331
32.50835,57423
32.51647,55594
32.52460,54189
32.53272,55456
32.54085,52531
32.54897,58806
32.55708,53944
32.56522,56764
32.57333,58593
32.58147,57474
32.58958,51600
32.59770,62590
32.60583,56205
32.61395,55055
32.62208,53651
32.63020,51124
32.63832,52882
32.64645,49191
32.65457,54441
32.66268,58342
32.67082,58734
32.67893,59277
32.68707,55465
32.69518,66480
32.70330,59995
32.71143,69576
32.71955,61130
32.72768,61298
32.73580,62724
32.74392,58301
32.75205,51260
32.76017,62418
32.76830,55025
32.77642,52714
32.78453,53765
32.79267,51209
32.80078,55840
32.80890,58615
32.81703,50947
32.82515,53654
32.83328,53987
32.84140,55073
32.84952,52399
32.85765,51786
32.86577,51985
32.87390,52624
32.88202,55079
32.89013,54218
32.89827,56839
32.90638,58044
32.91450,64739
32.92263,62381
32.93075,63340
32.93888,56380
32.94700,53917
32.95512,56124
32.96325,52486
32.97137,51872
32.97950,50479
32.98762,52362
32.99573,54938
33.00387,69262
33.01198,72310
33.02012,67171
33.02823,73314
33.03635,64088
33.04448,59010
33.05260,54681
33.06072,61652
33.06885,63311
33.07697,72744
33.08510,70253
33.09322,72254
33.10133,86421
33.10947,92473
33.11758,102285
33.12572,115556
33.13383,114987
33.14195,123007
33.15008,99996
33.15820,92520
33.16633,79348
33.17445,69393
33.18257,63867
33.19070,64986
33.19882,61937
33.20693,59224
33.21507,58808
33.22318,57434
33.23132,62820
33.23943,61951
33.24755,59538
33.25568,53367
33.26380,57593
33.27193,59023
33.28005,59285
33.28817,58045
33.29630,57949
33.30442,63307
33.31253,54187
33.32067,59102
33.32878,59197
33.33692,53708
33.34503,56924
33.35315,59876
33.36128,62025
33.36940,60157
33.37753,58913
33.38565,58506
33.39377,61972
33.40190,59425
33.41002,54582
33.41815,49087
33.42627,50215
33.43438,50135
33.44252,51525
33.45063,47648
33.45875,51676
33.46688,52892
33.47500,50607
33.48313,47964
33.49125,51598
33.49937,52869
33.50750,50371
33.51562,51439
33.52375,56154
33.53187,56457
33.53998,54982
33.54812,56732
33.55623,54877
33.56437,55290
33.57248,57016
33.58060,54512
33.58873,55629
33.59685,59840
33.60497,53706
33.61310,53775
33.62122,54882
33.62935,57782
33.63747,52757
33.64558,55914
33.65372,58827
33.66183,58483
33.66997,59450
33.67808,61576
33.68620,56848
33.69433,56100
33.70245,56134
33.71057,54898
33.71870,53594
33.72682,48757
33.73495,47793
33.74307,53514
33.75118,47346
33.75932,45573
33.76743,52870
33.77557,46453
33.78368,53673
33.79180,51890
33.79993,47124
33.80805,48774
33.81618,53853
33.82430,52420
33.83242,49471
33.84055,53413
33.84867,53789
33.85678,55240
33.86492,56014
33.87303,51328
33.88117,54177
33.88928,55417
33.89740,52432
33.90553,62464
33.91365,54815
33.92178,54205
33.92990,53711
33.93802,58501
33.94615,48676
33.95427,48543
33.96238,51409
33.97052,54075
33.97863,58869
33.98677,48503
33.99488,49925
34.00300,48828
34.01113,51392
34.01925,53943
34.02738,49329
34.03550,48500
34.04362,51141
34.05175,47545
34.05987,50282
34.06800,57246
34.07612,49368
34.08423,51655
34.09237,56333
34.10048,52876
34.10860,53957
34.11673,54085
34.12485,49107
34.13298,49413
34.14110,54665
34.14922,50611
34.15735,50764
34.16547,53154
34.17360,53163
34.18172,53055
34.18983,52768
34.19797,52736
34.20608,56679
34.21422,51710
34.22233,54863
34.23045,55525
34.23858,53910
34.24670,52986
34.25482,50645
34.26295,54347
34.27107,53882
34.27920,59127
34.28732,55523
34.29543,51116
34.30357,53650
34.31168,49098
34.31982,50618
34.32793,52473
34.33605,51407
34.34418,50206
34.35230,51978
34.36042,48861
34.36855,52175
34.37667,55874
34.38480,54846
34.39292,51698
34.40103,48902
34.40917,52315
34.41728,54418
34.42542,51505
34.43353,51480
34.44165,53334
34.44978,51801
34.45790,58215
34.46603,50698
34.47415,52425
34.48227,49083
34.49040,50174
34.49852,48450
34.50663,50727
34.51477,57235
34.52288,54957
34.53102,57969
34.53913,64534
34.54725,69383
34.55538,75882
34.56350,81188
34.57163,91054
34.57975,90290
34.58787,93463
34.59600,85541
34.60412,86022
34.61225,75707
34.62037,68230
34.62848,69383
34.63662,68121
34.64473,66334
34.65285,62386
34.66098,59810
34.66910,58053
34.67723,58701
34.68535,56809
34.69347,55001
34.70160,57667
34.70972,53199
34.71785,59724
34.72597,54736
34.73408,55862
34.74222,52807
34.75033,58149
34.75845,54728
34.76658,61804
34.77470,58806
34.78283,59650
34.79095,62000
34.79907,57724
34.80720,63022
34.81532,58286
34.82345,65497
34.83157,56010
34.83968,59466
34.84782,56651
34.85593,57593
34.86407,54232
34.87218,56284
34.88030,57104
34.88843,51936
34.89655,57635
34.90467,54023
34.91280,55281
34.92092,56697
34.92905,56514
34.93717,59311
34.94528,62880
34.95342,69896
34.96153,85867
34.96967,129508
34.97778,177580
34.98590,231500
34.99403,267322
35.00215,268458
35.01027,228984
35.01840,164263
35.02652,119545
35.03465,89047
35.04277,84965
35.05088,73948
35.05902,67311
35.06713,69496
35.07527,65375
35.08338,66490
35.09150,66492
35.09963,66519
35.10775,64421
35.11588,66418
35.12400,66842
35.13212,59807
35.14025,55264
35.14837,57897
35.15648,66785
35.16462,59946
35.17273,61938
35.18087,66094
35.18898,66503
35.19710,63918
35.20523,62301
35.21335,58730
35.22148,55607
35.22960,59549
35.23772,56349
35.24585,53205
35.25397,60451
35.26210,58242
35.27022,58347
35.27833,57851
35.28647,64369
35.29458,58724
35.30270,63096
35.31083,60006
35.31895,57047
35.32708,56727
35.33520,56114
35.34332,60995
35.35145,56536
35.35957,56583
35.36770,58299
35.37582,55227
35.38393,58753
35.39207,55467
35.40018,59285
35.40832,61496
35.41643,64195
35.42455,63871
35.43268,70471
35.44080,70184
35.44892,72212
35.45705,74939
35.46517,68670
35.47330,64239
35.48142,65936
35.48953,70830
35.49767,63204
35.50578,63280
35.51392,62117
35.52203,63522
35.53015,67887
35.53828,60809
35.54640,60021
35.55452,56812
35.56265,55514
35.57077,56250
35.57890,61191
35.58702,58242
35.59513,55650
35.60327,58518
35.61138,59661
35.61952,58310
35.62763,55778
35.63575,58017
35.64388,56134
35.65200,57508
35.66013,59719
35.66825,58241
35.67637,65409
35.68450,58256
35.69262,61981
35.70073,59884
35.70887,57392
35.71698,61732
35.72512,64965
35.73323,64765
35.74135,60905
35.74948,60865
35.75760,63739
35.76573,70589
35.77385,71261
35.78197,70542
35.79010,69475
35.79822,71102
35.80633,61987
35.81447,64169
35.82258,61637
35.83072,59985
35.83883,59089
35.84695,57418
35.85508,61817
35.86320,63746
35.87133,55816
35.87945,58337
35.88757,57315
35.89570,56229
35.90382,58201
35.91195,56464
35.92007,60668
35.92818,65269
35.93632,55360
35.94443,57140
35.95255,56978
35.96068,60450
35.96880,70340
35.97693,60033
35.98505,56909
35.99317,61659
36.00130,57324
36.00942,59704
36.01755,58482
36.02567,58040
36.03378,60864
36.04192,63416
36.05003,62687
36.05817,59494
36.06628,58843
36.07440,60411
36.08253,62731
36.09065,61290
36.09877,61330
36.10690,55237
36.11502,58844
36.12315,60311
36.13127,64342
36.13938,65332
36.14752,61696
36.15563,71668
36.16377,64687
36.17188,71250
36.18000,71325
36.18813,68370
36.19625,59937
36.20437,62264
36.21250,61339
36.22062,59189
36.22875,57246
36.23687,57347
36.24498,58818
36.25312,57229
36.26123,61534
36.26937,64790
36.27748,55914
36.28560,61135
36.29373,59969
36.30185,61249
36.30998,61084
36.31810,64394
36.32622,67040
36.33435,65825
36.34247,65279
36.35058,67263
36.35872,61963
36.36683,57711
36.37497,62500
36.38308,59153
36.39120,64707
36.39933,59157
36.40745,62534
36.41558,63359
36.42370,61597
36.43182,64253
36.43995,61289
36.44807,61932
36.45620,57962
36.46432,61805
36.47243,56951
36.48057,58643
36.48868,58646
36.49680,57874
36.50493,58024
36.51305,55392
36.52118,56149
36.52930,57834
36.53742,63060
36.54555,61807
36.55367,57112
36.56180,62399
36.56992,56350
36.57803,55762
36.58617,66200
36.59428,58428
36.60240,54195
36.61053,66039
36.61865,62696
36.62678,66665
36.63490,58329
36.64302,60389
36.65115,59709
36.65927,62120
36.66740,57865
36.67552,57771
36.68363,63807
36.69177,60991
36.69988,53578
36.70802,63440
36.71613,61386
36.72425,60469
36.73238,60214
36.74050,61635
36.74862,62321
36.75675,60736
36.76487,60037
36.77300,56216
36.78112,56610
36.78923,62847
36.79737,59074
36.80548,60791
36.81362,63499
36.82173,55238
36.82985,62011
36.83798,59717
36.84610,58048
36.85422,59090
36.86235,61955
36.87047,59045
36.87860,62559
36.88672,64450
36.89483,62843
36.90297,64265
36.91108,66911
36.91922,61901
36.92733,64282
36.93545,62504
36.94358,63551
36.95170,62871
36.95983,69085
36.96795,70465
36.97607,72085
36.98420,76350
36.99232,71253
37.00043,72594
37.00857,67672
37.01668,67007
37.02482,65191
37.03293,60500
37.04105,67411
37.04918,64987
37.05730,65197
37.06543,64857
37.07355,67601
37.08167,74566
37.08980,72836
37.09792,77205
37.10605,76063
37.11417,76838
37.12228,76061
37.13042,77562
37.13853,72266
37.14665,69348
37.15478,74533
37.16290,76363
37.17103,76140
37.17915,73387
37.18727,77610
37.19540,79735
37.20352,75986
37.21165,76807
37.21977,77033
37.22788,79192
37.23602,80359
37.24413,78798
37.25225,77699
37.26038,81983
37.26850,75634
37.27663,79749
37.28475,81858
37.29287,80632
37.30100,81344
37.30912,77299
37.31725,78503
37.32537,75253
37.33348,78899
37.34162,80933
37.34973,82181
37.35787,82546
37.36598,82561
37.37410,82772
37.38223,88957
37.39035,89080
37.39847,87134
37.40660,89739
37.41472,84596
37.42285,84347
37.43097,79896
37.43908,79638
37.44722,81559
37.45533,77709
37.46347,81065
37.47158,77668
37.47970,75972
37.48783,78220
