Z:\data\JTB-E02\BACandBLUE\JTB-E02-201-13.D Fri Mar 01 12:08:14 2019
Start of data points
2.09532	76171
2.10345	71998
2.11157	71203
2.11968	77054
2.12782	73268
2.13593	75343
2.14407	76225
2.15218	78857
2.16030	69724
2.16843	70745
2.17655	70882
2.18468	66144
2.19280	64331
2.20092	64427
2.20905	60557
2.21717	64647
2.22530	62355
2.23342	62697
2.24153	60923
2.24967	63282
2.25778	61183
2.26590	129428
2.27403	768604
2.28215	1414075
2.29028	894477
2.29840	460463
2.30652	340095
2.31465	293678
2.32277	261127
2.33090	231091
2.33902	241020
2.34713	211915
2.35527	180031
2.36338	172674
2.37152	162608
2.37963	152629
2.38775	150712
2.39588	141043
2.40400	142172
2.41212	147798
2.42025	149717
2.42837	164158
2.43650	140479
2.44462	138062
2.45273	134575
2.46087	126154
2.46898	125102
2.47712	114399
2.48523	116617
2.49335	123139
2.50148	122597
2.50960	111196
2.51772	111367
2.52585	109176
2.53397	115465
2.54210	110128
2.55022	120162
2.55833	143387
2.56647	176147
2.57458	163432
2.58272	139650
2.59083	128192
2.59895	123746
2.60708	376486
2.61520	1199331
2.62333	1298688
2.63145	744305
2.63957	453704
2.64770	347359
2.65582	273810
2.66393	223928
2.67207	188534
2.68018	168844
2.68832	156868
2.69643	141992
2.70455	137747
2.71268	128758
2.72080	122212
2.72893	120868
2.73705	114037
2.74517	117677
2.75330	110517
2.76142	106324
2.76953	104957
2.77767	125683
2.78578	297217
2.79392	531297
2.80203	428278
2.81015	275451
2.81828	230230
2.82640	212948
2.83453	182060
2.84265	160895
2.85077	147572
2.85890	139044
2.86702	144148
2.87515	133118
2.88327	129314
2.89138	123548
2.89952	117195
2.90763	118477
2.91575	109867
2.92388	111880
2.93200	99553
2.94013	101010
2.94825	94435
2.95637	94872
2.96450	118030
2.97262	142802
2.98075	134691
2.98887	117919
2.99698	114277
3.00512	121202
3.01323	134662
3.02137	144905
3.02948	127413
3.03760	104340
3.04573	101169
3.05385	101399
3.06197	102146
3.07010	102265
3.07822	117299
3.08635	400774
3.09447	1795895
3.10258	3994250
3.11072	5793313
3.11883	7366064
3.12697	6274551
3.13508	4014552
3.14320	2839059
3.15133	2185964
3.15945	1748650
3.16758	1420515
3.17570	1223968
3.18382	1053137
3.19195	1122163
3.20007	1561738
3.20818	1807224
3.21632	1450193
3.22443	1114038
3.23257	940778
3.24068	814687
3.24880	715801
3.25693	633063
3.26505	564613
3.27318	504157
3.28130	468504
3.28942	454255
3.29755	566643
3.30567	1281639
3.31378	3030510
3.32192	4888225
3.33003	4943041
3.33817	3885810
3.34628	2760519
3.35440	2098211
3.36253	1657867
3.37065	1384478
3.37878	1219151
3.38690	1075806
3.39502	986476
3.40315	888124
3.41127	837176
3.41940	775204
3.42752	706699
3.43563	682558
3.44377	630010
3.45188	597334
3.46000	555410
3.46813	540530
3.47625	521255
3.48438	533685
3.49250	512243
3.50062	492715
3.50875	473795
3.51687	437738
3.52500	424373
3.53312	428777
3.54123	418411
3.54937	424190
3.55748	414392
3.56560	381827
3.57373	415402
3.58185	558340
3.58998	678815
3.59810	617267
3.60622	493459
3.61435	430450
3.62247	384290
3.63060	382128
3.63872	356484
3.64683	333618
3.65497	311511
3.66308	322600
3.67122	667765
3.67933	2915642
3.68745	8202197
3.69558	1.161986E+07
3.70370	9734213
3.71182	6448172
3.71995	4674686
3.72807	3774068
3.73620	3173712
3.74432	2719207
3.75243	2380749
3.76057	2118054
3.76868	1910549
3.77682	1749719
3.78493	1621842
3.79305	1504882
3.80118	1426258
3.80930	1481900
3.81742	2129627
3.82555	3491951
3.83367	4234893
3.84180	3574912
3.84992	2652397
3.85803	2168245
3.86617	1850818
3.87428	1653117
3.88242	1452437
3.89053	1354575
3.89865	1270555
3.90678	1171480
3.91490	1105463
3.92303	1059784
3.93115	1081421
3.93927	1165498
3.94740	1169420
3.95552	1257600
3.96363	2174916
3.97177	4683080
3.97988	7104851
3.98802	6930371
3.99613	4809330
4.00425	4050426
4.01238	8548541
4.02050	2.109817E+07
4.02863	3.268128E+07
4.03675	3.241132E+07
4.04487	2.18705E+07
4.05300	1.172954E+07
4.06112	6893413
4.06925	4696152
4.07737	3531176
4.08548	2750958
4.09362	2285616
4.10173	1939604
4.10985	1683275
4.11798	1469444
4.12610	1309031
4.13423	1199591
4.14235	1072199
4.15047	1017502
4.15860	984828
4.16672	978578
4.17485	926433
4.18297	881225
4.19108	871848
4.19922	816667
4.20733	756474
4.21547	753548
4.22358	1244506
4.23170	3594733
4.23983	8990595
4.24795	1.454303E+07
4.25607	1.608142E+07
4.26420	1.263655E+07
4.27232	8074588
4.28045	5429955
4.28857	3973764
4.29668	3046230
4.30482	2433885
4.31293	1942151
4.32107	1654916
4.32918	1434551
4.33730	1267989
4.34543	1141837
4.35355	1036297
4.36167	971711
4.36980	930593
4.37792	923095
4.38605	892977
4.39417	826332
4.40228	756969
4.41042	713520
4.41853	665853
4.42667	633179
4.43478	599977
4.44290	588055
4.45103	564791
4.45915	530016
4.46728	503845
4.47540	480836
4.48352	473973
4.49165	450310
4.49977	432300
4.50788	430242
4.51602	401976
4.52413	388967
4.53227	375720
4.54038	361011
4.54850	350078
4.55663	357996
4.56475	358631
4.57288	357368
4.58100	356906
4.58912	352481
4.59725	335742
4.60537	330066
4.61348	342517
4.62162	334959
4.62973	330143
4.63787	375239
4.64598	468479
4.65410	593321
4.66223	636517
4.67035	593313
4.67848	490819
4.68660	430242
4.69472	398826
4.70285	362456
4.71097	338677
4.71910	316940
4.72722	311085
4.73533	296366
4.74347	292580
4.75158	279225
4.75970	283243
4.76783	269398
4.77595	268596
4.78408	262826
4.79220	260543
4.80032	266867
4.80845	300459
4.81657	376904
4.82470	441610
4.83282	435450
4.84093	398097
4.84907	365331
4.85718	371897
4.86532	388630
4.87343	373549
4.88155	355177
4.88968	332849
4.89780	312486
4.90592	293760
4.91405	288667
4.92217	276005
4.93030	269059
4.93842	254966
4.94653	261955
4.95467	330825
4.96278	608269
4.97092	1271265
4.97903	2257368
4.98715	3007874
4.99528	3021382
5.00340	2442241
5.01152	1780366
5.01965	1292613
5.02777	1025862
5.03590	847571
5.04402	797852
5.05213	811531
5.06027	815287
5.06838	791793
5.07652	729257
5.08463	637770
5.09275	593926
5.10088	556345
5.10900	513616
5.11713	487726
5.12525	461053
5.13337	445472
5.14150	424168
5.14962	397414
5.15773	393467
5.16587	389086
5.17398	413874
5.18212	470110
5.19023	485424
5.19835	474364
5.20648	453796
5.21460	447590
5.22273	470519
5.23085	476439
5.23897	470012
5.24710	424000
5.25522	426790
5.26335	406144
5.27147	372603
5.27958	333203
5.28772	307360
5.29583	298122
5.30395	286953
5.31208	275357
5.32020	269370
5.32833	275515
5.33645	279057
5.34457	301136
5.35270	313039
5.36082	341263
5.36895	347923
5.37707	302392
5.38518	289708
5.39332	285524
5.40143	275669
5.40955	272166
5.41768	284772
5.42580	277244
5.43393	269422
5.44205	248975
5.45017	250615
5.45830	250324
5.46642	251140
5.47455	258277
5.48267	262865
5.49078	262636
5.49892	238515
5.50703	229248
5.51517	228349
5.52328	226535
5.53140	228705
5.53953	240010
5.54765	234586
5.55577	224934
5.56390	232002
5.57202	245316
5.58015	288547
5.58827	342929
5.59638	354312
5.60452	351075
5.61263	306275
5.62077	262144
5.62888	249276
5.63700	241509
5.64513	242102
5.65325	239344
5.66137	236855
5.66950	226763
5.67762	229540
5.68575	229119
5.69387	242819
5.70198	274255
5.71012	326270
5.71823	335745
5.72637	335417
5.73448	293208
5.74260	258702
5.75073	231559
5.75885	217935
5.76698	223990
5.77510	214041
5.78322	198872
5.79135	194521
5.79947	197261
5.80758	196729
5.81572	193742
5.82383	184866
5.83197	186585
5.84008	183650
5.84820	194190
5.85633	188504
5.86445	190072
5.87258	186825
5.88070	184424
5.88882	181537
5.89695	179219
5.90507	171007
5.91320	157594
5.92132	154745
5.92943	147072
5.93757	153097
5.94568	145835
5.95380	152950
5.96193	159923
5.97005	177675
5.97818	217574
5.98630	270008
5.99442	374063
6.00255	473196
6.01067	506509
6.01880	468392
6.02692	384419
6.03503	309036
6.04317	264279
6.05128	220161
6.05940	197759
6.06753	183741
6.07565	177164
6.08378	180399
6.09190	170151
6.10002	171193
6.10815	167843
6.11627	160112
6.12440	155641
6.13252	165103
6.14063	178123
6.14877	224635
6.15688	311341
6.16502	394803
6.17313	411972
6.18125	384622
6.18938	310915
6.19750	271005
6.20562	237841
6.21375	224379
6.22187	220189
6.23000	209938
6.23812	205124
6.24623	204721
6.25437	196656
6.26248	203523
6.27062	204983
6.27873	212930
6.28685	218307
6.29498	211920
6.30310	210821
6.31123	208783
6.31935	188550
6.32747	200617
6.33560	204958
6.34372	205180
6.35183	198840
6.35997	208035
6.36808	211210
6.37622	204200
6.38433	213045
6.39245	208381
6.40058	215433
6.40870	208678
6.41683	207611
6.42495	214123
6.43307	206648
6.44120	203196
6.44932	212862
6.45743	198273
6.46557	210774
6.47368	220223
6.48182	212412
6.48993	220037
6.49805	225595
6.50618	216663
6.51430	220975
6.52243	221367
6.53055	224720
6.53867	220089
6.54680	232673
6.55492	227023
6.56305	221352
6.57117	223585
6.57928	229374
6.58742	254552
6.59553	280873
6.60365	318940
6.61178	316999
6.61990	294657
6.62803	272052
6.63615	244059
6.64427	235458
6.65240	253335
6.66052	252096
6.66865	264599
6.67677	335174
6.68488	457453
6.69302	548841
6.70113	551885
6.70927	465084
6.71738	383661
6.72550	326199
6.73363	308472
6.74175	301831
6.74987	298194
6.75800	271420
6.76612	226236
6.77425	212232
6.78237	197378
6.79048	195280
6.79862	171847
6.80673	176725
6.81487	171326
6.82298	160688
6.83110	157734
6.83923	150605
6.84735	151033
6.85547	151780
6.86360	156727
6.87172	169062
6.87985	185482
6.88797	192788
6.89608	193086
6.90422	161961
6.91233	143488
6.92047	129594
6.92858	121048
6.93670	105859
6.94483	105156
6.95295	108839
6.96108	108949
6.96920	106481
6.97732	112613
6.98545	133442
6.99357	159215
7.00168	186483
7.00982	180685
7.01793	156008
7.02607	141628
7.03418	127071
7.04230	117477
7.05043	111271
7.05855	103016
7.06668	107898
7.07480	111301
7.08292	115462
7.09105	118524
7.09917	117221
7.10728	106655
7.11542	99539
7.12353	93492
7.13167	98660
7.13978	98073
7.14790	104344
7.15603	112203
7.16415	134074
7.17228	165837
7.18040	203924
7.18852	229381
7.19665	214655
7.20477	182279
7.21290	149272
7.22102	157993
7.22913	237667
7.23727	519525
7.24538	1096031
7.25350	1891988
7.26163	2282671
7.26975	1976078
7.27788	1325957
7.28600	749447
7.29412	449382
7.30225	305026
7.31037	208753
7.31850	155590
7.32662	129308
7.33473	123821
7.34287	123497
7.35098	126458
7.35912	117330
7.36723	114836
7.37535	111792
7.38348	102215
7.39160	106316
7.39972	103117
7.40785	104930
7.41597	106640
7.42410	108666
7.43222	103242
7.44033	100131
7.44847	100878
7.45658	91742
7.46472	92900
7.47283	93535
7.48095	100512
7.48908	96187
7.49720	93930
7.50532	89474
7.51345	94636
7.52157	85879
7.52970	95796
7.53782	108111
7.54593	159292
7.55407	251566
7.56218	377746
7.57032	512364
7.57843	612978
7.58655	637171
7.59468	556371
7.60280	437562
7.61093	318041
7.61905	226769
7.62717	172716
7.63530	148547
7.64342	126793
7.65153	113828
7.65967	105175
7.66778	100330
7.67592	103692
7.68403	93251
7.69215	88579
7.70028	86956
7.70840	89606
7.71653	86863
7.72465	86359
7.73277	87901
7.74090	86612
7.74902	81886
7.75715	80641
7.76527	80946
7.77338	76566
7.78152	78409
7.78963	81863
7.79775	87234
7.80588	87176
7.81400	91482
7.82213	99301
7.83025	98646
7.83837	99634
7.84650	96936
7.85462	90605
7.86275	83368
7.87087	81152
7.87898	83901
7.88712	86573
7.89523	92897
7.90335	99308
7.91148	96091
7.91960	101339
7.92773	94162
7.93585	94800
7.94397	119901
7.95210	172762
7.96022	255641
7.96835	330596
7.97647	334055
7.98458	267689
7.99272	223164
8.00083	153078
8.00897	120306
8.01708	105754
8.02520	94067
8.03333	89262
8.04145	87844
8.04957	83473
8.05770	88315
8.06582	81957
8.07395	75200
8.08207	79441
8.09018	78329
8.09832	72596
8.10643	76733
8.11457	72644
8.12268	69651
8.13080	75018
8.13893	77776
8.14705	74283
8.15517	84722
8.16330	94973
8.17142	99810
8.17955	109446
8.18767	99637
8.19578	90512
8.20392	86206
8.21203	75744
8.22017	72019
8.22828	74890
8.23640	69075
8.24453	70118
8.25265	72169
8.26078	75312
8.26890	67935
8.27702	69792
8.28515	68294
8.29327	69678
8.30138	75693
8.30952	68072
8.31763	75266
8.32577	76610
8.33388	77080
8.34200	80853
8.35013	78949
8.35825	77297
8.36638	73934
8.37450	72459
8.38262	68534
8.39075	72271
8.39887	71703
8.40700	72407
8.41512	71442
8.42323	67624
8.43137	70027
8.43948	63279
8.44760	72782
8.45573	67276
8.46385	63584
8.47198	64766
8.48010	65460
8.48822	63016
8.49635	63381
8.50447	60928
8.51260	62355
8.52072	61806
8.52883	61200
8.53697	77183
8.54508	79819
8.55320	136013
8.56133	241270
8.56945	362288
8.57758	437625
8.58570	406583
8.59382	317104
8.60195	207930
8.61007	145077
8.61820	110344
8.62632	103073
8.63443	95972
8.64257	91945
8.65068	90327
8.65882	83928
8.66693	76443
8.67505	73730
8.68318	78542
8.69130	76693
8.69942	75601
8.70755	75519
8.71567	77957
8.72380	79856
8.73192	72032
8.74003	79015
8.74817	73688
8.75628	66331
8.76442	67404
8.77253	72641
8.78065	93620
8.78878	171441
8.79690	325563
8.80503	557467
8.81315	796304
8.82127	906867
8.82940	809558
8.83752	622798
8.84563	438150
8.85377	297897
8.86188	238872
8.87002	223550
8.87813	218672
8.88625	210382
8.89438	192532
8.90250	177640
8.91063	177605
8.91875	162458
8.92687	154867
8.93500	160420
8.94312	149215
8.95123	159984
8.95937	167147
8.96748	176400
8.97562	193704
8.98373	183790
8.99185	177503
8.99998	164679
9.00810	150535
9.01623	145833
9.02435	139991
9.03247	126077
9.04060	129731
9.04872	133459
9.05685	118507
9.06497	110838
9.07308	110019
9.08122	116738
9.08933	112390
9.09745	109452
9.10558	110375
9.11370	108558
9.12183	122123
9.12995	134217
9.13807	136999
9.14620	140894
9.15432	135864
9.16245	125050
9.17057	120334
9.17868	116761
9.18682	110898
9.19493	106939
9.20305	108045
9.21118	98214
9.21930	97047
9.22743	96356
9.23555	93359
9.24367	96395
9.25180	96549
9.25992	92244
9.26805	101399
9.27617	95340
9.28428	93922
9.29242	87923
9.30053	84912
9.30867	84697
9.31678	86566
9.32490	89855
9.33303	88767
9.34115	90064
9.34927	86563
9.35740	88104
9.36552	81693
9.37365	82388
9.38177	81394
9.38988	82565
9.39802	77552
9.40613	80396
9.41427	86730
9.42238	88634
9.43050	89121
9.43863	97214
9.44675	106165
9.45488	122919
9.46300	130146
9.47112	123976
9.47925	118091
9.48737	103794
9.49548	91797
9.50362	89100
9.51173	82794
9.51987	78901
9.52798	86354
9.53610	91849
9.54423	100945
9.55235	109362
9.56048	101264
9.56860	100203
9.57672	88389
9.58485	82986
9.59297	80972
9.60110	82104
9.60922	82282
9.61733	84295
9.62547	77770
9.63358	73467
9.64170	72063
9.64983	58528
9.65795	57696
9.66608	53875
9.67420	58827
9.68232	57787
9.69045	56744
9.69857	56203
9.70670	55398
9.71482	53859
9.72293	52535
9.73107	53596
9.73918	53063
9.74730	54325
9.75543	54600
9.76355	53080
9.77168	65420
9.77980	55890
9.78792	50862
9.79605	51687
9.80417	52913
9.81230	54596
9.82042	53350
9.82853	54198
9.83667	48774
9.84478	55036
9.85292	50939
9.86103	51040
9.86915	51617
9.87728	55042
9.88540	58983
9.89352	61648
9.90165	63260
9.90977	60333
9.91790	56972
9.92602	52581
9.93413	51340
9.94227	57055
9.95038	61561
9.95852	76489
9.96663	99174
9.97475	121810
9.98288	138170
9.99100	138431
9.99912	119759
10.00725	100035
10.01537	89389
10.02350	85113
10.03162	82278
10.03973	83262
10.04787	78634
10.05598	81042
10.06412	66235
10.07223	65690
10.08035	65624
10.08848	64710
10.09660	63423
10.10473	69331
10.11285	73397
10.12097	73447
10.12910	75456
10.13722	65963
10.14533	61592
10.15347	62382
10.16158	59753
10.16972	56557
10.17783	59987
10.18595	52624
10.19408	58033
10.20220	53627
10.21033	52753
10.21845	60291
10.22657	54800
10.23470	53679
10.24282	53860
10.25095	58260
10.25907	64035
10.26718	66698
10.27532	81115
10.28343	120358
10.29155	257255
10.29968	585405
10.30780	1198729
10.31593	2048278
10.32405	2910825
10.33217	4123273
10.34030	5861071
10.34842	8469606
10.35655	1.081245E+07
10.36467	1.137951E+07
10.37278	9431767
10.38092	6091073
10.38903	3301007
10.39715	1725924
10.40528	975892
10.41340	643289
10.42153	438644
10.42965	333139
10.43777	266878
10.44590	238672
10.45402	217683
10.46215	206611
10.47027	192507
10.47838	180178
10.48652	179440
10.49463	171397
10.50277	154624
10.51088	152734
10.51900	142121
10.52713	136853
10.53525	126418
10.54337	123833
10.55150	121628
10.55962	129419
10.56775	120456
10.57587	117017
10.58398	110504
10.59212	112219
10.60023	111473
10.60837	110265
10.61648	101788
10.62460	103437
10.63273	97579
10.64085	86616
10.64898	90604
10.65710	88810
10.66522	87054
10.67335	88120
10.68147	83925
10.68958	80073
10.69772	83093
10.70583	88694
10.71397	85963
10.72208	88104
10.73020	84560
10.73833	81485
10.74645	84715
10.75458	82343
10.76270	82271
10.77082	86135
10.77895	79806
10.78707	86208
10.79518	80036
10.80332	72085
10.81143	71470
10.81957	71907
10.82768	75188
10.83580	76606
10.84393	70193
10.85205	74112
10.86018	68822
10.86830	71885
10.87642	66591
10.88455	62201
10.89267	64238
10.90080	62553
10.90892	60710
10.91703	59321
10.92517	63833
10.93328	62240
10.94140	62134
10.94953	59076
10.95765	61124
10.96578	52090
10.97390	53850
10.98202	57936
10.99015	61632
10.99827	62121
11.00640	60364
11.01452	60438
11.02263	60806
11.03077	61556
11.03888	55623
11.04700	58687
11.05513	59087
11.06325	62275
11.07138	55379
11.07950	58072
11.08762	56264
11.09575	59925
11.10387	54742
11.11200	63353
11.12012	57396
11.12823	57407
11.13637	53601
11.14448	55205
11.15262	51631
11.16073	51011
11.16885	47842
11.17698	53393
11.18510	53095
11.19322	54342
11.20135	56079
11.20947	55666
11.21760	57141
11.22572	57169
11.23383	55474
11.24197	54202
11.25008	48553
11.25822	48228
11.26633	46106
11.27445	47281
11.28258	47099
11.29070	49138
11.29883	46642
11.30695	50008
11.31507	57471
11.32320	69375
11.33132	103023
11.33943	149871
11.34757	233715
11.35568	309586
11.36382	378226
11.37193	357946
11.38005	315703
11.38818	241136
11.39630	177743
11.40443	129757
11.41255	114470
11.42067	97677
11.42880	97856
11.43692	96425
11.44503	89874
11.45317	86264
11.46128	80605
11.46942	74676
11.47753	71937
11.48565	76169
11.49378	85142
11.50190	104752
11.51003	132800
11.51815	160769
11.52627	168869
11.53440	154743
11.54252	136060
11.55065	113172
11.55877	103443
11.56688	96454
11.57502	95991
11.58313	82838
11.59125	79453
11.59938	74486
11.60750	71298
11.61563	80350
11.62375	100686
11.63187	125889
11.64000	146962
11.64812	168574
11.65625	150659
11.66437	126259
11.67248	98065
11.68062	88882
11.68873	68332
11.69687	70439
11.70498	65993
11.71310	62190
11.72123	61689
11.72935	59615
11.73747	62779
11.74560	66149
11.75372	64519
11.76185	57024
11.76997	59101
11.77808	55960
11.78622	56742
11.79433	56046
11.80247	54524
11.81058	57823
11.81870	52456
11.82683	54422
11.83495	48638
11.84307	48729
11.85120	57842
11.85932	64819
11.86745	75215
11.87557	86108
11.88368	90937
11.89182	93850
11.89993	85471
11.90807	73719
11.91618	58751
11.92430	56478
11.93243	51915
11.94055	59044
11.94868	54694
11.95680	62762
11.96492	59703
11.97305	55737
11.98117	49089
11.98928	49636
11.99742	52691
12.00553	49043
12.01367	58390
12.02178	67729
12.02990	77513
12.03803	79662
12.04615	83760
12.05428	76742
12.06240	59769
12.07052	58224
12.07865	52973
12.08677	52098
12.09490	52568
12.10302	53485
12.11113	48610
12.11927	53974
12.12738	57500
12.13550	64535
12.14363	80989
12.15175	84138
12.15988	83968
12.16800	75933
12.17612	70319
12.18425	63433
12.19237	53424
12.20050	51175
12.20862	51521
12.21673	52452
12.22487	51439
12.23298	52800
12.24110	53227
12.24923	54501
12.25735	51539
12.26548	50464
12.27360	52175
12.28172	49427
12.28985	50641
12.29797	47899
12.30610	50013
12.31422	45711
12.32233	49127
12.33047	45661
12.33858	44604
12.34672	47283
12.35483	48317
12.36295	45135
12.37108	44665
12.37920	46215
12.38732	47780
12.39545	51075
12.40357	53297
12.41170	52258
12.41982	55911
12.42793	66250
12.43607	83981
12.44418	102821
12.45232	118364
12.46043	113235
12.46855	110150
12.47668	91853
12.48480	77717
12.49292	67137
12.50105	65191
12.50917	57531
12.51730	55236
12.52542	52826
12.53353	52519
12.54167	50383
12.54978	51362
12.55792	48993
12.56603	61561
12.57415	67153
12.58228	70531
12.59040	79970
12.59853	75863
12.60665	73782
12.61477	64384
12.62290	57916
12.63102	55800
12.63913	51627
12.64727	49375
12.65538	49520
12.66352	48188
12.67163	46862
12.67975	45475
12.68788	45914
12.69600	44290
12.70413	48243
12.71225	43319
12.72037	48710
12.72850	46496
12.73662	49238
12.74475	54261
12.75287	57410
12.76098	64022
12.76912	62431
12.77723	52537
12.78535	52002
12.79348	51959
12.80160	48455
12.80973	49537
12.81785	45026
12.82597	43160
12.83410	44641
12.84222	41005
12.85035	41422
12.85847	37191
12.86658	41616
12.87472	37948
12.88283	40714
12.89095	38486
12.89908	35745
12.90720	41093
12.91533	41347
12.92345	40451
12.93157	38935
12.93970	38498
12.94782	38196
12.95595	39316
12.96407	35026
12.97218	39308
12.98032	39229
12.98843	40952
12.99657	45010
13.00468	48291
13.01280	51490
13.02093	48754
13.02905	47683
13.03717	39739
13.04530	36864
13.05342	42402
13.06155	38992
13.06967	40364
13.07778	37483
13.08592	37879
13.09403	41456
13.10217	40865
13.11028	39207
13.11840	37974
13.12653	39664
13.13465	43153
13.14278	40782
13.15090	37259
13.15902	43512
13.16715	41264
13.17527	40437
13.18338	40139
13.19152	39457
13.19963	42327
13.20777	42585
13.21588	41644
13.22400	46512
13.23213	44723
13.24025	49285
13.24838	48381
13.25650	47774
13.26462	46796
13.27275	45516
13.28087	44648
13.28898	40009
13.29712	40976
13.30523	39927
13.31337	42853
13.32148	40060
13.32960	35893
13.33773	37153
13.34585	36440
13.35398	38784
13.36210	36144
13.37022	37477
13.37835	36251
13.38647	38087
13.39460	37614
13.40272	38231
13.41083	37721
13.41897	37512
13.42708	34157
13.43520	39481
13.44333	32760
13.45145	31540
13.45958	35707
13.46770	37867
13.47582	35264
13.48395	37366
13.49207	36160
13.50020	38502
13.50832	38246
13.51643	37418
13.52457	38167
13.53268	36398
13.54080	38758
13.54893	41336
13.55705	42164
13.56518	44866
13.57330	36391
13.58142	41212
13.58955	42573
13.59767	41259
13.60580	45852
13.61392	42451
13.62203	46546
13.63017	42771
13.63828	47601
13.64642	48347
13.65453	49634
13.66265	53794
13.67078	38574
13.67890	36348
13.68702	38309
13.69515	43135
13.70327	38187
13.71140	32537
13.71952	31921
13.72763	36516
13.73577	36942
13.74388	40489
13.75202	37465
13.76013	42384
13.76825	48425
13.77638	64614
13.78450	87913
13.79263	123173
13.80075	160779
13.80887	182333
13.81700	173386
13.82512	187001
13.83323	181094
13.84137	182570
13.84948	193612
13.85762	202513
13.86573	199593
13.87385	177703
13.88198	150716
13.89010	120600
13.89823	101627
13.90635	86509
13.91447	73873
13.92260	64691
13.93072	60802
13.93883	60633
13.94697	54848
13.95508	54660
13.96322	56287
13.97133	61249
13.97945	72842
13.98758	89952
13.99570	118742
14.00383	134760
14.01195	150957
14.02007	138254
14.02820	116811
14.03632	96489
14.04445	80424
14.05257	69266
14.06068	63460
14.06882	66371
14.07693	63225
14.08505	63426
14.09318	60354
14.10130	59480
14.10943	59657
14.11755	54217
14.12567	50472
14.13380	51384
14.14192	51271
14.15005	51185
14.15817	52351
14.16628	59174
14.17442	53030
14.18253	57644
14.19067	54921
14.19878	61410
14.20690	74112
14.21503	101156
14.22315	140928
14.23127	178461
14.23940	206058
14.24752	213875
14.25565	203941
14.26377	183569
14.27188	178257
14.28002	160189
14.28813	151236
14.29627	131826
14.30438	117809
14.31250	111674
14.32063	100437
14.32875	95118
14.33687	84431
14.34500	87619
14.35312	86279
14.36125	82558
14.36937	77597
14.37748	73797
14.38562	64287
14.39373	54856
14.40187	54718
14.40998	51713
14.41810	52572
14.42623	61434
14.43435	62779
14.44248	70080
14.45060	72116
14.45872	67404
14.46685	61930
14.47497	57148
14.48308	54400
14.49122	54664
14.49933	48958
14.50747	49540
14.51558	48796
14.52370	56001
14.53183	46635
14.53995	52761
14.54808	56090
14.55620	55350
14.56432	46721
14.57245	49553
14.58057	46253
14.58868	46918
14.59682	44251
14.60493	40423
14.61307	44275
14.62118	43268
14.62930	46897
14.63743	46010
14.64555	41196
14.65368	37725
14.66180	42723
14.66992	40938
14.67805	42389
14.68617	43889
14.69430	39833
14.70242	37602
14.71053	39706
14.71867	37597
14.72678	38675
14.73490	46342
14.74303	46125
14.75115	39524
14.75928	39676
14.76740	44893
14.77552	41027
14.78365	39033
14.79177	49643
14.79990	51420
14.80802	73855
14.81613	171717
14.82427	433988
14.83238	1011362
14.84052	2000763
14.84863	3116725
14.85675	3799460
14.86488	3636879
14.87300	2917641
14.88112	1966792
14.88925	1215232
14.89737	772554
14.90550	522355
14.91362	410157
14.92173	349761
14.92987	294811
14.93798	254509
14.94612	224081
14.95423	204890
14.96235	198057
14.97048	188430
14.97860	166863
14.98673	154407
14.99485	143394
15.00297	137527
15.01110	138878
15.01922	129390
15.02733	119439
15.03547	115083
15.04358	112727
15.05172	105795
15.05983	101623
15.06795	97308
15.07608	97360
15.08420	93716
15.09233	90871
15.10045	87046
15.10857	85815
15.11670	81639
15.12482	83015
15.13293	79853
15.14107	81956
15.14918	91454
15.15732	96200
15.16543	96147
15.17355	94129
15.18168	90763
15.18980	79396
15.19793	74391
15.20605	64033
15.21417	60646
15.22230	61779
15.23042	54421
15.23855	53173
15.24667	52468
15.25478	53968
15.26292	50849
15.27103	52646
15.27915	45960
15.28728	46110
15.29540	50276
15.30353	45237
15.31165	44816
15.31977	49659
15.32790	46986
15.33602	46034
15.34415	47152
15.35227	45469
15.36038	47410
15.36852	41276
15.37663	48545
15.38475	44155
15.39288	43663
15.40100	44873
15.40913	47029
15.41725	45664
15.42537	43537
15.43350	42241
15.44162	44588
15.44975	42886
15.45787	41944
15.46598	39056
15.47412	46277
15.48223	48845
15.49037	57226
15.49848	60657
15.50660	69931
15.51473	86825
15.52285	87082
15.53097	92291
15.53910	88632
15.54722	86616
15.55535	76126
15.56347	68503
15.57158	70755
15.57972	59405
15.58783	52746
15.59597	50163
15.60408	49910
15.61220	49498
15.62033	46451
15.62845	50592
15.63658	51247
15.64470	46390
15.65282	46366
15.66095	53458
15.66907	44704
15.67718	46434
15.68532	44910
15.69343	43090
15.70157	46342
15.70968	45401
15.71780	40931
15.72593	44140
15.73405	39794
15.74218	45137
15.75030	41422
15.75842	44444
15.76655	47386
15.77467	60106
15.78278	92879
15.79092	127429
15.79903	192610
15.80717	251344
15.81528	279013
15.82340	254507
15.83153	210525
15.83965	157647
15.84778	116251
15.85590	95067
15.86402	78962
15.87215	79386
15.88027	69680
15.88840	65164
15.89652	63375
15.90463	62338
15.91277	55659
15.92088	56647
15.92900	59820
15.93713	56626
15.94525	49994
15.95338	54026
15.96150	52962
15.96962	57409
15.97775	61448
15.98587	61879
15.99400	71583
16.00212	74636
16.01023	79713
16.01837	77558
16.02648	74032
16.03462	79373
16.04273	78243
16.05085	79735
16.05898	71981
16.06710	69322
16.07522	60676
16.08335	57256
16.09147	56475
16.09960	50673
16.10772	54069
16.11583	51550
16.12397	48377
16.13208	51875
16.14022	52608
16.14833	55552
16.15645	56603
16.16458	51648
16.17270	52389
16.18082	50832
16.18895	52581
16.19707	50956
16.20520	52589
16.21332	46821
16.22143	49915
16.22957	47172
16.23768	44861
16.24582	44363
16.25393	44726
16.26205	43978
16.27018	46956
16.27830	47662
16.28643	43705
16.29455	48461
16.30267	50964
16.31080	49215
16.31892	50789
16.32703	51486
16.33517	53361
16.34328	48751
16.35142	49997
16.35953	49808
16.36765	52143
16.37578	58147
16.38390	77702
16.39203	84598
16.40015	94675
16.40827	90508
16.41640	79352
16.42452	68702
16.43263	61096
16.44077	60427
16.44888	57364
16.45702	61038
16.46513	79919
16.47325	139209
16.48138	254501
16.48950	455700
16.49763	647049
16.50575	797851
16.51387	769723
16.52200	620004
16.53012	428928
16.53825	273984
16.54637	195243
16.55448	136215
16.56262	118176
16.57073	100563
16.57885	90715
16.58698	92404
16.59510	81350
16.60323	83819
16.61135	80669
16.61947	80294
16.62760	79797
16.63572	84917
16.64385	76653
16.65197	74040
16.66008	79128
16.66822	65589
16.67633	67768
16.68447	60922
16.69258	63652
16.70070	59222
16.70883	57678
16.71695	55146
16.72507	54509
16.73320	50630
16.74132	48963
16.74945	45428
16.75757	47032
16.76568	51042
16.77382	51502
16.78193	58436
16.79007	59198
16.79818	58439
16.80630	55775
16.81443	52361
16.82255	50428
16.83067	42984
16.83880	45656
16.84692	46677
16.85505	44660
16.86317	41852
16.87128	47896
16.87942	42483
16.88753	44567
16.89567	42218
16.90378	41409
16.91190	43968
16.92003	44210
16.92815	46911
16.93628	42539
16.94440	43232
16.95252	44797
16.96065	45141
16.96877	39681
16.97688	41791
16.98502	43325
16.99313	39214
17.00127	43891
17.00938	39333
17.01750	43868
17.02563	43626
17.03375	39573
17.04188	37898
17.05000	38924
17.05812	47229
17.06625	49653
17.07437	50063
17.08250	51364
17.09062	45997
17.09873	44188
17.10687	44419
17.11498	43526
17.12310	43799
17.13123	42415
17.13935	42505
17.14748	43026
17.15560	48208
17.16372	44778
17.17185	41901
17.17997	43510
17.18810	42538
17.19622	38857
17.20433	44337
17.21247	41278
17.22058	42971
17.22870	39554
17.23683	36585
17.24495	38100
17.25308	43921
17.26120	41666
17.26932	39646
17.27745	39769
17.28557	40789
17.29370	43224
17.30182	43482
17.30993	39432
17.31807	41208
17.32618	41139
17.33432	43115
17.34243	44039
17.35055	43172
17.35868	53261
17.36680	55847
17.37492	56431
17.38305	58006
17.39117	57031
17.39930	55682
17.40742	60484
17.41553	61638
17.42367	52502
17.43178	54931
17.43992	51827
17.44803	52281
17.45615	50012
17.46428	50187
17.47240	48511
17.48052	48585
17.48865	48476
17.49677	49435
17.50490	45321
17.51302	45456
17.52113	47342
17.52927	46487
17.53738	44507
17.54552	44402
17.55363	45273
17.56175	49650
17.56988	53297
17.57800	58274
17.58613	76340
17.59425	121672
17.60237	185056
17.61050	272053
17.61862	388937
17.62673	462913
17.63487	457823
17.64298	420257
17.65112	336649
17.65923	266490
17.66735	232717
17.67548	224120
17.68360	237163
17.69173	249424
17.69985	234375
17.70797	197447
17.71610	161494
17.72422	136241
17.73235	112012
17.74047	92990
17.74858	87158
17.75672	79641
17.76483	82554
17.77295	70770
17.78108	68731
17.78920	67167
17.79733	69389
17.80545	67662
17.81357	69972
17.82170	87068
17.82982	106301
17.83795	138655
17.84607	165187
17.85418	174005
17.86232	165640
17.87043	141026
17.87855	130345
17.88668	111409
17.89480	97011
17.90293	84716
17.91105	74178
17.91917	72373
17.92730	66352
17.93542	60482
17.94355	58024
17.95167	57000
17.95978	53138
17.96792	55334
17.97603	52638
17.98417	54690
17.99228	52188
18.00040	47936
18.00853	51603
18.01665	48873
18.02477	50903
18.03290	58013
18.04102	62856
18.04915	76782
18.05727	78261
18.06538	96257
18.07352	135640
18.08163	235032
18.08977	473468
18.09788	859472
18.10600	1306154
18.11413	1687831
18.12225	1762884
18.13038	1503184
18.13850	1167287
18.14662	876111
18.15475	671091
18.16287	538617
18.17098	456686
18.17912	400733
18.18723	352613
18.19537	315041
18.20348	285093
18.21160	267153
18.21973	236068
18.22785	228156
18.23598	200534
18.24410	183622
18.25222	177258
18.26035	165869
18.26847	164191
18.27658	139532
18.28472	132791
18.29283	122744
18.30097	103034
18.30908	84431
18.31720	74254
18.32533	68796
18.33345	62846
18.34158	60853
18.34970	53966
18.35782	54614
18.36595	52286
18.37407	50437
18.38220	59011
18.39032	56006
18.39843	51686
18.40657	61203
18.41468	57816
18.42280	52149
18.43093	52690
18.43905	57534
18.44718	55733
18.45530	64010
18.46342	69026
18.47155	89256
18.47967	112905
18.48780	137660
18.49592	170743
18.50403	191862
18.51217	190905
18.52028	159279
18.52842	128438
18.53653	103139
18.54465	85621
18.55278	72914
18.56090	67574
18.56902	61373
18.57715	53978
18.58527	51563
18.59340	55931
18.60152	53082
18.60963	54283
18.61777	54655
18.62588	55265
18.63402	58639
18.64213	56338
18.65025	56490
18.65838	54902
18.66650	52431
18.67462	53665
18.68275	46773
18.69087	51299
18.69900	49939
18.70712	44816
18.71523	41366
18.72337	48602
18.73148	47641
18.73962	44167
18.74773	42956
18.75585	44648
18.76398	42659
18.77210	39199
18.78023	37749
18.78835	41995
18.79647	39170
18.80460	39400
18.81272	38326
18.82083	38431
18.82897	38199
18.83708	38665
18.84522	39000
18.85333	43563
18.86145	44015
18.86958	43652
18.87770	41549
18.88583	43856
18.89395	43680
18.90207	45250
18.91020	49125
18.91832	63182
18.92643	92020
18.93457	124893
18.94268	146102
18.95082	157365
18.95893	168480
18.96705	181852
18.97518	185573
18.98330	192238
18.99143	184296
18.99955	191924
19.00767	196533
19.01580	187402
19.02392	185500
19.03205	182759
19.04017	192279
19.04828	181087
19.05642	185070
19.06453	179821
19.07265	185190
19.08078	186031
19.08890	191668
19.09703	190852
19.10515	205305
19.11327	224523
19.12140	229076
19.12952	230966
19.13765	222935
19.14577	217926
19.15388	213444
19.16202	202764
19.17013	198250
19.17827	194567
19.18638	187722
19.19450	196348
19.20263	195228
19.21075	187474
19.21887	183156
19.22700	188121
19.23512	184939
19.24325	179747
19.25137	176607
19.25948	175903
19.26762	175908
19.27573	188272
19.28387	175226
19.29198	183263
19.30010	182195
19.30823	190138
19.31635	197944
19.32447	188458
19.33260	187354
19.34072	179232
19.34885	177768
19.35697	175902
19.36508	170393
19.37322	193344
19.38133	201436
19.38947	217365
19.39758	219236
19.40570	216936
19.41383	206138
19.42195	189351
19.43008	177979
19.43820	168761
19.44632	163952
19.45445	163696
19.46257	160399
19.47068	158748
19.47882	156205
19.48693	160095
19.49507	153128
19.50318	160212
19.51130	175218
19.51943	206609
19.52755	235825
19.53568	259168
19.54380	270258
19.55192	267519
19.56005	224274
19.56817	203873
19.57630	177194
19.58442	158186
19.59253	155315
19.60067	155626
19.60878	145103
19.61690	143324
19.62503	140293
19.63315	136516
19.64128	135334
19.64940	156499
19.65752	182578
19.66565	269398
19.67377	333975
19.68190	432554
19.69002	489731
19.69813	537124
19.70627	498704
19.71438	427587
19.72250	360529
19.73063	311586
19.73875	262759
19.74688	233336
19.75500	216036
19.76312	190549
19.77125	178862
19.77937	174369
19.78750	162383
19.79562	167544
19.80373	164626
19.81187	160570
19.81998	160094
19.82812	160570
19.83623	159277
19.84435	160222
19.85248	162545
19.86060	230206
19.86872	512568
19.87685	1377576
19.88497	3515224
19.89310	7887748
19.90122	1.469856E+07
19.90933	2.245048E+07
19.91747	2.821388E+07
19.92558	3.077465E+07
19.93372	2.831349E+07
19.94183	2.306596E+07
19.94995	1.706039E+07
19.95808	1.182498E+07
19.96620	8393750
19.97432	6352643
19.98245	5373176
19.99057	4547213
19.99870	4190180
20.00682	3826595
20.01493	3496163
20.02307	3265509
20.03118	3067434
20.03932	2798538
20.04743	2523239
20.05555	2238596
20.06368	1894469
20.07180	1514561
20.07993	1173237
20.08805	895644
20.09617	726219
20.10430	582948
20.11242	538247
20.12053	495107
20.12867	470109
20.13678	445725
20.14492	427023
20.15303	408242
20.16115	400188
20.16928	393570
20.17740	391803
20.18553	402807
20.19365	409409
20.20177	420011
20.20990	410916
20.21802	406467
20.22615	384459
20.23427	377156
20.24238	352301
20.25052	343111
20.25863	341894
20.26675	352606
20.27488	383543
20.28300	453394
20.29113	526725
20.29925	576763
20.30737	597277
20.31550	581647
20.32362	537015
20.33175	448399
20.33987	385136
20.34798	313018
20.35612	279974
20.36423	230062
20.37237	194428
20.38048	172347
20.38860	151113
20.39673	139374
20.40485	131118
20.41297	131149
20.42110	121834
20.42922	126126
20.43735	133804
20.44547	144452
20.45358	157396
20.46172	164275
20.46983	169358
20.47797	172642
20.48608	163387
20.49420	148955
20.50233	142010
20.51045	131243
20.51857	119908
20.52670	114123
20.53482	110431
20.54295	113161
20.55107	108757
20.55918	107819
20.56732	102287
20.57543	101519
20.58357	101004
20.59168	100735
20.59980	94404
20.60793	98902
20.61605	96161
20.62418	92788
20.63230	99026
20.64042	91795
20.64855	96962
20.65667	89930
20.66478	91864
20.67292	92383
20.68103	93653
20.68917	94608
20.69728	95209
20.70540	85188
20.71353	93083
20.72165	80874
20.72978	86111
20.73790	84747
20.74602	90648
20.75415	86057
20.76227	85002
20.77038	88130
20.77852	89973
20.78663	86735
20.79477	96131
20.80288	114712
20.81100	120272
20.81913	162806
20.82725	198199
20.83538	234902
20.84350	229569
20.85162	209693
20.85975	181180
20.86787	145977
20.87600	119860
20.88412	107928
20.89223	92917
20.90037	95080
20.90848	86895
20.91660	85227
20.92473	82658
20.93285	84670
20.94098	87811
20.94910	86456
20.95722	84516
20.96535	85600
20.97347	84262
20.98160	88829
20.98972	79835
20.99783	84568
21.00597	85307
21.01408	74125
21.02222	75232
21.03033	78219
21.03845	78309
21.04658	74541
21.05470	80558
21.06282	83486
21.07095	76518
21.07907	80008
21.08720	75878
21.09532	78899
21.10343	80008
21.11157	70118
21.11968	72215
21.12782	73428
21.13593	74691
21.14405	78274
21.15218	85635
21.16030	89514
21.16842	104996
21.17655	113003
21.18467	113833
21.19280	109681
21.20092	105128
21.20903	95216
21.21717	91002
21.22528	88227
21.23342	84281
21.24153	80551
21.24965	84970
21.25778	81683
21.26590	79882
21.27403	74646
21.28215	79363
21.29027	77053
21.29840	78241
21.30652	85176
21.31463	75172
21.32277	75682
21.33088	71704
21.33902	72434
21.34713	70188
21.35525	72574
21.36338	75876
21.37150	72298
21.37963	72172
21.38775	75232
21.39587	75794
21.40400	80435
21.41212	84215
21.42025	94998
21.42837	102573
21.43648	99639
21.44462	104692
21.45273	96211
21.46085	90277
21.46898	82776
21.47710	78524
21.48523	75366
21.49335	77499
21.50147	78398
21.50960	72164
21.51772	74121
21.52585	72646
21.53397	66504
21.54208	62186
21.55022	72545
21.55833	67307
21.56645	68858
21.57458	68100
21.58270	70860
21.59083	73118
21.59895	77972
21.60707	78899
21.61520	80814
21.62332	81789
21.63145	78816
21.63957	81341
21.64768	93013
21.65582	103628
21.66393	118977
21.67207	126088
21.68018	123130
21.68830	123088
21.69643	106414
21.70455	101820
21.71267	91601
21.72080	83576
21.72892	77320
21.73705	72739
21.74517	74128
21.75328	74238
21.76142	66154
21.76953	70579
21.77767	62988
21.78578	67908
21.79390	66192
21.80203	61948
21.81015	62259
21.81827	61047
21.82640	61799
21.83452	61937
21.84265	72284
21.85077	89738
21.85888	99142
21.86702	104549
21.87513	103640
21.88327	95284
21.89138	89192
21.89950	77052
21.90763	68126
21.91575	69666
21.92388	61912
21.93200	58857
21.94012	54631
21.94825	56465
21.95637	54573
21.96448	53218
21.97262	50377
21.98073	48096
21.98887	52760
21.99698	47475
22.00510	49586
22.01323	50724
22.02135	42186
22.02948	43248
22.03760	46027
22.04572	49612
22.05385	49026
22.06197	50190
22.07010	47442
22.07822	48108
22.08633	48490
22.09447	46090
22.10258	48479
22.11070	47703
22.11883	46895
22.12695	49080
22.13508	50254
22.14320	44291
22.15132	46856
22.15945	46728
22.16757	46343
22.17570	58537
22.18382	50203
22.19193	46641
22.20007	49112
22.20818	49722
22.21630	50948
22.22443	42528
22.23255	52148
22.24068	53102
22.24880	53836
22.25692	55989
22.26505	55043
22.27317	59479
22.28130	56992
22.28942	46373
22.29753	51341
22.30567	51584
22.31378	58673
22.32192	67714
22.33003	76413
22.33815	96303
22.34628	105441
22.35440	120849
22.36252	124374
22.37065	117264
22.37877	99430
22.38690	83244
22.39502	81582
22.40313	74899
22.41127	80881
22.41938	86715
22.42752	99813
22.43563	105347
22.44375	104982
22.45188	103127
22.46000	96908
22.46813	82689
22.47625	71263
22.48437	62405
22.49250	58501
22.50062	62134
22.50873	74350
22.51687	74666
22.52498	81317
22.53312	95939
22.54123	97775
22.54935	95516
22.55748	97722
22.56560	94612
22.57373	96356
22.58185	99642
22.58997	98582
22.59810	94764
22.60622	90872
22.61433	89776
22.62247	89290
22.63058	100643
22.63872	93451
22.64683	90934
22.65495	92575
22.66308	90597
22.67120	93041
22.67933	97325
22.68745	101638
22.69557	105702
22.70370	107348
22.71182	104825
22.71995	113827
22.72807	119100
22.73618	114389
22.74432	107889
22.75243	111295
22.76055	106369
22.76868	100156
22.77680	101685
22.78493	100799
22.79305	97661
22.80117	106399
22.80930	108878
22.81742	122405
22.82555	123650
22.83367	130602
22.84178	125629
22.84992	118670
22.85803	109071
22.86615	103705
22.87428	103117
22.88240	101061
22.89053	104273
22.89865	110078
22.90677	120636
22.91490	115949
22.92302	117525
22.93115	132854
22.93927	146396
22.94738	154030
22.95552	156931
22.96363	149892
22.97177	146096
22.97988	120516
22.98800	113800
22.99613	102844
23.00425	96544
23.01237	81697
23.02050	81397
23.02862	73950
23.03675	68769
23.04487	60166
23.05298	62584
23.06112	61673
23.06923	63317
23.07737	57214
23.08548	62376
23.09360	56357
23.10173	56488
23.10985	61200
23.11798	61044
23.12610	50831
23.13422	55279
23.14235	54560
23.15047	49362
23.15858	53944
23.16672	51557
23.17483	52349
23.18297	46637
23.19108	49335
23.19920	47803
23.20733	52195
23.21545	48678
23.22358	48665
23.23170	49029
23.23982	46929
23.24795	58289
23.25607	58865
23.26418	72192
23.27232	89151
23.28043	105862
23.28857	121502
23.29668	127059
23.30480	122223
23.31293	120198
23.32105	114438
23.32918	108022
23.33730	124807
23.34542	124098
23.35355	128126
23.36167	147383
23.36980	180956
23.37792	215757
23.38603	279634
23.39417	366378
23.40228	480817
23.41040	574340
23.41853	682180
23.42665	739254
23.43478	786697
23.44290	831578
23.45102	818836
23.45915	793439
23.46727	796115
23.47540	711826
23.48352	685895
23.49163	646238
23.49977	591221
23.50788	548414
23.51602	508349
23.52413	462286
23.53225	427138
23.54038	399234
23.54850	369146
23.55662	353031
23.56475	337649
23.57287	333280
23.58100	322703
23.58912	302924
23.59723	315027
23.60537	311264
23.61348	315334
23.62162	305034
23.62973	295912
23.63785	285113
23.64598	295124
23.65410	328671
23.66222	407256
23.67035	502496
23.67847	588228
23.68660	633477
23.69472	616026
23.70283	540462
23.71097	454791
23.71908	369446
23.72722	307876
23.73533	261965
23.74345	234671
23.75158	217950
23.75970	215129
23.76783	288139
23.77595	507353
23.78407	973935
23.79220	1812288
23.80032	2709692
23.80843	3455355
23.81657	3650978
23.82468	3270815
23.83282	2632470
23.84093	2066295
23.84905	1530719
23.85718	1110482
23.86530	870022
23.87343	718708
23.88155	606357
23.88967	520781
23.89780	451977
23.90592	405516
23.91405	387451
23.92217	354447
23.93028	358903
23.93842	342759
23.94653	318193
23.95465	299247
23.96278	282419
23.97090	259559
23.97903	246710
23.98715	244642
23.99527	239873
24.00340	228078
24.01152	209517
24.01965	206863
24.02777	209143
24.03588	211358
24.04402	208382
24.05213	221131
24.06025	212359
24.06838	212817
24.07650	195964
24.08463	196512
24.09275	190635
24.10087	175498
24.10900	167910
24.11712	165029
24.12525	166475
24.13337	156389
24.14148	155120
24.14962	155147
24.15773	166546
24.16587	167385
24.17398	172262
24.18210	173735
24.19023	164555
24.19835	157572
24.20647	156119
24.21460	157145
24.22272	154564
24.23085	157247
24.23897	151846
24.24708	154582
24.25522	156301
24.26333	151108
24.27147	148181
24.27958	141314
24.28770	135650
24.29583	130800
24.30395	131464
24.31207	131609
24.32020	133571
24.32832	124212
24.33645	130750
24.34457	130590
24.35268	124173
24.36082	119019
24.36893	117140
24.37707	115296
24.38518	116763
24.39330	115796
24.40143	127069
24.40955	135657
24.41768	151480
24.42580	166147
24.43392	162388
24.44205	162269
24.45017	129535
24.45828	120463
24.46642	99676
24.47453	103530
24.48267	103356
24.49078	106294
24.49890	112270
24.50703	116482
24.51515	121308
24.52328	139776
24.53140	139467
24.53952	156026
24.54765	187090
24.55577	217180
24.56390	229743
24.57202	237349
24.58013	236771
24.58827	204438
24.59638	182889
24.60450	161124
24.61263	145227
24.62075	134728
24.62888	124884
24.63700	116157
24.64512	104117
24.65325	102178
24.66137	99965
24.66950	91150
24.67762	95061
24.68573	93630
24.69387	88810
24.70198	84072
24.71010	82441
24.71823	77862
24.72635	77938
24.73448	73485
24.74260	74784
24.75072	74798
24.75885	72053
24.76697	75619
24.77510	72315
24.78322	76465
24.79133	75147
24.79947	75638
24.80758	82327
24.81572	73878
24.82383	76373
24.83195	74622
24.84008	75232
24.84820	81462
24.85632	92627
24.86445	109633
24.87257	136025
24.88070	176738
24.88882	230319
24.89693	304972
24.90507	372365
24.91318	378854
24.92132	383462
24.92943	298356
24.93755	246164
24.94568	172454
24.95380	148634
24.96193	145264
24.97005	153891
24.97817	159951
24.98630	164284
24.99442	165612
25.00253	174536
25.01067	172260
25.01878	172868
25.02692	177648
25.03503	188131
25.04315	185691
25.05128	197527
25.05940	194386
25.06753	196639
25.07565	202473
25.08377	207785
25.09190	206236
25.10002	217646
25.10813	225180
25.11627	259066
25.12438	346682
25.13252	553868
25.14063	867167
25.14875	1321835
25.15688	1803905
25.16500	2111796
25.17313	2009047
25.18125	1703868
25.18937	1285760
25.19750	897473
25.20562	591389
25.21375	426610
25.22187	333444
25.22998	284625
25.23812	252402
25.24623	253110
25.25435	248736
25.26248	255139
25.27060	280098
25.27873	276476
25.28685	296241
25.29497	302709
25.30310	281865
25.31122	262327
25.31935	246492
25.32747	234486
25.33558	214023
25.34372	206937
25.35183	198230
25.35995	196664
25.36808	194645
25.37620	178266
25.38433	186128
25.39245	177318
25.40057	174677
25.40870	163823
25.41682	163022
25.42495	168200
25.43307	162240
25.44118	164471
25.44932	164703
25.45743	155521
25.46557	156550
25.47368	151090
25.48180	157879
25.48993	151726
25.49805	159335
25.50617	148839
25.51430	151180
25.52242	157750
25.53055	142655
25.53867	141883
25.54678	138240
25.55492	135346
25.56303	124027
25.57117	105227
25.57928	90825
25.58740	83444
25.59553	82504
25.60365	83158
25.61178	78911
25.61990	74161
25.62802	78732
25.63615	76618
25.64427	71330
25.65238	75005
25.66052	77496
25.66863	75502
25.67677	77777
25.68488	75489
25.69300	82402
25.70113	73057
25.70925	72314
25.71738	72322
25.72550	69181
25.73362	73410
25.74175	67301
25.74987	67867
25.75800	68059
25.76612	69191
25.77423	67603
25.78237	64589
25.79048	65276
25.79860	62460
25.80673	61492
25.81485	63059
25.82298	67647
25.83110	71847
25.83922	76004
25.84735	74951
25.85547	71066
25.86360	72649
25.87172	70223
25.87983	69930
25.88797	62191
25.89608	62558
25.90420	58818
25.91233	58757
25.92045	53576
25.92858	60178
25.93670	62609
25.94482	67618
25.95295	86329
25.96107	129263
25.96920	165986
25.97732	186813
25.98543	213787
25.99357	209358
26.00168	220525
26.00982	230184
26.01793	240972
26.02605	222679
26.03418	234775
26.04230	225489
26.05042	237076
26.05855	236520
26.06667	238395
26.07480	234194
26.08292	237902
26.09103	235448
26.09917	239116
26.10728	237467
26.11542	239090
26.12353	237975
26.13165	247032
26.13978	239929
26.14790	242024
26.15602	244238
26.16415	251960
26.17227	250352
26.18040	242684
26.18852	243787
26.19663	242614
26.20477	237651
26.21288	232382
26.22102	231484
26.22913	224212
26.23725	223545
26.24538	210106
26.25350	216001
26.26163	214444
26.26975	219162
26.27787	210965
26.28600	212335
26.29412	211887
26.30223	209506
26.31037	204519
26.31848	196517
26.32662	199098
26.33473	200635
26.34285	198896
26.35098	191959
26.35910	194016
26.36723	191470
26.37535	185551
26.38347	193725
26.39160	198564
26.39972	206343
26.40785	206441
26.41597	210426
26.42408	208140
26.43222	200539
26.44033	190496
26.44845	192747
26.45658	185524
26.46470	172391
26.47283	178670
26.48095	166679
26.48907	172831
26.49720	171919
26.50532	171363
26.51345	166116
26.52157	157635
26.52968	158967
26.53782	153135
26.54593	154028
26.55405	152173
26.56218	150902
26.57030	152525
26.57843	142693
26.58655	143199
26.59467	141560
26.60280	143931
26.61092	143424
26.61905	141377
26.62717	135920
26.63528	133980
26.64342	133870
26.65153	143471
26.65967	138509
26.66778	140455
26.67590	141484
26.68403	140381
26.69215	139454
26.70027	140175
26.70840	139874
26.71652	133130
26.72465	128013
26.73277	122605
26.74088	122428
26.74902	118746
26.75713	123480
26.76527	122961
26.77338	119696
26.78150	125598
26.78963	118993
26.79775	121134
26.80588	123424
26.81400	129178
26.82212	121154
26.83025	119522
26.83837	126045
26.84648	121376
26.85462	116840
26.86273	117415
26.87087	109200
26.87898	115777
26.88710	111347
26.89523	108655
26.90335	112257
26.91148	106613
26.91960	106869
26.92772	105965
26.93585	102901
26.94397	106686
26.95208	105792
26.96022	107970
26.96833	107750
26.97647	116074
26.98458	128858
26.99270	182766
27.00083	267712
27.00895	424768
27.01708	689989
27.02520	975999
27.03332	1200504
27.04145	1353513
27.04957	1335137
27.05770	1132451
27.06582	932332
27.07393	746831
27.08207	605993
27.09018	461805
27.09830	387097
27.10643	332059
27.11455	282124
27.12268	257809
27.13080	232793
27.13892	230912
27.14705	204808
27.15517	195262
27.16330	188992
27.17142	184073
27.17953	185079
27.18767	175791
27.19578	174871
27.20390	176550
27.21203	173068
27.22015	162207
27.22828	159412
27.23640	155384
27.24452	148858
27.25265	139788
27.26077	131446
27.26890	130413
27.27702	127437
27.28513	119095
27.29327	118818
27.30138	111641
27.30952	113206
27.31763	111932
27.32575	108273
27.33388	108571
27.34200	111723
27.35012	105258
27.35825	100914
27.36637	101830
27.37450	102682
27.38262	101265
27.39073	96217
27.39887	100723
27.40698	99216
27.41512	94568
27.42323	93119
27.43135	92980
27.43948	91643
27.44760	85468
27.45573	85926
27.46385	92780
27.47197	85185
27.48010	88003
27.48822	94282
27.49633	93706
27.50447	90747
27.51258	82415
27.52072	89763
27.52883	84854
27.53695	91916
27.54508	82711
27.55320	80680
27.56133	84804
27.56945	79056
27.57757	83235
27.58570	86051
27.59382	88082
27.60193	89012
27.61007	101567
27.61818	102699
27.62632	96675
27.63443	94485
27.64255	91376
27.65068	86415
27.65880	80881
27.66693	76995
27.67505	72848
27.68317	73945
27.69130	70729
27.69942	74522
27.70755	73276
27.71567	69116
27.72378	68400
27.73192	69674
27.74003	73029
27.74815	67996
27.75628	70407
27.76440	71595
27.77253	70045
27.78065	70115
27.78877	71385
27.79690	70408
27.80502	68470
27.81315	69195
27.82127	72845
27.82938	67170
27.83752	74397
27.84563	76246
27.85377	70863
27.86188	74530
27.87000	68237
27.87813	71689
27.88625	69040
27.89437	67612
27.90250	71460
27.91062	63192
27.91875	60373
27.92687	63333
27.93498	63078
27.94312	62168
27.95123	65227
27.95937	62139
27.96748	62158
27.97560	58241
27.98373	67655
27.99185	63262
27.99997	62140
28.00810	63425
28.01622	63203
28.02435	67196
28.03247	62974
28.04058	66637
28.04872	67494
28.05683	68900
28.06497	65478
28.07308	67699
28.08120	68131
28.08933	71545
28.09745	74753
28.10558	67414
28.11370	65174
28.12182	63506
28.12995	65009
28.13807	62145
28.14618	63993
28.15432	57627
28.16243	58949
28.17057	56379
28.17868	55058
28.18680	57057
28.19493	56956
28.20305	66172
28.21118	71038
28.21930	76106
28.22742	84632
28.23555	86614
28.24367	88862
28.25178	90965
28.25992	77949
28.26803	66513
28.27617	77042
28.28428	70461
28.29240	59747
28.30053	58728
28.30865	59769
28.31678	64184
28.32490	72530
28.33302	87041
28.34115	101958
28.34927	121800
28.35740	129239
28.36552	152301
28.37363	176124
28.38177	192695
28.38988	194207
28.39800	198512
28.40613	203771
28.41425	199217
28.42238	185627
28.43050	175508
28.43862	176761
28.44675	143615
28.45487	138209
28.46300	126066
28.47112	117530
28.47923	107296
28.48737	104832
28.49548	96127
28.50362	97752
28.51173	90115
28.51985	86952
28.52798	84448
28.53610	81893
28.54422	81557
28.55235	77010
28.56047	75740
28.56860	74568
28.57672	73414
28.58483	73828
28.59297	72341
28.60108	75913
28.60922	73645
28.61733	71614
28.62545	71787
28.63358	65996
28.64170	73301
28.64982	72412
28.65795	71240
28.66607	77130
28.67420	72806
28.68232	78082
28.69043	77830
28.69857	72457
28.70668	71748
28.71482	68155
28.72293	64410
28.73105	64149
28.73918	63663
28.74730	56074
28.75543	58844
28.76355	65975
28.77167	71702
28.77980	69040
28.78792	77514
28.79603	88052
28.80417	89849
28.81228	90219
28.82042	85792
28.82853	73441
28.83665	67851
28.84478	63321
28.85290	66775
28.86103	62558
28.86915	62772
28.87727	65678
28.88540	59543
28.89352	67730
28.90165	68794
28.90977	70995
28.91788	75921
28.92602	67217
28.93413	68001
28.94225	62808
28.95038	69537
28.95850	69908
28.96663	71070
28.97475	72620
28.98287	69551
28.99100	73843
28.99912	73366
29.00725	59837
29.01537	61951
29.02348	57854
29.03162	54325
29.03973	59670
29.04785	56544
29.05598	54843
29.06410	58772
29.07223	60311
29.08035	61110
29.08847	60970
29.09660	55563
29.10472	60968
29.11285	60909
29.12097	56805
29.12908	54793
29.13722	61026
29.14533	58409
29.15347	56867
29.16158	59439
29.16970	60327
29.17783	59335
29.18595	61852
29.19407	61960
29.20220	67164
29.21032	77054
29.21845	86098
29.22657	89611
29.23468	89337
29.24282	88591
29.25093	82099
29.25907	82093
29.26718	78791
29.27530	67721
29.28343	68073
29.29155	62428
29.29968	56977
29.30780	56809
29.31592	54979
29.32405	50663
29.33217	58143
29.34028	55839
29.34842	58477
29.35653	51530
29.36467	55230
29.37278	52435
29.38090	61808
29.38903	56710
29.39715	51331
29.40528	54087
29.41340	52622
29.42152	55046
29.42965	58134
29.43777	58739
29.44588	55578
29.45402	55436
29.46213	55711
29.47027	51335
29.47838	52162
29.48650	48837
29.49463	54088
29.50275	53722
29.51088	60258
29.51900	60989
29.52712	59263
29.53525	58138
29.54337	57576
29.55150	52053
29.55962	56644
29.56773	52437
29.57587	51527
29.58398	47731
29.59210	50500
29.60023	50471
29.60835	53346
29.61648	46551
29.62460	49219
29.63272	50165
29.64085	51943
29.64897	51771
29.65710	49793
29.66522	46958
29.67333	48384
29.68147	51284
29.68958	51878
29.69770	53629
29.70583	55963
29.71395	54915
29.72208	56648
29.73020	55960
29.73832	50299
29.74645	51432
29.75457	54655
29.76270	51214
29.77082	49387
29.77893	46663
29.78707	48021
29.79518	45599
29.80332	41799
29.81143	46959
29.81955	49125
29.82768	50190
29.83580	48640
29.84392	47040
29.85205	49419
29.86017	44474
29.86830	46898
29.87642	50958
29.88453	68262
29.89267	87924
29.90078	108876
29.90892	136047
29.91703	165486
29.92515	154595
29.93328	138897
29.94140	109053
29.94953	91466
29.95765	74032
29.96577	65610
29.97390	62922
29.98202	64023
29.99013	73487
29.99827	75889
30.00638	87471
30.01452	89667
30.02263	104177
30.03075	107351
30.03888	112739
30.04700	116453
30.05513	109010
30.06325	116985
30.07137	110509
30.07950	110138
30.08762	105883
30.09573	102954
30.10387	93384
30.11198	95268
30.12012	90464
30.12823	85155
30.13635	87368
30.14448	84399
30.15260	78828
30.16073	74143
30.16885	72467
30.17697	75159
30.18510	68207
30.19322	68561
30.20135	68479
30.20947	64768
30.21758	66432
30.22572	68691
30.23383	63157
30.24195	61778
30.25008	58544
30.25820	59763
30.26633	59165
30.27445	54397
30.28257	61285
30.29070	63906
30.29882	57132
30.30695	51207
30.31507	55671
30.32318	51257
30.33132	55672
30.33943	53806
30.34757	54138
30.35568	56135
30.36380	56887
30.37193	54879
30.38005	54411
30.38817	57236
30.39630	61575
30.40442	56533
30.41255	58883
30.42067	55253
30.42878	52255
30.43692	55000
30.44503	51297
30.45317	51597
30.46128	47980
30.46940	50256
30.47753	51645
30.48565	53984
30.49377	54824
30.50190	55602
30.51002	58827
30.51815	54513
30.52627	49120
30.53438	48494
30.54252	46064
30.55063	48375
30.55877	50763
30.56688	49841
30.57500	48395
30.58313	50646
30.59125	47710
30.59938	46614
30.60750	52043
30.61562	46344
30.62375	50651
30.63187	51279
30.63998	48334
30.64812	46036
30.65623	44163
30.66437	51900
30.67248	46517
30.68060	47100
30.68873	47165
30.69685	52024
30.70498	48204
30.71310	48010
30.72122	52114
30.72935	48920
30.73747	54680
30.74558	51040
30.75372	55993
30.76183	53202
30.76997	52802
30.77808	52499
30.78620	53088
30.79433	59086
30.80245	63734
30.81058	80528
30.81870	84216
30.82682	94168
30.83495	98664
30.84307	85265
30.85120	82232
30.85932	66799
30.86743	65282
30.87557	56856
30.88368	53361
30.89180	55869
30.89993	52610
30.90805	50141
30.91618	56103
30.92430	55652
30.93242	55032
30.94055	50318
30.94867	51038
30.95680	55058
30.96492	54469
30.97303	57869
30.98117	57240
30.98928	52550
30.99742	54709
31.00553	54947
31.01365	62265
31.02178	52925
31.02990	54851
31.03802	57373
31.04615	56920
31.05427	57806
31.06240	60315
31.07052	55409
31.07863	60378
31.08677	67834
31.09488	79208
31.10302	104039
31.11113	137411
31.11925	161398
31.12738	173286
31.13550	161515
31.14363	142542
31.15175	110528
31.15987	84192
31.16800	75298
31.17612	69334
31.18423	58908
31.19237	67106
31.20048	77529
31.20862	93378
31.21673	119806
31.22485	141093
31.23298	166811
31.24110	172091
31.24923	162412
31.25735	146178
31.26547	114652
31.27360	91146
31.28172	74672
31.28983	62848
31.29797	54907
31.30608	56395
31.31422	56684
31.32233	53023
31.33045	53666
31.33858	52937
31.34670	51378
31.35483	55833
31.36295	53536
31.37107	55561
31.37920	60455
31.38732	61912
31.39545	69276
31.40357	70806
31.41168	69149
31.41982	67398
31.42793	64648
31.43605	57415
31.44418	54026
31.45230	54683
31.46043	51861
31.46855	52194
31.47667	52639
31.48480	54177
31.49292	47332
31.50105	50367
31.50917	50713
31.51728	57126
31.52542	47521
31.53353	46008
31.54165	49489
31.54978	49441
31.55790	51082
31.56603	46898
31.57415	49932
31.58227	42901
31.59040	45494
31.59852	48510
31.60665	54883
31.61477	52972
31.62288	61395
31.63102	56521
31.63913	62007
31.64727	61394
31.65538	62440
31.66350	62699
31.67163	67371
31.67975	67590
31.68787	67760
31.69600	69346
31.70412	68859
31.71225	70040
31.72037	63308
31.72848	69140
31.73662	68308
31.74473	59490
31.75287	64962
31.76098	66946
31.76910	65628
31.77723	65602
31.78535	65892
31.79348	68808
31.80160	66808
31.80972	65822
31.81785	64564
31.82597	68016
31.83408	69878
31.84222	74685
31.85033	70030
31.85847	66812
31.86658	76145
31.87470	75547
31.88283	77409
31.89095	73237
31.89908	77758
31.90720	78190
31.91532	83790
31.92345	82647
31.93157	93017
31.93968	93108
31.94782	99465
31.95593	102594
31.96407	100207
31.97218	105018
31.98030	112454
31.98843	111396
31.99655	112641
32.00468	110068
32.01280	106461
32.02092	107261
32.02905	106005
32.03717	98540
32.04530	100837
32.05342	94216
32.06153	88267
32.06967	87457
32.07778	85658
32.08590	88474
32.09403	87154
32.10215	91062
32.11028	80366
32.11840	82035
32.12652	72752
32.13465	72782
32.14277	69664
32.15090	65688
32.15902	67841
32.16713	66138
32.17527	65752
32.18338	65197
32.19152	61897
32.19963	60910
32.20775	63952
32.21588	61850
32.22400	59303
32.23212	60378
32.24025	59319
32.24837	62504
32.25650	64716
32.26462	62504
32.27273	61552
32.28087	65611
32.28898	60307
32.29712	66999
32.30523	63764
32.31335	60251
32.32148	59371
32.32960	59709
32.33772	64169
32.34585	55042
32.35397	54975
32.36210	55135
32.37022	56656
32.37833	63473
32.38647	62820
32.39458	53691
32.40272	53737
32.41083	58562
32.41895	50616
32.42708	45482
32.43520	60871
32.44333	59858
32.45145	54486
32.45957	48563
32.46770	52538
32.47582	51026
32.48393	52965
32.49207	52193
32.50018	53965
32.50832	48755
32.51643	50665
32.52455	49360
32.53268	51902
32.54080	53818
32.54893	48257
32.55705	50014
32.56517	52563
32.57330	49349
32.58142	50422
32.58953	52315
32.59767	50898
32.60578	49711
32.61392	48447
32.62203	47958
32.63015	45384
32.63828	49152
32.64640	48720
32.65453	51720
32.66265	50557
32.67077	56316
32.67890	59730
32.68702	66773
32.69515	66251
32.70327	66206
32.71138	63046
32.71952	63824
32.72763	58938
32.73575	57673
32.74388	55744
32.75200	50618
32.76013	51543
32.76825	47145
32.77637	46917
32.78450	51530
32.79262	48555
32.80075	44573
32.80887	44297
32.81698	44512
32.82512	46401
32.83323	46921
32.84137	45188
32.84948	43614
32.85760	43862
32.86573	44123
32.87385	44093
32.88197	49096
32.89010	45577
32.89822	44503
32.90635	47938
32.91447	46260
32.92258	47618
32.93072	51290
32.93883	46808
32.94697	48411
32.95508	48089
32.96320	48402
32.97133	47804
32.97945	51523
32.98757	49707
32.99570	56397
33.00382	58032
33.01195	66174
33.02007	70941
33.02818	66877
33.03632	62673
33.04443	60509
33.05257	59795
33.06068	56186
33.06880	54533
33.07693	54137
33.08505	58776
33.09318	55082
33.10130	63518
33.10942	70619
33.11755	79013
33.12567	86330
33.13378	84274
33.14192	82393
33.15003	88269
33.15817	70207
33.16628	66042
33.17440	55755
33.18253	53839
33.19065	49797
33.19878	50891
33.20690	49145
33.21502	49334
33.22315	54866
33.23127	51428
33.23940	51863
33.24752	49678
33.25563	46595
33.26377	50007
33.27188	48147
33.28000	47489
33.28813	48306
33.29625	46751
33.30438	44438
33.31250	47746
33.32062	45838
33.32875	46099
33.33687	47407
33.34500	44200
33.35312	46531
33.36123	50549
33.36937	49683
33.37748	47287
33.38560	48559
33.39373	53304
33.40185	52425
33.40998	49524
33.41810	44132
33.42622	42941
33.43435	47012
33.44247	43075
33.45060	43296
33.45872	48023
33.46683	48352
33.47497	44932
33.48308	45242
33.49122	45928
33.49933	46789
33.50745	44338
33.51558	45142
33.52370	48961
33.53182	48693
33.53995	54035
33.54807	46780
33.55620	51484
33.56432	59196
33.57243	58821
33.58057	52013
33.58868	53594
33.59682	50737
33.60493	49694
33.61305	46462
33.62118	43674
33.62930	42477
33.63743	45188
33.64555	43597
33.65367	47291
33.66180	51325
33.66992	51083
33.67803	48390
33.68617	47719
33.69428	45319
33.70242	46302
33.71053	45301
33.71865	46213
33.72678	48412
33.73490	47228
33.74303	47445
33.75115	51254
33.75927	44437
33.76740	43701
33.77552	43723
33.78363	41734
33.79177	44496
33.79988	47796
33.80802	45346
33.81613	46068
33.82425	44832
33.83238	45138
33.84050	40271
33.84863	45696
33.85675	49429
33.86487	44842
33.87300	47727
33.88112	49507
33.88925	46063
33.89737	50004
33.90548	48168
33.91362	47265
33.92173	47142
33.92985	42204
33.93798	49588
33.94610	44416
33.95423	45820
33.96235	51734
33.97047	46639
33.97860	44170
33.98672	43541
33.99485	44275
34.00297	49644
34.01108	43129
34.01922	42079
34.02733	42114
34.03545	46466
34.04358	44094
34.05170	43599
34.05983	43386
34.06795	47665
34.07607	42553
34.08420	41788
34.09232	46226
34.10045	40204
34.10857	46900
34.11668	46661
34.12482	42952
34.13293	47902
34.14107	43925
34.14918	40282
34.15730	44852
34.16543	47543
34.17355	48670
34.18167	49140
34.18980	45349
34.19792	46730
34.20605	48455
34.21417	45759
34.22228	45694
34.23042	47272
34.23853	43833
34.24667	46247
34.25478	50524
34.26290	48864
34.27103	47150
34.27915	46455
34.28728	47986
34.29540	44758
34.30352	47730
34.31165	40684
34.31977	48473
34.32788	48995
34.33602	49714
34.34413	44622
34.35227	46546
34.36038	48700
34.36850	47080
34.37663	53876
34.38475	44486
34.39288	49089
34.40100	45374
34.40912	46741
34.41725	44995
34.42537	46408
34.43348	49371
34.44162	45009
34.44973	47305
34.45787	45293
34.46598	48371
34.47410	54615
34.48223	49601
34.49035	46494
34.49848	47302
34.50660	45738
34.51472	45894
34.52285	48411
34.53097	53539
34.53910	51919
34.54722	56990
34.55533	60907
34.56347	73745
34.57158	79159
34.57970	81709
34.58783	79735
34.59595	77127
34.60408	70919
34.61220	64552
34.62032	61800
34.62845	63717
34.63657	66427
34.64470	61161
34.65282	60437
34.66093	58418
34.66907	55627
34.67718	56015
34.68532	55473
34.69343	55961
34.70155	57579
34.70968	52725
34.71780	49418
34.72592	53839
34.73405	55164
34.74217	51814
34.75030	50805
34.75842	50107
34.76653	50251
34.77467	56586
34.78278	53566
34.79092	52869
34.79903	49730
34.80715	47789
34.81528	50221
34.82340	50593
34.83152	46740
34.83965	52078
34.84777	51134
34.85590	53850
34.86402	55486
34.87213	47175
34.88027	47753
34.88838	48081
34.89652	50350
34.90463	51900
34.91275	47743
34.92088	48905
34.92900	48013
34.93713	51187
34.94525	56552
34.95337	67529
34.96150	90592
34.96962	125607
34.97773	188337
34.98587	246438
34.99398	288711
35.00212	282389
35.01023	237979
35.01835	170552
35.02648	121716
35.03460	92842
35.04273	75230
35.05085	60164
35.05897	61208
35.06710	63289
35.07522	60236
35.08333	58491
35.09147	62546
35.09958	58643
35.10772	60527
35.11583	59680
35.12395	57352
35.13208	56424
35.14020	55744
35.14833	63616
35.15645	56644
35.16457	60022
35.17270	56099
35.18082	60297
35.18895	59940
35.19707	58989
35.20518	61064
35.21332	58250
35.22143	55374
35.22955	56588
35.23768	54082
35.24580	55974
35.25393	57233
35.26205	56419
35.27017	55955
35.27830	52500
35.28642	64854
35.29455	58053
35.30267	54382
35.31078	55830
35.31892	52027
35.32703	51005
35.33517	55852
35.34328	51503
35.35140	61008
35.35953	52557
35.36765	50903
35.37577	55129
35.38390	50612
35.39202	51644
35.40015	51910
35.40827	53289
35.41638	50886
35.42452	54202
35.43263	54619
35.44077	54768
35.44888	55033
35.45700	53342
35.46513	55575
35.47325	54771
35.48138	55644
35.48950	60036
35.49762	55989
35.50575	57415
35.51387	56485
35.52198	52763
35.53012	53559
35.53823	52767
35.54637	57431
35.55448	54924
35.56260	50869
35.57073	52346
35.57885	51491
35.58698	52974
35.59510	51106
35.60322	55547
35.61135	50734
35.61947	51687
35.62758	53130
35.63572	49667
35.64383	52054
35.65197	48535
35.66008	51951
35.66820	52803
35.67633	54257
35.68445	51875
35.69258	55266
35.70070	60394
35.70882	56176
35.71695	56059
35.72507	57770
35.73320	55365
35.74132	50708
35.74943	55437
35.75757	59475
35.76568	55369
35.77380	58004
35.78193	57367
35.79005	58108
35.79818	56919
35.80630	59086
35.81442	58108
35.82255	52431
35.83067	53443
35.83880	61650
35.84692	54661
35.85503	49446
35.86317	52806
35.87128	53402
35.87940	54674
35.88753	52665
35.89565	52833
35.90378	55447
35.91190	53077
35.92002	50822
35.92815	55195
35.93627	56299
35.94440	53315
35.95252	53303
35.96063	50414
35.96877	50000
35.97688	56933
35.98502	52788
35.99313	58001
36.00125	49406
36.00938	54210
36.01750	58938
36.02562	53022
36.03375	62162
36.04187	58572
36.05000	53889
36.05812	57898
36.06623	58489
36.07437	55574
36.08248	55865
36.09062	54299
36.09873	51731
36.10685	56170
36.11498	51432
36.12310	55963
36.13123	55929
36.13935	53119
36.14747	55374
36.15560	55695
36.16372	56186
36.17183	59454
36.17997	62029
36.18808	58198
36.19622	63735
36.20433	56258
36.21245	54543
36.22058	55859
36.22870	52774
36.23683	53666
36.24495	57651
36.25307	53792
36.26120	54279
36.26932	50811
36.27743	52179
36.28557	52290
36.29368	51828
36.30182	55885
36.30993	54785
36.31805	60809
36.32618	63606
36.33430	66047
36.34243	67515
36.35055	71351
36.35867	69041
36.36680	57064
36.37492	62107
36.38305	55156
36.39117	52626
36.39928	55591
36.40742	57406
36.41553	59610
36.42365	60642
36.43178	59960
36.43990	61405
36.44803	53437
36.45615	55866
36.46427	56172
36.47240	55682
36.48052	55631
36.48865	53461
36.49677	54399
36.50488	52993
36.51302	47746
36.52113	52514
36.52927	56743
36.53738	51290
36.54550	53421
36.55363	55135
36.56175	59748
36.56987	55758
36.57800	54062
36.58612	53232
36.59425	57201
36.60237	53412
36.61048	57593
36.61862	61474
36.62673	54606
36.63487	56149
36.64298	54845
36.65110	52187
36.65923	50439
36.66735	51079
36.67547	58351
36.68360	57106
36.69172	56521
36.69985	57498
36.70797	57638
36.71608	54389
36.72422	54851
36.73233	62053
36.74047	59939
36.74858	56693
36.75670	51407
36.76483	57212
36.77295	53454
36.78108	56919
36.78920	55369
36.79732	55956
36.80545	58475
36.81357	51550
36.82168	54247
36.82982	61981
36.83793	53464
36.84607	56866
36.85418	55742
36.86230	55858
36.87043	55785
36.87855	56631
36.88668	56114
36.89480	56382
36.90292	55633
36.91105	54212
36.91917	57364
36.92728	53401
36.93542	55092
36.94353	57997
36.95167	59464
36.95978	58014
36.96790	63836
36.97603	64305
36.98415	66193
36.99228	66761
37.00040	65921
37.00852	59877
37.01665	59468
37.02477	59086
37.03290	58165
37.04102	59071
37.04913	61246
37.05727	60677
37.06538	63431
37.07350	66540
37.08163	68467
37.08975	71050
37.09788	68546
37.10600	63644
37.11412	71071
37.12225	69943
37.13037	71770
37.13850	69327
37.14662	67553
37.15473	77289
37.16287	66672
37.17098	72822
37.17912	74529
37.18723	67670
37.19535	71306
37.20348	69154
37.21160	69820
37.21972	69910
37.22785	72378
37.23597	76119
37.24410	73204
37.25222	71367
37.26033	73663
37.26847	71718
37.27658	73416
37.28472	70506
37.29283	71894
37.30095	68824
37.30908	71668
37.31720	69423
37.32532	73475
37.33345	72603
37.34157	74530
37.34970	77266
37.35782	81663
37.36593	76878
37.37407	83853
37.38218	85498
37.39032	85749
37.39843	88981
37.40655	85804
37.41468	81468
37.42280	80128
37.43093	86214
37.43905	83257
37.44717	76800
37.45530	83225
37.46342	71059
37.47153	76197
37.47967	73769
37.48778	75722
