Z:\data\JTB-E02\BACandBLUE\JTB-E02-189-23.D Mon Dec 10 19:20:34 2018
Start of data points
2.09522,86894
2.10335,87886
2.11147,94118
2.11960,95230
2.12772,93441
2.13583,94493
2.14397,99434
2.15208,100014
2.16020,96577
2.16833,94031
2.17645,87174
2.18458,88850
2.19270,88459
2.20082,86127
2.20895,80809
2.21707,83412
2.22520,90108
2.23332,80195
2.24143,70998
2.24957,76071
2.25768,73882
2.26582,95257
2.27393,382665
2.28205,981982
2.29018,1234184
2.29830,723638
2.30642,412863
2.31455,317244
2.32267,272564
2.33080,236157
2.33892,222059
2.34703,212884
2.35517,192139
2.36328,181778
2.37142,173218
2.37953,176860
2.38765,165836
2.39578,167950
2.40390,160464
2.41202,151142
2.42015,154025
2.42827,157796
2.43640,155156
2.44452,150120
2.45263,155475
2.46077,143749
2.46888,144398
2.47702,141523
2.48513,141827
2.49325,137046
2.50138,158462
2.50950,155256
2.51763,143942
2.52575,136816
2.53387,135102
2.54200,128900
2.55012,134240
2.55823,143529
2.56637,154742
2.57448,145808
2.58262,139421
2.59073,130533
2.59885,127821
2.60698,148910
2.61510,234286
2.62323,316277
2.63135,271349
2.63947,196915
2.64760,170278
2.65572,153493
2.66385,147854
2.67197,138847
2.68008,142252
2.68822,128772
2.69633,123943
2.70445,121008
2.71258,123084
2.72070,119714
2.72883,123773
2.73695,117269
2.74507,128397
2.75320,118687
2.76132,113695
2.76945,125655
2.77757,607884
2.78568,3735755
2.79382,8870789
2.80193,8883709
2.81005,5002766
2.81818,2947507
2.82630,2172232
2.83443,1682002
2.84255,1274137
2.85067,1020357
2.85880,847855
2.86692,722359
2.87505,625365
2.88317,546588
2.89128,485953
2.89942,438309
2.90753,406884
2.91567,374702
2.92378,335440
2.93190,318007
2.94003,299652
2.94815,289057
2.95627,272817
2.96440,251501
2.97252,252817
2.98065,229692
2.98877,228079
2.99688,234191
3.00502,238415
3.01313,241596
3.02127,231854
3.02938,232125
3.03750,207345
3.04563,197533
3.05375,192616
3.06187,180338
3.07000,176925
3.07812,182367
3.08625,212996
3.09437,383785
3.10248,842014
3.11062,2057484
3.11873,3590501
3.12687,3346237
3.13498,2111759
3.14310,1365974
3.15123,1008199
3.15935,798716
3.16748,720522
3.17560,824958
3.18372,1216868
3.19185,3023623
3.19997,6779733
3.20808,8375279
3.21622,6189269
3.22433,4020396
3.23247,2908618
3.24058,2214189
3.24870,1820361
3.25683,1493259
3.26495,1251585
3.27308,1085117
3.28120,968065
3.28932,917125
3.29745,1368304
3.30557,3127371
3.31370,6011339
3.32182,7468984
3.32993,6482942
3.33807,4426929
3.34618,2938476
3.35430,2115296
3.36243,1649282
3.37055,1321446
3.37868,1139327
3.38680,990991
3.39492,885556
3.40305,814990
3.41117,728939
3.41930,673693
3.42742,652187
3.43553,654858
3.44367,693700
3.45178,688137
3.45992,632186
3.46803,696266
3.47615,934444
3.48428,1114220
3.49240,975456
3.50052,728187
3.50865,570480
3.51677,489655
3.52490,445314
3.53302,441599
3.54113,506634
3.54927,589725
3.55738,561994
3.56552,500485
3.57363,405746
3.58175,370581
3.58988,344697
3.59800,326348
3.60612,313803
3.61425,303471
3.62237,309917
3.63050,311114
3.63862,332043
3.64673,345751
3.65487,397263
3.66298,1576651
3.67112,1.052815E+07
3.67923,3.369758E+07
3.68735,5.463808E+07
3.69548,6.034796E+07
3.70360,5.179656E+07
3.71173,3.621597E+07
3.71985,2.569199E+07
3.72797,2.049788E+07
3.73610,1.685638E+07
3.74422,1.427399E+07
3.75233,1.222922E+07
3.76047,1.060097E+07
3.76858,9321929
3.77672,8192234
3.78483,7366877
3.79295,6706756
3.80108,6117331
3.80920,5798753
3.81733,5904278
3.82545,6223985
3.83357,6004150
3.84170,5282370
3.84982,4617501
3.85793,4168405
3.86607,3850839
3.87418,3575054
3.88232,3357103
3.89043,3158134
3.89855,2998715
3.90668,2865158
3.91480,2775443
3.92293,2955999
3.93105,3527278
3.93917,4111060
3.94730,3915863
3.95542,3273058
3.96355,2777134
3.97167,2562564
3.97978,2444577
3.98792,2207857
3.99603,2027957
4.00415,1880650
4.01228,1876141
4.02040,1926154
4.02853,1915944
4.03665,1784584
4.04477,1625601
4.05290,1510856
4.06102,1446109
4.06915,1387989
4.07727,1345320
4.08538,1323542
4.09352,1316940
4.10163,1313111
4.10977,1304896
4.11788,1213476
4.12600,1188735
4.13413,1133526
4.14225,1119375
4.15037,1097995
4.15850,1095900
4.16662,1095668
4.17475,1074295
4.18287,1094646
4.19098,1074332
4.19912,1068271
4.20723,1113670
4.21537,2043721
4.22348,5815864
4.23160,1.390172E+07
4.23973,2.263219E+07
4.24785,2.912083E+07
4.25597,3.367205E+07
4.26410,3.605343E+07
4.27222,3.293028E+07
4.28035,1.985868E+07
4.28847,1.086174E+07
4.29658,7727061
4.30472,6034688
4.31283,4961624
4.32097,4117121
4.32908,3557636
4.33720,3070096
4.34533,2747012
4.35345,2497130
4.36158,2437230
4.36970,2750561
4.37782,3093916
4.38595,3085808
4.39407,2586061
4.40218,2068656
4.41032,1714197
4.41843,1499251
4.42657,1376303
4.43468,1285768
4.44280,1202608
4.45093,1152474
4.45905,1092879
4.46718,1033125
4.47530,981366
4.48342,965163
4.49155,939544
4.49967,904885
4.50780,874347
4.51592,849849
4.52403,843745
4.53217,839889
4.54028,853118
4.54840,888045
4.55653,975700
4.56465,994097
4.57278,918155
4.58090,810408
4.58902,740848
4.59715,734716
4.60527,704157
4.61340,696591
4.62152,746641
4.62963,1002044
4.63777,1790735
4.64588,3114753
4.65400,4038141
4.66213,3797738
4.67025,2797303
4.67838,2025913
4.68650,1679105
4.69462,1460648
4.70275,1251892
4.71087,1037968
4.71900,868819
4.72712,778358
4.73523,725443
4.74337,689915
4.75148,649918
4.75962,631195
4.76773,619877
4.77585,588958
4.78398,571766
4.79210,598004
4.80022,714047
4.80835,893592
4.81647,1025494
4.82460,971176
4.83272,842763
4.84083,779777
4.84897,855096
4.85708,1007122
4.86522,1019215
4.87333,939273
4.88145,752215
4.88958,670741
4.89770,602794
4.90582,580358
4.91395,554767
4.92207,513941
4.93020,503809
4.93832,516147
4.94643,564473
4.95457,797100
4.96268,1162839
4.97082,1566294
4.97893,1715083
4.98705,1606587
4.99518,1355046
5.00330,1144201
5.01143,1005215
5.01955,945835
5.02767,999608
5.03580,1346245
5.04392,2002422
5.05203,2486557
5.06017,2450684
5.06828,2005482
5.07642,1567715
5.08453,1309896
5.09265,1140178
5.10078,1041422
5.10890,960542
5.11703,899969
5.12515,859818
5.13327,799743
5.14140,757065
5.14952,772983
5.15765,949207
5.16577,1327692
5.17388,1767341
5.18202,1929252
5.19013,1738168
5.19825,1498000
5.20638,1489633
5.21450,1709829
5.22263,1840658
5.23075,1708098
5.23887,1404051
5.24700,1114009
5.25512,942042
5.26325,804394
5.27137,691173
5.27948,638778
5.28762,567087
5.29573,537687
5.30385,511838
5.31198,486641
5.32010,487022
5.32823,485999
5.33635,493863
5.34447,539551
5.35260,560037
5.36072,544909
5.36885,501101
5.37697,468557
5.38508,466831
5.39322,531864
5.40133,669682
5.40947,778125
5.41758,818171
5.42570,718835
5.43383,601031
5.44195,545331
5.45007,579472
5.45820,730391
5.46632,909873
5.47445,939583
5.48257,800450
5.49068,624581
5.49882,510006
5.50693,460204
5.51507,410796
5.52318,396695
5.53130,398565
5.53943,391141
5.54755,426909
5.55568,569887
5.56380,1062064
5.57192,2055623
5.58005,3277924
5.58817,3779860
5.59628,3362379
5.60442,2405413
5.61253,1540543
5.62067,1021144
5.62878,759278
5.63690,623727
5.64503,548361
5.65315,488463
5.66128,464563
5.66940,436793
5.67752,425190
5.68565,454032
5.69377,499559
5.70188,575826
5.71002,630710
5.71813,656248
5.72627,596482
5.73438,513085
5.74250,463095
5.75063,407592
5.75875,371436
5.76688,368390
5.77500,346813
5.78312,347573
5.79125,338362
5.79937,341317
5.80750,331539
5.81562,317273
5.82373,322361
5.83187,314678
5.83998,320156
5.84810,306839
5.85623,314360
5.86435,315985
5.87248,298274
5.88060,301720
5.88872,297392
5.89685,305900
5.90497,316159
5.91310,366944
5.92122,457398
5.92933,548024
5.93747,548303
5.94558,495645
5.95370,433518
5.96183,448990
5.96995,531109
5.97808,673563
5.98620,857727
5.99432,1064762
6.00245,1190378
6.01057,1176009
6.01870,972257
6.02682,761173
6.03493,568518
6.04307,445147
6.05118,373170
6.05932,345637
6.06743,336414
6.07555,325336
6.08368,329111
6.09180,309701
6.09992,315377
6.10805,289387
6.11617,287876
6.12430,333710
6.13242,559030
6.14053,1186145
6.14867,2084962
6.15678,2748183
6.16492,2581292
6.17303,1939717
6.18115,1324999
6.18928,961637
6.19740,752739
6.20553,646412
6.21365,559380
6.22177,517138
6.22990,466579
6.23802,449340
6.24613,474936
6.25427,542203
6.26238,697140
6.27052,869840
6.27863,870641
6.28675,749677
6.29488,598643
6.30300,499876
6.31113,445229
6.31925,447565
6.32737,414166
6.33550,419928
6.34362,419174
6.35173,411549
6.35987,395319
6.36798,372862
6.37612,357410
6.38423,369247
6.39235,386615
6.40048,379574
6.40860,354546
6.41673,341275
6.42485,319819
6.43297,319524
6.44110,327286
6.44922,332650
6.45735,349699
6.46547,362410
6.47358,371739
6.48172,363656
6.48983,344372
6.49795,338883
6.50608,333361
6.51420,332242
6.52233,340484
6.53045,369847
6.53857,371069
6.54670,359351
6.55482,363272
6.56295,486379
6.57107,948619
6.57918,1988581
6.58732,3315859
6.59543,3929897
6.60357,3389750
6.61168,2244947
6.61980,1348469
6.62793,895990
6.63605,681978
6.64417,582729
6.65230,500205
6.66042,443375
6.66855,400521
6.67667,408508
6.68478,383021
6.69292,340531
6.70103,299599
6.70917,289145
6.71728,270704
6.72540,267713
6.73353,268714
6.74165,259491
6.74977,256083
6.75790,242275
6.76602,250492
6.77415,246711
6.78227,251449
6.79038,252466
6.79852,229953
6.80663,211077
6.81477,201488
6.82288,196415
6.83100,186463
6.83913,182436
6.84725,181533
6.85538,189536
6.86350,203420
6.87162,231130
6.87975,240670
6.88787,245468
6.89598,239034
6.90412,208646
6.91223,195491
6.92037,179971
6.92848,174737
6.93660,170625
6.94473,160225
6.95285,161444
6.96098,161359
6.96910,170625
6.97722,185873
6.98535,224622
6.99347,244651
7.00160,243480
7.00972,225580
7.01783,206284
7.02597,203658
7.03408,199807
7.04220,196215
7.05033,202942
7.05845,257822
7.06658,387767
7.07470,631936
7.08282,877597
7.09095,1051704
7.09907,1058320
7.10720,880937
7.11532,666667
7.12343,476629
7.13157,380126
7.13968,330167
7.14780,324230
7.15593,323897
7.16405,370554
7.17218,401861
7.18030,435140
7.18842,605343
7.19655,1356988
7.20467,3345088
7.21280,6616692
7.22092,9741193
7.22903,1.049898E+07
7.23717,8236694
7.24528,4853887
7.25342,2255097
7.26153,969658
7.26965,446236
7.27778,249291
7.28590,232431
7.29402,228080
7.30215,226501
7.31027,232473
7.31840,245949
7.32652,254010
7.33463,311955
7.34277,375096
7.35088,458431
7.35902,511690
7.36713,524040
7.37525,457986
7.38338,388710
7.39150,312430
7.39962,280057
7.40775,238886
7.41587,218665
7.42400,204025
7.43212,191844
7.44023,175192
7.44837,169781
7.45648,179773
7.46462,185825
7.47273,203523
7.48085,208637
7.48898,207445
7.49710,191363
7.50523,179352
7.51335,175255
7.52147,183630
7.52960,296485
7.53772,624334
7.54583,1536854
7.55397,3539505
7.56208,7111270
7.57022,1.168763E+07
7.57833,1.634135E+07
7.58645,1.929128E+07
7.59458,1.90498E+07
7.60270,1.588757E+07
7.61083,1.153976E+07
7.61895,7309290
7.62707,4344581
7.63520,2627820
7.64332,1709730
7.65145,1222419
7.65957,925779
7.66768,700437
7.67582,547383
7.68393,431244
7.69205,323444
7.70018,263703
7.70830,246038
7.71643,259625
7.72455,346208
7.73267,478527
7.74080,618828
7.74892,721446
7.75705,760280
7.76517,756401
7.77328,693963
7.78142,605758
7.78953,544717
7.79765,511029
7.80578,511440
7.81390,563008
7.82203,602924
7.83015,640019
7.83827,585081
7.84640,477258
7.85452,413618
7.86265,410052
7.87077,427084
7.87888,515663
7.88702,657298
7.89513,825272
7.90327,991087
7.91138,1074070
7.91950,971023
7.92763,733220
7.93575,557685
7.94387,454397
7.95200,456093
7.96012,456101
7.96825,441800
7.97637,408441
7.98448,359255
7.99262,286363
8.00073,234280
8.00887,205051
8.01698,184926
8.02510,188783
8.03323,175465
8.04135,174470
8.04948,166819
8.05760,168462
8.06572,161686
8.07385,169042
8.08197,174224
8.09008,172558
8.09822,167404
8.10633,159359
8.11447,154291
8.12258,148576
8.13070,164234
8.13883,200056
8.14695,305669
8.15508,436902
8.16320,557102
8.17132,563935
8.17945,474361
8.18757,374928
8.19568,285389
8.20382,238448
8.21193,205808
8.22007,171371
8.22818,162477
8.23630,149030
8.24443,144643
8.25255,135581
8.26068,132605
8.26880,126752
8.27692,128560
8.28505,127044
8.29317,123164
8.30130,129984
8.30942,135643
8.31753,159042
8.32567,198465
8.33378,261184
8.34190,295412
8.35003,294158
8.35815,256371
8.36628,198039
8.37440,161619
8.38252,133958
8.39065,121727
8.39877,127122
8.40690,108612
8.41502,109528
8.42313,104104
8.43127,108248
8.43938,107666
8.44750,105697
8.45563,105170
8.46375,110745
8.47188,106273
8.48000,102581
8.48812,102618
8.49625,106852
8.50437,99922
8.51250,103238
8.52062,122490
8.52873,174068
8.53687,250527
8.54498,323004
8.55312,331363
8.56123,298636
8.56935,212074
8.57748,156618
8.58560,130410
8.59372,113519
8.60185,111632
8.60997,125828
8.61810,152578
8.62622,169186
8.63433,187021
8.64247,187086
8.65058,167171
8.65872,145868
8.66683,125903
8.67495,124221
8.68308,111491
8.69120,101044
8.69933,103550
8.70745,98261
8.71557,103017
8.72370,100699
8.73182,99683
8.73993,98357
8.74807,94297
8.75618,96802
8.76432,97603
8.77243,114293
8.78055,128417
8.78868,204747
8.79680,273796
8.80493,349779
8.81305,374461
8.82117,346113
8.82930,296649
8.83742,253163
8.84555,241402
8.85367,235765
8.86178,218742
8.86992,217525
8.87803,202487
8.88615,190765
8.89428,185407
8.90240,176622
8.91053,178336
8.91865,198744
8.92677,226060
8.93490,324309
8.94302,415565
8.95115,488337
8.95927,449954
8.96738,389842
8.97552,342985
8.98363,383259
8.99175,470001
8.99988,561395
9.00800,540201
9.01613,474831
9.02425,366371
9.03237,285367
9.04050,239039
9.04862,193661
9.05675,175950
9.06487,168279
9.07298,169161
9.08112,167743
9.08923,179949
9.09737,228591
9.10548,321474
9.11360,509596
9.12173,752579
9.12985,942115
9.13797,948450
9.14610,800051
9.15422,593259
9.16235,416357
9.17047,313670
9.17858,264650
9.18672,231392
9.19483,227042
9.20297,208412
9.21108,205109
9.21920,195015
9.22733,197689
9.23545,199850
9.24357,213353
9.25170,235935
9.25982,223966
9.26795,227238
9.27607,206102
9.28418,198479
9.29232,183719
9.30043,178927
9.30857,172379
9.31668,162378
9.32480,168379
9.33293,171210
9.34105,165584
9.34918,155703
9.35730,144798
9.36542,144623
9.37355,150849
9.38167,171059
9.38978,232519
9.39792,357302
9.40603,586811
9.41417,841244
9.42228,1062980
9.43040,1240725
9.43853,1399933
9.44665,1492003
9.45478,1549137
9.46290,1473714
9.47102,1239619
9.47915,937809
9.48727,636515
9.49540,425678
9.50352,326784
9.51163,307254
9.51977,354263
9.52788,446255
9.53600,552781
9.54413,589440
9.55225,583841
9.56038,509662
9.56850,407000
9.57662,310627
9.58475,241860
9.59287,195548
9.60100,179191
9.60912,167541
9.61723,163847
9.62537,157679
9.63348,150413
9.64160,152803
9.64973,145574
9.65785,142017
9.66598,144740
9.67410,152964
9.68222,155147
9.69035,163128
9.69847,146807
9.70660,141034
9.71472,139838
9.72283,137576
9.73097,128409
9.73908,135769
9.74722,121433
9.75533,115105
9.76345,115864
9.77158,113422
9.77970,112070
9.78782,105777
9.79595,103365
9.80407,103877
9.81220,105003
9.82032,108789
9.82843,104596
9.83657,101064
9.84468,106400
9.85282,100185
9.86093,100227
9.86905,96261
9.87718,98030
9.88530,98989
9.89343,97561
9.90155,94082
9.90967,102066
9.91780,101445
9.92592,110335
9.93403,154492
9.94217,270498
9.95028,477668
9.95842,862285
9.96653,1339464
9.97465,1643524
9.98278,1686333
9.99090,1401807
9.99903,995292
10.00715,629337
10.01527,354609
10.02340,236781
10.03152,190584
10.03963,182108
10.04777,202055
10.05588,231724
10.06402,264641
10.07213,277614
10.08025,295793
10.08838,272466
10.09650,256460
10.10463,242238
10.11275,226109
10.12087,207981
10.12900,204810
10.13712,193904
10.14525,185910
10.15337,179259
10.16148,173161
10.16962,174066
10.17773,168937
10.18585,161712
10.19398,154876
10.20210,147321
10.21023,146141
10.21835,145755
10.22647,147822
10.23460,137878
10.24272,144151
10.25085,154801
10.25897,197118
10.26708,383636
10.27522,909309
10.28333,2220702
10.29145,4495019
10.29958,7577030
10.30770,1.121602E+07
10.31583,1.522863E+07
10.32395,1.927145E+07
10.33207,2.465174E+07
10.34020,3.173876E+07
10.34832,4.053042E+07
10.35645,4.908464E+07
10.36457,5.442547E+07
10.37268,5.257566E+07
10.38082,3.998052E+07
10.38893,2.702283E+07
10.39707,2.006487E+07
10.40518,1.504956E+07
10.41330,1.027667E+07
10.42143,6378512
10.42955,3944645
10.43767,2796692
10.44580,2572664
10.45392,2662283
10.46205,2811378
10.47017,2910481
10.47828,2742862
10.48642,2374470
10.49453,1910195
10.50267,1495587
10.51078,1221843
10.51890,1049650
10.52703,951945
10.53515,848186
10.54328,790975
10.55140,735362
10.55952,709328
10.56765,675900
10.57577,660130
10.58388,643581
10.59202,612572
10.60013,585781
10.60827,557943
10.61638,508614
10.62450,486192
10.63263,473315
10.64075,442807
10.64888,443626
10.65700,428810
10.66512,401845
10.67325,391942
10.68137,368079
10.68948,386669
10.69762,403058
10.70573,436225
10.71387,475591
10.72198,486816
10.73010,486448
10.73823,468442
10.74635,422391
10.75448,381365
10.76260,341975
10.77072,313783
10.77885,309346
10.78697,295597
10.79510,307929
10.80322,311052
10.81133,380377
10.81947,443402
10.82758,501794
10.83570,513099
10.84383,478388
10.85195,404015
10.86008,323570
10.86820,272847
10.87632,247450
10.88445,236442
10.89257,235437
10.90070,226191
10.90882,220692
10.91693,213184
10.92507,224933
10.93318,213028
10.94132,211865
10.94943,200834
10.95755,201639
10.96568,189171
10.97380,186782
10.98192,191047
10.99005,195185
10.99817,226743
11.00630,271906
11.01442,335544
11.02253,385209
11.03067,414577
11.03878,393054
11.04692,360316
11.05503,298840
11.06315,282198
11.07128,297635
11.07940,339113
11.08752,428836
11.09565,507943
11.10377,569965
11.11190,561001
11.12002,532386
11.12813,454925
11.13627,390400
11.14438,324145
11.15252,271121
11.16063,254421
11.16875,247732
11.17688,235043
11.18500,222798
11.19313,207928
11.20125,190900
11.20937,176721
11.21750,155234
11.22562,145017
11.23373,142746
11.24187,125905
11.24998,124362
11.25812,117474
11.26623,116658
11.27435,109700
11.28248,113627
11.29060,107383
11.29873,139328
11.30685,255229
11.31497,631477
11.32310,1669500
11.33122,3801398
11.33933,7198517
11.34747,1.146805E+07
11.35558,1.538764E+07
11.36372,1.712924E+07
11.37183,1.58312E+07
11.37995,1.265883E+07
11.38808,9121659
11.39620,6431070
11.40433,4757817
11.41245,3717764
11.42057,2996237
11.42870,2437236
11.43682,1964494
11.44495,1584683
11.45307,1313045
11.46118,1109515
11.46932,957033
11.47743,822472
11.48555,764234
11.49368,755217
11.50180,776316
11.50993,905117
11.51805,990720
11.52617,1044657
11.53430,1013043
11.54242,934617
11.55055,820881
11.55867,739332
11.56678,730222
11.57492,712372
11.58303,729598
11.59117,701434
11.59928,690881
11.60740,741453
11.61553,856395
11.62365,1019831
11.63177,1063250
11.63990,977866
11.64802,786863
11.65615,608333
11.66427,459673
11.67238,376582
11.68052,317636
11.68863,323558
11.69677,306555
11.70488,302858
11.71300,300049
11.72113,286805
11.72925,283779
11.73737,265158
11.74550,239827
11.75362,218086
11.76175,200072
11.76987,185083
11.77798,175882
11.78612,166131
11.79423,163060
11.80237,155979
11.81048,146676
11.81860,142859
11.82673,142571
11.83485,145340
11.84298,136389
11.85110,138375
11.85922,126975
11.86735,128884
11.87547,129966
11.88358,117845
11.89172,114884
11.89983,118514
11.90797,117818
11.91608,118399
11.92420,122685
11.93233,119860
11.94045,130000
11.94858,129365
11.95670,119324
11.96482,116634
11.97295,108860
11.98107,103049
11.98920,103622
11.99732,97526
12.00543,101541
12.01357,103652
12.02168,94759
12.02980,88300
12.03793,89657
12.04605,97453
12.05418,95746
12.06230,101700
12.07042,117691
12.07855,135894
12.08667,169153
12.09480,241290
12.10292,382445
12.11103,721305
12.11917,1438353
12.12728,2782794
12.13540,4802826
12.14353,6819893
12.15165,7953898
12.15978,7673535
12.16790,6212918
12.17602,4362154
12.18415,2894528
12.19227,2079132
12.20040,1654847
12.20852,1518751
12.21663,1388592
12.22477,1216649
12.23288,1076603
12.24102,958314
12.24913,869185
12.25725,804754
12.26538,777801
12.27350,740626
12.28162,716470
12.28975,666250
12.29787,627452
12.30600,571377
12.31412,510954
12.32223,481547
12.33037,462837
12.33848,441330
12.34662,434114
12.35473,418532
12.36285,396733
12.37098,384815
12.37910,374661
12.38723,373861
12.39535,356425
12.40347,365916
12.41160,413553
12.41972,487162
12.42783,600694
12.43597,670262
12.44408,655835
12.45222,606997
12.46033,522327
12.46845,461862
12.47658,400293
12.48470,380929
12.49283,368071
12.50095,353575
12.50907,351886
12.51720,338412
12.52532,340954
12.53343,398812
12.54157,488072
12.54968,619568
12.55782,733980
12.56593,816523
12.57405,788187
12.58218,708521
12.59030,580295
12.59843,475718
12.60655,407615
12.61467,360939
12.62280,345686
12.63092,323558
12.63905,298822
12.64717,285658
12.65528,259849
12.66342,255744
12.67153,248267
12.67965,235962
12.68778,229596
12.69590,224447
12.70403,212913
12.71215,227420
12.72027,215642
12.72840,220291
12.73652,211460
12.74465,206070
12.75277,203739
12.76088,207572
12.76902,196244
12.77713,192572
12.78525,180630
12.79338,175988
12.80150,172078
12.80963,169175
12.81775,159808
12.82587,141493
12.83400,125067
12.84212,114972
12.85025,92716
12.85837,93241
12.86648,90270
12.87462,88384
12.88273,84284
12.89087,79374
12.89898,89919
12.90710,92559
12.91523,86142
12.92335,81388
12.93147,86861
12.93960,79968
12.94772,86617
12.95585,85835
12.96397,90145
12.97208,97826
12.98022,112404
12.98833,122635
12.99647,116442
13.00458,119417
13.01270,106387
13.02083,90101
13.02895,89379
13.03708,88879
13.04520,83865
13.05332,86250
13.06145,82519
13.06957,79473
13.07768,83527
13.08582,93471
13.09393,95843
13.10207,101528
13.11018,100195
13.11830,93742
13.12643,84974
13.13455,82907
13.14268,82908
13.15080,86103
13.15892,92240
13.16705,91455
13.17517,90032
13.18328,101428
13.19142,96315
13.19953,102888
13.20767,103885
13.21578,106695
13.22390,104877
13.23203,121713
13.24015,133108
13.24828,131580
13.25640,132902
13.26452,134027
13.27265,128829
13.28077,127319
13.28890,110578
13.29702,115786
13.30513,94580
13.31327,87730
13.32138,80735
13.32950,78517
13.33763,75908
13.34575,74131
13.35388,79886
13.36200,74659
13.37012,72252
13.37825,70057
13.38637,74360
13.39450,71397
13.40262,73975
13.41073,75822
13.41887,73974
13.42698,69567
13.43512,72517
13.44323,78952
13.45135,76955
13.45948,95938
13.46760,108786
13.47572,118044
13.48385,126049
13.49197,130635
13.50010,123797
13.50822,111164
13.51633,106573
13.52447,107029
13.53258,112745
13.54072,107744
13.54883,104626
13.55695,87893
13.56508,91740
13.57320,89939
13.58132,106095
13.58945,124473
13.59757,167973
13.60570,195642
13.61382,218993
13.62193,238664
13.63007,243925
13.63818,230152
13.64632,200885
13.65443,182540
13.66255,148936
13.67068,115833
13.67880,98771
13.68693,86413
13.69505,76260
13.70317,68189
13.71130,70522
13.71942,63541
13.72753,60703
13.73567,59908
13.74378,65265
13.75192,69727
13.76003,91231
13.76815,126090
13.77628,204713
13.78440,295484
13.79253,444271
13.80065,642159
13.80877,910133
13.81690,1143808
13.82502,1498842
13.83313,1961883
13.84127,2538646
13.84938,2954639
13.85752,3045202
13.86563,2824474
13.87375,2262155
13.88188,1659528
13.89000,1154393
13.89813,821885
13.90625,565258
13.91437,430558
13.92250,331323
13.93062,260531
13.93875,229606
13.94687,195241
13.95498,162859
13.96312,152194
13.97123,137829
13.97935,126891
13.98748,123017
13.99560,122278
14.00373,118902
14.01185,125948
14.01997,133508
14.02810,127388
14.03622,119690
14.04435,111568
14.05247,98309
14.06058,98402
14.06872,96841
14.07683,97030
14.08497,97708
14.09308,92562
14.10120,96282
14.10933,95007
14.11745,84138
14.12557,83643
14.13370,84909
14.14182,95446
14.14995,120705
14.15807,157637
14.16618,208897
14.17432,252004
14.18243,274472
14.19057,277768
14.19868,263786
14.20680,258663
14.21493,252431
14.22305,266159
14.23118,296957
14.23930,331186
14.24742,372544
14.25555,431785
14.26367,504847
14.27178,531373
14.27992,507484
14.28803,431492
14.29617,341439
14.30428,263702
14.31240,214499
14.32053,191944
14.32865,167469
14.33678,158420
14.34490,153211
14.35302,152437
14.36115,151691
14.36927,142147
14.37738,132907
14.38552,119696
14.39363,115789
14.40177,120933
14.40988,142327
14.41800,181115
14.42613,239353
14.43425,291827
14.44238,304819
14.45050,285320
14.45862,249664
14.46675,211853
14.47487,203964
14.48300,223764
14.49112,235354
14.49923,247089
14.50737,251534
14.51548,230833
14.52360,213000
14.53173,183653
14.53985,170627
14.54798,159442
14.55610,144734
14.56422,134522
14.57235,122342
14.58047,113318
14.58860,107353
14.59672,97917
14.60483,89759
14.61297,85520
14.62108,77010
14.62920,75266
14.63733,70202
14.64545,69588
14.65358,69037
14.66170,73384
14.66982,75113
14.67795,68655
14.68607,61979
14.69420,67810
14.70232,68811
14.71043,65021
14.71857,65029
14.72668,74488
14.73482,81367
14.74293,89262
14.75105,100248
14.75918,107552
14.76730,113077
14.77542,120991
14.78355,135161
14.79167,164816
14.79980,286985
14.80792,752938
14.81603,2052755
14.82417,4782918
14.83228,9487378
14.84042,1.558143E+07
14.84853,2.163369E+07
14.85665,2.602272E+07
14.86478,2.730009E+07
14.87290,2.29767E+07
14.88103,1.518341E+07
14.88915,8288436
14.89727,4340720
14.90540,2678508
14.91352,1986534
14.92163,1680977
14.92977,1504052
14.93788,1349882
14.94602,1229280
14.95413,1154690
14.96225,1034340
14.97038,955904
14.97850,881741
14.98663,817176
14.99475,745515
15.00287,695139
15.01100,657046
15.01912,642909
15.02723,642635
15.03537,632092
15.04348,607457
15.05162,590787
15.05973,576600
15.06785,545344
15.07598,508978
15.08410,465226
15.09223,418631
15.10035,421934
15.10847,405321
15.11660,393357
15.12472,375762
15.13285,388723
15.14097,414406
15.14908,492144
15.15722,540666
15.16533,565734
15.17345,494842
15.18158,396936
15.18970,293035
15.19783,219315
15.20595,179914
15.21407,158166
15.22220,151962
15.23032,140602
15.23845,143871
15.24657,133021
15.25468,135855
15.26282,131458
15.27093,127974
15.27907,128744
15.28718,123295
15.29530,114764
15.30343,111469
15.31155,116049
15.31967,101783
15.32780,104614
15.33592,102357
15.34405,97126
15.35217,96318
15.36028,93382
15.36842,94294
15.37653,101335
15.38467,106262
15.39278,114101
15.40090,114605
15.40903,110472
15.41715,106624
15.42527,107375
15.43340,104128
15.44152,109574
15.44965,103208
15.45777,107678
15.46588,139186
15.47402,223480
15.48213,447758
15.49027,859588
15.49838,1450744
15.50650,2164946
15.51463,2816239
15.52275,3059472
15.53088,2895327
15.53900,2538796
15.54712,1991419
15.55525,1447083
15.56337,1045909
15.57148,756633
15.57962,549963
15.58773,421214
15.59587,344465
15.60398,287243
15.61210,262533
15.62023,233257
15.62835,215832
15.63648,201111
15.64460,179721
15.65272,179035
15.66085,173374
15.66897,166863
15.67708,150829
15.68522,143148
15.69333,127518
15.70147,121207
15.70958,118209
15.71770,114330
15.72583,106372
15.73395,102178
15.74208,111360
15.75020,112007
15.75832,150734
15.76645,235591
15.77457,442082
15.78270,877840
15.79082,1460868
15.79893,2031627
15.80707,2244482
15.81518,2062885
15.82330,1534591
15.83143,1046700
15.83955,653984
15.84768,436850
15.85580,324837
15.86392,287369
15.87205,244193
15.88017,230435
15.88830,225564
15.89642,204019
15.90453,205185
15.91267,195723
15.92078,191293
15.92892,179480
15.93703,171293
15.94515,172961
15.95328,165072
15.96140,158643
15.96952,158261
15.97765,148023
15.98577,134521
15.99390,131198
16.00202,133547
16.01013,136449
16.01827,139587
16.02638,149118
16.03452,165957
16.04263,170571
16.05075,169937
16.05888,153968
16.06700,148307
16.07512,128610
16.08325,117214
16.09137,110298
16.09950,106399
16.10762,99330
16.11573,107330
16.12387,121178
16.13198,142215
16.14012,177871
16.14823,215500
16.15635,255728
16.16448,277938
16.17260,280876
16.18073,272099
16.18885,232093
16.19697,191426
16.20510,163568
16.21322,146472
16.22133,138074
16.22947,148914
16.23758,151121
16.24572,136910
16.25383,127810
16.26195,116718
16.27008,111576
16.27820,104714
16.28633,129289
16.29445,148330
16.30257,187390
16.31070,230565
16.31882,264666
16.32695,274161
16.33507,253992
16.34318,215070
16.35132,185074
16.35943,161968
16.36755,147409
16.37568,142908
16.38380,132439
16.39193,125463
16.40005,128505
16.40817,117980
16.41630,112317
16.42442,117904
16.43255,111874
16.44067,117596
16.44878,154545
16.45692,287050
16.46503,684726
16.47315,1646081
16.48128,3161707
16.48940,5039926
16.49753,6460173
16.50565,6743360
16.51377,5664118
16.52190,3915815
16.53002,2351593
16.53815,1355540
16.54627,827562
16.55438,603365
16.56252,482445
16.57063,418595
16.57877,382907
16.58688,350580
16.59500,332845
16.60313,316675
16.61125,311046
16.61937,295032
16.62750,277681
16.63562,266527
16.64375,247025
16.65187,228643
16.65998,215806
16.66812,208410
16.67623,188868
16.68437,188711
16.69248,179750
16.70060,171214
16.70873,157995
16.71685,149556
16.72498,134331
16.73310,139382
16.74122,127561
16.74935,120388
16.75747,129374
16.76558,155238
16.77372,190122
16.78183,219773
16.78997,210981
16.79808,185285
16.80620,144343
16.81433,117417
16.82245,104880
16.83058,89697
16.83870,92006
16.84682,84278
16.85495,86804
16.86307,83458
16.87118,81331
16.87932,79102
16.88743,74173
16.89557,79081
16.90368,72973
16.91180,78386
16.91993,76579
16.92805,79367
16.93618,81940
16.94430,77358
16.95242,81076
16.96055,79139
16.96867,80668
16.97680,77386
16.98492,81057
16.99303,83386
17.00117,79926
17.00928,91110
17.01740,90797
17.02553,99906
17.03365,109539
17.04178,117083
17.04990,138619
17.05802,158538
17.06615,183272
17.07427,201569
17.08240,197112
17.09052,184320
17.09863,138956
17.10677,113564
17.11488,107745
17.12300,108929
17.13113,121494
17.13925,139665
17.14738,149539
17.15550,160983
17.16362,155185
17.17175,148679
17.17987,136402
17.18800,132755
17.19612,122797
17.20423,112437
17.21237,104108
17.22048,92892
17.22862,87796
17.23673,83059
17.24485,89617
17.25298,89662
17.26110,96979
17.26922,102218
17.27735,102837
17.28547,103559
17.29360,91034
17.30172,79596
17.30983,85850
17.31797,96770
17.32608,124434
17.33422,177034
17.34233,242143
17.35045,323814
17.35858,354010
17.36670,396118
17.37483,379430
17.38295,341641
17.39107,317273
17.39920,286258
17.40732,287883
17.41543,282178
17.42357,280007
17.43168,285852
17.43982,293437
17.44793,290976
17.45605,282626
17.46418,254259
17.47230,223245
17.48043,195141
17.48855,176371
17.49667,153604
17.50480,146589
17.51292,131267
17.52103,131239
17.52917,131671
17.53728,129000
17.54542,126790
17.55353,137287
17.56165,141021
17.56978,194487
17.57790,364136
17.58603,779585
17.59415,1681802
17.60227,3070446
17.61040,4670224
17.61852,5789303
17.62665,6157782
17.63477,5608165
17.64288,4346351
17.65102,2809012
17.65913,1775435
17.66725,1065616
17.67538,665276
17.68350,449246
17.69163,350491
17.69975,309043
17.70787,278961
17.71600,278243
17.72412,273777
17.73225,280734
17.74037,299679
17.74848,303765
17.75662,303121
17.76473,297309
17.77287,274907
17.78098,242274
17.78910,212590
17.79723,185841
17.80535,159759
17.81347,150105
17.82160,140907
17.82972,139896
17.83785,158043
17.84597,186788
17.85408,237209
17.86222,321938
17.87033,441487
17.87847,520406
17.88658,546338
17.89470,498319
17.90283,392753
17.91095,285625
17.91907,203506
17.92720,154165
17.93532,136491
17.94345,118670
17.95157,111075
17.95968,112106
17.96782,105905
17.97593,104862
17.98407,97335
17.99218,95172
18.00030,94497
18.00843,97914
18.01655,117769
18.02468,161584
18.03280,261084
18.04092,405804
18.04905,580773
18.05717,717304
18.06528,906689
18.07342,1332572
18.08153,2398054
18.08967,4466495
18.09778,7089533
18.10590,9410873
18.11403,1.027088E+07
18.12215,9623553
18.13028,7725879
18.13840,5714853
18.14652,4021095
18.15465,2978981
18.16277,2402204
18.17088,2056860
18.17902,1778887
18.18713,1563662
18.19527,1350180
18.20338,1201369
18.21150,1088319
18.21963,990911
18.22775,898957
18.23588,822001
18.24400,766992
18.25212,725166
18.26025,686488
18.26837,621344
18.27650,564301
18.28462,516156
18.29273,438229
18.30087,342540
18.30898,264468
18.31710,228538
18.32523,179613
18.33335,160641
18.34148,145668
18.34960,142349
18.35772,138116
18.36585,134008
18.37397,126516
18.38210,128515
18.39022,124848
18.39833,134385
18.40647,139521
18.41458,160420
18.42272,216545
18.43083,329448
18.43895,472412
18.44708,692009
18.45520,880056
18.46332,1099853
18.47145,1319573
18.47957,1697434
18.48770,2064499
18.49582,2343945
18.50393,2354844
18.51207,2036119
18.52018,1592443
18.52832,1109044
18.53643,716144
18.54455,465124
18.55268,312260
18.56080,251550
18.56893,204719
18.57705,174006
18.58517,168016
18.59330,151527
18.60142,160587
18.60953,191069
18.61767,222158
18.62578,259841
18.63392,304978
18.64203,333781
18.65015,341968
18.65828,310152
18.66640,274048
18.67453,215627
18.68265,181178
18.69077,157996
18.69890,145405
18.70702,134195
18.71513,150410
18.72327,143671
18.73138,147406
18.73952,151122
18.74763,149851
18.75575,134911
18.76388,131291
18.77200,121884
18.78013,108252
18.78825,107585
18.79637,109182
18.80450,107037
18.81262,106747
18.82075,116843
18.82887,109530
18.83698,115515
18.84512,112467
18.85323,109570
18.86135,124278
18.86948,157519
18.87760,178050
18.88573,233064
18.89385,268919
18.90197,292917
18.91010,279748
18.91822,243425
18.92635,222212
18.93447,201346
18.94258,201769
18.95072,203924
18.95883,214595
18.96695,218740
18.97508,219840
18.98320,214942
18.99133,197195
18.99945,174879
19.00757,163834
19.01570,140847
19.02382,130461
19.03195,129917
19.04007,122567
19.04818,124778
19.05632,119303
19.06443,112990
19.07257,109023
19.08068,120751
19.08880,141662
19.09693,195074
19.10505,292105
19.11317,401713
19.12130,458400
19.12942,472932
19.13755,416498
19.14567,315574
19.15378,239278
19.16192,176814
19.17003,139502
19.17817,113702
19.18628,98211
19.19440,88936
19.20253,91579
19.21065,87608
19.21878,83357
19.22690,82318
19.23502,90757
19.24315,88513
19.25127,89129
19.25938,87017
19.26752,85771
19.27563,87123
19.28377,95903
19.29188,109427
19.30000,128846
19.30813,153733
19.31625,166088
19.32438,172738
19.33250,159388
19.34062,142071
19.34875,131699
19.35687,141431
19.36498,179358
19.37312,262588
19.38123,352389
19.38937,447745
19.39748,467485
19.40560,444247
19.41373,374893
19.42185,300890
19.42998,229961
19.43810,188919
19.44622,167627
19.45435,148535
19.46247,145972
19.47060,139673
19.47872,135817
19.48683,134557
19.49497,142733
19.50308,156095
19.51120,179503
19.51933,218113
19.52745,262816
19.53558,310793
19.54370,354260
19.55182,369033
19.55995,380382
19.56807,358118
19.57620,306678
19.58432,269069
19.59243,221076
19.60057,199510
19.60868,200328
19.61682,196956
19.62493,195000
19.63305,197746
19.64118,194099
19.64930,205981
19.65742,242898
19.66555,315381
19.67367,421417
19.68180,549469
19.68992,652096
19.69803,741208
19.70617,775979
19.71428,776120
19.72242,738246
19.73053,677756
19.73865,612977
19.74678,547079
19.75490,474738
19.76302,432045
19.77115,401233
19.77927,403105
19.78740,480669
19.79552,619423
19.80363,848700
19.81177,1042351
19.81988,1182807
19.82802,1165783
19.83613,1035238
19.84425,847759
19.85238,649566
19.86050,494438
19.86863,401098
19.87675,382988
19.88487,394283
19.89300,475295
19.90112,607232
19.90923,724931
19.91737,810586
19.92548,808635
19.93362,719315
19.94173,598889
19.94985,518200
19.95798,450795
19.96610,392468
19.97423,336054
19.98235,323602
19.99047,309956
19.99860,299213
20.00672,293985
20.01483,300651
20.02297,325705
20.03108,337365
20.03922,351908
20.04733,357703
20.05545,376445
20.06358,450068
20.07170,592004
20.07983,861832
20.08795,1183480
20.09607,1518353
20.10420,1674155
20.11232,1650996
20.12045,1512428
20.12857,1254350
20.13668,954054
20.14482,822540
20.15293,892916
20.16105,1320991
20.16918,2318915
20.17730,4024821
20.18543,6467767
20.19355,9143471
20.20167,1.178424E+07
20.20980,1.326359E+07
20.21792,1.329299E+07
20.22605,1.173758E+07
20.23417,9400906
20.24228,7278870
20.25042,5713944
20.25853,5287922
20.26667,5657249
20.27478,6871783
20.28290,8037273
20.29103,8903326
20.29915,8599476
20.30727,7531190
20.31540,6097853
20.32352,4438352
20.33165,2990321
20.33977,2067672
20.34788,1421220
20.35602,1024984
20.36413,772075
20.37227,623199
20.38038,503834
20.38850,434670
20.39663,375293
20.40475,332281
20.41287,307019
20.42100,292394
20.42912,272916
20.43725,255688
20.44537,254586
20.45348,260542
20.46162,285198
20.46973,285457
20.47787,290950
20.48598,278449
20.49410,271252
20.50223,249016
20.51035,234897
20.51848,203279
20.52660,198812
20.53472,186018
20.54285,201582
20.55097,202705
20.55908,207497
20.56722,212362
20.57533,209979
20.58347,201331
20.59158,198762
20.59970,179431
20.60783,178932
20.61595,177824
20.62408,171106
20.63220,181246
20.64032,199819
20.64845,239075
20.65657,260777
20.66470,300350
20.67282,310697
20.68093,298155
20.68907,262641
20.69718,229306
20.70530,195663
20.71343,178320
20.72155,165392
20.72968,148828
20.73780,153934
20.74592,162223
20.75405,176086
20.76217,201504
20.77030,241023
20.77842,278954
20.78653,358203
20.79467,527695
20.80278,949078
20.81090,1693054
20.81903,2819623
20.82715,4076660
20.83528,4935422
20.84340,4805452
20.85152,4038058
20.85965,2809000
20.86777,1698471
20.87590,983826
20.88402,613963
20.89213,403588
20.90027,342928
20.90838,323639
20.91652,327091
20.92463,387343
20.93275,460588
20.94088,525758
20.94900,582526
20.95712,606195
20.96525,579234
20.97337,490769
20.98150,429118
20.98962,344025
20.99773,274499
21.00587,243015
21.01398,218600
21.02212,211466
21.03023,214797
21.03835,221364
21.04648,229144
21.05460,241624
21.06273,221185
21.07085,214624
21.07897,199439
21.08710,173955
21.09522,171020
21.10333,157397
21.11147,160247
21.11958,157750
21.12772,160126
21.13583,192775
21.14395,267479
21.15208,452481
21.16020,773943
21.16833,1146944
21.17645,1481703
21.18457,1582681
21.19270,1461239
21.20082,1125460
21.20893,828051
21.21707,581829
21.22518,440326
21.23332,342328
21.24143,290121
21.24955,259786
21.25768,224084
21.26580,206552
21.27393,186467
21.28205,169062
21.29017,170260
21.29830,152157
21.30642,146015
21.31455,146232
21.32267,152254
21.33078,144962
21.33892,138759
21.34703,145951
21.35515,144280
21.36328,144388
21.37140,146170
21.37953,148251
21.38765,161970
21.39577,183731
21.40390,225445
21.41202,282847
21.42015,361076
21.42827,403471
21.43638,426410
21.44452,412689
21.45263,373367
21.46075,336693
21.46888,295059
21.47700,264171
21.48513,231344
21.49325,212410
21.50137,197044
21.50950,173254
21.51762,168218
21.52575,158094
21.53387,144302
21.54198,141189
21.55012,141554
21.55823,138941
21.56637,143144
21.57448,144317
21.58260,148200
21.59073,176049
21.59885,204803
21.60697,229259
21.61510,243695
21.62322,235229
21.63135,219893
21.63947,220094
21.64758,210704
21.65572,224703
21.66383,260141
21.67197,293030
21.68008,356941
21.68820,419579
21.69633,467197
21.70445,446088
21.71258,411811
21.72070,345237
21.72882,265023
21.73695,220111
21.74507,182626
21.75318,154569
21.76132,150570
21.76943,135331
21.77757,148498
21.78568,141186
21.79380,146315
21.80193,160990
21.81005,161774
21.81818,178169
21.82630,179515
21.83442,180781
21.84255,195246
21.85067,197780
21.85878,197995
21.86692,216122
21.87503,222049
21.88317,230444
21.89128,227788
21.89940,206960
21.90753,196424
21.91565,183587
21.92378,182495
21.93190,170527
21.94002,157874
21.94815,148059
21.95627,134221
21.96440,127164
21.97252,118040
21.98063,113034
21.98877,103931
21.99688,104137
22.00500,101061
22.01313,105833
22.02125,118297
22.02938,131383
22.03750,138148
22.04562,148200
22.05375,170362
22.06187,170523
22.07000,179129
22.07812,169828
22.08623,166282
22.09437,152878
22.10248,151691
22.11062,134683
22.11873,132608
22.12685,123358
22.13498,115971
22.14310,104419
22.15122,106809
22.15935,101680
22.16747,100197
22.17560,97552
22.18372,98073
22.19183,101879
22.19997,105320
22.20808,101507
22.21622,104538
22.22433,109747
22.23245,111854
22.24058,112108
22.24870,121528
22.25682,125378
22.26495,140430
22.27307,143226
22.28120,166295
22.28932,186091
22.29743,211339
22.30557,239045
22.31368,247977
22.32182,250870
22.32993,231176
22.33805,199563
22.34618,180580
22.35430,163254
22.36243,147021
22.37055,129975
22.37867,135059
22.38680,135799
22.39492,178374
22.40303,247677
22.41117,405158
22.41928,644867
22.42742,904179
22.43553,1094332
22.44365,1161842
22.45178,1046534
22.45990,833044
22.46803,613612
22.47615,423393
22.48427,326228
22.49240,286777
22.50052,312487
22.50863,394792
22.51677,488034
22.52488,596839
22.53302,690954
22.54113,706725
22.54925,658810
22.55738,551584
22.56550,464468
22.57363,375579
22.58175,296984
22.58987,250166
22.59800,219098
22.60612,194260
22.61425,175412
22.62237,159463
22.63048,139930
22.63862,132832
22.64673,132007
22.65485,138234
22.66298,143991
22.67110,169557
22.67923,177956
22.68735,179657
22.69547,209407
22.70360,256581
22.71172,353109
22.71985,463832
22.72797,579147
22.73608,637951
22.74422,631809
22.75233,552224
22.76047,449280
22.76858,365929
22.77670,305325
22.78483,288829
22.79295,310393
22.80107,386042
22.80920,482363
22.81732,615102
22.82545,723101
22.83357,728372
22.84168,671690
22.84982,569516
22.85793,481980
22.86607,415800
22.87418,430468
22.88230,496222
22.89043,608960
22.89855,749992
22.90668,867600
22.91480,938071
22.92292,890357
22.93105,837477
22.93917,756197
22.94728,667922
22.95542,606678
22.96353,510169
22.97167,383235
22.97978,314101
22.98790,246911
22.99603,190415
23.00415,165279
23.01228,141676
23.02040,124861
23.02852,116624
23.03665,116068
23.04477,113599
23.05288,109769
23.06102,117994
23.06913,139957
23.07727,163895
23.08538,193209
23.09350,198763
23.10163,197547
23.10975,189705
23.11788,179346
23.12600,150751
23.13412,145952
23.14225,126510
23.15037,119746
23.15850,112348
23.16662,113691
23.17473,108763
23.18287,107970
23.19098,100372
23.19910,97175
23.20723,95266
23.21535,99906
23.22348,92408
23.23160,87202
23.23972,89294
23.24785,101149
23.25597,123328
23.26410,158716
23.27222,209173
23.28033,254808
23.28847,277142
23.29658,275527
23.30470,234462
23.31283,193223
23.32095,155052
23.32908,150247
23.33720,154826
23.34532,206781
23.35345,284818
23.36157,403278
23.36970,538389
23.37782,684820
23.38593,761068
23.39407,726545
23.40218,645554
23.41032,512254
23.41843,367811
23.42655,266357
23.43468,183356
23.44280,149605
23.45092,126348
23.45905,110802
23.46717,100326
23.47530,100868
23.48342,97309
23.49153,85857
23.49967,87240
23.50778,89839
23.51592,92264
23.52403,92493
23.53215,94684
23.54028,97035
23.54840,110669
23.55653,131895
23.56465,164587
23.57277,223177
23.58090,337775
23.58902,532050
23.59713,797006
23.60527,1125781
23.61338,1409292
23.62152,1530136
23.62963,1441902
23.63775,1219116
23.64588,861118
23.65400,589045
23.66213,379084
23.67025,272552
23.67837,218023
23.68650,188940
23.69462,166594
23.70273,144607
23.71087,134987
23.71898,138003
23.72712,129632
23.73523,123086
23.74335,122142
23.75148,117902
23.75960,118617
23.76773,129883
23.77585,195911
23.78397,361153
23.79210,673805
23.80022,1089996
23.80835,1495532
23.81647,1702071
23.82458,1642094
23.83272,1433195
23.84083,1096195
23.84895,820682
23.85708,619063
23.86520,482375
23.87333,398295
23.88145,348965
23.88957,317195
23.89770,299215
23.90582,335482
23.91395,416190
23.92207,551090
23.93018,671435
23.93832,732310
23.94643,711583
23.95457,586568
23.96268,460053
23.97080,336516
23.97893,261778
23.98705,224825
23.99517,196859
24.00330,194418
24.01142,179087
24.01955,184544
24.02767,181020
24.03578,187591
24.04392,194120
24.05203,192826
24.06017,196154
24.06828,168490
24.07640,157100
24.08453,141086
24.09265,128440
24.10077,127941
24.10890,116003
24.11702,125996
24.12515,131433
24.13327,141792
24.14138,180411
24.14952,257628
24.15763,358214
24.16577,473705
24.17388,541948
24.18200,582602
24.19013,562350
24.19825,544979
24.20638,531406
24.21450,488749
24.22262,474011
24.23075,399897
24.23887,329584
24.24698,284265
24.25512,241953
24.26323,210981
24.27137,186208
24.27948,160193
24.28760,149019
24.29573,135350
24.30385,136684
24.31198,151312
24.32010,153632
24.32822,166611
24.33635,180020
24.34447,182939
24.35258,185169
24.36072,174579
24.36883,159452
24.37697,140277
24.38508,130704
24.39320,124972
24.40133,115754
24.40945,129829
24.41758,143383
24.42570,162499
24.43382,162118
24.44195,171107
24.45007,155601
24.45820,150911
24.46632,136747
24.47443,129175
24.48257,133674
24.49068,145131
24.49880,145368
24.50693,158456
24.51505,157642
24.52318,161829
24.53130,185536
24.53942,207690
24.54755,275064
24.55567,352374
24.56380,454252
24.57192,536963
24.58003,593081
24.58817,572070
24.59628,519024
24.60442,459392
24.61253,350829
24.62065,294060
24.62878,250315
24.63690,211686
24.64502,185704
24.65315,169522
24.66127,162669
24.66940,154053
24.67752,154236
24.68563,150756
24.69377,148945
24.70188,151268
24.71002,141458
24.71813,134667
24.72625,139469
24.73438,141984
24.74250,140482
24.75062,145958
24.75875,138625
24.76687,130137
24.77500,147598
24.78312,163290
24.79123,175874
24.79937,210370
24.80748,221488
24.81562,223850
24.82373,235326
24.83185,255200
24.83998,286573
24.84810,369542
24.85623,518481
24.86435,718590
24.87247,1014903
24.88060,1437598
24.88872,2007748
24.89683,2751735
24.90497,3358564
24.91308,3748762
24.92122,3503978
24.92933,2857041
24.93745,1988586
24.94558,1269454
24.95370,746925
24.96183,467000
24.96995,286664
24.97807,227462
24.98620,182536
24.99432,163739
25.00245,153208
25.01057,138276
25.01868,136180
25.02682,135561
25.03493,132620
25.04305,131946
25.05118,126449
25.05930,134627
25.06743,132145
25.07555,134807
25.08367,134585
25.09180,149140
25.09992,165670
25.10805,250125
25.11617,549145
25.12428,1344042
25.13242,3192909
25.14053,6464223
25.14865,1.119567E+07
25.15678,1.626736E+07
25.16490,1.999139E+07
25.17303,2.086073E+07
25.18115,1.836592E+07
25.18927,1.374553E+07
25.19740,8659441
25.20552,4885506
25.21365,2627911
25.22177,1388973
25.22988,765700
25.23802,497651
25.24613,414952
25.25427,450582
25.26238,604741
25.27050,812397
25.27863,1068432
25.28675,1237663
25.29487,1242160
25.30300,1159868
25.31112,896916
25.31925,685147
25.32737,465105
25.33548,327311
25.34362,233094
25.35173,192689
25.35987,165464
25.36798,154240
25.37610,141844
25.38423,132774
25.39235,130597
25.40048,119247
25.40860,117246
25.41672,113822
25.42485,110640
25.43297,109331
25.44108,108665
25.44922,109832
25.45733,107912
25.46547,110504
25.47358,112864
25.48170,118887
25.48983,123253
25.49795,129096
25.50608,127453
25.51420,121664
25.52232,118830
25.53045,124078
25.53857,108103
25.54668,107473
25.55482,100922
25.56293,98500
25.57107,100032
25.57918,106633
25.58730,105766
25.59543,111472
25.60355,113009
25.61168,108406
25.61980,113445
25.62792,104325
25.63605,97301
25.64417,96615
25.65230,96431
25.66042,99576
25.66853,98765
25.67667,116024
25.68478,132526
25.69290,157810
25.70103,195095
25.70915,217764
25.71728,232509
25.72540,230600
25.73352,208037
25.74165,179785
25.74977,162798
25.75790,143968
25.76602,122807
25.77413,117210
25.78227,114959
25.79038,98142
25.79850,99237
25.80663,94618
25.81475,88356
25.82288,90948
25.83100,99380
25.83912,102249
25.84725,104564
25.85537,103865
25.86350,108516
25.87162,115530
25.87973,108317
25.88787,117641
25.89598,118391
25.90412,122127
25.91223,130229
25.92035,121972
25.92848,112444
25.93660,111878
25.94472,111903
25.95285,116322
25.96097,123106
25.96910,127657
25.97722,135595
25.98533,130537
25.99347,125101
26.00158,123946
26.00972,112971
26.01783,96512
26.02595,93078
26.03408,92816
26.04220,91424
26.05033,105994
26.05845,112644
26.06657,125897
26.07470,129049
26.08282,145354
26.09093,149723
26.09907,165582
26.10718,175351
26.11532,172859
26.12343,165420
26.13155,153238
26.13968,149516
26.14780,141000
26.15593,146051
26.16405,154557
26.17217,172633
26.18030,177650
26.18842,185818
26.19653,192240
26.20467,180225
26.21278,178538
26.22092,160656
26.22903,153474
26.23715,133860
26.24528,131196
26.25340,121104
26.26153,110316
26.26965,109002
26.27777,98292
26.28590,97996
26.29402,90658
26.30215,89434
26.31027,99574
26.31838,92097
26.32652,86745
26.33463,89419
26.34275,99682
26.35088,124752
26.35900,201243
26.36713,391518
26.37525,819390
26.38337,1603358
26.39150,2686288
26.39962,4082421
26.40775,5332952
26.41587,5872665
26.42398,5728899
26.43212,4837416
26.44023,3653059
26.44837,2618893
26.45648,1775187
26.46460,1169298
26.47273,823122
26.48085,614324
26.48897,509637
26.49710,459947
26.50522,426584
26.51335,386373
26.52147,364100
26.52958,349320
26.53772,329402
26.54583,318774
26.55397,305434
26.56208,301675
26.57020,294606
26.57833,306645
26.58645,295030
26.59457,294209
26.60270,291501
26.61082,291632
26.61895,303895
26.62707,300216
26.63518,311542
26.64332,301900
26.65143,307660
26.65957,294876
26.66768,307861
26.67580,290906
26.68393,298441
26.69205,289335
26.70018,271861
26.70830,274134
26.71642,287026
26.72455,276562
26.73267,278116
26.74078,279595
26.74892,295155
26.75703,302329
26.76517,298683
26.77328,293319
26.78140,302875
26.78953,293699
26.79765,305806
26.80578,304902
26.81390,308592
26.82202,314227
26.83015,314568
26.83827,304251
26.84638,299211
26.85452,284327
26.86263,282455
26.87077,275585
26.87888,267744
26.88700,263840
26.89513,260848
26.90325,272718
26.91138,267205
26.91950,260347
26.92762,260002
26.93575,252997
26.94387,253734
26.95200,244534
26.96012,241632
26.96823,255538
26.97637,262770
26.98448,288415
26.99260,305143
27.00073,368427
27.00885,426965
27.01698,557005
27.02510,686109
27.03322,800791
27.04135,881757
27.04947,881098
27.05760,802307
27.06572,704429
27.07383,589152
27.08197,514724
27.09008,445893
27.09822,403479
27.10633,362665
27.11445,353324
27.12258,333333
27.13070,338835
27.13882,339486
27.14695,324845
27.15507,313525
27.16320,318439
27.17132,358206
27.17943,407678
27.18757,504047
27.19568,627869
27.20382,780135
27.21193,824391
27.22005,798523
27.22818,726366
27.23630,606879
27.24442,495810
27.25255,423597
27.26067,375925
27.26880,324725
27.27692,288928
27.28503,266239
27.29317,244134
27.30128,246280
27.30942,237628
27.31753,245289
27.32565,262147
27.33378,274094
27.34190,278734
27.35003,273058
27.35815,284358
27.36627,290074
27.37440,289978
27.38252,286262
27.39063,280435
27.39877,261030
27.40688,255560
27.41502,250620
27.42313,245075
27.43125,244733
27.43938,242726
27.44750,251550
27.45563,244255
27.46375,239204
27.47187,226354
27.48000,218772
27.48812,204716
27.49625,195424
27.50437,185532
27.51248,180738
27.52062,181408
27.52873,190985
27.53685,182331
27.54498,190632
27.55310,186723
27.56123,192116
27.56935,182642
27.57747,198923
27.58560,216805
27.59372,273696
27.60185,336531
27.60997,392877
27.61808,431135
27.62622,428580
27.63433,386063
27.64245,354450
27.65058,318623
27.65870,282695
27.66683,272591
27.67495,251872
27.68307,254253
27.69120,256254
27.69932,285287
27.70745,305650
27.71557,309755
27.72368,298936
27.73182,267100
27.73993,238820
27.74807,209674
27.75618,185551
27.76430,175693
27.77243,165299
27.78055,166586
27.78867,189110
27.79680,197405
27.80492,225428
27.81305,223262
27.82117,221633
27.82928,200001
27.83742,189704
27.84553,173611
27.85367,161671
27.86178,148564
27.86990,151647
27.87803,142818
27.88615,139823
27.89428,142349
27.90240,144468
27.91052,146425
27.91865,149969
27.92677,145437
27.93488,152304
27.94302,161587
27.95113,147309
27.95927,141744
27.96738,137528
27.97550,146165
27.98363,146465
27.99175,138672
27.99988,149890
28.00800,152330
28.01612,172678
28.02425,210290
28.03237,252829
28.04048,338567
28.04862,465160
28.05673,605738
28.06487,719570
28.07298,756649
28.08110,699127
28.08923,583413
28.09735,432479
28.10548,308212
28.11360,229036
28.12172,168780
28.12985,155893
28.13797,141827
28.14610,136885
28.15422,142634
28.16233,127255
28.17047,126563
28.17858,139841
28.18670,133845
28.19483,145703
28.20295,168892
28.21108,211569
28.21920,261386
28.22732,316511
28.23545,375435
28.24357,386080
28.25170,387664
28.25982,344825
28.26793,290588
28.27607,227815
28.28418,185472
28.29232,158402
28.30043,148070
28.30855,165657
28.31668,207440
28.32480,255184
28.33292,322647
28.34105,349617
28.34917,368467
28.35730,334136
28.36542,314319
28.37353,281642
28.38167,260356
28.38978,262369
28.39792,253513
28.40603,258583
28.41415,272414
28.42228,267559
28.43040,265303
28.43852,241042
28.44665,225588
28.45477,208964
28.46290,180193
28.47102,186135
28.47913,185924
28.48727,202705
28.49538,228050
28.50352,278845
28.51163,334200
28.51975,397879
28.52788,423491
28.53600,420100
28.54413,360260
28.55225,299582
28.56037,230978
28.56850,177137
28.57662,151026
28.58473,134259
28.59287,115965
28.60098,111212
28.60912,119848
28.61723,125692
28.62535,143428
28.63348,159301
28.64160,193602
28.64973,220633
28.65785,222945
28.66597,220450
28.67410,210493
28.68222,192337
28.69033,164204
28.69847,150824
28.70658,124699
28.71472,119920
28.72283,117612
28.73095,114600
28.73908,110850
28.74720,100109
28.75533,100695
28.76345,104432
28.77157,114462
28.77970,110694
28.78782,121075
28.79595,130445
28.80407,148486
28.81218,174887
28.82032,182380
28.82843,194736
28.83655,193548
28.84468,178728
28.85280,175503
28.86093,153495
28.86905,148377
28.87717,143635
28.88530,157441
28.89342,180112
28.90155,215240
28.90967,262708
28.91778,291461
28.92592,287579
28.93403,281902
28.94217,248244
28.95028,210657
28.95840,189933
28.96653,170319
28.97465,157516
28.98277,143789
28.99090,125626
28.99902,117996
29.00715,108547
29.01527,103915
29.02338,107002
29.03152,114042
29.03963,113486
29.04777,103078
29.05588,103975
29.06400,106475
29.07213,105429
29.08025,107827
29.08837,110877
29.09650,124907
29.10462,130937
29.11275,136982
29.12087,140021
29.12898,125978
29.13712,115471
29.14523,95420
29.15337,92939
29.16148,88343
29.16960,91645
29.17773,93663
29.18585,101415
29.19398,112746
29.20210,147029
29.21022,200475
29.21835,291262
29.22647,378392
29.23458,443430
29.24272,463559
29.25083,441424
29.25897,414280
29.26708,391379
29.27520,373104
29.28333,341923
29.29145,295231
29.29958,247855
29.30770,205471
29.31582,159639
29.32395,131667
29.33207,114293
29.34020,107635
29.34832,94337
29.35643,93588
29.36457,93105
29.37268,93412
29.38080,90072
29.38893,94967
29.39705,93160
29.40518,101540
29.41330,111372
29.42142,114569
29.42955,119027
29.43767,118019
29.44580,120365
29.45392,125699
29.46203,117605
29.47017,113234
29.47828,106816
29.48640,100562
29.49453,98447
29.50265,95895
29.51078,101023
29.51890,105906
29.52702,103005
29.53515,108997
29.54327,103448
29.55140,103592
29.55952,94288
29.56763,97562
29.57577,95453
29.58388,88003
29.59202,91118
29.60013,92235
29.60825,93312
29.61638,88994
29.62450,94749
29.63262,90760
29.64075,86854
29.64887,85439
29.65700,88997
29.66512,85107
29.67323,82896
29.68137,89250
29.68948,102330
29.69762,116986
29.70573,135011
29.71385,154946
29.72198,164426
29.73010,162041
29.73822,142804
29.74635,131276
29.75447,111712
29.76260,112533
29.77072,96910
29.77883,93359
29.78697,89956
29.79508,86182
29.80322,83257
29.81133,82992
29.81945,76312
29.82758,85464
29.83570,79322
29.84383,79702
29.85195,90123
29.86007,84352
29.86820,85333
29.87632,86360
29.88443,98417
29.89257,129156
29.90068,173649
29.90882,233190
29.91693,281952
29.92505,288946
29.93318,277780
29.94130,233485
29.94943,180427
29.95755,141252
29.96567,114952
29.97380,98499
29.98192,105153
29.99005,101947
29.99817,109926
30.00628,112542
30.01442,117316
30.02253,125037
30.03065,135315
30.03878,136474
30.04690,138781
30.05503,144273
30.06315,142291
30.07127,138140
30.07940,143860
30.08752,143510
30.09565,144277
30.10377,143603
30.11188,131838
30.12002,141771
30.12813,131272
30.13625,126058
30.14438,127179
30.15250,122049
30.16063,118773
30.16875,115395
30.17687,121279
30.18500,127058
30.19312,142341
30.20125,159101
30.20937,195028
30.21748,205904
30.22562,211086
30.23373,207631
30.24187,188311
30.24998,165342
30.25810,133807
30.26623,116786
30.27435,102580
30.28247,95890
30.29060,87241
30.29872,91252
30.30685,90886
30.31497,88605
30.32308,85082
30.33122,88738
30.33933,87525
30.34747,87628
30.35558,94128
30.36370,102521
30.37183,106346
30.37995,101173
30.38808,100038
30.39620,97550
30.40432,90062
30.41245,89702
30.42057,84672
30.42868,81070
30.43682,80615
30.44493,79345
30.45307,86704
30.46118,80899
30.46930,84382
30.47743,81965
30.48555,91514
30.49368,99513
30.50180,97921
30.50992,109528
30.51805,113382
30.52617,116762
30.53428,106820
30.54242,106534
30.55053,97931
30.55867,99480
30.56678,101281
30.57490,103395
30.58303,113061
30.59115,113404
30.59928,110744
30.60740,116717
30.61552,119986
30.62365,115966
30.63177,117098
30.63990,106990
30.64802,107925
30.65613,103487
30.66427,96578
30.67238,91392
30.68050,91806
30.68863,88492
30.69675,88996
30.70488,79710
30.71300,82894
30.72112,86178
30.72925,83348
30.73737,84162
30.74550,92502
30.75362,90696
30.76173,92607
30.76987,94501
30.77798,89877
30.78612,102203
30.79423,124214
30.80235,173220
30.81048,240240
30.81860,339443
30.82672,412875
30.83485,435289
30.84297,405925
30.85110,327359
30.85922,263146
30.86733,203780
30.87547,160282
30.88358,162780
30.89172,172336
30.89983,174937
30.90795,182466
30.91608,168134
30.92420,153625
30.93232,139838
30.94045,126569
30.94857,122667
30.95670,109362
30.96482,113765
30.97293,122539
30.98107,116818
30.98918,113473
30.99732,113108
31.00543,111266
31.01355,102656
31.02168,102221
31.02980,97749
31.03793,102181
31.04605,96615
31.05417,93894
31.06230,98554
31.07042,95032
31.07853,98412
31.08667,93920
31.09478,107461
31.10292,117278
31.11103,140023
31.11915,162130
31.12728,173843
31.13540,181663
31.14353,159044
31.15165,155596
31.15977,147476
31.16790,140043
31.17602,150730
31.18413,144459
31.19227,152576
31.20038,153761
31.20852,156140
31.21663,174032
31.22475,206067
31.23288,231170
31.24100,243790
31.24913,245154
31.25725,228958
31.26537,189126
31.27350,161082
31.28162,134347
31.28975,109417
31.29787,98621
31.30598,100429
31.31412,98893
31.32223,99665
31.33035,115316
31.33848,126591
31.34660,140575
31.35473,155522
31.36285,144600
31.37097,144487
31.37910,132128
31.38722,124964
31.39535,108990
31.40347,100938
31.41158,97021
31.41972,94261
31.42783,91381
31.43597,91565
31.44408,92893
31.45220,90205
31.46033,94281
31.46845,94258
31.47657,93454
31.48470,93264
31.49282,107555
31.50095,121103
31.50907,128963
31.51718,149140
31.52532,169951
31.53343,190366
31.54157,217635
31.54968,232650
31.55780,227334
31.56593,211828
31.57405,198302
31.58217,176525
31.59030,155704
31.59842,140059
31.60655,123573
31.61467,108583
31.62278,106529
31.63092,98611
31.63903,92029
31.64717,104250
31.65528,102777
31.66340,111091
31.67153,125260
31.67965,151589
31.68778,159028
31.69590,177171
31.70402,176333
31.71215,168753
31.72027,146782
31.72838,130072
31.73652,115776
31.74463,102115
31.75277,94649
31.76088,98917
31.76900,88986
31.77713,93062
31.78525,88477
31.79338,84856
31.80150,85391
31.80962,91407
31.81775,92687
31.82587,95513
31.83400,89687
31.84212,91159
31.85023,88826
31.85837,94243
31.86648,96900
31.87460,101167
31.88273,102059
31.89085,99647
31.89898,98666
31.90710,99118
31.91522,89268
31.92335,96730
31.93147,101732
31.93960,99786
31.94772,98936
31.95583,98619
31.96397,110033
31.97208,112613
31.98020,119292
31.98833,129953
31.99645,142414
32.00458,167977
32.01270,187781
32.02082,225946
32.02895,245228
32.03707,249053
32.04520,244541
32.05332,215229
32.06143,185486
32.06957,164213
32.07768,141490
32.08582,126214
32.09393,120313
32.10205,115154
32.11018,116139
32.11830,110991
32.12642,106603
32.13455,109354
32.14267,102343
32.15080,99839
32.15892,102482
32.16703,101628
32.17517,97805
32.18328,94356
32.19142,92411
32.19953,95279
32.20765,101618
32.21578,94999
32.22390,96336
32.23202,98996
32.24015,97414
32.24827,93160
32.25640,101325
32.26452,95622
32.27263,100982
32.28077,102599
32.28888,101380
32.29702,104626
32.30513,102652
32.31325,106437
32.32138,103054
32.32950,99519
32.33763,99782
32.34575,101217
32.35387,99059
32.36200,101735
32.37012,99910
32.37823,106916
32.38637,102791
32.39448,94412
32.40262,94948
32.41073,91084
32.41885,91002
32.42698,93711
32.43510,90208
32.44323,88557
32.45135,89067
32.45947,91398
32.46760,96447
32.47572,88426
32.48385,83923
32.49197,85671
32.50008,84231
32.50822,90412
32.51633,94302
32.52445,98803
32.53258,99784
32.54070,108936
32.54883,106699
32.55695,108953
32.56507,110438
32.57320,109930
32.58132,115114
32.58945,114270
32.59757,117169
32.60568,115291
32.61382,108699
32.62193,110497
32.63007,108802
32.63818,108191
32.64630,106976
32.65443,109035
32.66255,100546
32.67067,104987
32.67880,111825
32.68692,104508
32.69505,114848
32.70317,113335
32.71128,119155
32.71942,115454
32.72753,114535
32.73567,111178
32.74378,106173
32.75190,109337
32.76003,104108
32.76815,102595
32.77627,99058
32.78440,90437
32.79252,94344
32.80065,95931
32.80877,95159
32.81688,97111
32.82502,106252
32.83313,103979
32.84127,107274
32.84938,114461
32.85750,112699
32.86563,117524
32.87375,111317
32.88188,112285
32.89000,116281
32.89812,116208
32.90625,130854
32.91437,135392
32.92248,138340
32.93062,139554
32.93873,133854
32.94687,127435
32.95498,114521
32.96310,104831
32.97123,107052
32.97935,111663
32.98748,131132
32.99560,186103
33.00372,249682
33.01185,344775
33.01997,416943
33.02808,452911
33.03622,426811
33.04433,326355
33.05247,271136
33.06058,213889
33.06870,189796
33.07683,198795
33.08495,237340
33.09308,291709
33.10120,361624
33.10932,472633
33.11745,552999
33.12557,585187
33.13370,564592
33.14182,491649
33.14993,398900
33.15807,325017
33.16618,273657
33.17430,236836
33.18243,210722
33.19055,178729
33.19868,157210
33.20680,143502
33.21492,125893
33.22305,123203
33.23117,122465
33.23930,133434
33.24742,131815
33.25553,131237
33.26367,127942
33.27178,126238
33.27992,124640
33.28803,123400
33.29615,115052
33.30428,118998
33.31240,124040
33.32052,122735
33.32865,125480
33.33677,126155
33.34490,133524
33.35302,137379
33.36113,149655
33.36927,170098
33.37738,187067
33.38552,192532
33.39363,183122
33.40175,164037
33.40988,141901
33.41800,127744
33.42612,110663
33.43425,97264
33.44237,91328
33.45050,93114
33.45862,90504
33.46673,94600
33.47487,90506
33.48298,90922
33.49112,96824
33.49923,94728
33.50735,105407
33.51548,115787
33.52360,114361
33.53173,128840
33.53985,129488
33.54797,130831
33.55610,144694
33.56422,154219
33.57233,181944
33.58047,194444
33.58858,181177
33.59672,156016
33.60483,141796
33.61295,117739
33.62108,110402
33.62920,111000
33.63733,107636
33.64545,110017
33.65357,121901
33.66170,121501
33.66982,146501
33.67795,141844
33.68607,141285
33.69418,130847
33.70232,127659
33.71043,104036
33.71855,95964
33.72668,93866
33.73480,93481
33.74293,93863
33.75105,89231
33.75917,89105
33.76730,92259
33.77542,91233
33.78355,89289
33.79167,92370
33.79978,90223
33.80792,88833
33.81603,90058
33.82415,89955
33.83228,88017
33.84040,90405
33.84853,91845
33.85665,95278
33.86477,97715
33.87290,97991
33.88102,97911
33.88915,106746
33.89727,100822
33.90538,112856
33.91352,106753
33.92163,110462
33.92977,111986
33.93788,104376
33.94600,100848
33.95413,98361
33.96225,102587
33.97037,94049
33.97850,97253
33.98662,87580
33.99475,95252
34.00287,96281
34.01098,91845
34.01912,89924
34.02723,94936
34.03537,88734
34.04348,88516
34.05160,90894
34.05973,94602
34.06785,93623
34.07597,96006
34.08410,96179
34.09222,98557
34.10035,95744
34.10847,98006
34.11658,91412
34.12472,96108
34.13283,104672
34.14097,94761
34.14908,102062
34.15720,98368
34.16533,97187
34.17345,93726
34.18158,100113
34.18970,93821
34.19782,96096
34.20595,90088
34.21407,94996
34.22218,99167
34.23032,100415
34.23843,96810
34.24657,96592
34.25468,95669
34.26280,89762
34.27093,94212
34.27905,86780
34.28718,86940
34.29530,88567
34.30342,95183
34.31155,87670
34.31967,84338
34.32780,90482
34.33592,80853
34.34403,88323
34.35217,91155
34.36028,90730
34.36840,88149
34.37653,90272
34.38465,90067
34.39278,83398
34.40090,93591
34.40902,86411
34.41715,97047
34.42527,87187
34.43340,87258
34.44152,88270
34.44963,91670
34.45777,95296
34.46588,91988
34.47400,91835
34.48213,92128
34.49025,91269
34.49838,87906
34.50650,94486
34.51462,86397
34.52275,94046
34.53087,90832
34.53900,95941
34.54712,107867
34.55523,117149
34.56337,129474
34.57148,143861
34.57962,157482
34.58773,163435
34.59585,157477
34.60398,155081
34.61210,148219
34.62022,129901
34.62835,123459
34.63647,109389
34.64460,106181
34.65272,96077
34.66083,98596
34.66897,107035
34.67708,99516
34.68522,103008
34.69333,102781
34.70145,95136
34.70958,97874
34.71770,92344
34.72583,92903
34.73395,92067
34.74207,96044
34.75020,96504
34.75832,97045
34.76643,112010
34.77457,110062
34.78268,115634
34.79082,121790
34.79893,119297
34.80705,129137
34.81518,122720
34.82330,116584
34.83143,109294
34.83955,112220
34.84767,106529
34.85580,102072
34.86392,99751
34.87203,107658
34.88017,98402
34.88828,97587
34.89642,96997
34.90453,96233
34.91265,98348
34.92078,99269
34.92890,95561
34.93703,97240
34.94515,101162
34.95327,102529
34.96140,113332
34.96952,112364
34.97765,123961
34.98577,127258
34.99388,139148
35.00202,140815
35.01013,128744
35.01825,120631
35.02638,111735
35.03450,104604
35.04263,99181
35.05075,101984
35.05887,97151
35.06700,101276
35.07512,95153
35.08325,93230
35.09137,98978
35.09948,103716
35.10762,96917
35.11573,93894
35.12385,94784
35.13198,95510
35.14010,95297
35.14823,94265
35.15635,96934
35.16447,100640
35.17260,106994
35.18072,106386
35.18885,106802
35.19697,101889
35.20508,108750
35.21322,103481
35.22133,99374
35.22947,92257
35.23758,99712
35.24570,97556
35.25383,96294
35.26195,96933
35.27007,100313
35.27820,102265
35.28632,103475
35.29445,104102
35.30257,109891
35.31068,106579
35.31882,104990
35.32693,97990
35.33507,97406
35.34318,100028
35.35130,96910
35.35943,99400
35.36755,96831
35.37568,93245
35.38380,94935
35.39192,100380
35.40005,102114
35.40817,110601
35.41628,121288
35.42442,152012
35.43253,187234
35.44067,200578
35.44878,215657
35.45690,213723
35.46503,201013
35.47315,179013
35.48128,157035
35.48940,143503
35.49752,127963
35.50565,125153
35.51377,125024
35.52188,123401
35.53002,118951
35.53813,116439
35.54627,112828
35.55438,113045
35.56250,109800
35.57063,106343
35.57875,106792
35.58688,107629
35.59500,101057
35.60312,102081
35.61125,96456
35.61937,102542
35.62750,94801
35.63562,99578
35.64373,102554
35.65187,104737
35.65998,100544
35.66810,97761
35.67623,99337
35.68435,100041
35.69248,98906
35.70060,96549
35.70872,103606
35.71685,110541
35.72497,115346
35.73310,115556
35.74122,131760
35.74933,128699
35.75747,141161
35.76558,172669
35.77372,208608
35.78183,238503
35.78995,264266
35.79808,274072
35.80620,234942
35.81432,203708
35.82245,170983
35.83057,136728
35.83870,121335
35.84682,118359
35.85493,112917
35.86307,113287
35.87118,109671
35.87932,114557
35.88743,114914
35.89555,108507
35.90368,106622
35.91180,110623
35.91992,106967
35.92805,107930
35.93617,108456
35.94430,102794
35.95242,105727
35.96053,106514
35.96867,102416
35.97678,100081
35.98492,104254
35.99303,100137
36.00115,102599
36.00928,107480
36.01740,110400
36.02553,105347
36.03365,105424
36.04177,112402
36.04990,116049
36.05802,111114
36.06613,110150
36.07427,113331
36.08238,111804
36.09052,102049
36.09863,105667
36.10675,105043
36.11488,106137
36.12300,107665
36.13113,114347
36.13925,125165
36.14737,135946
36.15550,156181
36.16362,160127
36.17175,172985
36.17987,166385
36.18798,151479
36.19612,139415
36.20423,125511
36.21235,117519
36.22048,115930
36.22860,111836
36.23673,108381
36.24485,107509
36.25297,104907
36.26110,111129
36.26922,111846
36.27735,113868
36.28547,112974
36.29358,115891
36.30172,111404
36.30983,114283
36.31795,112084
36.32608,118658
36.33420,127775
36.34233,129595
36.35045,132913
36.35857,131726
36.36670,136079
36.37482,126051
36.38295,126036
36.39107,119662
36.39918,125118
36.40732,115990
36.41543,124397
36.42357,123893
36.43168,129386
36.43980,129475
36.44793,125732
36.45605,127337
36.46417,126174
36.47230,126260
36.48042,121650
36.48855,116641
36.49667,113491
36.50478,106635
36.51292,103962
36.52103,110342
36.52917,101963
36.53728,109925
36.54540,108414
36.55353,110941
36.56165,111810
36.56977,117681
36.57790,113522
36.58602,119070
36.59415,105378
36.60227,104857
36.61038,106002
36.61852,107866
36.62663,108907
36.63477,118337
36.64288,117480
36.65100,116398
36.65913,117680
36.66725,119209
36.67538,115547
36.68350,112803
36.69162,115753
36.69975,112178
36.70787,115446
36.71598,114963
36.72412,119016
36.73223,115850
36.74037,126217
36.74848,122881
36.75660,126921
36.76473,129206
36.77285,123815
36.78098,122242
36.78910,111374
36.79722,120112
36.80535,120039
36.81347,118671
36.82160,125283
36.82972,115695
36.83783,121625
36.84597,118734
36.85408,114236
36.86220,109698
36.87033,112723
36.87845,113232
36.88658,114848
36.89470,108912
36.90282,105113
36.91095,108873
36.91907,109135
36.92720,114211
36.93532,109299
36.94343,117842
36.95157,140575
36.95968,171399
36.96780,232239
36.97593,291152
36.98405,353069
36.99218,410236
37.00030,406100
37.00842,347912
37.01655,269862
37.02467,209338
37.03280,168457
37.04092,147464
37.04903,134154
37.05717,125685
37.06528,125206
37.07342,131069
37.08153,140380
37.08965,147674
37.09778,150751
37.10590,161582
37.11402,165450
37.12215,158100
37.13027,158041
37.13840,151555
37.14652,136313
37.15463,133152
37.16277,131046
37.17088,123382
37.17902,120471
37.18713,118936
37.19525,118092
37.20338,123024
37.21150,118985
37.21963,124309
37.22775,126426
37.23587,123963
37.24400,129351
37.25212,126068
37.26023,129348
37.26837,130721
37.27648,130751
37.28462,122095
37.29273,123643
37.30085,121335
37.30898,121163
37.31710,120956
37.32523,121967
37.33335,120034
37.34147,124302
37.34960,120189
37.35772,124768
37.36583,132832
37.37397,130689
37.38208,133536
37.39022,135227
37.39833,135305
37.40645,141907
37.41458,151476
37.42270,140979
37.43083,155819
37.43895,150819
37.44707,158027
37.45520,162917
37.46332,159680
37.47145,162424
37.47957,152754
37.48768,156746
