C:\MassHunter\GCMS\1\data\JTB-E18\JTB-E18-033-13.D Mon Oct 14 09:55:03 2019
Start of data points
2.09527,87461
2.10338,87129
2.11152,85937
2.11963,87259
2.12775,87360
2.13588,95648
2.14400,93412
2.15213,92575
2.16025,93982
2.16837,95669
2.17650,96131
2.18462,94408
2.19275,92193
2.20087,92057
2.20898,87183
2.21712,93438
2.22523,87595
2.23337,86608
2.24148,83863
2.24960,83479
2.25773,79852
2.26585,101357
2.27397,704759
2.28210,3040237
2.29022,2889459
2.29835,1318707
2.30647,784616
2.31458,562112
2.32272,509165
2.33083,480312
2.33897,446029
2.34708,393938
2.35520,316713
2.36333,291975
2.37145,252870
2.37957,229427
2.38770,242228
2.39582,218394
2.40395,212566
2.41207,212067
2.42018,203061
2.42832,214634
2.43643,200276
2.44457,196523
2.45268,199890
2.46080,184623
2.46893,170031
2.47705,168179
2.48518,156858
2.49330,164850
2.50142,168600
2.50955,160167
2.51767,143343
2.52578,148782
2.53392,143081
2.54203,149881
2.55017,150006
2.55828,152805
2.56640,154492
2.57453,142285
2.58265,134536
2.59078,131091
2.59890,128410
2.60702,130210
2.61515,137636
2.62327,139325
2.63140,129788
2.63952,126925
2.64763,126734
2.65577,127713
2.66388,117976
2.67200,116895
2.68013,112213
2.68825,115954
2.69638,110822
2.70450,113227
2.71262,114848
2.72075,110175
2.72887,106841
2.73700,108330
2.74512,108716
2.75323,104243
2.76137,103174
2.76948,102168
2.77760,102347
2.78573,99839
2.79385,101421
2.80198,106558
2.81010,101852
2.81822,102035
2.82635,103588
2.83447,101701
2.84260,96590
2.85072,99457
2.85883,107702
2.86697,125211
2.87508,121752
2.88322,113306
2.89133,112141
2.89945,109022
2.90758,106691
2.91570,102937
2.92382,100455
2.93195,98792
2.94007,95425
2.94820,90746
2.95632,91430
2.96443,89027
2.97257,89795
2.98068,94484
2.98882,89750
2.99693,90687
3.00505,88435
3.01318,94633
3.02130,91825
3.02943,85544
3.03755,86392
3.04567,88364
3.05380,87294
3.06192,86813
3.07003,85651
3.07817,84046
3.08628,86224
3.09442,86312
3.10253,94089
3.11065,108185
3.11878,126085
3.12690,111944
3.13503,107750
3.14315,104597
3.15127,97146
3.15940,94975
3.16752,95732
3.17563,94254
3.18377,95775
3.19188,90400
3.20002,91176
3.20813,91050
3.21625,86045
3.22438,85299
3.23250,87854
3.24063,83810
3.24875,90799
3.25687,87665
3.26500,85011
3.27312,118629
3.28125,608614
3.28937,4296366
3.29748,1.918747E+07
3.30562,3.578378E+07
3.31373,3.83101E+07
3.32185,3.027228E+07
3.32998,2.048697E+07
3.33810,1.368226E+07
3.34623,9746126
3.35435,7259406
3.36247,5795664
3.37060,4778216
3.37872,3999086
3.38685,3370772
3.39497,2989679
3.40308,2626043
3.41122,2360998
3.41933,2130127
3.42745,1950058
3.43558,1779000
3.44370,1644500
3.45183,1550169
3.45995,1449688
3.46807,1365276
3.47620,1295130
3.48432,1231100
3.49245,1160603
3.50057,1087202
3.50868,1026879
3.51682,976771
3.52493,930486
3.53307,890210
3.54118,867267
3.54930,822787
3.55743,778282
3.56555,754376
3.57367,723730
3.58180,697274
3.58992,688169
3.59805,655321
3.60617,648155
3.61428,628095
3.62242,625185
3.63053,588594
3.63867,572144
3.64678,562566
3.65490,551288
3.66303,525163
3.67115,502908
3.67928,484604
3.68740,494460
3.69552,472826
3.70365,459451
3.71177,453777
3.71988,443856
3.72802,432539
3.73613,422486
3.74427,424913
3.75238,407309
3.76050,397549
3.76863,401022
3.77675,394669
3.78488,412204
3.79300,408450
3.80112,390468
3.80925,379004
3.81737,376061
3.82550,373386
3.83362,368708
3.84173,361937
3.84987,347519
3.85798,339406
3.86610,334616
3.87423,329880
3.88235,329169
3.89048,315678
3.89860,315255
3.90672,306577
3.91485,297135
3.92297,297326
3.93110,294360
3.93922,291615
3.94733,289492
3.95547,283154
3.96358,283779
3.97170,275003
3.97983,278318
3.98795,277201
3.99608,260167
4.00420,261698
4.01232,266194
4.02045,264586
4.02857,257156
4.03670,252599
4.04482,257992
4.05293,253208
4.06107,248488
4.06918,247326
4.07732,246738
4.08543,249759
4.09355,233149
4.10168,243065
4.10980,240809
4.11792,239256
4.12605,232290
4.13417,229249
4.14230,243502
4.15042,255866
4.15853,267141
4.16667,260477
4.17478,259605
4.18292,256070
4.19103,237879
4.19915,239888
4.20728,228284
4.21540,224757
4.22352,237353
4.23165,252240
4.23977,264581
4.24790,275828
4.25602,248550
4.26413,244741
4.27227,239787
4.28038,238238
4.28852,227096
4.29663,217110
4.30475,222193
4.31288,212916
4.32100,211316
4.32913,230554
4.33725,243668
4.34537,230936
4.35350,218676
4.36162,224443
4.36973,218323
4.37787,214198
4.38598,212561
4.39412,207022
4.40223,193640
4.41035,200883
4.41848,190541
4.42660,194911
4.43473,191023
4.44285,191081
4.45097,189228
4.45910,187360
4.46722,190487
4.47535,179770
4.48347,179723
4.49158,181804
4.49972,180573
4.50783,178406
4.51595,181253
4.52408,175395
4.53220,175237
4.54033,171412
4.54845,173176
4.55657,168737
4.56470,166964
4.57282,172972
4.58095,169828
4.58907,172869
4.59718,180089
4.60532,171781
4.61343,181965
4.62155,167483
4.62968,167403
4.63780,165524
4.64593,163417
4.65405,159857
4.66217,159895
4.67030,157552
4.67842,155729
4.68655,155488
4.69467,164100
4.70278,158337
4.71092,156899
4.71903,161246
4.72717,173923
4.73528,167629
4.74340,169718
4.75153,155347
4.75965,165439
4.76777,166865
4.77590,163941
4.78402,163976
4.79215,162306
4.80027,155160
4.80838,161278
4.81652,151910
4.82463,157768
4.83277,154897
4.84088,155629
4.84900,148383
4.85713,158363
4.86525,149970
4.87338,154868
4.88150,149394
4.88962,153476
4.89775,154991
4.90587,255505
4.91398,769044
4.92212,2726456
4.93023,8194927
4.93837,1.771433E+07
4.94648,2.313172E+07
4.95460,2.123478E+07
4.96273,1.508268E+07
4.97085,9486831
4.97898,5819914
4.98710,3857852
4.99522,2759333
5.00335,2163964
5.01147,1790151
5.01958,1515952
5.02772,1339595
5.03583,1171065
5.04397,1053589
5.05208,966758
5.06020,909016
5.06833,828502
5.07645,772212
5.08458,719627
5.09270,664358
5.10082,633514
5.10895,609269
5.11707,574701
5.12520,542600
5.13332,522093
5.14143,488341
5.14957,476864
5.15768,460851
5.16580,443151
5.17393,428921
5.18205,426766
5.19018,406730
5.19830,405935
5.20642,392190
5.21455,369118
5.22267,379218
5.23080,404650
5.23892,453407
5.24703,479615
5.25517,458240
5.26328,414015
5.27140,387221
5.27953,358841
5.28765,329116
5.29578,318565
5.30390,306934
5.31202,304130
5.32015,294106
5.32827,287980
5.33640,283954
5.34452,282493
5.35263,273490
5.36077,262691
5.36888,257044
5.37702,262255
5.38513,247622
5.39325,257315
5.40138,244499
5.40950,247984
5.41762,257145
5.42575,248824
5.43387,249940
5.44200,227529
5.45012,232996
5.45823,234007
5.46637,230740
5.47448,229778
5.48262,223992
5.49073,219076
5.49885,216576
5.50698,218802
5.51510,220230
5.52323,214509
5.53135,210446
5.53947,211033
5.54760,214415
5.55572,207762
5.56383,206303
5.57197,206701
5.58008,207060
5.58822,206069
5.59633,208445
5.60445,200450
5.61258,206800
5.62070,211485
5.62883,215376
5.63695,218373
5.64507,211470
5.65320,213227
5.66132,215867
5.66943,224545
5.67757,267772
5.68568,319832
5.69382,339525
5.70193,323926
5.71005,286626
5.71818,247294
5.72630,224481
5.73443,208341
5.74255,195889
5.75067,196517
5.75880,192207
5.76692,191656
5.77505,187290
5.78317,181223
5.79128,169532
5.79942,174975
5.80753,173387
5.81565,173864
5.82378,166950
5.83190,167535
5.84003,172015
5.84815,172544
5.85627,169548
5.86440,159964
5.87252,162458
5.88065,161909
5.88877,160619
5.89688,162676
5.90502,151067
5.91313,138780
5.92127,123544
5.92938,116347
5.93750,118093
5.94563,113419
5.95375,120467
5.96187,119641
5.97000,124811
5.97812,126194
5.98625,130222
5.99437,129261
6.00248,129048
6.01062,122724
6.01873,116605
6.02687,115554
6.03498,111083
6.04310,114404
6.05123,108511
6.05935,118383
6.06747,110350
6.07560,116037
6.08372,106423
6.09185,105414
6.09997,106136
6.10808,103602
6.11622,107336
6.12433,105082
6.13247,107539
6.14058,107716
6.14870,108707
6.15683,110351
6.16495,114385
6.17308,121802
6.18120,128320
6.18932,123444
6.19745,132374
6.20557,137063
6.21368,135574
6.22182,142778
6.22993,138262
6.23807,140560
6.24618,141025
6.25430,143825
6.26243,155801
6.27055,157833
6.27868,153472
6.28680,152510
6.29492,152783
6.30305,162784
6.31117,157285
6.31928,168153
6.32742,169527
6.33553,164226
6.34367,181350
6.35178,172451
6.35990,176983
6.36803,179955
6.37615,183882
6.38428,180426
6.39240,180871
6.40052,189259
6.40865,196130
6.41677,194338
6.42490,200621
6.43302,204101
6.44113,205877
6.44927,207344
6.45738,209153
6.46550,208203
6.47363,225027
6.48175,221997
6.48988,211517
6.49800,224647
6.50612,215452
6.51425,232115
6.52237,219158
6.53050,216243
6.53862,228015
6.54673,228131
6.55487,229824
6.56298,225254
6.57112,237035
6.57923,226464
6.58735,226888
6.59548,170780
6.60360,149234
6.61172,134083
6.61985,128540
6.62797,124269
6.63610,114407
6.64422,115402
6.65233,113441
6.66047,111746
6.66858,110126
6.67672,107891
6.68483,105206
6.69295,106254
6.70108,104979
6.70920,104073
6.71732,98964
6.72545,98127
6.73357,96891
6.74170,97627
6.74982,98776
6.75793,97693
6.76607,93903
6.77418,92276
6.78232,90347
6.79043,94936
6.79855,91006
6.80668,91307
6.81480,90841
6.82293,86938
6.83105,89505
6.83917,87941
6.84730,88682
6.85542,74700
6.86353,71806
6.87167,65303
6.87978,63947
6.88792,64502
6.89603,62657
6.90415,65462
6.91228,65648
6.92040,61564
6.92853,62002
6.93665,62895
6.94477,60780
6.95290,61086
6.96102,62706
6.96915,59996
6.97727,54994
6.98538,61354
6.99352,60618
7.00163,56803
7.00975,57317
7.01788,56453
7.02600,57588
7.03413,61625
7.04225,59878
7.05037,56000
7.05850,56676
7.06662,58076
7.07475,58939
7.08287,55137
7.09098,57332
7.09912,58868
7.10723,57265
7.11535,58494
7.12348,59478
7.13160,56849
7.13973,57458
7.14785,53904
7.15597,56336
7.16410,54111
7.17222,57039
7.18035,56010
7.18847,55189
7.19658,54925
7.20472,53953
7.21283,54588
7.22097,52713
7.22908,56316
7.23720,51995
7.24533,52555
7.25345,52349
7.26157,52517
7.26970,55842
7.27782,55224
7.28595,54082
7.29407,52146
7.30218,58200
7.31032,52536
7.31843,53953
7.32657,54567
7.33468,51776
7.34280,57328
7.35093,54891
7.35905,54334
7.36718,53620
7.37530,54352
7.38342,50018
7.39155,52565
7.39967,57356
7.40778,55679
7.41592,55988
7.42403,55547
7.43217,60914
7.44028,60096
7.44840,58999
7.45653,58612
7.46465,54721
7.47278,54461
7.48090,51530
7.48902,50942
7.49715,55826
7.50527,56008
7.51338,53324
7.52152,57141
7.52963,54129
7.53777,51757
7.54588,51814
7.55400,51623
7.56213,54073
7.57025,50110
7.57838,50705
7.58650,53624
7.59462,51702
7.60275,52495
7.61087,52606
7.61900,51583
7.62712,47894
7.63523,51645
7.64337,50366
7.65148,49407
7.65960,49705
7.66773,47995
7.67585,50967
7.68398,50057
7.69210,46847
7.70022,49740
7.70835,45855
7.71647,53421
7.72460,52315
7.73272,50219
7.74083,53139
7.74897,47627
7.75708,50617
7.76520,46492
7.77333,49240
7.78145,49044
7.78958,48270
7.79770,47077
7.80582,47004
7.81395,49421
7.82207,48709
7.83020,47818
7.83832,45805
7.84643,45575
7.85457,47327
7.86268,45958
7.87082,45229
7.87893,45867
7.88705,43927
7.89518,45676
7.90330,48049
7.91142,41823
7.91955,44823
7.92767,40779
7.93580,43535
7.94392,43509
7.95203,46287
7.96017,49939
7.96828,47909
7.97642,48545
7.98453,52329
7.99265,45983
8.00078,44528
8.00890,43935
8.01703,46147
8.02515,44249
8.03327,40925
8.04140,41762
8.04952,39585
8.05763,43041
8.06577,45195
8.07388,46385
8.08202,41582
8.09013,46030
8.09825,44829
8.10638,42075
8.11450,40938
8.12263,41143
8.13075,44254
8.13887,47875
8.14700,44262
8.15512,42826
8.16323,45331
8.17137,45564
8.17948,47219
8.18762,45289
8.19573,47061
8.20385,40431
8.21198,43596
8.22010,42029
8.22823,43431
8.23635,40500
8.24447,41074
8.25260,40902
8.26072,41867
8.26885,40473
8.27697,41758
8.28508,39778
8.29322,40469
8.30133,41967
8.30945,41523
8.31758,42472
8.32570,46404
8.33383,52849
8.34195,49697
8.35007,46703
8.35820,46244
8.36632,40253
8.37445,42769
8.38257,41409
8.39068,43686
8.39882,40462
8.40693,39511
8.41507,43181
8.42318,43947
8.43130,37034
8.43943,39992
8.44755,40731
8.45567,42979
8.46380,70802
8.47192,299883
8.48005,510035
8.48817,326154
8.49628,157505
8.50442,108558
8.51253,94432
8.52067,89473
8.52878,82272
8.53690,72977
8.54503,66899
8.55315,66992
8.56127,71412
8.56940,68243
8.57752,66019
8.58565,62497
8.59377,60014
8.60188,60153
8.61002,60283
8.61813,58486
8.62627,57883
8.63438,59647
8.64250,58447
8.65063,56009
8.65875,58875
8.66688,50854
8.67500,53459
8.68312,51435
8.69125,54772
8.69937,59796
8.70748,94513
8.71562,213220
8.72373,542018
8.73187,1187925
8.73998,2221453
8.74810,3326464
8.75623,3572985
8.76435,2795095
8.77248,1742279
8.78060,1020272
8.78872,668047
8.79685,513242
8.80497,441632
8.81308,379875
8.82122,325185
8.82933,278393
8.83747,244577
8.84558,224838
8.85370,201809
8.86183,193563
8.86995,446615
8.87808,3576452
8.88620,1.067048E+07
8.89432,9152973
8.90245,3982771
8.91057,2080242
8.91870,1359940
8.92682,985178
8.93493,765263
8.94307,627216
8.95118,522444
8.95930,451314
8.96743,408283
8.97555,370438
8.98368,338843
8.99180,309628
8.99992,291397
9.00805,271265
9.01617,251225
9.02430,241868
9.03242,228291
9.04053,213866
9.04867,201958
9.05678,192501
9.06492,189084
9.07303,179999
9.08115,176117
9.08928,169221
9.09740,156885
9.10552,162720
9.11365,154292
9.12177,150037
9.12990,145789
9.13802,139138
9.14613,135471
9.15427,137349
9.16238,132570
9.17052,128034
9.17863,125654
9.18675,124932
9.19488,121720
9.20300,113039
9.21113,108656
9.21925,113524
9.22737,109328
9.23550,109269
9.24362,96301
9.25173,98234
9.25987,99849
9.26798,103573
9.27612,92426
9.28423,102408
9.29235,101742
9.30048,96983
9.30860,98748
9.31673,100780
9.32485,98242
9.33297,92059
9.34110,89525
9.34922,91088
9.35733,92529
9.36547,156150
9.37358,748455
9.38172,2722437
9.38983,4605083
9.39795,3647435
9.40608,1890099
9.41420,1074452
9.42233,729994
9.43045,535924
9.43857,431261
9.44670,366465
9.45482,306485
9.46295,269526
9.47107,237923
9.47918,220674
9.48732,199303
9.49543,184810
9.50355,179858
9.51168,167113
9.51980,155795
9.52793,142821
9.53605,134069
9.54417,125826
9.55230,127602
9.56042,118886
9.56855,109492
9.57667,103780
9.58478,102562
9.59292,98245
9.60103,96750
9.60915,97070
9.61728,90985
9.62540,93793
9.63353,88505
9.64165,84244
9.64977,82126
9.65790,83323
9.66602,75091
9.67415,81654
9.68227,76388
9.69038,80086
9.69852,71126
9.70663,74172
9.71477,76308
9.72288,70380
9.73100,66269
9.73913,68228
9.74725,63362
9.75537,64528
9.76350,65733
9.77162,68025
9.77975,62433
9.78787,61819
9.79598,62766
9.80412,64607
9.81223,64568
9.82037,72306
9.82848,79837
9.83660,86491
9.84473,77440
9.85285,71761
9.86098,70708
9.86910,64996
9.87722,60290
9.88535,66416
9.89347,70081
9.90158,80098
9.90972,74651
9.91783,62293
9.92597,62231
9.93408,61536
9.94220,58408
9.95033,59784
9.95845,69615
9.96658,78968
9.97470,78571
9.98282,79885
9.99095,80957
9.99907,72851
10.00718,66653
10.01532,66597
10.02343,60757
10.03157,61571
10.03968,63099
10.04780,57902
10.05593,61484
10.06405,61823
10.07218,59772
10.08030,56909
10.08842,63997
10.09655,68966
10.10467,74805
10.11280,78284
10.12092,88705
10.12903,100587
10.13717,107554
10.14528,112931
10.15340,108758
10.16153,84481
10.16965,74161
10.17778,73657
10.18590,70682
10.19402,67492
10.20215,70877
10.21027,74667
10.21840,81000
10.22652,86161
10.23463,83111
10.24277,79116
10.25088,69273
10.25902,75070
10.26713,67781
10.27525,58903
10.28338,57187
10.29150,55437
10.29962,54613
10.30775,53555
10.31587,53041
10.32400,50364
10.33212,50277
10.34023,52446
10.34837,52597
10.35648,48778
10.36462,51353
10.37273,49200
10.38085,51872
10.38898,45081
10.39710,47379
10.40522,49270
10.41335,49769
10.42147,48443
10.42960,45992
10.43772,49851
10.44583,48470
10.45397,47926
10.46208,46977
10.47022,49982
10.47833,45391
10.48645,47758
10.49458,47077
10.50270,42725
10.51083,44810
10.51895,46132
10.52707,46761
10.53520,44849
10.54332,44593
10.55143,45466
10.55957,45969
10.56768,43579
10.57582,44021
10.58393,44061
10.59205,45474
10.60018,43872
10.60830,46703
10.61643,43261
10.62455,46031
10.63267,43778
10.64080,43075
10.64892,40873
10.65703,42467
10.66517,45321
10.67328,45898
10.68142,39568
10.68953,45417
10.69765,43171
10.70578,44977
10.71390,44116
10.72203,43623
10.73015,45586
10.73827,44326
10.74640,45642
10.75452,43443
10.76265,46002
10.77077,46026
10.77888,42951
10.78702,41616
10.79513,46503
10.80325,42731
10.81138,43264
10.81950,42764
10.82763,41534
10.83575,40461
10.84387,41166
10.85200,38177
10.86012,40704
10.86825,42022
10.87637,46227
10.88448,42157
10.89262,42125
10.90073,42619
10.90887,40063
10.91698,44608
10.92510,39960
10.93323,41458
10.94135,38230
10.94947,38298
10.95760,46424
10.96572,74145
10.97385,170474
10.98197,378772
10.99008,594664
10.99822,653417
11.00633,506498
11.01447,337664
11.02258,231777
11.03070,169901
11.03883,134719
11.04695,111737
11.05507,98458
11.06320,94436
11.07132,83908
11.07945,79008
11.08757,77938
11.09568,72490
11.10382,69266
11.11193,70026
11.12007,72029
11.12818,73309
11.13630,74901
11.14443,77667
11.15255,82970
11.16068,84894
11.16880,77655
11.17692,71327
11.18505,66174
11.19317,61180
11.20128,60284
11.20942,59963
11.21753,55146
11.22567,55093
11.23378,52600
11.24190,50343
11.25003,50898
11.25815,52825
11.26628,54341
11.27440,49886
11.28252,54400
11.29065,50409
11.29877,51571
11.30690,54675
11.31502,53179
11.32313,48638
11.33127,52299
11.33938,51668
11.34750,47733
11.35563,49365
11.36375,47970
11.37188,47470
11.38000,50354
11.38812,48172
11.39625,49665
11.40437,49007
11.41250,48032
11.42062,45248
11.42873,46641
11.43687,42110
11.44498,46465
11.45310,44082
11.46123,44998
11.46935,45829
11.47748,45890
11.48560,44123
11.49372,43961
11.50185,49017
11.50997,43758
11.51810,46940
11.52622,43058
11.53433,45707
11.54247,44313
11.55058,42703
11.55872,43516
11.56683,43828
11.57495,42611
11.58308,41293
11.59120,47318
11.59932,42274
11.60745,43979
11.61557,41575
11.62370,45258
11.63182,41551
11.63993,41738
11.64807,42852
11.65618,45442
11.66432,41838
11.67243,43367
11.68055,44042
11.68868,44991
11.69680,46530
11.70492,47837
11.71305,47953
11.72117,49682
11.72930,50097
11.73742,52281
11.74553,50175
11.75367,44431
11.76178,45639
11.76992,44240
11.77803,43193
11.78615,44944
11.79428,44544
11.80240,47275
11.81053,46313
11.81865,41376
11.82677,45762
11.83490,43839
11.84302,45341
11.85113,44007
11.85927,44695
11.86738,40664
11.87552,40499
11.88363,42134
11.89175,40977
11.89988,41603
11.90800,46002
11.91613,47973
11.92425,40452
11.93237,37426
11.94050,39259
11.94862,41744
11.95675,40716
11.96487,39364
11.97298,41179
11.98112,39383
11.98923,38827
11.99735,40261
12.00548,40228
12.01360,40017
12.02173,38271
12.02985,38943
12.03797,38065
12.04610,35570
12.05422,39640
12.06235,40591
12.07047,41747
12.07858,38162
12.08672,39253
12.09483,42251
12.10295,38784
12.11108,40105
12.11920,40338
12.12733,37009
12.13545,40648
12.14357,36343
12.15170,38888
12.15982,37269
12.16795,37461
12.17607,38350
12.18418,40713
12.19232,39723
12.20043,41615
12.20857,42149
12.21668,49844
12.22480,36175
12.23293,40390
12.24105,39549
12.24917,44199
12.25730,36902
12.26542,36059
12.27355,38901
12.28167,38732
12.28978,39232
12.29792,39261
12.30603,38222
12.31417,38811
12.32228,37433
12.33040,39332
12.33853,38354
12.34665,38106
12.35478,37371
12.36290,39913
12.37102,39967
12.37915,37825
12.38727,36585
12.39538,39250
12.40352,35736
12.41163,38883
12.41977,43360
12.42788,39964
12.43600,40226
12.44413,46110
12.45225,38343
12.46038,41450
12.46850,42743
12.47662,40455
12.48475,41738
12.49287,39548
12.50098,39563
12.50912,38851
12.51723,34965
12.52537,38052
12.53348,40599
12.54160,36597
12.54973,35751
12.55785,38735
12.56598,35195
12.57410,36759
12.58222,35594
12.59035,35893
12.59847,36176
12.60660,39476
12.61472,36759
12.62283,35205
12.63097,36090
12.63908,39708
12.64720,37306
12.65533,36699
12.66345,37750
12.67158,30211
12.67970,33334
12.68782,38890
12.69595,36334
12.70407,34911
12.71220,37308
12.72032,44620
12.72843,41789
12.73657,41145
12.74468,40611
12.75282,40758
12.76093,38490
12.76905,36251
12.77718,36508
12.78530,37028
12.79342,37992
12.80155,34654
12.80967,35533
12.81780,35664
12.82592,38873
12.83403,37343
12.84217,36657
12.85028,36273
12.85842,36290
12.86653,37673
12.87465,35827
12.88278,37511
12.89090,35132
12.89902,39895
12.90715,33844
12.91527,34324
12.92340,35127
12.93152,34248
12.93963,33369
12.94777,36123
12.95588,35400
12.96402,33864
12.97213,34022
12.98025,36342
12.98838,36135
12.99650,38015
13.00463,36878
13.01275,34711
13.02087,31560
13.02900,40579
13.03712,33969
13.04523,36251
13.05337,34545
13.06148,36447
13.06962,35284
13.07773,36659
13.08585,35633
13.09398,34362
13.10210,35910
13.11023,36992
13.11835,38212
13.12647,37045
13.13460,44853
13.14272,45117
13.15083,46059
13.15897,43857
13.16708,41152
13.17522,39895
13.18333,37536
13.19145,39088
13.19958,38391
13.20770,36881
13.21583,34799
13.22395,37013
13.23207,35165
13.24020,36049
13.24832,36399
13.25645,36408
13.26457,38751
13.27268,39547
13.28082,32414
13.28893,35236
13.29705,33934
13.30518,32113
13.31330,34409
13.32143,31819
13.32955,31317
13.33767,33608
13.34580,33030
13.35392,31472
13.36205,39340
13.37017,35596
13.37828,33547
13.38642,34330
13.39453,32341
13.40267,34460
13.41078,30043
13.41890,31701
13.42703,34418
13.43515,34101
13.44327,31507
13.45140,32734
13.45952,34228
13.46765,35946
13.47577,34539
13.48388,33744
13.49202,34596
13.50013,34608
13.50827,34416
13.51638,33324
13.52450,37898
13.53263,37318
13.54075,34825
13.54887,32522
13.55700,33271
13.56512,32667
13.57325,34343
13.58137,35478
13.58948,33887
13.59762,34329
13.60573,34790
13.61387,35124
13.62198,32188
13.63010,37608
13.63823,36305
13.64635,34852
13.65448,35954
13.66260,35021
13.67072,34722
13.67885,34674
13.68697,34095
13.69508,34899
13.70322,36343
13.71133,33327
13.71947,31801
13.72758,33783
13.73570,33926
13.74383,32678
13.75195,33680
13.76008,34988
13.76820,34355
13.77632,32893
13.78445,31170
13.79257,34107
13.80070,35007
13.80882,32748
13.81693,33294
13.82507,32530
13.83318,34017
13.84130,38530
13.84943,35588
13.85755,33921
13.86568,36323
13.87380,38233
13.88192,40217
13.89005,35553
13.89817,34827
13.90630,35895
13.91442,34603
13.92253,35471
13.93067,33200
13.93878,32138
13.94690,32793
13.95503,35935
13.96315,33188
13.97128,33073
13.97940,35660
13.98752,36832
13.99565,37151
14.00377,43097
14.01190,39115
14.02002,37396
14.02813,37669
14.03627,36528
14.04438,40955
14.05252,36667
14.06063,36275
14.06875,35212
14.07688,36919
14.08500,36244
14.09312,34763
14.10125,38627
14.10937,53078
14.11750,93302
14.12562,174587
14.13373,296392
14.14187,448817
14.14998,535169
14.15812,517812
14.16623,416477
14.17435,300980
14.18248,197692
14.19060,148275
14.19872,122388
14.20685,109111
14.21497,99818
14.22310,93813
14.23122,82640
14.23933,74590
14.24747,68885
14.25558,65135
14.26372,66606
14.27183,65886
14.27995,61600
14.28808,58561
14.29620,53552
14.30433,50039
14.31245,46781
14.32057,43608
14.32870,39461
14.33682,43235
14.34493,37282
14.35307,39189
14.36118,37737
14.36932,41119
14.37743,38964
14.38555,40680
14.39368,38946
14.40180,36297
14.40993,38224
14.41805,38805
14.42617,36027
14.43430,36961
14.44242,36294
14.45055,39934
14.45867,39116
14.46678,40693
14.47492,36787
14.48303,40544
14.49115,38516
14.49928,40694
14.50740,38734
14.51553,35424
14.52365,35792
14.53177,32566
14.53990,34727
14.54802,37105
14.55615,41333
14.56427,36009
14.57238,38198
14.58052,37611
14.58863,37443
14.59677,34981
14.60488,37602
14.61300,36662
14.62113,35453
14.62925,37489
14.63737,36479
14.64550,37986
14.65362,35347
14.66175,37072
14.66987,37224
14.67798,36357
14.68612,35349
14.69423,41086
14.70237,42819
14.71048,56463
14.71860,88169
14.72673,133537
14.73485,163242
14.74297,166464
14.75110,140459
14.75922,104488
14.76735,81048
14.77547,62996
14.78358,55561
14.79172,48053
14.79983,52525
14.80797,50910
14.81608,47936
14.82420,45012
14.83233,46934
14.84045,45070
14.84858,38515
14.85670,42451
14.86482,42010
14.87295,43466
14.88107,43732
14.88918,39914
14.89732,39918
14.90543,39510
14.91357,43017
14.92168,37477
14.92980,36692
14.93793,39613
14.94605,39255
14.95418,37047
14.96230,38230
14.97042,36324
14.97855,35504
14.98667,37757
14.99478,37004
15.00292,36993
15.01103,38270
15.01917,38332
15.02728,36378
15.03540,34513
15.04353,40191
15.05165,38561
15.05978,37642
15.06790,35094
15.07602,37029
15.08415,33871
15.09227,35078
15.10040,32883
15.10852,34994
15.11663,38191
15.12477,32292
15.13288,34469
15.14100,34621
15.14913,35146
15.15725,33566
15.16538,33855
15.17350,33504
15.18162,32671
15.18975,32754
15.19787,35547
15.20600,34165
15.21412,33150
15.22223,32430
15.23037,32064
15.23848,34978
15.24662,35174
15.25473,32431
15.26285,31638
15.27098,33490
15.27910,32514
15.28722,35408
15.29535,35828
15.30347,33914
15.31160,33992
15.31972,33206
15.32783,29771
15.33597,30523
15.34408,28353
15.35222,32587
15.36033,31395
15.36845,32048
15.37658,33185
15.38470,30572
15.39282,31382
15.40095,33759
15.40907,32832
15.41720,33173
15.42532,33064
15.43343,35217
15.44157,34103
15.44968,35247
15.45782,36026
15.46593,32653
15.47405,31262
15.48218,32278
15.49030,30232
15.49843,34303
15.50655,31219
15.51467,28443
15.52280,32049
15.53092,31659
15.53903,31881
15.54717,29347
15.55528,33394
15.56342,32121
15.57153,32443
15.57965,29014
15.58778,28537
15.59590,31980
15.60403,45386
15.61215,251401
15.62027,529574
15.62840,313408
15.63652,155263
15.64465,109262
15.65277,86028
15.66088,75457
15.66902,68160
15.67713,64017
15.68525,59380
15.69338,55666
15.70150,55594
15.70963,54156
15.71775,52667
15.72587,48606
15.73400,46426
15.74212,44990
15.75025,43405
15.75837,47405
15.76648,43422
15.77462,90697
15.78273,2592817
15.79085,1.02811E+07
15.79898,5504127
15.80710,2616541
15.81523,1627872
15.82335,1155944
15.83147,876693
15.83960,711341
15.84772,594753
15.85585,499903
15.86397,437059
15.87208,369881
15.88022,336199
15.88833,308194
15.89647,286847
15.90458,270237
15.91270,1001345
15.92083,5042640
15.92895,4812015
15.93707,2181055
15.94520,1290796
15.95332,917128
15.96145,714827
15.96957,583561
15.97768,495304
15.98582,433655
15.99393,375934
16.00207,333488
16.01018,306102
16.01830,289183
16.02643,273526
16.03455,246439
16.04267,230670
16.05080,217699
16.05892,207493
16.06705,187784
16.07517,187467
16.08328,173564
16.09142,172786
16.09953,156158
16.10767,154422
16.11578,139628
16.12390,142756
16.13203,136713
16.14015,131911
16.14828,123677
16.15640,127197
16.16452,149287
16.17265,138660
16.18077,120568
16.18888,116588
16.19702,114131
16.20513,124126
16.21327,130164
16.22138,125193
16.22950,118163
16.23763,139409
16.24575,184892
16.25388,205572
16.26200,199181
16.27012,168361
16.27825,146107
16.28637,141128
16.29450,126620
16.30262,121583
16.31073,113661
16.31887,114673
16.32698,135677
16.33510,407058
16.34323,934927
16.35135,929672
16.35948,584833
16.36760,387485
16.37572,288276
16.38385,233142
16.39197,198682
16.40010,176458
16.40822,158552
16.41633,152053
16.42447,134409
16.43258,126731
16.44070,120545
16.44883,114758
16.45695,109050
16.46508,104138
16.47320,102829
16.48132,94166
16.48945,99994
16.49757,92596
16.50570,93149
16.51382,86193
16.52193,89157
16.53007,82115
16.53818,86078
16.54632,84072
16.55443,77998
16.56255,78614
16.57068,81474
16.57880,73052
16.58692,76588
16.59505,70646
16.60317,72305
16.61130,76166
16.61942,70929
16.62753,68293
16.63567,73857
16.64378,69941
16.65192,65450
16.66003,65823
16.66815,65863
16.67628,67963
16.68440,69540
16.69253,69483
16.70065,65125
16.70877,63509
16.71690,60698
16.72502,64938
16.73313,64321
16.74127,61234
16.74938,60670
16.75752,61832
16.76563,59764
16.77375,65936
16.78188,64152
16.79000,59927
16.79813,59292
16.80625,63705
16.81437,55650
16.82250,63588
16.83062,60020
16.83873,59249
16.84687,63189
16.85498,56606
16.86312,62305
16.87123,58684
16.87935,54452
16.88748,59983
16.89560,58938
16.90373,58379
16.91185,55634
16.91997,63340
16.92810,57240
16.93622,59770
16.94435,56392
16.95247,59394
16.96058,56386
16.96872,61015
16.97683,55787
16.98495,56550
16.99308,53928
17.00120,59914
17.00933,57363
17.01745,53622
17.02557,58251
17.03370,56793
17.04182,55657
17.04995,53974
17.05807,52084
17.06618,52463
17.07432,54735
17.08243,53962
17.09055,56747
17.09868,57265
17.10680,55110
17.11493,56573
17.12305,52589
17.13117,58945
17.13930,55286
17.14742,53020
17.15555,54818
17.16367,53841
17.17178,52118
17.17992,50635
17.18803,52220
17.19617,48928
17.20428,52813
17.21240,50546
17.22053,50459
17.22865,49935
17.23677,50611
17.24490,50387
17.25302,53623
17.26115,52919
17.26927,49034
17.27738,48298
17.28552,55055
17.29363,51910
17.30177,57816
17.30988,57133
17.31800,51948
17.32613,51978
17.33425,51454
17.34238,52193
17.35050,52109
17.35862,54420
17.36675,57401
17.37487,55262
17.38298,54989
17.39112,53979
17.39923,52590
17.40737,56200
17.41548,53547
17.42360,46087
17.43173,47874
17.43985,52617
17.44798,50361
17.45610,50133
17.46422,48869
17.47235,54855
17.48047,53266
17.48858,51681
17.49672,53128
17.50483,52858
17.51297,51497
17.52108,48999
17.52920,49974
17.53733,51673
17.54545,49719
17.55358,49287
17.56170,48175
17.56982,49056
17.57795,47245
17.58607,49452
17.59420,49024
17.60232,50371
17.61043,46406
17.61857,52458
17.62668,47253
17.63480,46697
17.64293,48608
17.65105,50528
17.65918,52446
17.66730,47197
17.67542,54916
17.68355,85261
17.69167,143447
17.69980,182378
17.70792,159926
17.71603,127027
17.72417,96881
17.73228,80196
17.74042,75689
17.74853,73806
17.75665,69432
17.76478,64281
17.77290,63182
17.78102,62963
17.78915,58226
17.79727,53726
17.80540,57380
17.81352,55406
17.82163,50079
17.82977,57723
17.83788,52869
17.84602,52978
17.85413,52874
17.86225,48025
17.87038,49360
17.87850,52177
17.88662,50403
17.89475,49084
17.90287,47220
17.91100,49479
17.91912,47417
17.92723,44478
17.93537,45718
17.94348,48526
17.95162,43290
17.95973,45686
17.96785,44031
17.97598,46856
17.98410,46447
17.99223,46035
18.00035,46238
18.00847,48512
18.01660,50040
18.02472,49585
18.03283,52617
18.04097,55625
18.04908,47625
18.05722,49533
18.06533,46763
18.07345,50107
18.08158,47795
18.08970,50307
18.09783,49086
18.10595,49091
18.11407,49058
18.12220,48411
18.13032,47543
18.13845,45724
18.14657,45829
18.15468,45461
18.16282,47531
18.17093,46257
18.17905,42750
18.18718,45383
18.19530,46446
18.20343,47418
18.21155,42723
18.21967,44346
18.22780,43418
18.23592,42968
18.24405,46732
18.25217,46725
18.26028,46623
18.26842,45543
18.27653,45748
18.28465,46200
18.29278,45474
18.30090,45788
18.30903,45582
18.31715,44012
18.32527,40527
18.33340,42437
18.34152,42359
18.34965,41411
18.35777,41157
18.36588,38944
18.37402,42786
18.38213,42329
18.39027,43799
18.39838,37123
18.40650,40243
18.41463,42012
18.42275,39746
18.43087,42554
18.43900,42753
18.44712,44305
18.45525,42704
18.46337,40370
18.47148,40808
18.47962,41761
18.48773,43487
18.49587,42359
18.50398,42202
18.51210,41808
18.52023,38909
18.52835,43201
18.53647,41452
18.54460,49671
18.55272,50969
18.56085,50510
18.56897,53425
18.57708,54050
18.58522,54362
18.59333,53761
18.60147,60666
18.60958,58921
18.61770,57187
18.62583,62235
18.63395,55045
18.64208,60960
18.65020,52555
18.65832,60116
18.66645,55951
18.67457,49799
18.68268,58572
18.69082,52937
18.69893,55430
18.70707,54185
18.71518,55201
18.72330,51342
18.73143,54845
18.73955,54007
18.74768,50805
18.75580,54996
18.76392,54119
18.77205,53186
18.78017,52529
18.78830,50476
18.79642,53573
18.80453,48866
18.81267,53859
18.82078,53975
18.82890,52672
18.83703,49197
18.84515,50167
18.85328,50934
18.86140,53087
18.86952,49794
18.87765,47711
18.88577,48642
18.89390,49296
18.90202,48802
18.91013,49667
18.91827,48689
18.92638,54352
18.93450,50492
18.94263,46886
18.95075,46969
18.95888,43821
18.96700,49908
18.97512,45666
18.98325,50484
18.99137,46533
18.99950,45148
19.00762,43845
19.01573,46830
19.02387,47104
19.03198,45270
19.04012,44651
19.04823,47684
19.05635,44443
19.06448,48179
19.07260,49053
19.08072,50959
19.08885,52533
19.09697,49913
19.10510,50914
19.11322,53848
19.12133,55385
19.12947,49863
19.13758,48444
19.14572,46236
19.15383,45062
19.16195,49887
19.17008,46451
19.17820,45964
19.18633,44217
19.19445,51022
19.20257,49405
19.21070,42849
19.21882,43748
19.22693,48319
19.23507,44163
19.24318,49144
19.25132,47993
19.25943,49414
19.26755,52432
19.27568,57011
19.28380,55294
19.29193,57184
19.30005,57558
19.30817,60361
19.31630,61021
19.32442,56170
19.33253,50634
19.34067,46436
19.34878,49027
19.35692,48749
19.36503,48030
19.37315,50310
19.38128,48173
19.38940,46183
19.39753,51289
19.40565,54557
19.41377,72574
19.42190,107649
19.43002,165518
19.43815,211870
19.44627,236601
19.45438,223912
19.46252,188930
19.47063,143725
19.47875,100294
19.48688,75430
19.49500,60468
19.50313,53238
19.51125,55080
19.51937,55509
19.52750,56437
19.53562,66658
19.54375,85553
19.55187,93824
19.55998,105389
19.56812,95456
19.57623,84542
19.58435,68994
19.59248,62916
19.60060,59463
19.60873,65805
19.61685,79802
19.62497,116741
19.63310,177772
19.64122,255535
19.64935,326671
19.65747,367517
19.66558,357707
19.67372,301872
19.68183,232380
19.68997,164916
19.69808,126119
19.70620,102111
19.71433,83980
19.72245,79162
19.73057,76055
19.73870,68163
19.74682,66787
19.75495,62026
19.76307,60016
19.77118,56350
19.77932,53819
19.78743,53590
19.79557,54758
19.80368,52906
19.81180,51930
19.81993,50888
19.82805,51463
19.83618,48909
19.84430,49453
19.85242,46120
19.86055,49091
19.86867,52907
19.87678,53754
19.88492,63902
19.89303,71553
19.90117,83581
19.90928,87555
19.91740,96924
19.92553,95531
19.93365,87114
19.94178,81662
19.94990,78344
19.95802,71833
19.96615,64782
19.97427,66366
19.98238,59953
19.99052,57849
19.99863,57468
20.00677,57105
20.01488,58611
20.02300,54969
20.03113,54781
20.03925,53304
20.04738,54502
20.05550,50654
20.06362,45531
20.07175,45768
20.07987,45212
20.08800,44903
20.09612,46463
20.10423,45688
20.11237,41409
20.12048,48264
20.12860,48781
20.13673,46173
20.14485,42585
20.15298,45596
20.16110,41579
20.16922,42814
20.17735,43297
20.18547,44246
20.19360,47055
20.20172,54146
20.20983,60552
20.21797,83058
20.22608,115326
20.23422,165129
20.24233,201949
20.25045,240703
20.25858,234411
20.26670,209389
20.27482,172696
20.28295,132066
20.29107,104245
20.29920,85379
20.30732,72352
20.31543,66847
20.32357,59124
20.33168,61271
20.33982,56047
20.34793,52863
20.35605,46777
20.36418,56935
20.37230,58839
20.38042,61220
20.38855,71998
20.39667,87650
20.40480,98337
20.41292,106255
20.42103,113672
20.42917,108644
20.43728,99535
20.44542,90113
20.45353,80006
20.46165,66807
20.46978,59024
20.47790,52358
20.48603,52372
20.49415,53912
20.50227,50709
20.51040,49349
20.51852,50031
20.52663,51021
20.53477,53583
20.54288,50554
20.55102,47050
20.55913,54037
20.56725,55940
20.57538,67542
20.58350,85348
20.59163,89143
20.59975,89593
20.60787,80648
20.61600,67094
20.62412,69025
20.63225,57867
20.64037,55510
20.64848,55166
20.65662,52355
20.66473,49570
20.67285,52526
20.68098,50583
20.68910,48308
20.69723,48021
20.70535,51713
20.71347,49057
20.72160,45342
20.72972,44640
20.73785,42953
20.74597,40800
20.75408,42365
20.76222,43201
20.77033,42300
20.77845,42058
20.78658,40787
20.79470,44702
20.80283,40111
20.81095,42449
20.81907,44978
20.82720,45415
20.83532,44254
20.84345,43768
20.85157,42070
20.85968,43500
20.86782,43524
20.87593,44370
20.88407,39946
20.89218,42208
20.90030,38893
20.90843,38344
20.91655,38917
20.92467,40881
20.93280,39886
20.94092,42368
20.94905,39925
20.95717,38824
20.96528,38983
20.97342,42275
20.98153,41765
20.98967,42044
20.99778,40906
21.00590,44555
21.01403,41816
21.02215,43170
21.03028,40865
21.03840,39544
21.04652,36275
21.05465,39309
21.06277,41810
21.07088,46785
21.07902,39982
21.08713,43431
21.09527,41089
21.10338,42195
21.11150,41325
21.11963,43307
21.12775,40695
21.13588,42190
21.14400,39991
21.15212,41624
21.16025,43134
21.16837,40847
21.17648,50468
21.18462,43409
21.19273,45547
21.20087,45676
21.20898,44175
21.21710,46503
21.22523,46302
21.23335,44959
21.24148,46139
21.24960,45807
21.25772,43068
21.26585,45157
21.27397,44818
21.28210,45186
21.29022,44554
21.29833,49109
21.30647,48825
21.31458,52844
21.32270,58719
21.33083,63812
21.33895,64853
21.34708,58978
21.35520,55643
21.36332,51378
21.37145,49899
21.37957,49480
21.38770,46498
21.39582,48679
21.40393,42890
21.41207,48114
21.42018,43919
21.42830,43283
21.43643,46437
21.44455,49865
21.45268,44249
21.46080,44683
21.46892,44856
21.47705,49129
21.48517,48254
21.49330,46371
21.50142,42318
21.50953,43657
21.51767,45644
21.52578,47570
21.53392,48440
21.54203,46019
21.55015,56278
21.55828,71719
21.56640,83580
21.57452,107314
21.58265,119870
21.59077,132826
21.59890,133484
21.60702,121162
21.61513,105152
21.62327,87451
21.63138,76902
21.63952,67958
21.64763,60916
21.65575,58735
21.66388,57094
21.67200,59988
21.68013,60218
21.68825,60780
21.69637,57649
21.70450,60684
21.71262,53572
21.72073,53205
21.72887,55932
21.73698,50442
21.74512,58551
21.75323,60012
21.76135,63762
21.76948,74485
21.77760,81253
21.78573,93160
21.79385,88876
21.80197,86550
21.81010,72937
21.81822,64203
21.82633,59189
21.83447,49912
21.84258,47873
21.85072,47146
21.85883,46862
21.86695,46742
21.87508,47277
21.88320,51631
21.89133,49990
21.89945,42382
21.90757,41692
21.91570,43472
21.92382,43494
21.93195,40917
21.94007,39079
21.94818,37135
21.95632,40481
21.96443,38053
21.97255,38470
21.98068,37690
21.98880,38278
21.99693,38566
22.00505,36974
22.01317,38862
22.02130,36714
22.02942,38371
22.03755,38888
22.04567,40453
22.05378,45426
22.06192,41702
22.07003,42238
22.07817,43365
22.08628,44296
22.09440,45603
22.10253,43529
22.11065,39395
22.11877,43658
22.12690,40737
22.13502,42072
22.14315,42510
22.15127,43116
22.15938,46662
22.16752,46198
22.17563,48228
22.18377,50378
22.19188,48659
22.20000,48067
22.20813,42761
22.21625,42492
22.22437,43979
22.23250,38040
22.24062,37706
22.24875,39167
22.25687,37276
22.26498,38397
22.27312,39442
22.28123,36976
22.28937,33874
22.29748,35022
22.30560,34351
22.31373,38497
22.32185,39122
22.32998,40223
22.33810,40910
22.34622,34910
22.35435,38453
22.36247,33610
22.37058,37984
22.37872,34063
22.38683,29619
22.39497,31572
22.40308,34826
22.41120,34662
22.41933,37893
22.42745,33960
22.43558,39704
22.44370,45776
22.45182,42670
22.45995,42328
22.46807,41842
22.47618,38401
22.48432,36216
22.49243,36429
22.50057,38955
22.50868,35773
22.51680,36449
22.52493,35187
22.53305,29528
22.54118,29115
22.54930,31119
22.55742,30321
22.56555,30758
22.57367,32711
22.58180,36299
22.58992,29041
22.59803,33883
22.60617,35701
22.61428,37043
22.62240,37339
22.63053,33896
22.63865,35714
22.64678,34957
22.65490,34812
22.66302,35177
22.67115,37359
22.67927,32433
22.68740,33226
22.69552,33155
22.70363,31209
22.71177,34913
22.71988,31913
22.72802,34772
22.73613,30822
22.74425,34139
22.75238,30987
22.76050,35023
22.76862,33415
22.77675,35277
22.78487,32335
22.79300,36475
22.80112,34588
22.80923,33896
22.81737,30473
22.82548,30152
22.83362,30278
22.84173,30925
22.84985,31418
22.85798,33481
22.86610,35401
22.87422,31571
22.88235,33721
22.89047,37741
22.89860,36815
22.90672,40422
22.91483,45316
22.92297,48718
22.93108,50111
22.93922,50961
22.94733,51333
22.95545,52122
22.96358,48302
22.97170,53546
22.97983,50058
22.98795,50037
22.99607,47081
23.00420,46302
23.01232,47046
23.02043,44467
23.02857,44265
23.03668,37622
23.04482,35932
23.05293,33513
23.06105,34924
23.06918,33785
23.07730,32822
23.08543,36183
23.09355,34139
23.10167,36454
23.10980,38443
23.11792,35938
23.12605,32869
23.13417,34003
23.14228,37889
23.15042,35320
23.15853,34796
23.16665,34663
23.17478,36613
23.18290,37710
23.19103,35513
23.19915,33848
23.20727,33919
23.21540,35604
23.22352,34613
23.23165,35331
23.23977,33472
23.24788,32770
23.25602,36976
23.26413,35536
23.27225,32653
23.28038,37786
23.28850,38667
23.29663,37567
23.30475,35632
23.31287,34106
23.32100,31435
23.32912,34213
23.33725,36570
23.34537,30449
23.35348,31507
23.36162,35680
23.36973,31964
23.37787,35410
23.38598,31211
23.39410,33636
23.40223,31214
23.41035,35062
23.41847,33273
23.42660,33284
23.43472,32590
23.44285,35624
23.45097,37189
23.45908,33698
23.46722,37748
23.47533,37173
23.48347,41428
23.49158,37163
23.49970,33920
23.50783,37363
23.51595,37740
23.52408,32703
23.53220,35783
23.54032,34104
23.54845,41363
23.55657,37963
23.56468,39790
23.57282,39616
23.58093,38542
23.58907,40537
23.59718,42168
23.60530,37343
23.61343,37611
23.62155,40639
23.62968,38796
23.63780,40578
23.64592,39820
23.65405,43529
23.66217,44406
23.67028,41706
23.67842,45171
23.68653,46092
23.69467,43423
23.70278,40870
23.71090,45608
23.71903,57539
23.72715,120076
23.73528,283985
23.74340,866213
23.75152,2525306
23.75965,5787212
23.76777,9166466
23.77590,1.140256E+07
23.78402,1.181382E+07
23.79213,1.046562E+07
23.80027,8013430
23.80838,5349779
23.81650,3714860
23.82463,2541759
23.83275,1817181
23.84088,1385296
23.84900,1202773
23.85712,1190317
23.86525,1339966
23.87337,1600177
23.88150,1755322
23.88962,1801583
23.89773,1641296
23.90587,1409510
23.91398,1095799
23.92210,887235
23.93023,706253
23.93835,552630
23.94648,479400
23.95460,419989
23.96272,369392
23.97085,339600
23.97897,303019
23.98710,268905
23.99522,258721
24.00333,249909
24.01147,234174
24.01958,225161
24.02772,212508
24.03583,202519
24.04395,207234
24.05208,198844
24.06020,204773
24.06832,203880
24.07645,204988
24.08457,198897
24.09270,190901
24.10082,173391
24.10893,168086
24.11707,154596
24.12518,156614
24.13332,164767
24.14143,158897
24.14955,154903
24.15768,161200
24.16580,150063
24.17393,149727
24.18205,144508
24.19017,131334
24.19830,127150
24.20642,128774
24.21453,120987
24.22267,120513
24.23078,109592
24.23892,112189
24.24703,109203
24.25515,108794
24.26328,105354
24.27140,106956
24.27953,101940
24.28765,114549
24.29577,117930
24.30390,141103
24.31202,179364
24.32013,230434
24.32827,267773
24.33638,279926
24.34452,262178
24.35263,214763
24.36075,177987
24.36888,141230
24.37700,115441
24.38513,108810
24.39325,102626
24.40137,98598
24.40950,97221
24.41762,110372
24.42575,125832
24.43387,132063
24.44198,155012
24.45012,152271
24.45823,144746
24.46635,132498
24.47448,125487
24.48260,110473
24.49073,101062
24.49885,99699
24.50697,99178
24.51510,99833
24.52322,142683
24.53135,248621
24.53947,477776
24.54758,885171
24.55572,1366782
24.56383,1702138
24.57197,1723718
24.58008,1464564
24.58820,1125558
24.59633,874799
24.60445,660671
24.61257,516220
24.62070,409481
24.62882,344094
24.63695,297547
24.64507,254408
24.65318,222371
24.66132,197378
24.66943,179692
24.67757,164277
24.68568,153576
24.69380,144964
24.70193,135077
24.71005,130149
24.71817,124168
24.72630,113795
24.73442,114097
24.74255,111284
24.75067,104223
24.75878,104849
24.76692,104779
24.77503,98826
24.78317,100212
24.79128,97702
24.79940,94687
24.80753,93144
24.81565,89224
24.82378,92181
24.83190,89169
24.84002,90244
24.84815,89249
24.85627,86430
24.86438,82810
24.87252,82026
24.88063,78304
24.88877,79814
24.89688,78400
24.90500,73373
24.91313,83619
24.92125,75716
24.92938,72125
24.93750,70803
24.94562,69129
24.95375,72792
24.96187,74622
24.96998,72325
24.97812,71233
24.98623,68621
24.99437,76214
25.00248,68910
25.01060,72531
25.01873,65069
25.02685,67911
25.03498,63469
25.04310,65867
25.05122,67483
25.05935,66050
25.06747,64866
25.07560,64639
25.08372,67694
25.09183,67194
25.09997,68376
25.10808,67257
25.11620,63131
25.12433,64669
25.13245,65830
25.14058,65878
25.14870,68219
25.15682,67654
25.16495,68391
25.17307,69057
25.18120,66418
25.18932,70145
25.19743,64308
25.20557,59161
25.21368,63952
25.22182,63050
25.22993,59498
25.23805,59409
25.24618,62296
25.25430,62355
25.26242,59634
25.27055,64399
25.27867,61334
25.28680,61356
25.29492,68308
25.30303,64662
25.31117,64729
25.31928,69942
25.32742,65230
25.33553,62701
25.34365,58457
25.35178,59081
25.35990,58819
25.36803,59948
25.37615,57951
25.38427,61354
25.39240,62941
25.40052,65007
25.40863,68571
25.41677,67788
25.42488,64821
25.43302,57638
25.44113,56798
25.44925,57473
25.45738,57831
25.46550,57556
25.47363,56777
25.48175,56223
25.48987,62355
25.49800,54919
25.50612,52278
25.51423,56095
25.52237,49563
25.53048,56713
25.53862,49827
25.54673,56739
25.55485,53310
25.56298,50984
25.57110,50114
25.57923,50368
25.58735,55418
25.59547,47975
25.60360,49880
25.61172,53298
25.61985,49404
25.62797,47889
25.63608,46856
25.64422,47524
25.65233,49778
25.66045,49286
25.66858,52138
25.67670,51974
25.68483,49898
25.69295,50979
25.70107,47445
25.70920,51571
25.71732,51023
25.72545,48599
25.73357,49030
25.74168,49485
25.74982,46963
25.75793,49194
25.76605,46582
25.77418,49282
25.78230,49513
25.79043,50731
25.79855,51318
25.80667,46762
25.81480,44500
25.82292,48320
25.83105,51501
25.83917,51453
25.84728,50963
25.85542,46658
25.86353,45900
25.87167,45882
25.87978,44515
25.88790,46864
25.89603,43782
25.90415,49121
25.91227,47083
25.92040,48099
25.92852,46557
25.93665,46657
25.94477,46189
25.95288,46646
25.96102,47878
25.96913,45405
25.97727,42220
25.98538,44045
25.99350,44715
26.00163,50203
26.00975,45128
26.01788,47878
26.02600,44626
26.03412,45819
26.04225,47880
26.05037,47338
26.05848,48173
26.06662,44752
26.07473,50292
26.08287,47086
26.09098,44812
26.09910,50080
26.10723,49774
26.11535,49803
26.12348,52610
26.13160,55172
26.13972,54087
26.14785,54262
26.15597,56474
26.16408,55547
26.17222,58318
26.18033,56984
26.18847,54543
26.19658,56213
26.20470,57138
26.21283,50147
26.22095,50049
26.22908,49929
26.23720,45594
26.24532,47685
26.25345,50100
26.26157,49547
26.26970,48701
26.27782,43875
26.28593,48140
26.29407,43008
26.30218,46525
26.31030,43725
26.31843,44834
26.32655,48401
26.33468,44620
26.34280,44984
26.35092,43093
26.35905,45135
26.36717,49028
26.37530,45356
26.38342,45210
26.39153,43879
26.39967,43281
26.40778,42039
26.41592,43678
26.42403,47311
26.43215,44599
26.44028,40628
26.44840,45079
26.45652,40433
26.46465,41917
26.47277,47197
26.48090,43537
26.48902,43020
26.49713,45570
26.50527,45218
26.51338,45339
26.52152,44719
26.52963,42855
26.53775,44767
26.54588,42985
26.55400,45002
26.56212,48014
26.57025,45245
26.57837,46465
26.58650,45918
26.59462,47413
26.60273,43314
26.61087,46995
26.61898,47628
26.62712,44510
26.63523,51484
26.64335,49305
26.65148,50262
26.65960,49958
26.66773,50198
26.67585,52311
26.68397,50725
26.69210,47662
26.70022,50697
26.70833,51042
26.71647,47295
26.72458,54000
26.73272,51060
26.74083,50773
26.74895,49716
26.75708,50943
26.76520,49106
26.77333,56383
26.78145,57482
26.78957,57466
26.79770,55067
26.80582,51910
26.81393,53335
26.82207,51533
26.83018,51469
26.83832,48123
26.84643,56135
26.85455,62289
26.86268,59175
26.87080,63328
26.87893,67037
26.88705,68170
26.89517,68949
26.90330,79931
26.91142,92864
26.91955,127507
26.92767,253643
26.93578,620751
26.94392,1769187
26.95203,5889404
26.96015,1.761832E+07
26.96828,3.326664E+07
26.97640,4.328403E+07
26.98453,4.623796E+07
26.99265,4.347483E+07
27.00077,3.855726E+07
27.00890,3.138244E+07
27.01702,2.530117E+07
27.02515,2.024655E+07
27.03327,1.54115E+07
27.04138,1.10917E+07
27.04952,7953976
27.05763,5786006
27.06577,4199017
27.07388,3086573
27.08200,2335179
27.09013,1887432
27.09825,1472866
27.10637,1212979
27.11450,1094614
27.12262,941131
27.13075,828697
27.13887,734561
27.14698,656120
27.15512,599082
27.16323,550328
27.17137,516319
27.17948,492839
27.18760,468439
27.19573,422249
27.20385,404611
27.21197,367845
27.22010,352586
27.22822,346413
27.23635,331941
27.24447,317808
27.25258,338540
27.26072,400393
27.26883,598935
27.27697,1000906
27.28508,1754263
27.29320,2910200
27.30133,4021030
27.30945,4924987
27.31758,5099446
27.32570,4680988
27.33382,3951425
27.34195,3169895
27.35007,2307381
27.35818,1779715
27.36632,1373325
27.37443,1064439
27.38257,835625
27.39068,696915
27.39880,580057
27.40693,501727
27.41505,454542
27.42318,405675
27.43130,379835
27.43942,364443
27.44755,346948
27.45567,320973
27.46380,304117
27.47192,284609
27.48003,252709
27.48817,248198
27.49628,237952
27.50440,223697
27.51253,213423
27.52065,219601
27.52878,208274
27.53690,208244
27.54502,194763
27.55315,185498
27.56127,185087
27.56940,174515
27.57752,176453
27.58563,171451
27.59377,160794
27.60188,156605
27.61000,156240
27.61813,156933
27.62625,146442
27.63438,145348
27.64250,137938
27.65062,140522
27.65875,135100
27.66687,136269
27.67500,131434
27.68312,131742
27.69123,122079
27.69937,129839
27.70748,127790
27.71562,122568
27.72373,123857
27.73185,122321
27.73998,117040
27.74810,113806
27.75622,109144
27.76435,117810
27.77247,110230
27.78060,113217
27.78872,107898
27.79683,106537
27.80497,105735
27.81308,105048
27.82122,104448
27.82933,104755
27.83745,106275
27.84558,105882
27.85370,97510
27.86183,101504
27.86995,93550
27.87807,95243
27.88620,99802
27.89432,100273
27.90243,90720
27.91057,88339
27.91868,96211
27.92682,90637
27.93493,92511
27.94305,89168
27.95118,93234
27.95930,88885
27.96743,87214
27.97555,87614
27.98367,87252
27.99180,89324
27.99992,85796
28.00803,85585
28.01617,83080
28.02428,85988
28.03242,83357
28.04053,83691
28.04865,81384
28.05678,80643
28.06490,77859
28.07303,74371
28.08115,78793
28.08927,86194
28.09740,89612
28.10552,91203
28.11365,109504
28.12177,113045
28.12988,117230
28.13802,115598
28.14613,101905
28.15425,97403
28.16238,91692
28.17050,93540
28.17863,76307
28.18675,83583
28.19487,71833
28.20300,78839
28.21112,93277
28.21925,118865
28.22737,188727
28.23548,364249
28.24362,737390
28.25173,1454007
28.25985,2845061
28.26798,5476267
28.27610,9398816
28.28423,1.364672E+07
28.29235,1.662314E+07
28.30047,1.784185E+07
28.30860,1.723451E+07
28.31672,1.62493E+07
28.32485,1.475026E+07
28.33297,1.28859E+07
28.34108,1.045311E+07
28.34922,8539124
28.35733,6790815
28.36547,5371839
28.37358,4345669
28.38170,3511224
28.38983,2830271
28.39795,2236660
28.40607,1852510
28.41420,1506727
28.42232,1262960
28.43045,1077428
28.43857,918411
28.44668,821900
28.45482,776341
28.46293,803329
28.47107,910776
28.47918,1058111
28.48730,1258927
28.49543,1503409
28.50355,1731503
28.51168,1894940
28.51980,1996535
28.52792,1941595
28.53605,1919795
28.54417,1823597
28.55228,1712980
28.56042,1514074
28.56853,1311638
28.57667,1173725
28.58478,1034388
28.59290,904811
28.60103,813644
28.60915,710630
28.61728,617622
28.62540,549637
28.63352,508982
28.64165,460998
28.64977,428618
28.65788,401867
28.66602,399412
28.67413,419389
28.68227,463830
28.69038,515307
28.69850,513250
28.70663,470974
28.71475,403326
28.72288,340923
28.73100,294503
28.73912,258139
28.74725,255262
28.75537,245516
28.76350,253864
28.77162,233838
28.77973,227756
28.78787,208493
28.79598,199610
28.80410,188610
28.81223,180778
28.82035,180565
28.82848,171845
28.83660,163783
28.84472,169986
28.85285,161285
28.86097,151270
28.86910,155373
28.87722,147082
28.88533,146264
28.89347,148356
28.90158,145552
28.90972,140756
28.91783,135571
28.92595,132762
28.93408,139366
28.94220,138044
28.95032,135742
28.95845,139669
28.96657,131206
28.97470,129450
28.98282,129873
28.99093,123946
28.99907,122809
29.00718,121004
29.01532,121063
29.02343,116134
29.03155,120763
29.03968,117399
29.04780,118427
29.05592,114630
29.06405,114426
29.07217,110983
29.08030,115395
29.08842,114860
29.09653,118283
29.10467,108972
29.11278,109067
29.12092,103695
29.12903,106616
29.13715,105852
29.14528,98763
29.15340,109796
29.16153,101664
29.16965,102758
29.17777,99621
29.18590,100003
29.19402,100352
29.20213,102937
29.21027,99650
29.21838,97906
29.22652,103933
29.23463,102332
29.24275,97543
29.25088,99785
29.25900,98524
29.26713,95092
29.27525,92232
29.28337,98202
29.29150,96239
29.29962,91364
29.30773,99045
29.31587,94484
29.32398,89108
29.33212,92316
29.34023,92387
29.34835,89446
29.35648,88507
29.36460,90760
29.37273,85112
29.38085,88817
29.38897,91782
29.39710,89575
29.40522,88799
29.41335,92902
29.42147,86439
29.42958,90111
29.43772,84744
29.44583,81537
29.45395,83819
29.46208,84160
29.47020,81337
29.47833,80974
29.48645,82447
29.49457,82439
29.50270,87034
29.51082,79802
29.51895,76453
29.52707,74057
29.53518,78971
29.54332,75584
29.55143,73024
29.55957,74521
29.56768,75066
29.57580,72821
29.58393,73705
29.59205,76149
29.60017,70787
29.60830,74732
29.61642,68230
29.62455,67879
29.63267,70081
29.64078,68507
29.64892,70122
29.65703,68359
29.66517,66285
29.67328,70595
29.68140,66521
29.68953,67735
29.69765,72327
29.70577,65851
29.71390,66558
29.72202,65306
29.73015,65255
29.73827,65342
29.74638,70937
29.75452,65659
29.76263,70425
29.77077,65573
29.77888,64362
29.78700,65196
29.79513,65636
29.80325,59461
29.81138,66614
29.81950,66085
29.82762,65408
29.83575,70502
29.84387,80426
29.85198,110166
29.86012,167619
29.86823,269003
29.87637,422173
29.88448,686085
29.89260,1029453
29.90073,1392390
29.90885,1901826
29.91698,2405384
29.92510,3015621
29.93322,3428329
29.94135,3753229
29.94947,3927999
29.95760,3893511
29.96572,3658039
29.97383,3449577
29.98197,3036309
29.99008,2762645
29.99820,2486922
30.00633,2294481
30.01445,2105692
30.02258,1911181
30.03070,1722003
30.03882,1610823
30.04695,1528690
30.05507,1415338
30.06320,1275257
30.07132,1191919
30.07943,1095156
30.08757,1005748
30.09568,899645
30.10380,824597
30.11193,745653
30.12005,658829
30.12818,598947
30.13630,558876
30.14442,485802
30.15255,437051
30.16067,402637
30.16880,377027
30.17692,334685
30.18503,306815
30.19317,282376
30.20128,268850
30.20942,251736
30.21753,231238
30.22565,221329
30.23378,208956
30.24190,194891
30.25002,187154
30.25815,181520
30.26627,171556
30.27440,166544
30.28252,159116
30.29063,158980
30.29877,151626
30.30688,142749
30.31502,139522
30.32313,143573
30.33125,141543
30.33938,136486
30.34750,138528
30.35562,127730
30.36375,123779
30.37187,117547
30.38000,121550
30.38812,120857
30.39623,117590
30.40437,116768
30.41248,106630
30.42062,111008
30.42873,105778
30.43685,103804
30.44498,102857
30.45310,101534
30.46123,105911
30.46935,106656
30.47747,97633
30.48560,99599
30.49372,95632
30.50183,95423
30.50997,94855
30.51808,95129
30.52622,93925
30.53433,90400
30.54245,91740
30.55058,89039
30.55870,86925
30.56683,89120
30.57495,87712
30.58307,83300
30.59120,86209
30.59932,92620
30.60745,84733
30.61557,88532
30.62368,84477
30.63182,83139
30.63993,83316
30.64805,84563
30.65618,78824
30.66430,79478
30.67243,80979
30.68055,77566
30.68867,74908
30.69680,76295
30.70492,71957
30.71305,78585
30.72117,80202
30.72928,75879
30.73742,77525
30.74553,80438
30.75367,75677
30.76178,77142
30.76990,77693
30.77803,76747
30.78615,74050
30.79427,75872
30.80240,73380
30.81052,72102
30.81865,81829
30.82677,72868
30.83488,72404
30.84302,69542
30.85113,71996
30.85927,70638
30.86738,74177
30.87550,70251
30.88363,72665
30.89175,66735
30.89987,66807
30.90800,67149
30.91612,69000
30.92425,64431
30.93237,65605
30.94048,68317
30.94862,69079
30.95673,64020
30.96487,67981
30.97298,67083
30.98110,63730
30.98923,63975
30.99735,67873
31.00548,63262
31.01360,66774
31.02172,64274
31.02985,62628
31.03797,66588
31.04608,64414
31.05422,63681
31.06233,69022
31.07047,71190
31.07858,72371
31.08670,78343
31.09483,77768
31.10295,81876
31.11108,79837
31.11920,77315
31.12732,75989
31.13545,71161
31.14357,71311
31.15168,77309
31.15982,79611
31.16793,86612
31.17607,97838
31.18418,119944
31.19230,142231
31.20043,166121
31.20855,169332
31.21668,157231
31.22480,146738
31.23292,127167
31.24105,108848
31.24917,90584
31.25730,75922
31.26542,71873
31.27353,66412
31.28167,62011
31.28978,66849
31.29790,69140
31.30603,68717
31.31415,68353
31.32228,71138
31.33040,73147
31.33852,77533
31.34665,71387
31.35477,72274
31.36290,70694
31.37102,63977
31.37913,66310
31.38727,66690
31.39538,64330
31.40352,70993
31.41163,67085
31.41975,62521
31.42788,67640
31.43600,64058
31.44412,57850
31.45225,64343
31.46037,62728
31.46850,58317
31.47662,61733
31.48473,57427
31.49287,53268
31.50098,55797
31.50912,58562
31.51723,55519
31.52535,56141
31.53348,57138
31.54160,49167
31.54972,54093
31.55785,56194
31.56597,58853
31.57410,53568
31.58222,58469
31.59033,55278
31.59847,54342
31.60658,54438
31.61472,49977
31.62283,51729
31.63095,53350
31.63908,54841
31.64720,50535
31.65533,51205
31.66345,52638
31.67157,51921
31.67970,54054
31.68782,52316
31.69593,51294
31.70407,52124
31.71218,50204
31.72032,53001
31.72843,55722
31.73655,49609
31.74468,53947
31.75280,49996
31.76093,52009
31.76905,48823
31.77717,54029
31.78530,59731
31.79342,69871
31.80155,85437
31.80967,122800
31.81778,185497
31.82592,286394
31.83403,423582
31.84215,582255
31.85028,770427
31.85840,925594
31.86653,1093507
31.87465,1201136
31.88277,1272869
31.89090,1354961
31.89902,1376283
31.90715,1349523
31.91527,1331026
31.92338,1267316
31.93152,1165691
31.93963,1096168
31.94775,1005237
31.95588,905772
31.96400,825214
31.97213,755858
31.98025,673170
31.98837,617625
31.99650,548788
32.00462,482693
32.01275,415152
32.02087,368153
32.02898,313087
32.03712,286879
32.04523,266048
32.05337,237323
32.06148,215118
32.06960,199445
32.07773,180542
32.08585,166924
32.09397,166084
32.10210,155628
32.11022,152418
32.11835,138875
32.12647,129717
32.13458,130955
32.14272,125151
32.15083,123576
32.15897,116151
32.16708,110526
32.17520,109602
32.18333,110792
32.19145,105694
32.19957,105702
32.20770,102156
32.21582,95969
32.22395,97513
32.23207,96580
32.24018,93185
32.24832,90714
32.25643,91633
32.26457,90561
32.27268,89678
32.28080,88233
32.28893,87810
32.29705,86117
32.30518,87751
32.31330,81795
32.32142,83657
32.32955,82150
32.33767,80615
32.34578,85529
32.35392,79575
32.36203,79125
32.37017,75906
32.37828,75090
32.38640,73217
32.39453,72436
32.40265,73894
32.41078,76532
32.41890,76509
32.42702,74204
32.43515,71684
32.44327,74811
32.45140,75477
32.45952,69920
32.46763,68205
32.47577,69127
32.48388,70122
32.49200,66790
32.50013,69772
32.50825,65336
32.51638,67280
32.52450,70476
32.53262,71841
32.54075,73525
32.54887,81232
32.55700,97373
32.56512,126726
32.57323,159875
32.58137,203917
32.58948,201585
32.59760,200393
32.60573,168715
32.61385,134932
32.62198,109393
32.63010,90568
32.63822,84005
32.64635,74400
32.65447,77167
32.66260,72716
32.67072,71893
32.67883,71864
32.68697,71423
32.69508,66523
32.70322,69599
32.71133,68529
32.71945,68503
32.72758,69537
32.73570,70286
32.74382,64130
32.75195,65317
32.76007,58863
32.76820,66280
32.77632,63849
32.78443,63484
32.79257,63946
32.80068,60998
32.80882,61459
32.81693,62286
32.82505,62655
32.83318,61311
32.84130,59911
32.84943,59462
32.85755,58911
32.86567,58290
32.87380,61647
32.88192,59562
32.89003,60877
32.89817,60751
32.90628,66583
32.91442,61503
32.92253,58445
32.93065,58935
32.93878,61029
32.94690,61278
32.95503,60432
32.96315,64903
32.97127,59538
32.97940,57803
32.98752,57152
32.99563,57504
33.00377,56922
33.01188,56579
33.02002,57257
33.02813,58012
33.03625,54829
33.04438,54521
33.05250,57481
33.06063,59982
33.06875,54657
33.07687,60583
33.08500,61310
33.09312,71681
33.10125,73783
33.10937,76683
33.11748,75464
33.12562,81775
33.13373,70627
33.14185,64129
33.14998,63250
33.15810,58882
33.16623,59572
33.17435,58305
33.18247,56691
33.19060,55330
33.19872,59329
33.20685,59257
33.21497,64095
33.22308,53903
33.23122,55424
33.23933,58261
33.24747,56976
33.25558,55355
33.26370,57252
33.27183,58493
33.27995,56070
33.28807,57314
33.29620,54739
33.30432,54660
33.31245,51742
33.32057,54569
33.32868,59448
33.33682,56595
33.34493,55567
33.35307,54445
33.36118,53346
33.36930,51743
33.37743,54604
33.38555,56695
33.39367,53026
33.40180,54550
33.40992,54679
33.41805,55640
33.42617,53143
33.43428,52643
33.44242,57157
33.45053,58599
33.45867,54504
33.46678,55793
33.47490,56497
33.48303,56943
33.49115,58878
33.49928,58215
33.50740,52938
33.51552,52627
33.52365,57471
33.53177,48823
33.53988,52799
33.54802,55608
33.55613,55784
33.56427,54353
33.57238,50407
33.58050,56975
33.58863,56772
33.59675,58874
33.60488,58251
33.61300,55931
33.62112,54274
33.62925,53950
33.63737,54320
33.64548,53905
33.65362,52461
33.66173,58036
33.66987,57680
33.67798,54345
33.68610,55607
33.69423,52129
33.70235,55496
33.71048,54097
33.71860,56914
33.72672,56019
33.73485,53824
33.74297,58530
33.75110,60560
33.75922,64687
33.76733,62043
33.77547,56521
33.78358,57520
33.79170,58581
33.79983,56309
33.80795,57733
33.81608,59577
33.82420,60777
33.83232,62013
33.84045,59490
33.84857,57422
33.85670,57646
33.86482,52144
33.87293,54101
33.88107,53270
33.88918,54029
33.89732,53997
33.90543,55507
33.91355,53619
33.92168,55028
33.92980,54369
33.93792,53765
33.94605,50145
33.95417,53027
33.96230,54402
33.97042,50723
33.97853,56159
33.98667,50607
33.99478,50509
34.00292,52643
34.01103,49433
34.01915,57009
34.02728,52235
34.03540,51320
34.04352,53377
34.05165,52406
34.05977,49692
34.06790,48443
34.07602,54870
34.08413,50645
34.09227,49186
34.10038,54581
34.10852,50105
34.11663,52226
34.12475,47298
34.13288,51932
34.14100,48623
34.14913,51385
34.15725,52169
34.16537,51683
34.17350,48787
34.18162,52909
34.18973,48780
34.19787,49639
34.20598,47733
34.21412,51208
34.22223,50911
34.23035,49502
34.23848,53887
34.24660,54469
34.25473,57409
34.26285,54832
34.27097,50270
34.27910,53201
34.28722,53942
34.29535,55241
34.30347,53825
34.31158,57999
34.31972,58789
34.32783,55215
34.33595,58434
34.34408,54563
34.35220,56706
34.36033,54728
34.36845,59282
34.37657,53425
34.38470,56537
34.39282,59444
34.40095,66426
34.40907,78615
34.41718,112986
34.42532,186430
34.43343,312441
34.44155,490666
34.44968,688534
34.45780,864527
34.46593,978268
34.47405,1064677
34.48217,1087990
34.49030,1061291
34.49842,970243
34.50655,855224
34.51467,742147
34.52278,616738
34.53092,505927
34.53903,429425
34.54717,362263
34.55528,315621
34.56340,261416
34.57153,231759
34.57965,206423
34.58777,186397
34.59590,175516
34.60402,161591
34.61215,158477
34.62027,154286
34.62838,143136
34.63652,139790
34.64463,131635
34.65277,125874
34.66088,122782
34.66900,115376
34.67713,112396
34.68525,105662
34.69337,107176
34.70150,100713
34.70962,102766
34.71775,102297
34.72587,95415
34.73398,97313
34.74212,96428
34.75023,88961
34.75837,92560
34.76648,93146
34.77460,86868
34.78273,83437
34.79085,86087
34.79898,86969
34.80710,80999
34.81522,83824
34.82335,78533
34.83147,82150
34.83958,82471
34.84772,87927
34.85583,88940
34.86397,85535
34.87208,84638
34.88020,79719
34.88833,81976
34.89645,79318
34.90458,79638
34.91270,77338
34.92082,74798
34.92895,72693
34.93707,86539
34.94520,78276
34.95332,71731
34.96143,71808
34.96957,74259
34.97768,73873
34.98580,72504
34.99393,71763
35.00205,77719
35.01018,71303
35.01830,76275
35.02642,74038
35.03455,80325
35.04267,75852
35.05080,75901
35.05892,85202
35.06703,80867
35.07517,82415
35.08328,80134
35.09140,79871
35.09953,73484
35.10765,78410
35.11578,71832
35.12390,71220
35.13202,65669
35.14015,74953
35.14827,69642
35.15640,71183
35.16452,70319
35.17263,66355
35.18077,68762
35.18888,68628
35.19702,67177
35.20513,68716
35.21325,71896
35.22138,65040
35.22950,69351
35.23762,72896
35.24575,68409
35.25387,70496
35.26200,71400
35.27012,72550
35.27823,66018
35.28637,66370
35.29448,71780
35.30262,71973
35.31073,64568
35.31885,64223
35.32698,65150
35.33510,64688
35.34323,64377
35.35135,64910
35.35947,65672
35.36760,68820
35.37572,64957
35.38383,66835
35.39197,65071
35.40008,65794
35.40822,62156
35.41633,62481
35.42445,62836
35.43258,68972
35.44070,74542
35.44883,69539
35.45695,72458
35.46507,60059
35.47320,70166
35.48132,68666
35.48943,68067
35.49757,68969
35.50568,66539
35.51382,71781
35.52193,71739
35.53005,70458
35.53818,64935
35.54630,74673
35.55443,75704
35.56255,84584
35.57067,94373
35.57880,104183
35.58692,105236
35.59505,103310
35.60317,96969
35.61128,81527
35.61942,78148
35.62753,76587
35.63565,72342
35.64378,72042
35.65190,70861
35.66003,64978
35.66815,71470
35.67627,64788
35.68440,70818
35.69252,63397
35.70065,67208
35.70877,69098
35.71688,65416
35.72502,63848
35.73313,68087
35.74125,60237
35.74938,64290
35.75750,65983
35.76563,65117
35.77375,68195
35.78187,67364
35.79000,66308
35.79812,72167
35.80625,71115
35.81437,65254
35.82248,69811
35.83062,69291
35.83873,67615
35.84687,65310
35.85498,65367
35.86310,62736
35.87123,61092
35.87935,62916
35.88747,62801
35.89560,58751
35.90372,63506
35.91185,63447
35.91997,61897
35.92808,62206
35.93622,63189
35.94433,60000
35.95247,59300
35.96058,62929
35.96870,63934
35.97683,66357
35.98495,64561
35.99308,67703
36.00120,68756
36.00932,71939
36.01745,71835
36.02557,67424
36.03368,75752
36.04182,69516
36.04993,71114
36.05807,66505
36.06618,68993
36.07430,68811
36.08243,67005
36.09055,66298
36.09868,65164
36.10680,65462
36.11492,62858
36.12305,65717
36.13117,70014
36.13930,70416
36.14742,65323
36.15553,67366
36.16367,64410
36.17178,61829
36.17990,65905
36.18803,73602
36.19615,89286
36.20428,121684
36.21240,158451
36.22052,205450
36.22865,217839
36.23677,228373
36.24490,186979
36.25302,145865
36.26113,115811
36.26927,95149
36.27738,78433
36.28550,75400
36.29363,76525
36.30175,72922
36.30988,72739
36.31800,72189
36.32612,69117
36.33425,71767
36.34237,67309
36.35050,73598
36.35862,69533
36.36673,70541
36.37487,72068
36.38298,68187
36.39112,68950
36.39923,63587
36.40735,64064
36.41548,67890
36.42360,64523
36.43172,70094
36.43985,66638
36.44797,65632
36.45610,66348
36.46422,64760
36.47233,63682
36.48047,65891
36.48858,60089
36.49672,63220
36.50483,61805
36.51295,61647
36.52108,65892
36.52920,60132
36.53732,67783
36.54545,70698
36.55357,75038
36.56170,70969
36.56982,79658
36.57793,79810
36.58607,74041
36.59418,69337
36.60232,64842
36.61043,66675
36.61855,68408
36.62668,65057
36.63480,70328
36.64293,64040
36.65105,63889
36.65917,67321
36.66730,64690
36.67542,63618
36.68353,64607
36.69167,67988
36.69978,66776
36.70792,64191
36.71603,63801
36.72415,62712
36.73228,60053
36.74040,62318
36.74853,66399
36.75665,65533
36.76477,62825
36.77290,61279
36.78102,63589
36.78915,62813
36.79727,65697
36.80538,62593
36.81352,62688
36.82163,67115
36.82975,67792
36.83788,67101
36.84600,61235
36.85413,65211
36.86225,64154
36.87037,69062
36.87850,63943
36.88662,67306
36.89475,62277
36.90287,64510
36.91098,61944
36.91912,69911
36.92723,63081
36.93535,64583
36.94348,63564
36.95160,64443
36.95973,67451
36.96785,68512
36.97597,65013
36.98410,72275
36.99222,65408
37.00035,69378
37.00847,68099
37.01658,70443
37.02472,66633
37.03283,72405
37.04097,67716
37.04908,69189
37.05720,72050
37.06533,72262
37.07345,70444
37.08157,72938
37.08970,73285
37.09782,75585
37.10595,68830
37.11407,70945
37.12218,70700
37.13032,71069
37.13843,72867
37.14657,70976
37.15468,67313
37.16280,69111
37.17093,67816
37.17905,68182
37.18718,69066
37.19530,71915
37.20342,84392
37.21155,116623
37.21967,190094
37.22778,338896
37.23592,528196
37.24403,727822
37.25217,869915
37.26028,918577
37.26840,934602
37.27653,823559
37.28465,696848
37.29278,601122
37.30090,524950
37.30902,423615
37.31715,356786
37.32527,300578
37.33338,256026
37.34152,221490
37.34963,210178
37.35777,199297
37.36588,189486
37.37400,176419
37.38213,165754
37.39025,155376
37.39838,150414
37.40650,138900
37.41462,134691
37.42275,134218
37.43087,126115
37.43900,128198
37.44712,124186
37.45523,121803
37.46337,119279
37.47148,113058
37.47960,113859
37.48773,110383
