C:\MassHunter\GCMS\1\data\JTB-E18\JTB-E18-029-06.D Tue Oct 01 13:34:05 2019
Start of data points
2.09513,201027
2.10327,195825
2.11138,198919
2.11952,192191
2.12763,188067
2.13575,186817
2.14388,183685
2.15200,179208
2.16013,185305
2.16825,172611
2.17637,173663
2.18450,167871
2.19262,159630
2.20073,158898
2.20887,155342
2.21698,158866
2.22512,151228
2.23323,151383
2.24135,144502
2.24948,143426
2.25760,151567
2.26573,153417
2.27385,432073
2.28197,1501824
2.29010,1563310
2.29822,796628
2.30633,497571
2.31447,403871
2.32258,351728
2.33072,322278
2.33883,299357
2.34695,288305
2.35508,253263
2.36320,245042
2.37133,235261
2.37945,242693
2.38757,377907
2.39570,339659
2.40382,241227
2.41195,226340
2.42007,229426
2.42818,228439
2.43632,215878
2.44443,206561
2.45255,214324
2.46068,200022
2.46880,193386
2.47693,190099
2.48505,180912
2.49317,197319
2.50130,226328
2.50942,197433
2.51755,179341
2.52567,190481
2.53378,174861
2.54192,175183
2.55003,177810
2.55817,216966
2.56628,253970
2.57440,247583
2.58253,211727
2.59065,202371
2.59877,194167
2.60690,222765
2.61502,410908
2.62315,531480
2.63127,402758
2.63938,289939
2.64752,237326
2.65563,221104
2.66377,207469
2.67188,201166
2.68000,262831
2.68813,275094
2.69625,218179
2.70437,188457
2.71250,165087
2.72062,176272
2.72875,177418
2.73687,173758
2.74498,175047
2.75312,164200
2.76123,170092
2.76937,161630
2.77748,165377
2.78560,245504
2.79373,327760
2.80185,273518
2.80998,234826
2.81810,248117
2.82622,421175
2.83435,885420
2.84247,1051588
2.85058,635407
2.85872,383306
2.86683,341007
2.87497,308971
2.88308,246871
2.89120,212310
2.89933,194342
2.90745,183079
2.91558,180843
2.92370,171356
2.93182,164908
2.93995,159916
2.94807,149500
2.95620,161807
2.96432,157578
2.97243,159825
2.98057,153580
2.98868,162613
2.99680,183852
3.00493,198980
3.01305,202722
3.02118,226051
3.02930,418854
3.03742,890438
3.04555,1281420
3.05367,2879191
3.06180,7911092
3.06992,1.060089E+07
3.07803,7132325
3.08617,3651107
3.09428,2705625
3.10240,2602593
3.11053,2576707
3.11865,2500335
3.12678,1790360
3.13490,1177791
3.14302,895334
3.15115,725632
3.15927,611133
3.16740,559385
3.17552,606835
3.18363,677927
3.19177,1046704
3.19988,1628563
3.20802,1526965
3.21613,1044777
3.22425,826135
3.23238,710328
3.24050,613030
3.24862,545159
3.25675,469746
3.26487,420681
3.27300,374235
3.28112,428791
3.28923,912427
3.29737,2883333
3.30548,6383367
3.31362,8370839
3.32173,7291807
3.32985,4909485
3.33798,3303400
3.34610,2374204
3.35422,1831544
3.36235,1493621
3.37047,1332504
3.37860,1452334
3.38672,1594683
3.39483,1405675
3.40297,1380169
3.41108,2338936
3.41922,3953432
3.42733,3992012
3.43545,2615624
3.44358,1548295
3.45170,1058386
3.45983,852853
3.46795,733195
3.47607,674778
3.48420,594388
3.49232,527261
3.50043,490273
3.50857,461219
3.51668,434866
3.52482,441416
3.53293,443491
3.54105,434714
3.54918,422440
3.55730,388110
3.56543,387660
3.57355,450492
3.58167,525085
3.58980,498039
3.59792,413356
3.60605,378321
3.61417,407590
3.62228,731039
3.63042,1623824
3.63853,2658632
3.64665,2686089
3.65478,1805080
3.66290,1236597
3.67103,2149799
3.67915,5069730
3.68727,6906721
3.69540,5157232
3.70352,2889526
3.71165,1878944
3.71977,1451931
3.72788,1220349
3.73602,1068855
3.74413,972027
3.75227,886123
3.76038,801984
3.76850,747888
3.77663,712267
3.78475,674824
3.79287,637825
3.80100,628666
3.80912,753588
3.81725,1074268
3.82537,1199187
3.83348,981180
3.84162,754607
3.84973,633195
3.85787,562136
3.86598,511309
3.87410,475445
3.88223,461164
3.89035,457168
3.89847,426321
3.90660,422136
3.91472,441691
3.92285,540115
3.93097,678212
3.93908,713496
3.94722,691836
3.95533,1052114
3.96347,2060870
3.97158,2860642
3.97970,2453008
3.98783,1535050
3.99595,1195895
4.00408,2417792
4.01220,5278403
4.02032,7239494
4.02845,5934465
4.03657,3241909
4.04468,1659342
4.05282,1027902
4.06093,782131
4.06907,635204
4.07718,560608
4.08530,506665
4.09343,470334
4.10155,430273
4.10968,400110
4.11780,383281
4.12592,368877
4.13405,380609
4.14217,578168
4.15028,1010819
4.15842,1337319
4.16653,1168024
4.17467,860978
4.18278,648113
4.19090,538431
4.19903,455352
4.20715,447949
4.21528,893492
4.22340,2985066
4.23152,7626900
4.23965,1.236642E+07
4.24777,1.350134E+07
4.25590,1.018834E+07
4.26402,6098712
4.27213,3804732
4.28027,2612498
4.28838,1959576
4.29650,1497700
4.30463,1226504
4.31275,1027389
4.32088,884460
4.32900,798379
4.33712,722003
4.34525,692879
4.35337,666266
4.36150,690006
4.36962,644141
4.37773,591482
4.38587,541631
4.39398,483561
4.40210,441441
4.41023,432695
4.41835,419387
4.42648,398377
4.43460,393410
4.44272,379727
4.45085,382229
4.45897,388207
4.46710,394462
4.47522,373393
4.48333,360515
4.49147,350578
4.49958,333625
4.50772,316951
4.51583,310426
4.52395,306447
4.53208,303026
4.54020,296161
4.54832,291821
4.55645,294559
4.56457,294949
4.57270,276310
4.58082,273691
4.58893,270439
4.59707,262053
4.60518,257024
4.61332,269245
4.62143,295308
4.62955,405047
4.63768,612562
4.64580,774114
4.65393,720941
4.66205,548792
4.67017,411456
4.67830,353504
4.68642,326911
4.69453,302082
4.70267,287355
4.71078,266449
4.71892,259829
4.72703,247712
4.73515,245768
4.74328,234146
4.75140,237747
4.75953,228020
4.76765,222693
4.77577,218980
4.78390,220290
4.79202,242534
4.80015,292206
4.80827,364702
4.81638,390777
4.82452,347506
4.83263,301949
4.84075,292438
4.84888,293138
4.85700,284139
4.86513,283563
4.87325,263621
4.88137,256330
4.88950,250017
4.89762,232638
4.90575,227125
4.91387,258016
4.92198,403003
4.93012,879654
4.93823,1796883
4.94635,2932438
4.95448,3642654
4.96260,3381864
4.97073,2611959
4.97885,1832841
4.98697,1307336
4.99510,996315
5.00322,786621
5.01135,647832
5.01947,582153
5.02758,661599
5.03572,902829
5.04383,1169099
5.05197,1205675
5.06008,1003412
5.06820,779566
5.07633,642306
5.08445,572890
5.09257,528384
5.10070,518167
5.10882,535599
5.11695,580805
5.12507,579015
5.13318,533067
5.14132,479232
5.14943,441837
5.15757,452004
5.16568,504769
5.17380,541520
5.18193,590515
5.19005,608332
5.19817,582284
5.20630,568188
5.21442,529351
5.22255,488357
5.23067,427336
5.23878,393169
5.24692,367467
5.25503,349615
5.26317,326719
5.27128,303604
5.27940,284733
5.28753,287385
5.29565,295233
5.30378,282987
5.31190,270245
5.32002,265189
5.32815,261674
5.33627,276280
5.34438,286174
5.35252,278295
5.36063,262193
5.36877,250118
5.37688,244323
5.38500,249569
5.39313,259530
5.40125,268512
5.40938,271353
5.41750,248861
5.42562,244201
5.43375,228605
5.44187,229126
5.45000,248684
5.45812,238805
5.46623,236074
5.47437,236216
5.48248,216344
5.49060,210991
5.49873,215052
5.50685,211502
5.51498,214376
5.52310,212255
5.53122,210113
5.53935,210648
5.54747,213479
5.55560,228564
5.56372,259541
5.57183,300317
5.57997,328183
5.58808,317299
5.59620,271362
5.60433,245331
5.61245,221088
5.62058,211495
5.62870,220054
5.63682,217133
5.64495,214690
5.65307,210432
5.66120,202652
5.66932,206988
5.67743,213455
5.68557,219727
5.69368,235135
5.70182,248950
5.70993,253766
5.71805,268613
5.72618,285813
5.73430,292391
5.74242,269929
5.75055,261135
5.75867,263489
5.76680,281971
5.77492,286111
5.78303,286229
5.79117,264123
5.79928,273821
5.80742,362260
5.81553,590561
5.82365,964494
5.83178,1368612
5.83990,1542381
5.84803,1368272
5.85615,977242
5.86427,666272
5.87240,475325
5.88052,359505
5.88863,301730
5.89677,271116
5.90488,273365
5.91302,329578
5.92113,479463
5.92925,638662
5.93738,726401
5.94550,671247
5.95363,558216
5.96175,474445
5.96987,539139
5.97800,685809
5.98612,887790
5.99423,873705
6.00237,685866
6.01048,476309
6.01862,338500
6.02673,263734
6.03485,232602
6.04298,210503
6.05110,192660
6.05923,181778
6.06735,177808
6.07547,176196
6.08360,172415
6.09172,174612
6.09985,165089
6.10797,167316
6.11608,169824
6.12422,189762
6.13233,263817
6.14045,379243
6.14858,494049
6.15670,494819
6.16483,406101
6.17295,315261
6.18107,267972
6.18920,241890
6.19732,242563
6.20545,255685
6.21357,247222
6.22168,239047
6.22982,219039
6.23793,206386
6.24605,207389
6.25418,204410
6.26230,208255
6.27043,210557
6.27855,208849
6.28667,200640
6.29480,196330
6.30292,201688
6.31105,200174
6.31917,205778
6.32728,218478
6.33542,220083
6.34353,252188
6.35167,250772
6.35978,243270
6.36790,234160
6.37603,235701
6.38415,220156
6.39227,222482
6.40040,225986
6.40852,221775
6.41665,226443
6.42477,218944
6.43288,224985
6.44102,223955
6.44913,229947
6.45727,243502
6.46538,238370
6.47350,245214
6.48163,236750
6.48975,241926
6.49788,250097
6.50600,253777
6.51412,256998
6.52225,251227
6.53037,254842
6.53848,274336
6.54662,271813
6.55473,276076
6.56287,290264
6.57098,306376
6.57910,340469
6.58723,360688
6.59535,351163
6.60348,330701
6.61160,297221
6.61972,285532
6.62785,288143
6.63597,284408
6.64408,304084
6.65222,444676
6.66033,795448
6.66847,1330685
6.67658,1638998
6.68470,1501568
6.69283,1108980
6.70095,761272
6.70908,577803
6.71720,454846
6.72532,362652
6.73345,290094
6.74157,243820
6.74970,215701
6.75782,197123
6.76593,177927
6.77407,172315
6.78218,167743
6.79030,175714
6.79843,211382
6.80655,297837
6.81468,470362
6.82280,784708
6.83092,1054361
6.83905,1183152
6.84717,1097534
6.85530,809397
6.86342,570969
6.87153,397168
6.87967,283652
6.88778,214453
6.89592,176877
6.90403,147317
6.91215,128222
6.92028,118341
6.92840,116897
6.93652,111904
6.94465,116324
6.95277,143543
6.96090,193188
6.96902,293908
6.97713,409958
6.98527,503924
6.99338,526478
7.00152,451421
7.00963,347491
7.01775,265612
7.02588,195669
7.03400,156217
7.04212,130594
7.05025,125066
7.05837,121380
7.06650,129750
7.07462,123309
7.08273,125405
7.09087,122420
7.09898,119778
7.10712,109381
7.11523,110161
7.12335,96504
7.13148,101866
7.13960,102666
7.14773,119479
7.15585,134918
7.16397,152223
7.17210,157938
7.18022,159417
7.18833,200694
7.19647,371237
7.20458,703194
7.21272,1105439
7.22083,1250194
7.22895,1060731
7.23708,723558
7.24520,441986
7.25333,293672
7.26145,206048
7.26957,171585
7.27770,170986
7.28582,181315
7.29395,174901
7.30207,158878
7.31018,148041
7.31832,140003
7.32643,147480
7.33455,192117
7.34268,246345
7.35080,305815
7.35893,348631
7.36705,336274
7.37517,296298
7.38330,232643
7.39142,177604
7.39955,141621
7.40767,126973
7.41578,115957
7.42392,115528
7.43203,124146
7.44015,143130
7.44828,173121
7.45640,212336
7.46453,236988
7.47265,237633
7.48077,213043
7.48890,176205
7.49702,145773
7.50515,115980
7.51327,112154
7.52138,109521
7.52952,124321
7.53763,160370
7.54577,230348
7.55388,341470
7.56200,473903
7.57013,575483
7.57825,597897
7.58637,520867
7.59450,416457
7.60262,282026
7.61075,203914
7.61887,154339
7.62698,125707
7.63512,115270
7.64323,103732
7.65137,100446
7.65948,96225
7.66760,92990
7.67573,93815
7.68385,86709
7.69197,98050
7.70010,86147
7.70822,91548
7.71635,86968
7.72447,90655
7.73258,89658
7.74072,89867
7.74883,94256
7.75697,88459
7.76508,87845
7.77320,84810
7.78133,89609
7.78945,92096
7.79758,89695
7.80570,94271
7.81382,94852
7.82195,95340
7.83007,97340
7.83818,84377
7.84632,84222
7.85443,82905
7.86257,85840
7.87068,94218
7.87880,104145
7.88693,110062
7.89505,113785
7.90318,111594
7.91130,106615
7.91942,91660
7.92755,98805
7.93567,108011
7.94380,116196
7.95192,124874
7.96003,115018
7.96817,109986
7.97628,96914
7.98440,89991
7.99253,84344
8.00065,78503
8.00878,75360
8.01690,77861
8.02502,78009
8.03315,76176
8.04127,76697
8.04940,75350
8.05752,73935
8.06563,74506
8.07377,72665
8.08188,73963
8.09000,73521
8.09813,70998
8.10625,73631
8.11438,74122
8.12250,72881
8.13062,76914
8.13875,87277
8.14687,89634
8.15500,99108
8.16312,99035
8.17123,90563
8.17937,87435
8.18748,75812
8.19562,73571
8.20373,71408
8.21185,73779
8.21998,69772
8.22810,78517
8.23622,74236
8.24435,71152
8.25247,71174
8.26060,71784
8.26872,68027
8.27683,71598
8.28497,69636
8.29308,67966
8.30122,68256
8.30933,67063
8.31745,76343
8.32558,76413
8.33370,77222
8.34183,77065
8.34995,71923
8.35807,70367
8.36620,68763
8.37432,67992
8.38243,66503
8.39057,63517
8.39868,62044
8.40682,68101
8.41493,62766
8.42305,66079
8.43118,65125
8.43930,62917
8.44743,61475
8.45555,66113
8.46367,69028
8.47180,66203
8.47992,63287
8.48803,63790
8.49617,67155
8.50428,72223
8.51242,76546
8.52053,94138
8.52865,130962
8.53678,164282
8.54490,175373
8.55303,166070
8.56115,126275
8.56927,100804
8.57740,84988
8.58552,86209
8.59365,74559
8.60177,75221
8.60988,75151
8.61802,82095
8.62613,72888
8.63425,77369
8.64238,70062
8.65050,72538
8.65863,69640
8.66675,68639
8.67487,69516
8.68300,70161
8.69112,68530
8.69925,73584
8.70737,77656
8.71548,82422
8.72362,123708
8.73173,233283
8.73985,455185
8.74798,788248
8.75610,1069484
8.76423,1139211
8.77235,967763
8.78047,673540
8.78860,437731
8.79672,277000
8.80485,208762
8.81297,183107
8.82108,166971
8.82922,167327
8.83733,153318
8.84547,141854
8.85358,131925
8.86170,133769
8.86983,123382
8.87795,118509
8.88607,114170
8.89420,108730
8.90232,109942
8.91045,104655
8.91857,106630
8.92668,107731
8.93482,112635
8.94293,120029
8.95107,119823
8.95918,111311
8.96730,107038
8.97543,107822
8.98355,109063
8.99168,103731
8.99980,103108
9.00792,102907
9.01605,101093
9.02417,96577
9.03228,98133
9.04042,90234
9.04853,91140
9.05667,88423
9.06478,91821
9.07290,91806
9.08103,89118
9.08915,92097
9.09728,95331
9.10540,100519
9.11352,115413
9.12165,128167
9.12977,128364
9.13790,121051
9.14602,106366
9.15413,90488
9.16227,92310
9.17038,86724
9.17850,85975
9.18663,83051
9.19475,88122
9.20288,81499
9.21100,81020
9.21912,79596
9.22725,80258
9.23537,79594
9.24350,81461
9.25162,80079
9.25973,78038
9.26787,79164
9.27598,78957
9.28410,81072
9.29223,79559
9.30035,73489
9.30848,75764
9.31660,79906
9.32472,77561
9.33285,82737
9.34097,83206
9.34910,85293
9.35722,79265
9.36533,81423
9.37347,75683
9.38158,75145
9.38972,74643
9.39783,75812
9.40595,78885
9.41408,89027
9.42220,97837
9.43032,119812
9.43845,132200
9.44657,133728
9.45470,131911
9.46282,113787
9.47093,98749
9.47907,88508
9.48718,78469
9.49532,74779
9.50343,78674
9.51155,81400
9.51968,87937
9.52780,89786
9.53592,81821
9.54405,76753
9.55217,70312
9.56030,61713
9.56842,60828
9.57653,54474
9.58467,58351
9.59278,60233
9.60092,56807
9.60903,55366
9.61715,54017
9.62528,51245
9.63340,50727
9.64153,51484
9.64965,53189
9.65777,49788
9.66590,48739
9.67402,52266
9.68213,51156
9.69027,49093
9.69838,48839
9.70652,46804
9.71463,50904
9.72275,49214
9.73088,49866
9.73900,43499
9.74713,47696
9.75525,45704
9.76337,47947
9.77150,47299
9.77962,46472
9.78775,49057
9.79587,49846
9.80398,45542
9.81212,47547
9.82023,47806
9.82835,48468
9.83648,45466
9.84460,47903
9.85273,47359
9.86085,47768
9.86897,45808
9.87710,47002
9.88522,45399
9.89335,47026
9.90147,44749
9.90958,43441
9.91772,45796
9.92583,47691
9.93395,59815
9.94208,76599
9.95020,91664
9.95833,108536
9.96645,104403
9.97457,102400
9.98270,82869
9.99082,75093
9.99895,63544
10.00707,56282
10.01518,53154
10.02332,52130
10.03143,50821
10.03957,46969
10.04768,48488
10.05580,49113
10.06393,54312
10.07205,48679
10.08017,52099
10.08830,45770
10.09642,48431
10.10455,51325
10.11267,44503
10.12078,50578
10.12892,45760
10.13703,48605
10.14517,46770
10.15328,47952
10.16140,45873
10.16953,46664
10.17765,47373
10.18578,48615
10.19390,45034
10.20202,42094
10.21015,43846
10.21827,45363
10.22638,48782
10.23452,51595
10.24263,56925
10.25077,69674
10.25888,97887
10.26700,192796
10.27513,371875
10.28325,678493
10.29138,1065224
10.29950,1552607
10.30762,2212505
10.31575,3283031
10.32387,4406109
10.33198,4880996
10.34012,4255959
10.34823,3077229
10.35637,2099075
10.36448,1585896
10.37260,1406715
10.38073,1207440
10.38885,944924
10.39698,650999
10.40510,436066
10.41322,296106
10.42135,220585
10.42947,189933
10.43760,175538
10.44572,157036
10.45383,147796
10.46197,133808
10.47008,122193
10.47820,114783
10.48633,109030
10.49445,103881
10.50258,101590
10.51070,105832
10.51882,97986
10.52695,106445
10.53507,96406
10.54320,89837
10.55132,86925
10.55943,84177
10.56757,81720
10.57568,82391
10.58380,82314
10.59193,78378
10.60005,76941
10.60818,74556
10.61630,73121
10.62442,68186
10.63255,78100
10.64067,66679
10.64880,67887
10.65692,66779
10.66503,62878
10.67317,67959
10.68128,66345
10.68942,71861
10.69753,73719
10.70565,75925
10.71378,78344
10.72190,75151
10.73002,68938
10.73815,68752
10.74627,68681
10.75440,65413
10.76252,61474
10.77063,62639
10.77877,62199
10.78688,64195
10.79502,63893
10.80313,61685
10.81125,66969
10.81938,65651
10.82750,62014
10.83563,63216
10.84375,55467
10.85187,50935
10.86000,56486
10.86812,52017
10.87623,50767
10.88437,48958
10.89248,51510
10.90062,51404
10.90873,54300
10.91685,50224
10.92498,52805
10.93310,47713
10.94123,51788
10.94935,54537
10.95747,56588
10.96560,58171
10.97372,53614
10.98183,50772
10.98997,58968
10.99808,56783
11.00622,58571
11.01433,54736
11.02245,54857
11.03058,53351
11.03870,51199
11.04683,51447
11.05495,52304
11.06307,50527
11.07120,51908
11.07932,55864
11.08745,59901
11.09557,61961
11.10368,63219
11.11182,65803
11.11993,66274
11.12805,67505
11.13618,65330
11.14430,61392
11.15243,58561
11.16055,53529
11.16867,55388
11.17680,59228
11.18492,55252
11.19305,61224
11.20117,62076
11.20928,58946
11.21742,57181
11.22553,57041
11.23367,50864
11.24178,48460
11.24990,53619
11.25803,62013
11.26615,80495
11.27427,99219
11.28240,149202
11.29052,198117
11.29865,241617
11.30677,293011
11.31488,371367
11.32302,536214
11.33113,777441
11.33927,1044541
11.34738,1195364
11.35550,1135894
11.36363,917166
11.37175,680211
11.37987,473324
11.38800,343949
11.39612,268012
11.40425,198948
11.41237,167851
11.42048,140296
11.42862,117946
11.43673,103387
11.44487,94606
11.45298,83267
11.46110,80727
11.46923,78237
11.47735,81731
11.48548,88158
11.49360,102405
11.50172,100595
11.50985,100930
11.51797,100287
11.52608,107620
11.53422,115473
11.54233,109980
11.55047,113640
11.55858,108968
11.56670,94750
11.57483,92927
11.58295,88200
11.59108,87041
11.59920,94123
11.60732,106337
11.61545,105720
11.62357,105277
11.63168,97602
11.63982,90008
11.64793,70722
11.65607,63773
11.66418,66902
11.67230,59735
11.68043,65204
11.68855,68395
11.69668,80297
11.70480,84601
11.71292,92137
11.72105,102385
11.72917,102158
11.73730,103826
11.74542,98042
11.75353,94743
11.76167,81977
11.76978,75892
11.77790,73457
11.78603,66418
11.79415,67672
11.80228,70938
11.81040,68881
11.81852,65762
11.82665,60987
11.83477,55608
11.84290,54944
11.85102,56542
11.85913,51662
11.86727,51312
11.87538,49108
11.88352,50252
11.89163,46726
11.89975,50127
11.90788,54046
11.91600,67705
11.92412,73573
11.93225,85326
11.94037,95523
11.94850,98022
11.95662,95576
11.96473,77991
11.97287,69557
11.98098,64830
11.98912,66388
11.99723,73025
12.00535,78302
12.01348,77763
12.02160,72585
12.02972,68285
12.03785,60497
12.04597,56156
12.05410,54430
12.06222,51461
12.07033,56265
12.07847,59879
12.08658,63079
12.09472,60016
12.10283,62444
12.11095,67068
12.11908,63553
12.12720,61729
12.13533,61379
12.14345,64219
12.15157,59550
12.15970,57387
12.16782,53720
12.17593,50178
12.18407,49054
12.19218,50209
12.20032,48200
12.20843,48155
12.21655,44850
12.22468,46736
12.23280,44657
12.24093,45105
12.24905,50546
12.25717,46684
12.26530,46517
12.27342,45577
12.28155,47859
12.28967,55159
12.29778,58218
12.30592,66398
12.31403,68051
12.32215,64501
12.33028,54869
12.33840,49834
12.34653,42380
12.35465,42979
12.36277,41895
12.37090,44378
12.37902,47352
12.38715,50259
12.39527,59793
12.40338,78518
12.41152,100448
12.41963,118099
12.42775,122897
12.43588,104926
12.44400,87949
12.45213,77547
12.46025,59155
12.46837,57487
12.47650,56030
12.48462,50864
12.49275,50481
12.50087,46411
12.50898,50807
12.51712,43665
12.52523,49838
12.53337,50702
12.54148,60376
12.54960,72003
12.55773,86531
12.56585,94476
12.57397,93069
12.58210,82931
12.59022,70636
12.59835,60507
12.60647,56917
12.61458,53357
12.62272,49725
12.63083,47449
12.63897,45712
12.64708,43371
12.65520,43402
12.66333,40518
12.67145,41403
12.67958,39965
12.68770,40153
12.69582,39795
12.70395,43293
12.71207,40333
12.72018,46612
12.72832,48017
12.73643,45028
12.74457,44746
12.75268,43819
12.76080,42334
12.76893,42412
12.77705,49607
12.78518,53043
12.79330,59449
12.80142,61937
12.80955,58365
12.81767,57028
12.82578,52825
12.83392,49826
12.84203,50222
12.85017,49393
12.85828,51880
12.86640,49185
12.87453,47933
12.88265,47035
12.89078,47012
12.89890,41481
12.90702,41231
12.91515,40622
12.92327,45859
12.93140,54379
12.93952,69456
12.94763,89248
12.95577,118759
12.96388,160646
12.97200,181534
12.98013,200705
12.98825,186183
12.99638,167120
13.00450,148845
13.01262,138995
13.02075,137349
13.02887,130343
13.03700,117013
13.04512,102992
13.05323,91635
13.06137,78930
13.06948,69392
13.07760,67437
13.08573,59064
13.09385,59687
13.10198,55484
13.11010,50838
13.11822,50216
13.12635,47384
13.13447,48425
13.14260,45401
13.15072,43381
13.15883,53212
13.16697,49237
13.17508,47742
13.18322,48623
13.19133,45281
13.19945,45753
13.20758,49052
13.21570,47696
13.22382,50157
13.23195,52891
13.24007,57748
13.24820,67443
13.25632,66148
13.26443,74581
13.27257,75195
13.28068,79713
13.28882,72774
13.29693,77863
13.30505,75058
13.31318,78789
13.32130,81912
13.32943,86361
13.33755,79300
13.34567,78676
13.35380,75134
13.36192,69642
13.37003,65754
13.37817,57269
13.38628,59026
13.39442,57456
13.40253,55852
13.41065,52783
13.41878,55821
13.42690,51265
13.43503,46657
13.44315,49053
13.45127,49632
13.45940,44217
13.46752,47701
13.47563,48039
13.48377,48834
13.49188,48051
13.50002,45274
13.50813,45264
13.51625,43030
13.52438,47453
13.53250,43866
13.54063,56607
13.54875,60718
13.55687,63905
13.56500,68085
13.57312,70614
13.58125,69595
13.58937,81316
13.59748,88307
13.60562,111957
13.61373,132797
13.62185,152841
13.62998,155287
13.63810,138415
13.64623,133356
13.65435,109811
13.66247,97448
13.67060,86329
13.67872,80946
13.68685,80827
13.69497,73214
13.70308,67623
13.71122,63089
13.71933,68873
13.72747,60775
13.73558,58291
13.74370,61309
13.75183,71365
13.75995,79918
13.76807,93844
13.77620,108914
13.78432,118502
13.79245,129034
13.80057,130183
13.80868,155852
13.81682,180944
13.82493,218552
13.83307,242003
13.84118,239933
13.84930,204951
13.85743,171725
13.86555,137920
13.87367,111026
13.88180,94306
13.88992,88204
13.89805,85728
13.90617,87842
13.91428,89597
13.92242,86777
13.93053,87081
13.93867,78805
13.94678,77760
13.95490,75645
13.96303,77877
13.97115,77176
13.97928,77561
13.98740,77338
13.99552,72026
14.00365,72095
14.01177,76293
14.01988,70731
14.02802,71526
14.03613,70251
14.04427,67385
14.05238,66225
14.06050,63517
14.06863,60278
14.07675,58952
14.08488,54048
14.09300,53725
14.10112,52399
14.10925,52235
14.11737,61468
14.12548,68756
14.13362,100196
14.14173,166461
14.14987,265656
14.15798,350922
14.16610,412024
14.17423,385514
14.18235,304893
14.19048,225578
14.19860,170040
14.20672,139635
14.21485,124100
14.22297,117945
14.23110,112772
14.23922,101713
14.24733,98312
14.25547,98526
14.26358,95329
14.27170,92488
14.27983,86079
14.28795,70235
14.29608,73368
14.30420,66144
14.31232,62313
14.32045,60771
14.32857,54817
14.33670,53174
14.34482,46205
14.35293,47052
14.36107,46064
14.36918,42589
14.37732,42728
14.38543,54817
14.39355,62990
14.40168,85821
14.40980,117288
14.41792,138468
14.42605,155320
14.43417,148771
14.44230,120908
14.45042,94599
14.45853,72628
14.46667,66788
14.47478,65627
14.48292,58705
14.49103,59454
14.49915,59357
14.50728,53822
14.51540,51117
14.52353,53445
14.53165,52711
14.53977,49261
14.54790,49828
14.55602,46018
14.56413,51802
14.57227,44155
14.58038,43458
14.58852,44534
14.59663,44182
14.60475,43640
14.61288,41631
14.62100,41327
14.62913,41402
14.63725,38238
14.64537,41248
14.65350,42539
14.66162,44385
14.66973,39426
14.67787,40213
14.68598,38601
14.69412,39674
14.70223,40972
14.71035,40241
14.71848,42949
14.72660,44376
14.73473,43099
14.74285,44898
14.75097,46383
14.75910,45313
14.76722,44868
14.77535,47228
14.78347,56206
14.79158,89857
14.79972,171271
14.80783,341461
14.81595,597711
14.82408,890469
14.83220,1055079
14.84033,971338
14.84845,748367
14.85657,492458
14.86470,310371
14.87282,201369
14.88095,154587
14.88907,128882
14.89718,108316
14.90532,95696
14.91343,87387
14.92155,87900
14.92968,79908
14.93780,72980
14.94593,72063
14.95405,73005
14.96217,68601
14.97030,66904
14.97842,61066
14.98655,60398
14.99467,59912
15.00278,61944
15.01092,59623
15.01903,57934
15.02717,56100
15.03528,57970
15.04340,56623
15.05153,54066
15.05965,50628
15.06777,53208
15.07590,52216
15.08402,48370
15.09215,49547
15.10027,45289
15.10838,44350
15.11652,48261
15.12463,50940
15.13277,48805
15.14088,49155
15.14900,49708
15.15713,48347
15.16525,50773
15.17338,49072
15.18150,41763
15.18962,41414
15.19775,43699
15.20587,45987
15.21398,41496
15.22212,45178
15.23023,46506
15.23837,40622
15.24648,44209
15.25460,38167
15.26273,40927
15.27085,37624
15.27898,39393
15.28710,38182
15.29522,39396
15.30335,37597
15.31147,38559
15.31958,40464
15.32772,37852
15.33583,36508
15.34397,34952
15.35208,38223
15.36020,39454
15.36833,36924
15.37645,38593
15.38458,36403
15.39270,39793
15.40082,41001
15.40895,39391
15.41707,36412
15.42520,40138
15.43332,37868
15.44143,41500
15.44957,39914
15.45768,50312
15.46580,61586
15.47393,81244
15.48205,124342
15.49018,166701
15.49830,199299
15.50642,221347
15.51455,211830
15.52267,185029
15.53080,154334
15.53892,132083
15.54703,102959
15.55517,89346
15.56328,75077
15.57142,65402
15.57953,55271
15.58765,49856
15.59578,52233
15.60390,47595
15.61202,43851
15.62015,43647
15.62827,45183
15.63640,40926
15.64452,43901
15.65263,40428
15.66077,40913
15.66888,40614
15.67702,42528
15.68513,38867
15.69325,40868
15.70138,36911
15.70950,40330
15.71762,40214
15.72575,35656
15.73387,39454
15.74200,48557
15.75012,48608
15.75823,52929
15.76637,68967
15.77448,88498
15.78262,106842
15.79073,111579
15.79885,107220
15.80698,88874
15.81510,75717
15.82323,60779
15.83135,53055
15.83947,50202
15.84760,49646
15.85572,50697
15.86383,45690
15.87197,50681
15.88008,43052
15.88822,44986
15.89633,46571
15.90445,43398
15.91258,41539
15.92070,40470
15.92883,44190
15.93695,41669
15.94507,43115
15.95320,43723
15.96132,43342
15.96943,42861
15.97757,42552
15.98568,44311
15.99382,49007
16.00193,54992
16.01005,52926
16.01818,59031
16.02630,61451
16.03443,58192
16.04255,56603
16.05067,54634
16.05880,51789
16.06692,48681
16.07505,42735
16.08317,44823
16.09128,44233
16.09942,41865
16.10753,45526
16.11565,42782
16.12378,44106
16.13190,44853
16.14003,45280
16.14815,48718
16.15627,49590
16.16440,45784
16.17252,45306
16.18065,41217
16.18877,40557
16.19688,43086
16.20502,42299
16.21313,43474
16.22127,43314
16.22938,42917
16.23750,41220
16.24563,40911
16.25375,38410
16.26187,41476
16.27000,41514
16.27812,41288
16.28625,43704
16.29437,47106
16.30248,49184
16.31062,46142
16.31873,50016
16.32687,43921
16.33498,44493
16.34310,45162
16.35123,43139
16.35935,43537
16.36747,43447
16.37560,48706
16.38372,42837
16.39185,47244
16.39997,41554
16.40808,42458
16.41622,40166
16.42433,41132
16.43247,46619
16.44058,42806
16.44870,58514
16.45683,71044
16.46495,94308
16.47308,129308
16.48120,147892
16.48932,143384
16.49745,119108
16.50557,101127
16.51368,79064
16.52182,62747
16.52993,54379
16.53807,54517
16.54618,48637
16.55430,50616
16.56243,49832
16.57055,51660
16.57868,52578
16.58680,49976
16.59492,48058
16.60305,46944
16.61117,48280
16.61930,44906
16.62742,50489
16.63553,45469
16.64367,42278
16.65178,42641
16.65990,40514
16.66803,46288
16.67615,40219
16.68428,43040
16.69240,42036
16.70052,45031
16.70865,43432
16.71677,41850
16.72490,38021
16.73302,41607
16.74113,43984
16.74927,43545
16.75738,42128
16.76550,45641
16.77363,40433
16.78175,38449
16.78988,41829
16.79800,41350
16.80612,40760
16.81425,40324
16.82237,38692
16.83050,40066
16.83862,40827
16.84673,39560
16.85487,42349
16.86298,44718
16.87112,40785
16.87923,40268
16.88735,37677
16.89548,41550
16.90360,37175
16.91172,34154
16.91985,40888
16.92797,38344
16.93610,38334
16.94422,35795
16.95233,40489
16.96047,36259
16.96858,41842
16.97672,42265
16.98483,42260
16.99295,40072
17.00108,39081
17.00920,41973
17.01733,39084
17.02545,40658
17.03357,41856
17.04170,40927
17.04982,40411
17.05793,47874
17.06607,47513
17.07418,42215
17.08232,47385
17.09043,51109
17.09855,46044
17.10668,46086
17.11480,54159
17.12293,50465
17.13105,51535
17.13917,57990
17.14730,50378
17.15542,47067
17.16353,43082
17.17167,42656
17.17978,41923
17.18792,40313
17.19603,37688
17.20415,39133
17.21228,42029
17.22040,39848
17.22853,39917
17.23665,40903
17.24477,38686
17.25290,42717
17.26102,40546
17.26915,39697
17.27727,39437
17.28538,38706
17.29352,39026
17.30163,39085
17.30975,38118
17.31788,43279
17.32600,46389
17.33413,45255
17.34225,50794
17.35037,54366
17.35850,52074
17.36662,53526
17.37475,51593
17.38287,54620
17.39098,52730
17.39912,53789
17.40723,63024
17.41535,61130
17.42348,59289
17.43160,57471
17.43973,58724
17.44785,50674
17.45597,51813
17.46410,50182
17.47222,45884
17.48035,43683
17.48847,43405
17.49658,47669
17.50472,45269
17.51283,54283
17.52097,54870
17.52908,64166
17.53720,77909
17.54533,81216
17.55345,90254
17.56157,95616
17.56970,115078
17.57782,126161
17.58595,148923
17.59407,170428
17.60218,185220
17.61032,175946
17.61843,155460
17.62657,128664
17.63468,100504
17.64280,85807
17.65093,75278
17.65905,67836
17.66718,65682
17.67530,64520
17.68342,63738
17.69155,63319
17.69967,60501
17.70778,64097
17.71592,61422
17.72403,62845
17.73217,55462
17.74028,59955
17.74840,55904
17.75653,56082
17.76465,55245
17.77278,49641
17.78090,53051
17.78902,52850
17.79715,50602
17.80527,52864
17.81338,57104
17.82152,65012
17.82963,65583
17.83777,75694
17.84588,74921
17.85400,76396
17.86213,75816
17.87025,73853
17.87838,66330
17.88650,59908
17.89462,60409
17.90275,52562
17.91087,51663
17.91900,51878
17.92712,45970
17.93523,45762
17.94337,48612
17.95148,50056
17.95960,46082
17.96773,46431
17.97585,44502
17.98398,44524
17.99210,47347
18.00022,52348
18.00835,51091
18.01647,54594
18.02460,68295
18.03272,71930
18.04083,83294
18.04897,103358
18.05708,127672
18.06522,191426
18.07333,308582
18.08145,485144
18.08958,681653
18.09770,768620
18.10582,724539
18.11395,568756
18.12207,416225
18.13020,285186
18.13832,216438
18.14643,169435
18.15457,144545
18.16268,130621
18.17082,117731
18.17893,105977
18.18705,98063
18.19518,95641
18.20330,91411
18.21142,86089
18.21955,83939
18.22767,81679
18.23580,80438
18.24392,76151
18.25203,73969
18.26017,69460
18.26828,67170
18.27642,65190
18.28453,64955
18.29265,70815
18.30078,79445
18.30890,86734
18.31703,100531
18.32515,101830
18.33327,109093
18.34140,107734
18.34952,109789
18.35763,119779
18.36577,118401
18.37388,125614
18.38202,116320
18.39013,119602
18.39825,124126
18.40638,130542
18.41450,126708
18.42263,132913
18.43075,137010
18.43887,147012
18.44700,146221
18.45512,155014
18.46323,155891
18.47137,159704
18.47948,163804
18.48762,149367
18.49573,142238
18.50385,133712
18.51198,120955
18.52010,110810
18.52823,106928
18.53635,104954
18.54447,106934
18.55260,98045
18.56072,100911
18.56885,97179
18.57697,95208
18.58508,103702
18.59322,103386
18.60133,105704
18.60945,110344
18.61758,113300
18.62570,109446
18.63383,122434
18.64195,109256
18.65007,100946
18.65820,93276
18.66632,91323
18.67445,89113
18.68257,84688
18.69068,86884
18.69882,83199
18.70693,87604
18.71507,83528
18.72318,82627
18.73130,82515
18.73943,76664
18.74755,76563
18.75567,70758
18.76380,70862
18.77192,69445
18.78005,71771
18.78817,67913
18.79628,68193
18.80442,73763
18.81253,70374
18.82067,67384
18.82878,65304
18.83690,63702
18.84503,67797
18.85315,61284
18.86128,72589
18.86940,65851
18.87752,68410
18.88565,69115
18.89377,67567
18.90188,69437
18.91002,73613
18.91813,69678
18.92627,70993
18.93438,68908
18.94250,64691
18.95063,65276
18.95875,65246
18.96688,63994
18.97500,65136
18.98312,61479
18.99125,62538
18.99937,59633
19.00748,64351
19.01562,63560
19.02373,63604
19.03187,69216
19.03998,60350
19.04810,60948
19.05623,60526
19.06435,56063
19.07248,58440
19.08060,60693
19.08872,67561
19.09685,71936
19.10497,76838
19.11310,75497
19.12122,75107
19.12933,75744
19.13747,79268
19.14558,93859
19.15370,90425
19.16183,94120
19.16995,98552
19.17808,88358
19.18620,81800
19.19432,75838
19.20245,74089
19.21057,66884
19.21870,58809
19.22682,60680
19.23493,58753
19.24307,54687
19.25118,54823
19.25930,58313
19.26743,54722
19.27555,64667
19.28368,66366
19.29180,70454
19.29992,70434
19.30805,68507
19.31617,63208
19.32430,65738
19.33242,62110
19.34053,56741
19.34867,68325
19.35678,63521
19.36492,65645
19.37303,72146
19.38115,71347
19.38928,70523
19.39740,67063
19.40552,64075
19.41365,67188
19.42177,70432
19.42990,86565
19.43802,117704
19.44613,164331
19.45427,210721
19.46238,232953
19.47052,226175
19.47863,189599
19.48675,144800
19.49488,102421
19.50300,85701
19.51113,77894
19.51925,68378
19.52737,68421
19.53550,64504
19.54362,70454
19.55173,66354
19.55987,64584
19.56798,61575
19.57612,60942
19.58423,54148
19.59235,53567
19.60048,51138
19.60860,50860
19.61673,57548
19.62485,63453
19.63297,72194
19.64110,94636
19.64922,110581
19.65733,134366
19.66547,136773
19.67358,139806
19.68172,125287
19.68983,113029
19.69795,96934
19.70608,88272
19.71420,79986
19.72233,77673
19.73045,73403
19.73857,70945
19.74670,66934
19.75482,67868
19.76295,69577
19.77107,70634
19.77918,81135
19.78732,85630
19.79543,91326
19.80355,88326
19.81168,85372
19.81980,76477
19.82793,70319
19.83605,65617
19.84417,69173
19.85230,81958
19.86042,106451
19.86855,173019
19.87667,302702
19.88478,495718
19.89292,664349
19.90103,754697
19.90917,741555
19.91728,631826
19.92540,477564
19.93353,336958
19.94165,248831
19.94977,192454
19.95790,160184
19.96602,137104
19.97415,132472
19.98227,123926
19.99038,117356
19.99852,115473
20.00663,114095
20.01477,108525
20.02288,107760
20.03100,99951
20.03913,98032
20.04725,98007
20.05537,103901
20.06350,105235
20.07162,113552
20.07975,122936
20.08787,124091
20.09598,122411
20.10412,112682
20.11223,91755
20.12037,84833
20.12848,79917
20.13660,87805
20.14473,107176
20.15285,146853
20.16098,203884
20.16910,276784
20.17722,347043
20.18535,414822
20.19347,445487
20.20158,417183
20.20972,369036
20.21783,294659
20.22597,243219
20.23408,218065
20.24220,233585
20.25033,285315
20.25845,315658
20.26658,339110
20.27470,338095
20.28282,310304
20.29095,258283
20.29907,208063
20.30718,157138
20.31532,121808
20.32343,99567
20.33157,80322
20.33968,79326
20.34780,76660
20.35593,71104
20.36405,68919
20.37218,74789
20.38030,67880
20.38842,71268
20.39655,73443
20.40467,72730
20.41280,77105
20.42092,78829
20.42903,75356
20.43717,73373
20.44528,70712
20.45340,68959
20.46153,67704
20.46965,67511
20.47778,68025
20.48590,63480
20.49402,61377
20.50215,61287
20.51027,58522
20.51840,59595
20.52652,58563
20.53463,51864
20.54277,54801
20.55088,53830
20.55902,52961
20.56713,51991
20.57525,51207
20.58338,54405
20.59150,53269
20.59962,54774
20.60775,54439
20.61587,54487
20.62400,56073
20.63212,52574
20.64023,57793
20.64837,57377
20.65648,56366
20.66462,53418
20.67273,56319
20.68085,55555
20.68898,51752
20.69710,53008
20.70522,52220
20.71335,51313
20.72147,50784
20.72960,56819
20.73772,54688
20.74583,58199
20.75397,57637
20.76208,58527
20.77022,59803
20.77833,66186
20.78645,83142
20.79458,113462
20.80270,139598
20.81083,167429
20.81895,174644
20.82707,163533
20.83520,139415
20.84332,111441
20.85143,88859
20.85957,69894
20.86768,59484
20.87582,61960
20.88393,63325
20.89205,67598
20.90018,66315
20.90830,71623
20.91643,74149
20.92455,73646
20.93267,75058
20.94080,75711
20.94892,67197
20.95705,65081
20.96517,58169
20.97328,59975
20.98142,58755
20.98953,53484
20.99765,50949
21.00578,57734
21.01390,55915
21.02203,55648
21.03015,60824
21.03827,57964
21.04640,57125
21.05452,56559
21.06265,53336
21.07077,53425
21.07888,58381
21.08702,52645
21.09513,51315
21.10325,48253
21.11138,51570
21.11950,53129
21.12763,57440
21.13575,64940
21.14387,75304
21.15200,83374
21.16012,84196
21.16825,81909
21.17637,75545
21.18448,70155
21.19262,67067
21.20073,63590
21.20887,61308
21.21698,60569
21.22510,60875
21.23323,63071
21.24135,59244
21.24947,56738
21.25760,60133
21.26572,58638
21.27385,56266
21.28197,58393
21.29008,61766
21.29822,61433
21.30633,57772
21.31447,54506
21.32258,59234
21.33070,58961
21.33883,57822
21.34695,55062
21.35507,57868
21.36320,55647
21.37132,51696
21.37945,56217
21.38757,57539
21.39568,59934
21.40382,65196
21.41193,63625
21.42007,67372
21.42818,61719
21.43630,58839
21.44443,57196
21.45255,59047
21.46068,53348
21.46880,60400
21.47692,52837
21.48505,59553
21.49317,55588
21.50128,50268
21.50942,53756
21.51753,51488
21.52567,54819
21.53378,51680
21.54190,55647
21.55003,50779
21.55815,54004
21.56628,58701
21.57440,57831
21.58252,63769
21.59065,72224
21.59877,74726
21.60690,78314
21.61502,76830
21.62313,70120
21.63127,64117
21.63938,60653
21.64750,59760
21.65563,63498
21.66375,59667
21.67188,62264
21.68000,59332
21.68812,58967
21.69625,58496
21.70437,55513
21.71250,52050
21.72062,54101
21.72873,50286
21.73687,54449
21.74498,52210
21.75310,50793
21.76123,52261
21.76935,54435
21.77748,58706
21.78560,60574
21.79372,60918
21.80185,65593
21.80997,62084
21.81810,59428
21.82622,57917
21.83433,54266
21.84247,50102
21.85058,50400
21.85872,48670
21.86683,50350
21.87495,52666
21.88308,48495
21.89120,46364
21.89932,48344
21.90745,50383
21.91557,48661
21.92370,43768
21.93182,44529
21.93993,48317
21.94807,46638
21.95618,53068
21.96432,60871
21.97243,66331
21.98055,71882
21.98868,75524
21.99680,71822
22.00493,78110
22.01305,76639
22.02117,77821
22.02930,80458
22.03742,82794
22.04553,85408
22.05367,78012
22.06178,82548
22.06992,77346
22.07803,81603
22.08615,78953
22.09428,78835
22.10240,77109
22.11053,74676
22.11865,73833
22.12677,69394
22.13490,71749
22.14302,70309
22.15113,66597
22.15927,65215
22.16738,67394
22.17552,63886
22.18363,66437
22.19175,69312
22.19988,64610
22.20800,63993
22.21613,63912
22.22425,60650
22.23237,57245
22.24050,55420
22.24862,56746
22.25675,57727
22.26487,58638
22.27298,60019
22.28112,61507
22.28923,60844
22.29735,59990
22.30548,59752
22.31360,59635
22.32173,55909
22.32985,56384
22.33797,57702
22.34610,53277
22.35422,52938
22.36235,53702
22.37047,50524
22.37858,56749
22.38672,57657
22.39483,66221
22.40297,77675
22.41108,77982
22.41920,78103
22.42733,78620
22.43545,70570
22.44357,66018
22.45170,62934
22.45982,57118
22.46795,58385
22.47607,60739
22.48418,64430
22.49232,67579
22.50043,68346
22.50857,74071
22.51668,72948
22.52480,71914
22.53293,63865
22.54105,60854
22.54917,63177
22.55730,58088
22.56542,49158
22.57355,45854
22.58167,47621
22.58978,49041
22.59792,47647
22.60603,48483
22.61417,45671
22.62228,43374
22.63040,44784
22.63853,44059
22.64665,45434
22.65478,46286
22.66290,49036
22.67102,46980
22.67915,48139
22.68727,52292
22.69538,57015
22.70352,61488
22.71163,67853
22.71977,69527
22.72788,64316
22.73600,61658
22.74413,57413
22.75225,50704
22.76038,47980
22.76850,53139
22.77662,52732
22.78475,53309
22.79287,58414
22.80098,64342
22.80912,63766
22.81723,63553
22.82537,68322
22.83348,61446
22.84160,57820
22.84973,55897
22.85785,60907
22.86598,71747
22.87410,71026
22.88222,77311
22.89035,86621
22.89847,85982
22.90660,100163
22.91472,106455
22.92283,116628
22.93097,118553
22.93908,124377
22.94720,107631
22.95533,97799
22.96345,88238
22.97158,73954
22.97970,72255
22.98782,66268
22.99595,68029
23.00407,58596
23.01220,58660
23.02032,59030
23.02843,57644
23.03657,53115
23.04468,52205
23.05282,51007
23.06093,52156
23.06905,51017
23.07718,51438
23.08530,51091
23.09342,47774
23.10155,51595
23.10967,47168
23.11780,50649
23.12592,45827
23.13403,42254
23.14217,45215
23.15028,44866
23.15842,41628
23.16653,44259
23.17465,40555
23.18278,41941
23.19090,44787
23.19902,43323
23.20715,45723
23.21527,44686
23.22340,40866
23.23152,43397
23.23963,45024
23.24777,46316
23.25588,49751
23.26402,51202
23.27213,46759
23.28025,45722
23.28838,44990
23.29650,46585
23.30463,45729
23.31275,47686
23.32087,47474
23.32900,51040
23.33712,56059
23.34523,63343
23.35337,70903
23.36148,77186
23.36962,74358
23.37773,81083
23.38585,80820
23.39398,78845
23.40210,74508
23.41023,73412
23.41835,69351
23.42647,67536
23.43460,66596
23.44272,62341
23.45085,57779
23.45897,57631
23.46708,56726
23.47522,55532
23.48333,54426
23.49145,54788
23.49958,49746
23.50770,49929
23.51583,51199
23.52395,49323
23.53207,55968
23.54020,54791
23.54832,62812
23.55645,63257
23.56457,72810
23.57268,84556
23.58082,97371
23.58893,107911
23.59705,119980
23.60518,114104
23.61330,105617
23.62143,88942
23.62955,84403
23.63767,75149
23.64580,67818
23.65392,69247
23.66205,78135
23.67017,67848
23.67828,63950
23.68642,63748
23.69453,62598
23.70267,57354
23.71078,53764
23.71890,62434
23.72703,75592
23.73515,119917
23.74327,244388
23.75140,523418
23.75952,1187152
23.76765,2272544
23.77577,3486065
23.78388,4158332
23.79202,4170378
23.80013,3595247
23.80827,2868580
23.81638,2080020
23.82450,1556497
23.83263,1161437
23.84075,895493
23.84887,706720
23.85700,576626
23.86512,502418
23.87325,429717
23.88137,383533
23.88948,346985
23.89762,328394
23.90573,297751
23.91387,277566
23.92198,254697
23.93010,251030
23.93823,231331
23.94635,219980
23.95448,199201
23.96260,190972
23.97072,179774
23.97885,169403
23.98697,162527
23.99508,169921
24.00322,158926
24.01133,151631
24.01947,153099
24.02758,147349
24.03570,143852
24.04383,139937
24.05195,142683
24.06008,142223
24.06820,128898
24.07632,128997
24.08445,120428
24.09257,119292
24.10070,112728
24.10882,117292
24.11693,111598
24.12507,111509
24.13318,118205
24.14130,118305
24.14943,116002
24.15755,116020
24.16568,119892
24.17380,116889
24.18192,115747
24.19005,120046
24.19817,117119
24.20630,108898
24.21442,103961
24.22253,102046
24.23067,90901
24.23878,93367
24.24692,93589
24.25503,81896
24.26315,77818
24.27128,84390
24.27940,77089
24.28752,81767
24.29565,85995
24.30377,85754
24.31190,93656
24.32002,104149
24.32813,134545
24.33627,157312
24.34438,182125
24.35252,179468
24.36063,152416
24.36875,132777
24.37688,101675
24.38500,86467
24.39312,80503
24.40125,71821
24.40937,67006
24.41750,71831
24.42562,75957
24.43373,72519
24.44187,76774
24.44998,89131
24.45812,88414
24.46623,88123
24.47435,86359
24.48248,90226
24.49060,87878
24.49873,81456
24.50685,84019
24.51497,79880
24.52310,82203
24.53122,92915
24.53933,100126
24.54747,107548
24.55558,116596
24.56372,120049
24.57183,103054
24.57995,89940
24.58808,84125
24.59620,78688
24.60433,69561
24.61245,65124
24.62057,68786
24.62870,67430
24.63682,67425
24.64493,63815
24.65307,62020
24.66118,63911
24.66932,64195
24.67743,64700
24.68555,62733
24.69368,60150
24.70180,62006
24.70993,64623
24.71805,59011
24.72617,60901
24.73430,57790
24.74242,59725
24.75055,59731
24.75867,62748
24.76678,58238
24.77492,60755
24.78303,57620
24.79115,64298
24.79928,67505
24.80740,61266
24.81553,66421
24.82365,67458
24.83177,71514
24.83990,82404
24.84802,88281
24.85615,100145
24.86427,125825
24.87238,138756
24.88052,159201
24.88863,165725
24.89677,156353
24.90488,142795
24.91300,105963
24.92113,87112
24.92925,77969
24.93737,70196
24.94550,66508
24.95362,67781
24.96175,73419
24.96987,80892
24.97798,82198
24.98612,86975
24.99423,97876
25.00237,93568
25.01048,91431
25.01860,94527
25.02673,87604
25.03485,90753
25.04297,88630
25.05110,85008
25.05922,90101
25.06735,88243
25.07547,90228
25.08358,91173
25.09172,105763
25.09983,128071
25.10797,179775
25.11608,287298
25.12420,438344
25.13233,627039
25.14045,768429
25.14858,781878
25.15670,667688
25.16482,507910
25.17295,332496
25.18107,239041
25.18918,163884
25.19732,126255
25.20543,108152
25.21357,98417
25.22168,98403
25.22980,102999
25.23793,103947
25.24605,112073
25.25418,121843
25.26230,140318
25.27042,146022
25.27855,137441
25.28667,121800
25.29480,109734
25.30292,100995
25.31103,97139
25.31917,83443
25.32728,80096
25.33540,76266
25.34353,74559
25.35165,69283
25.35978,67226
25.36790,68693
25.37602,61747
25.38415,65896
25.39227,65311
25.40040,66714
25.40852,66168
25.41663,62327
25.42477,66353
25.43288,66013
25.44100,64075
25.44913,63588
25.45725,60618
25.46538,58394
25.47350,58405
25.48162,57601
25.48975,62533
25.49787,62672
25.50600,59835
25.51412,54432
25.52223,55048
25.53037,56391
25.53848,58451
25.54662,54271
25.55473,56601
25.56285,55217
25.57098,51744
25.57910,58154
25.58722,52109
25.59535,54785
25.60347,54459
25.61160,53305
25.61972,49984
25.62783,53553
25.63597,48860
25.64408,49090
25.65222,50561
25.66033,51267
25.66845,52114
25.67658,55607
25.68470,57227
25.69282,53347
25.70095,54678
25.70907,51550
25.71720,50547
25.72532,54739
25.73343,52534
25.74157,49386
25.74968,47963
25.75782,45940
25.76593,47510
25.77405,47731
25.78218,49982
25.79030,49622
25.79843,48666
25.80655,56147
25.81467,50815
25.82280,45945
25.83092,49452
25.83903,49128
25.84717,51319
25.85528,48453
25.86342,49755
25.87153,48599
25.87965,45142
25.88778,44171
25.89590,43550
25.90403,47463
25.91215,45292
25.92027,44984
25.92840,50880
25.93652,45415
25.94465,46601
25.95277,46101
25.96088,45656
25.96902,45532
25.97713,44193
25.98525,41942
25.99338,43157
26.00150,47750
26.00963,48282
26.01775,45878
26.02587,46352
26.03400,46587
26.04212,46365
26.05025,44950
26.05837,46479
26.06648,45991
26.07462,48582
26.08273,44985
26.09085,43491
26.09898,47080
26.10710,48429
26.11523,49619
26.12335,49497
26.13147,53860
26.13960,58513
26.14772,58220
26.15585,57180
26.16397,57392
26.17208,52745
26.18022,52787
26.18833,49234
26.19647,49666
26.20458,45570
26.21270,44031
26.22083,48278
26.22895,41469
26.23707,44954
26.24520,42883
26.25332,45654
26.26145,45722
26.26957,44469
26.27768,43723
26.28582,43218
26.29393,39396
26.30207,43366
26.31018,43717
26.31830,42483
26.32643,42977
26.33455,47718
26.34268,49838
26.35080,58015
26.35892,74269
26.36705,90125
26.37517,121869
26.38328,138706
26.39142,159942
26.39953,151261
26.40767,140535
26.41578,120151
26.42390,94358
26.43203,78846
26.44015,61197
26.44828,54353
26.45640,49657
26.46452,49598
26.47265,50278
26.48077,47699
26.48888,45967
26.49702,45011
26.50513,45353
26.51327,43313
26.52138,45403
26.52950,42457
26.53763,41735
26.54575,42032
26.55388,41896
26.56200,46077
26.57012,43481
26.57825,43965
26.58637,45022
26.59450,46172
26.60262,44668
26.61073,46175
26.61887,42491
26.62698,44475
26.63510,43297
26.64323,46404
26.65135,42988
26.65948,47296
26.66760,46324
26.67572,45175
26.68385,44208
26.69197,48655
26.70010,48506
26.70822,44573
26.71633,47437
26.72447,45765
26.73258,45934
26.74070,44796
26.74883,45301
26.75695,39690
26.76508,41505
26.77320,49882
26.78132,44336
26.78945,45915
26.79757,51648
26.80570,49926
26.81382,49176
26.82193,49359
26.83007,43770
26.83818,49630
26.84632,46993
26.85443,43647
26.86255,43697
26.87068,43721
26.87880,45023
26.88692,45344
26.89505,46609
26.90317,44571
26.91130,45407
26.91942,45922
26.92753,47299
26.93567,55202
26.94378,69125
26.95192,103150
26.96003,171015
26.96815,290600
26.97628,451062
26.98440,732000
26.99253,1042393
27.00065,1227474
27.00877,1301747
27.01690,1220879
27.02502,1031183
27.03313,806662
27.04127,618306
27.04938,466003
27.05752,356956
27.06563,296523
27.07375,239757
27.08188,204124
27.09000,179993
27.09813,157758
27.10625,140645
27.11437,131466
27.12250,134065
27.13062,114790
27.13873,114985
27.14687,111583
27.15498,112286
27.16312,111577
27.17123,112622
27.17935,112615
27.18748,104883
27.19560,96823
27.20373,88346
27.21185,79776
27.21997,81524
27.22810,76745
27.23622,77545
27.24435,74364
27.25247,69151
27.26058,67310
27.26872,69754
27.27683,66663
27.28495,65577
27.29308,65555
27.30120,64674
27.30933,65692
27.31745,63722
27.32557,61219
27.33370,62275
27.34182,64680
27.34995,61099
27.35807,63358
27.36618,59639
27.37432,59608
27.38243,61955
27.39057,54679
27.39868,56500
27.40680,54121
27.41493,58704
27.42305,55202
27.43117,55375
27.43930,54352
27.44742,54332
27.45555,56620
27.46367,53751
27.47178,56785
27.47992,58157
27.48803,52158
27.49617,52856
27.50428,56664
27.51240,51818
27.52053,51043
27.52865,51905
27.53677,50705
27.54490,55423
27.55302,54697
27.56115,51486
27.56927,56907
27.57738,54502
27.58552,56235
27.59363,58468
27.60177,60335
27.60988,57366
27.61800,54274
27.62613,52301
27.63425,54074
27.64238,52722
27.65050,51376
27.65862,53284
27.66675,54166
27.67487,57884
27.68298,63711
27.69112,60524
27.69923,61245
27.70737,56302
27.71548,55947
27.72360,55429
27.73173,59813
27.73985,61954
27.74798,62173
27.75610,61984
27.76422,60032
27.77235,52093
27.78047,53593
27.78860,53359
27.79672,49086
27.80483,48102
27.81297,50696
27.82108,45810
27.82920,48235
27.83733,46895
27.84545,51357
27.85358,45543
27.86170,44642
27.86982,45289
27.87795,49937
27.88607,46369
27.89420,45774
27.90232,46161
27.91043,44023
27.91857,41677
27.92668,42987
27.93480,44950
27.94293,46333
27.95105,43037
27.95918,46137
27.96730,45737
27.97542,49460
27.98355,55862
27.99167,56360
27.99980,57473
28.00792,61410
28.01603,69389
28.02417,77682
28.03228,84827
28.04042,94268
28.04853,96629
28.05665,91229
28.06478,76182
28.07290,75451
28.08102,62969
28.08915,68796
28.09727,66659
28.10540,68234
28.11352,70670
28.12163,75393
28.12977,66439
28.13788,60507
28.14602,54682
28.15413,55319
28.16225,52921
28.17038,50840
28.17850,47890
28.18662,51394
28.19475,49367
28.20287,56053
28.21100,54144
28.21912,55416
28.22723,56976
28.23537,57412
28.24348,58458
28.25162,67442
28.25973,88529
28.26785,120136
28.27598,161195
28.28410,211671
28.29223,266348
28.30035,309032
28.30847,363132
28.31660,388807
28.32472,392148
28.33283,387158
28.34097,360586
28.34908,330313
28.35722,301817
28.36533,269323
28.37345,248471
28.38158,211804
28.38970,186886
28.39783,170987
28.40595,153322
28.41407,134056
28.42220,126777
28.43032,113972
28.43845,103664
28.44657,100111
28.45468,89644
28.46282,93795
28.47093,92898
28.47905,83466
28.48718,90471
28.49530,84159
28.50343,78871
28.51155,73942
28.51967,73187
28.52780,67544
28.53592,69211
28.54405,69785
28.55217,65439
28.56028,63746
28.56842,64375
28.57653,64995
28.58465,64017
28.59278,67995
28.60090,60664
28.60903,61419
28.61715,65108
28.62527,65263
28.63340,63272
28.64152,64076
28.64965,66828
28.65777,62302
28.66588,61795
28.67402,62871
28.68213,69768
28.69027,73863
28.69838,84896
28.70650,96240
28.71463,102573
28.72275,96680
28.73087,83200
28.73900,74834
28.74712,63038
28.75525,54562
28.76337,54502
28.77148,52277
28.77962,59745
28.78773,54866
28.79587,54179
28.80398,55559
28.81210,59197
28.82023,53592
28.82835,53415
28.83648,51490
28.84460,50248
28.85272,51490
28.86085,53487
28.86897,53456
28.87708,53760
28.88522,59268
28.89333,52651
28.90147,59274
28.90958,52470
28.91770,55639
28.92583,53669
28.93395,52827
28.94208,53829
28.95020,54552
28.95832,60252
28.96645,52768
28.97457,52548
28.98268,51323
28.99082,47510
28.99893,50242
29.00707,51022
29.01518,46633
29.02330,48775
29.03143,51565
29.03955,52408
29.04768,49186
29.05580,48007
29.06392,49397
29.07205,48873
29.08017,53870
29.08830,50178
29.09642,46056
29.10453,45014
29.11267,52656
29.12078,48726
29.12890,46660
29.13703,51346
29.14515,49295
29.15328,47463
29.16140,45378
29.16952,47256
29.17765,48899
29.18577,49328
29.19390,51407
29.20202,53748
29.21013,57884
29.21827,58948
29.22638,59200
29.23450,65162
29.24263,67149
29.25075,72875
29.25888,72880
29.26700,70723
29.27512,69773
29.28325,66739
29.29137,60374
29.29950,53867
29.30762,48410
29.31573,49307
29.32387,49820
29.33198,47780
29.34012,43016
29.34823,46643
29.35635,47099
29.36448,48409
29.37260,44891
29.38072,50159
29.38885,44204
29.39697,48103
29.40510,43897
29.41322,46278
29.42133,48518
29.42947,48613
29.43758,48047
29.44572,45409
29.45383,44781
29.46195,43215
29.47008,43521
29.47820,46177
29.48633,49247
29.49445,45949
29.50257,47357
29.51070,47527
29.51882,46268
29.52693,46291
29.53507,43744
29.54318,45228
29.55132,47167
29.55943,43742
29.56755,49541
29.57568,47933
29.58380,52258
29.59193,52865
29.60005,56222
29.60817,55171
29.61630,56567
29.62442,48793
29.63253,46637
29.64067,46678
29.64878,49323
29.65692,42333
29.66503,42750
29.67315,43268
29.68128,45310
29.68940,46537
29.69753,45546
29.70565,50610
29.71377,48598
29.72190,44458
29.73002,45374
29.73815,44219
29.74627,44633
29.75438,45791
29.76252,39828
29.77063,41979
29.77875,44070
29.78688,42934
29.79500,43688
29.80313,43755
29.81125,42274
29.81937,43129
29.82750,41845
29.83562,41886
29.84375,39799
29.85187,40259
29.85998,45983
29.86812,48063
29.87623,57689
29.88437,69295
29.89248,84618
29.90060,101790
29.90873,112213
29.91685,132022
29.92497,141331
29.93310,158792
29.94122,158191
29.94935,171459
29.95747,172795
29.96558,175156
29.97372,175751
29.98183,167264
29.98997,164015
29.99808,151159
30.00620,147447
30.01433,139216
30.02245,130860
30.03057,120102
30.03870,112195
30.04682,109617
30.05495,100462
30.06307,96002
30.07118,93906
30.07932,85075
30.08743,81829
30.09557,81666
30.10368,74288
30.11180,73907
30.11993,68291
30.12805,71758
30.13618,71814
30.14430,67689
30.15242,65784
30.16055,65331
30.16867,62879
30.17678,64448
30.18492,65956
30.19303,66142
30.20117,64941
30.20928,58570
30.21740,64149
30.22553,55744
30.23365,61068
30.24178,56828
30.24990,52467
30.25802,51334
30.26615,50664
30.27427,51244
30.28238,53356
30.29052,50498
30.29863,51387
30.30677,51242
30.31488,52194
30.32300,48762
30.33113,53991
30.33925,56399
30.34738,50627
30.35550,49942
30.36362,48843
30.37175,52642
30.37987,49655
30.38800,46573
30.39612,47514
30.40423,51266
30.41237,45050
30.42048,45172
30.42860,49305
30.43673,50003
30.44485,46400
30.45298,45610
30.46110,43731
30.46922,46067
30.47735,45109
30.48547,46923
30.49360,50461
30.50172,47409
30.50983,45273
30.51797,45087
30.52608,46228
30.53422,44682
30.54233,42119
30.55045,42900
30.55858,47147
30.56670,47185
30.57482,47116
30.58295,46024
30.59107,47780
30.59920,44102
30.60732,47409
30.61543,48634
30.62357,45100
30.63168,49442
30.63982,45913
30.64793,45452
30.65605,42780
30.66418,48144
30.67230,44839
30.68043,43767
30.68855,42602
30.69667,43528
30.70480,46881
30.71292,46269
30.72103,44401
30.72917,43847
30.73728,46142
30.74542,48982
30.75353,44943
30.76165,46859
30.76978,48850
30.77790,54512
30.78603,58624
30.79415,64130
30.80227,68083
30.81040,71246
30.81852,63492
30.82663,61703
30.83477,57446
30.84288,52589
30.85102,48958
30.85913,49623
30.86725,51922
30.87538,53045
30.88350,50076
30.89163,50518
30.89975,47762
30.90787,43738
30.91600,47495
30.92412,42838
30.93225,43150
30.94037,44013
30.94848,43350
30.95662,42020
30.96473,43635
30.97285,47969
30.98098,41585
30.98910,41686
30.99723,43486
31.00535,42299
31.01347,40991
31.02160,48918
31.02972,43345
31.03785,46698
31.04597,45502
31.05408,41372
31.06222,42598
31.07033,45232
31.07845,50617
31.08658,54524
31.09470,57984
31.10283,59206
31.11095,60833
31.11907,52457
31.12720,51626
31.13532,52863
31.14345,49599
31.15157,54604
31.15968,61030
31.16782,71309
31.17593,93888
31.18407,129238
31.19218,174299
31.20030,203172
31.20843,242897
31.21655,243417
31.22467,223610
31.23280,183106
31.24092,138991
31.24905,100204
31.25717,80371
31.26528,62878
31.27342,53984
31.28153,52409
31.28967,51657
31.29778,49526
31.30590,52366
31.31403,47895
31.32215,51411
31.33028,51169
31.33840,49038
31.34652,46222
31.35465,50312
31.36277,52290
31.37088,50791
31.37902,48097
31.38713,45569
31.39527,51909
31.40338,42821
31.41150,49882
31.41963,50107
31.42775,45724
31.43588,49427
31.44400,50419
31.45212,44615
31.46025,48112
31.46837,47016
31.47648,44662
31.48462,47034
31.49273,46909
31.50087,47135
31.50898,46751
31.51710,51007
31.52523,47860
31.53335,49571
31.54148,42485
31.54960,49253
31.55772,45854
31.56585,50499
31.57397,45669
31.58210,41532
31.59022,46747
31.59833,46228
31.60647,44299
31.61458,44101
31.62270,47278
31.63083,43520
31.63895,47320
31.64708,47382
31.65520,46442
31.66332,45888
31.67145,55808
31.67957,55843
31.68770,52456
31.69582,55294
31.70393,58960
31.71207,57555
31.72018,53044
31.72832,46272
31.73643,51414
31.74455,47349
31.75268,48690
31.76080,43436
31.76892,41089
31.77705,43660
31.78517,47012
31.79330,48515
31.80142,50895
31.80953,51472
31.81767,54410
31.82578,60364
31.83392,62392
31.84203,69453
31.85015,77824
31.85828,91263
31.86640,98230
31.87452,112051
31.88265,118110
31.89077,120754
31.89890,122374
31.90702,118705
31.91513,119816
31.92327,116107
31.93138,106940
31.93952,99965
31.94763,97935
31.95575,94592
31.96388,87512
31.97200,81338
31.98013,80488
31.98825,79511
31.99637,75108
32.00450,76741
32.01262,75218
32.02073,75562
32.02887,67427
32.03698,63056
32.04512,68213
32.05323,59740
32.06135,54946
32.06948,57039
32.07760,55828
32.08573,55161
32.09385,59177
32.10197,54724
32.11010,61158
32.11822,52700
32.12633,53650
32.13447,48495
32.14258,45631
32.15072,51089
32.15883,50500
32.16695,50933
32.17508,55736
32.18320,50781
32.19133,50364
32.19945,50049
32.20757,51201
32.21570,50298
32.22382,48858
32.23195,50721
32.24007,49735
32.24818,51248
32.25632,52920
32.26443,50329
32.27255,47043
32.28068,47504
32.28880,46646
32.29693,46026
32.30505,51774
32.31317,50708
32.32130,50706
32.32942,52168
32.33755,49810
32.34567,48496
32.35378,55946
32.36192,51672
32.37003,51121
32.37817,53499
32.38628,50767
32.39440,52479
32.40253,48536
32.41065,49145
32.41877,46119
32.42690,47548
32.43502,45233
32.44315,52027
32.45127,48437
32.45938,46331
32.46752,48477
32.47563,45859
32.48377,47485
32.49188,45216
32.50000,45816
32.50813,47541
32.51625,46253
32.52437,45272
32.53250,45889
32.54062,47886
32.54875,45197
32.55687,48932
32.56498,50960
32.57312,56798
32.58123,58012
32.58937,64931
32.59748,73123
32.60560,77319
32.61373,76510
32.62185,66117
32.62998,62701
32.63810,54640
32.64622,48974
32.65435,49867
32.66247,47568
32.67058,46886
32.67872,51791
32.68683,52659
32.69497,48134
32.70308,49845
32.71120,45547
32.71933,49695
32.72745,52675
32.73558,48708
32.74370,48241
32.75182,44668
32.75995,49065
32.76807,48364
32.77620,51781
32.78432,46618
32.79243,49208
32.80057,45061
32.80868,50295
32.81680,46199
32.82493,45122
32.83305,50488
32.84118,50492
32.84930,46550
32.85742,48486
32.86555,51409
32.87367,51002
32.88180,56893
32.88992,61804
32.89803,61176
32.90617,62907
32.91428,64168
32.92240,57887
32.93053,53127
32.93865,55314
32.94678,49011
32.95490,49584
32.96302,50386
32.97115,55146
32.97927,57157
32.98740,58845
32.99552,58893
33.00363,59759
33.01177,59307
33.01988,56803
33.02802,53403
33.03613,52479
33.04425,49029
33.05238,53319
33.06050,52670
33.06862,55753
33.07675,56518
33.08487,54212
33.09300,61891
33.10112,66022
33.10923,62743
33.11737,67625
33.12548,69885
33.13362,61477
33.14173,61068
33.14985,53006
33.15798,56197
33.16610,54908
33.17423,52553
33.18235,51060
33.19047,49053
33.19860,49935
33.20672,50162
33.21483,51923
33.22297,47366
33.23108,51512
33.23922,49628
33.24733,47715
33.25545,49371
33.26358,49508
33.27170,52560
33.27983,50354
33.28795,52115
33.29607,50270
33.30420,48332
33.31232,52006
33.32043,45274
33.32857,50669
33.33668,47891
33.34482,51012
33.35293,49412
33.36105,48343
33.36918,50341
33.37730,52604
33.38543,51821
33.39355,53470
33.40167,46635
33.40980,46337
33.41792,50538
33.42605,49964
33.43417,51428
33.44228,48802
33.45042,47272
33.45853,47130
33.46665,48208
33.47478,48081
33.48290,52334
33.49103,50865
33.49915,48824
33.50727,46869
33.51540,50807
33.52352,49147
33.53165,50109
33.53977,51514
33.54788,51647
33.55602,54399
33.56413,54005
33.57225,46799
33.58038,51289
33.58850,49652
33.59663,49117
33.60475,49889
33.61287,49369
33.62100,51410
33.62912,53169
33.63725,52472
33.64537,51438
33.65348,52625
33.66162,52461
33.66973,57512
33.67787,52400
33.68598,57900
33.69410,56029
33.70223,52297
33.71035,55886
33.71847,59132
33.72660,57565
33.73472,55087
33.74285,57938
33.75097,53248
33.75908,58354
33.76722,62412
33.77533,58136
33.78347,60505
33.79158,57792
33.79970,59115
33.80783,60649
33.81595,59341
33.82408,57442
33.83220,61345
33.84032,61787
33.84845,60636
33.85657,64302
33.86468,62938
33.87282,63265
33.88093,65970
33.88907,61531
33.89718,66396
33.90530,67367
33.91343,69880
33.92155,72446
33.92968,65230
33.93780,65558
33.94592,66618
33.95405,68341
33.96217,61194
33.97028,64262
33.97842,62681
33.98653,64037
33.99467,59838
34.00278,58991
34.01090,57396
34.01903,57320
34.02715,63568
34.03528,56885
34.04340,54641
34.05152,54317
34.05965,52272
34.06777,53728
34.07590,50847
34.08402,57797
34.09213,57631
34.10027,57200
34.10838,52853
34.11650,55509
34.12463,52410
34.13275,53088
34.14088,53135
34.14900,56397
34.15712,54025
34.16525,55137
34.17337,54921
34.18150,52697
34.18962,52624
34.19773,53158
34.20587,56878
34.21398,51755
34.22212,51579
34.23023,57201
34.23835,57299
34.24648,51726
34.25460,54368
34.26272,53674
34.27085,57174
34.27897,58321
34.28710,53709
34.29522,54430
34.30333,53040
34.31147,54202
34.31958,55765
34.32772,57769
34.33583,58518
34.34395,54022
34.35208,56287
34.36020,53831
34.36832,60427
34.37645,56556
34.38457,56576
34.39270,55534
34.40082,56792
34.40893,55048
34.41707,59123
34.42518,60514
34.43332,58993
34.44143,68507
34.44955,72410
34.45768,93820
34.46580,110204
34.47393,116868
34.48205,136078
34.49017,138397
34.49830,132710
34.50642,134130
34.51453,129855
34.52267,123061
34.53078,114558
34.53892,107831
34.54703,106898
34.55515,106919
34.56328,95225
34.57140,83230
34.57953,89875
34.58765,89573
34.59577,93454
34.60390,89539
34.61202,89969
34.62013,84429
34.62827,84644
34.63638,84305
34.64452,88032
34.65263,79485
34.66075,78364
34.66888,81501
34.67700,74692
34.68513,71944
34.69325,76517
34.70137,72052
34.70950,73638
34.71762,74610
34.72575,68480
34.73387,69664
34.74198,65582
34.75012,73427
34.75823,66335
34.76635,66735
34.77448,66481
34.78260,68004
34.79073,65215
34.79885,64499
34.80697,65099
34.81510,61328
34.82322,62053
34.83135,60605
34.83947,64819
34.84758,62363
34.85572,62133
34.86383,55914
34.87197,62955
34.88008,62026
34.88820,64995
34.89633,64008
34.90445,61741
34.91257,61000
34.92070,65072
34.92882,63914
34.93695,65522
34.94507,66808
34.95318,63919
34.96132,64465
34.96943,65849
34.97757,62945
34.98568,60279
34.99380,61536
35.00193,61692
35.01005,60121
35.01818,57115
35.02630,59438
35.03442,60666
35.04255,59566
35.05067,58750
35.05878,58906
35.06692,57895
35.07503,61944
35.08317,64960
35.09128,60624
35.09940,60665
35.10753,60499
35.11565,59890
35.12378,61263
35.13190,65541
35.14002,61707
35.14815,62148
35.15627,60895
35.16438,56713
35.17252,66313
35.18063,61794
35.18877,58600
35.19688,61062
35.20500,59605
35.21313,59497
35.22125,60578
35.22938,60715
35.23750,59091
35.24562,58225
35.25375,57003
35.26187,60252
35.27000,63194
35.27812,64585
35.28623,64317
35.29437,60579
35.30248,61719
35.31060,58604
35.31873,60400
35.32685,58782
35.33498,62693
35.34310,56043
35.35122,59360
35.35935,61133
35.36747,62610
35.37560,65316
35.38372,70022
35.39183,76332
35.39997,81432
35.40808,86570
35.41620,90996
35.42433,90775
35.43245,84440
35.44058,83530
35.44870,79680
35.45682,80848
35.46495,74633
35.47307,70291
35.48120,71427
35.48932,68586
35.49743,71637
35.50557,70125
35.51368,67065
35.52182,69082
35.52993,65564
35.53805,63222
35.54618,65126
35.55430,66150
35.56242,63886
35.57055,63105
35.57867,66828
35.58680,63436
35.59492,64659
35.60303,68149
35.61117,65761
35.61928,71129
35.62742,64144
35.63553,62043
35.64365,65711
35.65178,67408
35.65990,62049
35.66803,64867
35.67615,65087
35.68427,61618
35.69240,61300
35.70052,65668
35.70863,64153
35.71677,68733
35.72488,68204
35.73302,62102
35.74113,66745
35.74925,70632
35.75738,70033
35.76550,68600
35.77363,72187
35.78175,67436
35.78987,66430
35.79800,67429
35.80612,66607
35.81423,68244
35.82237,69787
35.83048,65767
35.83862,64932
35.84673,71377
35.85485,64592
35.86298,68808
35.87110,65743
35.87923,66067
35.88735,69344
35.89547,70869
35.90360,68465
35.91172,68806
35.91985,66875
35.92797,69650
35.93608,67735
35.94422,69903
35.95233,66551
35.96045,60180
35.96858,64894
35.97670,71613
35.98483,64449
35.99295,68337
36.00107,69425
36.00920,68735
36.01732,68450
36.02545,74842
36.03357,71357
36.04168,69291
36.04982,73754
36.05793,74845
36.06607,70496
36.07418,70434
36.08230,70405
36.09043,66871
36.09855,72639
36.10667,63925
36.11480,70647
36.12292,69184
36.13105,70788
36.13917,69828
36.14728,61936
36.15542,66757
36.16353,71297
36.17167,69095
36.17978,68511
36.18790,68397
36.19603,66017
36.20415,65536
36.21227,72716
36.22040,78574
36.22852,82553
36.23665,92895
36.24477,104354
36.25288,100408
36.26102,98714
36.26913,90106
36.27727,82315
36.28538,74381
36.29350,66532
36.30163,72000
36.30975,69637
36.31788,71688
36.32600,70407
36.33412,67596
36.34225,71536
36.35037,72394
36.35848,70361
36.36662,72188
36.37473,71408
36.38287,77408
36.39098,74248
36.39910,72318
36.40723,76623
36.41535,74782
36.42348,70777
36.43160,70350
36.43972,68279
36.44785,71507
36.45597,70711
36.46408,69601
36.47222,71539
36.48033,74142
36.48847,68173
36.49658,68405
36.50470,69281
36.51283,69024
36.52095,67961
36.52908,67518
36.53720,67715
36.54532,69867
36.55345,67284
36.56157,69809
36.56970,73987
36.57782,68279
36.58593,70779
36.59407,74589
36.60218,71137
36.61030,74627
36.61843,74874
36.62655,67953
36.63468,71675
36.64280,70155
36.65092,73550
36.65905,70947
36.66717,68400
36.67530,68047
36.68342,73597
36.69153,66545
36.69967,71023
36.70778,71344
36.71592,68310
36.72403,73745
36.73215,67065
36.74028,70363
36.74840,65247
36.75652,68836
36.76465,69769
36.77277,68425
36.78090,66050
36.78902,74484
36.79713,70604
36.80527,69232
36.81338,71334
36.82152,72976
36.82963,70352
36.83775,69148
36.84588,70275
36.85400,72770
36.86212,74587
36.87025,72059
36.87837,75227
36.88650,73753
36.89462,71312
36.90273,74520
36.91087,71077
36.91898,70262
36.92712,76646
36.93523,74531
36.94335,79490
36.95148,75659
36.95960,78843
36.96773,80734
36.97585,79782
36.98397,81596
36.99210,83085
37.00022,87585
37.00833,91957
37.01647,94820
37.02458,98074
37.03272,98735
37.04083,98486
37.04895,89037
37.05708,83211
37.06520,85855
37.07333,76275
37.08145,77105
37.08957,81920
37.09770,75459
37.10582,71545
37.11395,79364
37.12207,78560
37.13018,75059
37.13832,74684
37.14643,76650
37.15455,71786
37.16268,74131
37.17080,72983
37.17893,80033
37.18705,73783
37.19517,77018
37.20330,73421
37.21142,75965
37.21955,79578
37.22767,80509
37.23578,82963
37.24392,83935
37.25203,97103
37.26015,108056
37.26828,120699
37.27640,139216
37.28453,151026
37.29265,153255
37.30077,142888
37.30890,138722
37.31702,121626
37.32515,113770
37.33327,104074
37.34138,101217
37.34952,99409
37.35763,103269
37.36577,99608
37.37388,93360
37.38200,92736
37.39013,88684
37.39825,87854
37.40637,88638
37.41450,93274
37.42262,90119
37.43075,88754
37.43887,85975
37.44698,86423
37.45512,90231
37.46323,80750
37.47137,80686
37.47948,87261
37.48760,89058
