Z:\data\JTB-E02\BACandBLUE\JTB-E18-006-13.D Thu Apr 11 15:56:52 2019
Start of data points
2.09517	62225
2.10328	65649
2.11142	66253
2.11953	67938
2.12767	68660
2.13578	66996
2.14390	70218
2.15203	62360
2.16015	62299
2.16827	68246
2.17640	65113
2.18452	63412
2.19265	60903
2.20077	61920
2.20888	59776
2.21702	57103
2.22513	59002
2.23327	62092
2.24138	59730
2.24950	58436
2.25763	53003
2.26575	104566
2.27388	1060630
2.28200	3306794
2.29012	2295968
2.29825	1023251
2.30637	682800
2.31448	532975
2.32262	456431
2.33073	389778
2.33887	357649
2.34698	320409
2.35510	269209
2.36323	252774
2.37135	230974
2.37948	217727
2.38760	202959
2.39572	197491
2.40385	194506
2.41197	182143
2.42010	181979
2.42822	177855
2.43633	168671
2.44447	164210
2.45258	164612
2.46070	157071
2.46883	150088
2.47695	146339
2.48508	142567
2.49320	157669
2.50132	157243
2.50945	147950
2.51757	147140
2.52570	142441
2.53382	142605
2.54193	130511
2.55007	146591
2.55818	280322
2.56630	509230
2.57443	423720
2.58255	295571
2.59068	235415
2.59880	200130
2.60692	209371
2.61505	263097
2.62317	266691
2.63130	223348
2.63942	194939
2.64753	182289
2.65567	171236
2.66378	164435
2.67192	148657
2.68003	145272
2.68815	138545
2.69628	140619
2.70440	132205
2.71252	131500
2.72065	127606
2.72877	127428
2.73690	126972
2.74502	126037
2.75313	124755
2.76127	112096
2.76938	118168
2.77752	121370
2.78563	146397
2.79375	174231
2.80188	153440
2.81000	143188
2.81812	136187
2.82625	136420
2.83437	130937
2.84250	122599
2.85062	125782
2.85873	118319
2.86687	118522
2.87498	120314
2.88312	107796
2.89123	108996
2.89935	109693
2.90748	114318
2.91560	105617
2.92373	104323
2.93185	106140
2.93997	104856
2.94810	105219
2.95622	104052
2.96433	104155
2.97247	107651
2.98058	107955
2.98872	103509
2.99683	103890
3.00495	107623
3.01308	110048
3.02120	112103
3.02933	105820
3.03745	102404
3.04557	102367
3.05370	104152
3.06182	118482
3.06995	131137
3.07807	121552
3.08618	126321
3.09432	148061
3.10243	171688
3.11055	240168
3.11868	262390
3.12680	213436
3.13493	193248
3.14305	171273
3.15117	159519
3.15930	155608
3.16742	159182
3.17555	166923
3.18367	231453
3.19178	505182
3.19992	857179
3.20803	730064
3.21615	524374
3.22428	423027
3.23240	368646
3.24053	324601
3.24865	281490
3.25677	260700
3.26490	239340
3.27302	221074
3.28115	216559
3.28927	263902
3.29738	603400
3.30552	1715430
3.31363	3301704
3.32177	4298582
3.32988	4244376
3.33800	3673923
3.34613	3205860
3.35425	2779004
3.36237	2432537
3.37050	2162768
3.37862	1959270
3.38675	1755517
3.39487	1624562
3.40298	1512368
3.41112	1394103
3.41923	1317317
3.42737	1243282
3.43548	1167243
3.44360	1076099
3.45173	1004521
3.45985	962482
3.46798	910598
3.47610	863815
3.48422	841012
3.49235	796910
3.50047	748969
3.50858	731175
3.51672	709510
3.52483	690153
3.53297	693915
3.54108	668921
3.54920	642067
3.55733	610726
3.56545	590163
3.57358	565759
3.58170	553313
3.58982	549614
3.59795	507737
3.60607	487292
3.61418	484954
3.62232	471033
3.63043	474673
3.63857	468470
3.64668	461283
3.65480	456233
3.66293	596243
3.67105	1723286
3.67918	4646345
3.68730	6828332
3.69542	5763260
3.70355	3930597
3.71167	2821784
3.71980	2298355
3.72792	1972989
3.73603	1752279
3.74417	1550741
3.75228	1399135
3.76040	1301509
3.76853	1203771
3.77665	1132246
3.78478	1059601
3.79290	1002508
3.80102	956962
3.80915	898747
3.81727	874229
3.82540	833002
3.83352	789110
3.84163	773811
3.84977	733038
3.85788	706645
3.86600	672435
3.87413	649322
3.88225	615712
3.89038	619289
3.89850	577305
3.90662	565808
3.91475	571793
3.92287	595251
3.93100	638449
3.93912	644040
3.94723	622487
3.95537	586382
3.96348	577240
3.97162	614352
3.97973	587342
3.98785	544638
3.99598	507087
4.00410	501910
4.01222	558459
4.02035	645522
4.02847	628447
4.03660	574170
4.04472	498962
4.05283	470163
4.06097	438389
4.06908	417840
4.07722	404168
4.08533	400495
4.09345	395627
4.10158	375508
4.10970	379355
4.11783	371005
4.12595	414307
4.13407	800841
4.14220	2165958
4.15032	4314715
4.15843	5572378
4.16657	4924991
4.17468	3476540
4.18282	2294682
4.19093	1580935
4.19905	1200324
4.20718	1370048
4.21530	3562613
4.22343	1.015296E+07
4.23155	1.909613E+07
4.23967	2.620822E+07
4.24780	3.065822E+07
4.25592	3.312021E+07
4.26405	3.080286E+07
4.27217	2.054641E+07
4.28028	1.255664E+07
4.28842	8853391
4.29653	6616248
4.30465	5136813
4.31278	4108815
4.32090	3333125
4.32903	2831078
4.33715	2427169
4.34527	2111635
4.35340	1869485
4.36152	1674800
4.36965	1502399
4.37777	1403875
4.38588	1269481
4.39402	1178612
4.40213	1065995
4.41025	989422
4.41838	914408
4.42650	873326
4.43463	806946
4.44275	763833
4.45087	731261
4.45900	714868
4.46712	726261
4.47525	940132
4.48337	1617253
4.49148	2487935
4.49962	2752822
4.50773	2270722
4.51587	1754698
4.52398	1395991
4.53210	1199465
4.54023	1080208
4.54835	1019814
4.55647	968541
4.56460	900375
4.57272	859311
4.58085	809731
4.58897	784660
4.59708	759718
4.60522	724500
4.61333	715236
4.62147	684129
4.62958	692025
4.63770	744918
4.64583	789970
4.65395	809764
4.66207	766847
4.67020	697331
4.67832	672309
4.68645	640087
4.69457	621345
4.70268	588857
4.71082	578701
4.71893	560347
4.72707	552678
4.73518	526138
4.74330	524888
4.75143	515334
4.75955	512078
4.76768	493416
4.77580	483279
4.78392	485672
4.79205	481147
4.80017	472926
4.80828	481878
4.81642	477254
4.82453	470587
4.83267	473940
4.84078	471339
4.84890	473969
4.85703	460097
4.86515	462794
4.87328	445413
4.88140	448798
4.88952	445814
4.89765	432687
4.90577	426400
4.91390	434800
4.92202	426446
4.93013	437711
4.93827	485225
4.94638	704027
4.95450	1237477
4.96263	2062456
4.97075	2765457
4.97888	3019230
4.98700	2798436
4.99512	2367898
5.00325	1993377
5.01137	1715078
5.01950	1523964
5.02762	1399510
5.03573	1333106
5.04387	1294379
5.05198	1250189
5.06010	1177222
5.06823	1089240
5.07635	1010854
5.08448	966304
5.09260	915654
5.10072	884791
5.10885	842646
5.11697	817051
5.12510	804596
5.13322	754373
5.14133	747705
5.14947	714818
5.15758	697111
5.16572	733102
5.17383	720376
5.18195	714696
5.19008	687294
5.19820	684986
5.20632	676394
5.21445	666200
5.22257	655409
5.23070	646492
5.23882	629474
5.24693	611628
5.25507	590659
5.26318	570107
5.27132	548355
5.27943	537796
5.28755	523646
5.29568	506342
5.30380	487787
5.31193	488364
5.32005	478171
5.32817	476914
5.33630	473053
5.34442	451040
5.35253	454944
5.36067	447456
5.36878	449122
5.37692	441885
5.38503	450264
5.39315	449822
5.40128	455433
5.40940	451594
5.41753	450012
5.42565	437885
5.43377	447208
5.44190	502121
5.45002	683828
5.45813	937218
5.46627	1139520
5.47438	1125301
5.48252	936667
5.49063	733738
5.49875	601100
5.50688	527910
5.51500	485935
5.52313	467378
5.53125	442202
5.53937	437142
5.54750	437079
5.55562	426697
5.56375	430863
5.57187	443076
5.57998	464899
5.58812	466812
5.59623	441566
5.60435	428691
5.61248	402405
5.62060	401659
5.62873	390145
5.63685	383887
5.64497	390154
5.65310	382883
5.66122	375879
5.66935	401867
5.67747	498514
5.68558	714008
5.69372	1008895
5.70183	1208312
5.70995	1116953
5.71808	917541
5.72620	737398
5.73433	626838
5.74245	546455
5.75057	495488
5.75870	459441
5.76682	432528
5.77495	424527
5.78307	418506
5.79118	399903
5.79932	417719
5.80743	457731
5.81557	509933
5.82368	544297
5.83180	527235
5.83993	505364
5.84805	475720
5.85617	457289
5.86430	429676
5.87242	417618
5.88055	396074
5.88867	374335
5.89678	371738
5.90492	358824
5.91303	342247
5.92117	319940
5.92928	311402
5.93740	318806
5.94553	312425
5.95365	320338
5.96178	332893
5.96990	338307
5.97802	354786
5.98615	372985
5.99427	384544
6.00238	404596
6.01052	363059
6.01863	336031
6.02677	318813
6.03488	311584
6.04300	297330
6.05113	270218
6.05925	266483
6.06738	263846
6.07550	255099
6.08362	251351
6.09175	243415
6.09987	249827
6.10798	244417
6.11612	241133
6.12423	246003
6.13237	273916
6.14048	318981
6.14860	388067
6.15673	441866
6.16485	455301
6.17298	428366
6.18110	391910
6.18922	362315
6.19735	351972
6.20547	316398
6.21360	298660
6.22172	285958
6.22983	286118
6.23797	280512
6.24608	275866
6.25420	278255
6.26233	276760
6.27045	272015
6.27858	276689
6.28670	283575
6.29482	273078
6.30295	316089
6.31107	366299
6.31920	414540
6.32732	408263
6.33543	370258
6.34357	320513
6.35168	294964
6.35982	282621
6.36793	271428
6.37605	269455
6.38418	267037
6.39230	268797
6.40042	260194
6.40855	254821
6.41667	257688
6.42480	250510
6.43292	248815
6.44103	249402
6.44917	251507
6.45728	249969
6.46542	250705
6.47353	243165
6.48165	247675
6.48978	251631
6.49790	251064
6.50602	254362
6.51415	243977
6.52227	246171
6.53040	245641
6.53852	236729
6.54663	247009
6.55477	233255
6.56288	237004
6.57102	251381
6.57913	260214
6.58725	297530
6.59538	284584
6.60350	272743
6.61163	251081
6.61975	243460
6.62787	233432
6.63600	249952
6.64412	281206
6.65223	415352
6.66037	683447
6.66848	1016592
6.67662	1139849
6.68473	1011619
6.69285	724337
6.70098	532743
6.70910	426093
6.71723	416747
6.72535	374898
6.73347	355165
6.74160	333594
6.74972	318625
6.75785	302425
6.76597	286808
6.77408	263092
6.78222	260628
6.79033	265126
6.79845	257904
6.80658	264358
6.81470	289097
6.82283	308432
6.83095	316011
6.83907	309639
6.84720	298498
6.85532	259035
6.86345	230576
6.87157	204769
6.87968	181949
6.88782	173969
6.89593	161101
6.90405	159101
6.91218	149053
6.92030	148959
6.92843	140617
6.93655	137229
6.94467	131390
6.95280	139379
6.96092	147280
6.96905	169234
6.97717	184759
6.98528	180469
6.99342	183604
7.00153	169031
7.00967	164496
7.01778	154559
7.02590	150194
7.03403	144048
7.04215	150288
7.05027	144939
7.05840	145617
7.06652	152744
7.07465	154871
7.08277	151881
7.09088	155294
7.09902	144627
7.10713	144919
7.11527	136627
7.12338	141224
7.13150	130914
7.13963	137847
7.14775	137668
7.15587	149480
7.16400	158873
7.17212	168477
7.18025	166484
7.18837	168964
7.19648	189807
7.20462	347633
7.21273	899124
7.22087	2025776
7.22898	3512689
7.23710	4340756
7.24523	3954360
7.25335	2786178
7.26148	1694138
7.26960	1013303
7.27772	604374
7.28585	356715
7.29397	225274
7.30208	184082
7.31022	164495
7.31833	164367
7.32647	173851
7.33458	169786
7.34270	170054
7.35083	165492
7.35895	163468
7.36708	162432
7.37520	154015
7.38332	149490
7.39145	141684
7.39957	143473
7.40770	137605
7.41582	139047
7.42393	140218
7.43207	136697
7.44018	139837
7.44830	137664
7.45643	138183
7.46455	136603
7.47268	129971
7.48080	132370
7.48892	125033
7.49705	124811
7.50517	125795
7.51330	125950
7.52142	130913
7.52953	155405
7.53767	205417
7.54578	295031
7.55390	422091
7.56203	573881
7.57015	671999
7.57828	659691
7.58640	603558
7.59452	506587
7.60265	401024
7.61077	326549
7.61890	262319
7.62702	220722
7.63513	189399
7.64327	166873
7.65138	151369
7.65952	141792
7.66763	134009
7.67575	126209
7.68388	128194
7.69200	120875
7.70012	123768
7.70825	126307
7.71637	128702
7.72450	118977
7.73262	123579
7.74073	118135
7.74887	118741
7.75698	120848
7.76512	125939
7.77323	131596
7.78135	127866
7.78948	129006
7.79760	123808
7.80573	131600
7.81385	136989
7.82197	156710
7.83010	217163
7.83822	378662
7.84633	753622
7.85447	1417803
7.86258	2288844
7.87072	3553963
7.87883	5438736
7.88695	7866854
7.89508	9715271
7.90320	1.02642E+07
7.91133	9009130
7.91945	6856439
7.92757	4632233
7.93570	3091063
7.94382	2146710
7.95193	1576686
7.96007	1210161
7.96818	931732
7.97632	726019
7.98443	591065
7.99255	507729
8.00068	464512
8.00880	502398
8.01693	611261
8.02505	711523
8.03317	825509
8.04130	844215
8.04942	821461
8.05755	792238
8.06567	770123
8.07378	707612
8.08192	672399
8.09003	652232
8.09815	611631
8.10628	588256
8.11440	560280
8.12253	540022
8.13065	514714
8.13877	498068
8.14690	485412
8.15502	473124
8.16315	456787
8.17127	437466
8.17938	425667
8.18752	410919
8.19563	394764
8.20375	394840
8.21188	372025
8.22000	365697
8.22813	359804
8.23625	347799
8.24437	351480
8.25250	334620
8.26062	336743
8.26875	317366
8.27687	303468
8.28498	300629
8.29312	306266
8.30123	288358
8.30937	286251
8.31748	285670
8.32560	273560
8.33373	273976
8.34185	263042
8.34997	254090
8.35810	256086
8.36622	248937
8.37435	253914
8.38247	237751
8.39058	236760
8.39872	230741
8.40683	223639
8.41497	226955
8.42308	218034
8.43120	212665
8.43933	213742
8.44745	205452
8.45558	209457
8.46370	202555
8.47182	200943
8.47995	206021
8.48807	203345
8.49618	205043
8.50432	201254
8.51243	261373
8.52057	500451
8.52868	1284724
8.53680	2892046
8.54493	5075964
8.55305	7034286
8.56118	7277115
8.56930	5661470
8.57742	3515499
8.58555	1878343
8.59367	1040743
8.60178	739938
8.60992	585705
8.61803	537380
8.62617	492765
8.63428	476768
8.64240	443287
8.65053	399081
8.65865	380571
8.66678	360451
8.67490	350683
8.68302	330188
8.69115	319694
8.69927	307050
8.70740	299855
8.71552	287305
8.72363	278015
8.73177	269107
8.73988	255605
8.74800	256545
8.75613	257729
8.76425	303912
8.77238	386619
8.78050	541214
8.78862	771323
8.79675	930094
8.80487	961506
8.81300	851629
8.82112	725840
8.82923	585836
8.83737	528307
8.84548	500464
8.85362	500914
8.86173	506013
8.86985	481487
8.87798	460109
8.88610	436449
8.89422	426735
8.90235	414565
8.91047	397673
8.91860	372195
8.92672	382877
8.93483	382231
8.94297	382289
8.95108	381302
8.95922	390814
8.96733	365855
8.97545	343465
8.98358	327872
8.99170	314559
8.99982	306909
9.00795	289448
9.01607	280323
9.02420	287279
9.03232	268456
9.04043	264214
9.04857	266900
9.05668	255621
9.06482	256890
9.07293	255938
9.08105	253689
9.08918	239169
9.09730	245821
9.10543	242793
9.11355	249264
9.12167	249051
9.12980	253307
9.13792	254296
9.14603	257416
9.15417	270438
9.16228	264034
9.17042	266092
9.17853	249117
9.18665	242101
9.19478	235934
9.20290	236117
9.21103	226127
9.21915	224997
9.22727	207819
9.23540	208691
9.24352	205714
9.25163	192072
9.25977	192885
9.26788	180707
9.27602	180814
9.28413	185501
9.29225	184686
9.30038	192563
9.30850	181806
9.31663	168716
9.32475	163676
9.33287	158772
9.34100	157029
9.34912	158109
9.35725	150419
9.36537	149018
9.37348	149606
9.38162	153959
9.38973	152183
9.39785	151878
9.40598	153578
9.41410	162003
9.42223	160752
9.43035	185605
9.43847	201609
9.44660	232897
9.45472	250885
9.46285	265584
9.47097	240549
9.47908	228274
9.48722	195994
9.49533	170501
9.50347	160847
9.51158	159746
9.51970	150225
9.52783	155523
9.53595	156728
9.54407	152546
9.55220	156061
9.56032	140066
9.56845	122971
9.57657	115926
9.58468	113846
9.59282	110100
9.60093	111337
9.60907	112225
9.61718	109433
9.62530	108369
9.63343	104642
9.64155	98530
9.64968	92518
9.65780	93306
9.66592	91337
9.67405	90969
9.68217	91889
9.69028	89394
9.69842	86277
9.70653	88726
9.71467	87914
9.72278	85790
9.73090	83420
9.73903	85208
9.74715	88312
9.75528	82277
9.76340	87351
9.77152	82923
9.77965	87076
9.78777	87277
9.79588	78931
9.80402	80952
9.81213	77275
9.82027	83616
9.82838	80321
9.83650	81493
9.84463	84386
9.85275	91730
9.86088	93211
9.86900	94091
9.87712	105004
9.88525	100706
9.89337	92766
9.90150	86477
9.90962	89048
9.91773	93723
9.92587	92931
9.93398	93558
9.94210	107819
9.95023	100999
9.95835	107742
9.96648	117848
9.97460	115839
9.98272	108410
9.99085	117391
9.99897	120198
10.00710	116598
10.01522	123021
10.02333	132416
10.03147	130342
10.03958	125493
10.04770	121431
10.05583	117110
10.06395	115984
10.07208	118696
10.08020	117208
10.08832	120210
10.09645	114626
10.10457	114621
10.11270	103415
10.12082	100636
10.12893	105335
10.13707	104667
10.14518	95154
10.15332	95358
10.16143	90865
10.16955	94340
10.17768	94101
10.18580	92446
10.19392	92022
10.20205	84878
10.21017	88665
10.21830	85754
10.22642	87082
10.23453	89968
10.24267	96660
10.25078	114816
10.25892	182220
10.26703	454137
10.27515	1211378
10.28328	2887258
10.29140	5530535
10.29953	8640091
10.30765	1.181932E+07
10.31577	1.508509E+07
10.32390	1.897818E+07
10.33202	2.425326E+07
10.34013	3.045004E+07
10.34827	3.568882E+07
10.35638	3.792698E+07
10.36452	3.337702E+07
10.37263	2.289187E+07
10.38075	1.251281E+07
10.38888	6730387
10.39700	4489778
10.40513	3481855
10.41325	2890058
10.42137	2284412
10.42950	1838645
10.43762	1565684
10.44573	1399591
10.45387	1285782
10.46198	1211524
10.47012	1120184
10.47823	1036726
10.48635	947478
10.49448	874580
10.50260	822402
10.51073	751383
10.51885	715325
10.52697	694398
10.53510	643095
10.54322	618483
10.55135	580157
10.55947	553611
10.56758	538304
10.57572	505854
10.58383	498472
10.59195	479901
10.60008	455532
10.60820	443696
10.61633	427616
10.62445	420127
10.63257	387692
10.64070	381025
10.64882	363612
10.65695	357761
10.66507	344433
10.67318	324752
10.68132	327425
10.68943	313709
10.69757	297357
10.70568	299665
10.71380	299020
10.72193	286170
10.73005	294723
10.73817	286546
10.74630	280605
10.75442	271491
10.76255	267372
10.77067	257410
10.77878	247278
10.78692	238936
10.79503	236779
10.80317	226478
10.81128	231855
10.81940	224239
10.82753	212876
10.83565	212660
10.84377	208884
10.85190	201153
10.86002	203654
10.86815	195943
10.87627	202182
10.88438	191741
10.89252	191523
10.90063	184089
10.90877	182395
10.91688	183767
10.92500	174341
10.93313	171748
10.94125	181519
10.94938	183906
10.95750	178360
10.96562	178776
10.97375	177170
10.98187	174024
10.98998	179409
10.99812	166864
11.00623	162681
11.01437	156255
11.02248	155345
11.03060	148321
11.03873	148865
11.04685	140473
11.05498	147461
11.06310	146720
11.07122	146157
11.07935	150841
11.08747	151022
11.09558	142721
11.10372	148736
11.11183	140622
11.11997	135198
11.12808	133921
11.13620	122909
11.14433	115820
11.15245	116553
11.16058	109861
11.16870	112572
11.17682	115665
11.18495	114995
11.19307	113712
11.20120	116853
11.20932	117927
11.21743	115749
11.22557	110578
11.23368	117050
11.24180	101947
11.24993	103278
11.25805	94539
11.26618	87025
11.27430	84047
11.28242	84354
11.29055	88752
11.29867	86041
11.30680	99054
11.31492	124035
11.32303	166347
11.33117	244265
11.33928	335412
11.34742	399302
11.35553	423133
11.36365	394696
11.37178	323733
11.37990	259814
11.38802	217330
11.39615	203455
11.40427	205916
11.41240	203522
11.42052	199014
11.42863	182460
11.43677	169665
11.44488	163427
11.45302	146313
11.46113	137612
11.46925	132185
11.47738	137549
11.48550	134309
11.49362	145578
11.50175	157043
11.50987	181457
11.51800	178825
11.52612	192858
11.53423	223554
11.54237	253897
11.55048	265883
11.55862	257520
11.56673	241552
11.57485	212480
11.58298	182627
11.59110	165764
11.59923	169507
11.60735	189422
11.61547	216901
11.62360	241267
11.63172	247056
11.63983	229149
11.64797	214725
11.65608	191374
11.66422	174704
11.67233	153371
11.68045	147035
11.68858	137674
11.69670	135794
11.70483	134851
11.71295	126046
11.72107	123498
11.72920	113721
11.73732	109974
11.74545	101807
11.75357	101261
11.76168	102366
11.76982	98119
11.77793	94182
11.78605	99158
11.79418	92818
11.80230	89531
11.81043	90481
11.81855	91106
11.82667	92367
11.83480	95400
11.84292	89711
11.85105	92950
11.85917	96441
11.86728	96594
11.87542	93776
11.88353	95736
11.89165	92639
11.89978	98883
11.90790	103214
11.91603	114559
11.92415	135254
11.93227	163135
11.94040	172042
11.94852	173151
11.95665	157705
11.96477	146150
11.97288	155360
11.98102	210479
11.98913	434015
11.99727	781709
12.00538	1356789
12.01350	1905757
12.02163	2491571
12.02975	2920624
12.03787	3302308
12.04600	3651655
12.05412	3361078
12.06225	2761122
12.07037	2070621
12.07848	1569634
12.08662	1344735
12.09473	1113770
12.10287	1030055
12.11098	961667
12.11910	920838
12.12723	894254
12.13535	927586
12.14348	853581
12.15160	834057
12.15972	788722
12.16785	731664
12.17597	691175
12.18408	665441
12.19222	667679
12.20033	637762
12.20847	616127
12.21658	627565
12.22470	600097
12.23283	571627
12.24095	568531
12.24908	579598
12.25720	624156
12.26532	651355
12.27345	677794
12.28157	664446
12.28968	652834
12.29782	560582
12.30593	528353
12.31407	507268
12.32218	503641
12.33030	465262
12.33843	450935
12.34655	441055
12.35468	426499
12.36280	417744
12.37092	405445
12.37905	415884
12.38717	392066
12.39530	385502
12.40342	377527
12.41153	361449
12.41967	378019
12.42778	386442
12.43590	405376
12.44403	392711
12.45215	371654
12.46028	379239
12.46840	341339
12.47652	333490
12.48465	341603
12.49277	328366
12.50090	329928
12.50902	325162
12.51713	324548
12.52527	306895
12.53338	318539
12.54150	314208
12.54963	297479
12.55775	299233
12.56588	291521
12.57400	270259
12.58212	281284
12.59025	271684
12.59837	265864
12.60650	256116
12.61462	250739
12.62273	259229
12.63087	247001
12.63898	245432
12.64712	251124
12.65523	235294
12.66335	242513
12.67148	218638
12.67960	212917
12.68772	176624
12.69585	163506
12.70397	147430
12.71210	119913
12.72022	122100
12.72833	124017
12.73647	118628
12.74458	121171
12.75272	117157
12.76083	113052
12.76895	115483
12.77708	112300
12.78520	110086
12.79333	103282
12.80145	104846
12.80957	103204
12.81770	101435
12.82582	99336
12.83393	97414
12.84207	95314
12.85018	91242
12.85832	94472
12.86643	96084
12.87455	91074
12.88268	87172
12.89080	91359
12.89893	86183
12.90705	86560
12.91517	82044
12.92330	87294
12.93142	84413
12.93953	81871
12.94767	89334
12.95578	93079
12.96392	90496
12.97203	92648
12.98015	90107
12.98828	102538
12.99640	95044
13.00453	92624
13.01265	89542
13.02077	90837
13.02890	83538
13.03702	89184
13.04515	85913
13.05327	84150
13.06138	81646
13.06952	81063
13.07763	89991
13.08575	82889
13.09388	91040
13.10200	86103
13.11013	82629
13.11825	87058
13.12637	83057
13.13450	80930
13.14262	78345
13.15075	75782
13.15887	77386
13.16698	77415
13.17512	84411
13.18323	87676
13.19137	86431
13.19948	90130
13.20760	90940
13.21573	96241
13.22385	92434
13.23197	92888
13.24010	92873
13.24822	82805
13.25635	88016
13.26447	86964
13.27258	83424
13.28072	85739
13.28883	74709
13.29697	79281
13.30508	73977
13.31320	79043
13.32133	72596
13.32945	73361
13.33757	80362
13.34570	73458
13.35382	71589
13.36195	72183
13.37007	74420
13.37818	70130
13.38632	75899
13.39443	76817
13.40257	71445
13.41068	70360
13.41880	72359
13.42693	70907
13.43505	69573
13.44318	71218
13.45130	67198
13.45942	71264
13.46755	68966
13.47567	75389
13.48378	68730
13.49192	69838
13.50003	67572
13.50817	68733
13.51628	71448
13.52440	71601
13.53253	71510
13.54065	72145
13.54878	76390
13.55690	71739
13.56502	75998
13.57315	74349
13.58127	77424
13.58938	85164
13.59752	92036
13.60563	107764
13.61377	132070
13.62188	156197
13.63000	180692
13.63813	180491
13.64625	175342
13.65438	174235
13.66250	157828
13.67062	128476
13.67875	118377
13.68687	108544
13.69500	102384
13.70312	96324
13.71123	90809
13.71937	86301
13.72748	91925
13.73560	94983
13.74373	105792
13.75185	164369
13.75998	262325
13.76810	460862
13.77622	728736
13.78435	1073857
13.79247	1509203
13.80060	2020573
13.80872	2434859
13.81683	2599827
13.82497	2469456
13.83308	2113185
13.84122	1730100
13.84933	1317069
13.85745	1064084
13.86558	931928
13.87370	830663
13.88182	767494
13.88995	698447
13.89807	673076
13.90620	598268
13.91432	575250
13.92243	534458
13.93057	495879
13.93868	482627
13.94682	474126
13.95493	460230
13.96305	490268
13.97118	596560
13.97930	661081
13.98743	829065
13.99555	1062381
14.00367	1279226
14.01180	1366325
14.01992	1492942
14.02803	1294585
14.03617	1120633
14.04428	942666
14.05242	814614
14.06053	669834
14.06865	611962
14.07678	564938
14.08490	539982
14.09303	554359
14.10115	489855
14.10927	476696
14.11740	480691
14.12552	459454
14.13363	466738
14.14177	502200
14.14988	537444
14.15802	583227
14.16613	641008
14.17425	695667
14.18238	788202
14.19050	807653
14.19863	838524
14.20675	832328
14.21487	782624
14.22300	707818
14.23112	672139
14.23925	614966
14.24737	566353
14.25548	550213
14.26362	508656
14.27173	488436
14.27985	415656
14.28798	395882
14.29610	373789
14.30423	369557
14.31235	334174
14.32047	331223
14.32860	305953
14.33672	307264
14.34485	289471
14.35297	272632
14.36108	259886
14.36922	247519
14.37733	230865
14.38545	215927
14.39358	227932
14.40170	203557
14.40983	202975
14.41795	206634
14.42607	208054
14.43420	216858
14.44232	200066
14.45045	196071
14.45857	172001
14.46668	162444
14.47482	154727
14.48293	146833
14.49107	146873
14.49918	139169
14.50730	141323
14.51543	145589
14.52355	147532
14.53167	152282
14.53980	161184
14.54792	190325
14.55605	195372
14.56417	208543
14.57228	202830
14.58042	190268
14.58853	170014
14.59667	160364
14.60478	143020
14.61290	130042
14.62103	131210
14.62915	124970
14.63728	113228
14.64540	117957
14.65352	112914
14.66165	112056
14.66977	110752
14.67788	110556
14.68602	111418
14.69413	108760
14.70227	105584
14.71038	105534
14.71850	104608
14.72663	96180
14.73475	106105
14.74288	102940
14.75100	108612
14.75912	110943
14.76725	116807
14.77537	112606
14.78348	115763
14.79162	111480
14.79973	116257
14.80787	129144
14.81598	182031
14.82410	366172
14.83223	832304
14.84035	1663961
14.84848	2860548
14.85660	3875897
14.86472	4212035
14.87285	3769940
14.88097	2898308
14.88910	1963568
14.89722	1313858
14.90533	927693
14.91347	756700
14.92158	648245
14.92970	571230
14.93783	510326
14.94595	470032
14.95408	419375
14.96220	393103
14.97032	374413
14.97845	353441
14.98657	336539
14.99470	317926
15.00282	292915
15.01093	275300
15.01907	273881
15.02718	269792
15.03532	258950
15.04343	239179
15.05155	235140
15.05968	219703
15.06780	221133
15.07592	209999
15.08405	204697
15.09217	209737
15.10030	193957
15.10842	195686
15.11653	183230
15.12467	183906
15.13278	184820
15.14092	179057
15.14903	185855
15.15715	195637
15.16528	212309
15.17340	207971
15.18152	201503
15.18965	187546
15.19777	155997
15.20590	140557
15.21402	130025
15.22213	118528
15.23027	114112
15.23838	108211
15.24652	104250
15.25463	96123
15.26275	100936
15.27088	92698
15.27900	95376
15.28713	91310
15.29525	89429
15.30337	88932
15.31150	89275
15.31962	87557
15.32773	87698
15.33587	90720
15.34398	94188
15.35212	89745
15.36023	88279
15.36835	93646
15.37648	90910
15.38460	85903
15.39273	88090
15.40085	87715
15.40897	90778
15.41710	87917
15.42522	88619
15.43333	85041
15.44147	90099
15.44958	80877
15.45772	84863
15.46583	85386
15.47395	86854
15.48208	91892
15.49020	101760
15.49833	107479
15.50645	125522
15.51457	126057
15.52270	128592
15.53082	136100
15.53895	126485
15.54707	124849
15.55518	118282
15.56332	112669
15.57143	114566
15.57955	102354
15.58768	95253
15.59580	89452
15.60393	84307
15.61205	86615
15.62017	84378
15.62830	84766
15.63642	83959
15.64455	81209
15.65267	80555
15.66078	81094
15.66892	76710
15.67703	78122
15.68517	79545
15.69328	74356
15.70140	77724
15.70953	75983
15.71765	74422
15.72577	75742
15.73390	76868
15.74202	76538
15.75015	72175
15.75827	76007
15.76638	87076
15.77452	102400
15.78263	157877
15.79077	280767
15.79888	495712
15.80700	776067
15.81513	1043396
15.82325	1091607
15.83137	1021204
15.83950	836536
15.84762	617820
15.85575	463460
15.86387	357803
15.87198	290633
15.88012	262702
15.88823	233983
15.89637	212416
15.90448	201816
15.91260	196667
15.92073	179865
15.92885	172384
15.93698	164059
15.94510	162132
15.95322	156234
15.96135	153317
15.96947	149483
15.97758	147349
15.98572	152373
15.99383	179731
16.00197	199564
16.01008	238213
16.01820	272522
16.02633	283751
16.03445	277000
16.04258	256146
16.05070	241997
16.05882	210552
16.06695	187645
16.07507	174479
16.08320	165039
16.09132	148317
16.09943	145508
16.10757	141037
16.11568	136429
16.12380	150299
16.13193	187769
16.14005	221050
16.14818	264028
16.15630	278910
16.16442	274592
16.17255	247809
16.18067	201115
16.18880	169014
16.19692	154491
16.20503	135784
16.21317	128526
16.22128	125257
16.22940	121588
16.23753	120025
16.24565	125088
16.25378	115003
16.26190	107823
16.27002	108817
16.27815	107926
16.28627	110268
16.29440	108476
16.30252	107175
16.31063	108817
16.31877	106063
16.32688	103495
16.33502	100767
16.34313	94485
16.35125	93563
16.35938	89662
16.36750	93232
16.37562	89401
16.38375	97288
16.39187	103967
16.40000	122673
16.40812	157069
16.41623	193596
16.42437	253180
16.43248	318813
16.44062	342080
16.44873	337414
16.45685	305485
16.46498	262642
16.47310	219091
16.48122	229398
16.48935	300140
16.49747	442893
16.50560	640179
16.51372	843707
16.52183	882104
16.52997	807012
16.53808	676287
16.54622	485661
16.55433	343013
16.56245	275821
16.57058	237528
16.57870	214372
16.58683	197373
16.59495	189939
16.60307	180314
16.61120	165805
16.61932	162899
16.62743	153224
16.63557	144641
16.64368	148552
16.65182	149507
16.65993	140363
16.66805	136297
16.67618	139723
16.68430	133923
16.69243	127265
16.70055	123919
16.70867	116936
16.71680	118192
16.72492	105260
16.73305	106874
16.74117	97942
16.74928	91550
16.75742	89847
16.76553	90636
16.77365	95661
16.78178	96541
16.78990	89988
16.79803	95413
16.80615	96687
16.81427	94620
16.82240	91056
16.83052	90984
16.83865	88605
16.84677	89259
16.85488	83034
16.86302	83755
16.87113	83842
16.87925	84272
16.88738	86549
16.89550	89951
16.90363	84352
16.91175	87992
16.91987	79495
16.92800	79711
16.93612	78297
16.94425	83233
16.95237	81089
16.96048	75959
16.96862	73588
16.97673	78345
16.98487	77216
16.99298	77781
17.00110	83188
17.00923	78353
17.01735	73577
17.02547	73133
17.03360	77085
17.04172	71847
17.04985	79090
17.05797	75394
17.06608	83495
17.07422	82675
17.08233	89874
17.09047	89145
17.09858	89414
17.10670	92709
17.11483	89758
17.12295	100544
17.13108	97058
17.13920	101028
17.14732	102662
17.15545	101537
17.16357	103507
17.17168	97978
17.17982	95851
17.18793	91627
17.19607	90555
17.20418	84211
17.21230	83593
17.22043	76349
17.22855	75740
17.23668	75189
17.24480	74113
17.25292	71836
17.26105	68163
17.26917	72744
17.27728	72043
17.28542	76673
17.29353	79695
17.30167	77553
17.30978	77803
17.31790	73686
17.32603	69908
17.33415	76866
17.34228	81156
17.35040	86046
17.35852	103361
17.36665	117557
17.37477	135158
17.38290	156058
17.39102	161566
17.39913	158049
17.40727	152884
17.41538	152821
17.42350	1687376
17.43163	5.120103E+07
17.43975	5.141174E+07
17.44788	5.092929E+07
17.45600	5.021117E+07
17.46412	4.937195E+07
17.47225	4.872426E+07
17.48037	4.84234E+07
17.48850	4.784147E+07
17.49662	4.766453E+07
17.50473	4.7096E+07
17.51287	4.656689E+07
17.52098	4.5419E+07
17.52912	4.504234E+07
17.53723	4.444024E+07
17.54535	4.377104E+07
17.55348	4.274993E+07
17.56160	4.193058E+07
17.56972	4.172448E+07
17.57785	4.10001E+07
17.58597	4.034761E+07
17.59410	3.911674E+07
17.60222	3.813135E+07
17.61033	3.699171E+07
17.61847	3.634858E+07
17.62658	3.580363E+07
17.63472	3.57315E+07
17.64283	3.536358E+07
17.65095	3.37806E+07
17.65908	3.222516E+07
17.66720	3.10058E+07
17.67532	2.953255E+07
17.68345	2.743771E+07
17.69157	2.632268E+07
17.69970	2.50953E+07
17.70782	2.370076E+07
17.71593	2.244411E+07
17.72407	2.129261E+07
17.73218	2.018127E+07
17.74032	1.865646E+07
17.74843	1.781054E+07
17.75655	1.642916E+07
17.76468	1.538922E+07
17.77280	1.461755E+07
17.78093	1.384054E+07
17.78905	1.285985E+07
17.79717	1.215018E+07
17.80530	1.132614E+07
17.81342	1.047326E+07
17.82153	9714379
17.82967	9425409
17.83778	8758267
17.84592	8444124
17.85403	8100857
17.86215	7528067
17.87028	7276758
17.87840	6827833
17.88653	6481470
17.89465	6291219
17.90277	5965669
17.91090	5720755
17.91902	5454927
17.92713	5239343
17.93527	5023681
17.94338	4852493
17.95152	4573401
17.95963	4380979
17.96775	4291014
17.97588	4092675
17.98400	4035617
17.99213	3847282
18.00025	3734303
18.00837	3549542
18.01650	3523514
18.02462	3415354
18.03275	3307712
18.04087	3226592
18.04898	3147594
18.05712	3092806
18.06523	3029761
18.07335	2890782
18.08148	2784114
18.08960	2683866
18.09773	2632022
18.10585	2582120
18.11397	2500584
18.12210	2476193
18.13022	2390224
18.13835	2302010
18.14647	2240930
18.15458	2160056
18.16272	2095741
18.17083	2064267
18.17897	2023419
18.18708	1957028
18.19520	1902104
18.20333	1833364
18.21145	1782575
18.21957	1715430
18.22770	1680753
18.23582	1629708
18.24395	1600599
18.25207	1537817
18.26018	1512719
18.26832	1468320
18.27643	1450264
18.28457	1397894
18.29268	1357257
18.30080	1312377
18.30893	1285329
18.31705	1259868
18.32517	1207884
18.33330	1170461
18.34142	1153496
18.34955	1103116
18.35767	1091474
18.36578	1061739
18.37392	1053071
18.38203	1043976
18.39017	1008830
18.39828	986883
18.40640	976949
18.41453	945684
18.42265	916978
18.43078	914909
18.43890	908124
18.44702	916351
18.45515	941614
18.46327	1012564
18.47138	1125908
18.47952	1320713
18.48763	1552468
18.49577	1710609
18.50388	1722726
18.51200	1586141
18.52013	1371839
18.52825	1184056
18.53638	1036017
18.54450	950076
18.55262	871544
18.56075	822688
18.56887	791615
18.57700	763683
18.58512	749627
18.59323	722491
18.60137	706843
18.60948	693312
18.61760	684200
18.62573	674113
18.63385	690819
18.64198	652409
18.65010	640212
18.65822	627397
18.66635	640483
18.67447	610255
18.68260	604019
18.69072	598665
18.69883	569567
18.70697	572170
18.71508	574414
18.72320	537571
18.73133	534334
18.73945	542684
18.74758	539726
18.75570	534017
18.76382	515941
18.77195	513651
18.78007	492300
18.78820	503357
18.79632	501121
18.80443	490661
18.81257	482295
18.82068	486200
18.82882	468784
18.83693	471127
18.84505	469389
18.85318	458536
18.86130	457848
18.86942	446735
18.87755	443281
18.88567	436205
18.89380	434800
18.90192	436636
18.91003	419841
18.91817	422233
18.92628	438670
18.93442	439421
18.94253	438713
18.95065	453975
18.95878	476610
18.96690	496980
18.97502	514857
18.98315	512336
18.99127	506417
18.99940	476267
19.00752	461860
19.01563	432038
19.02377	422268
19.03188	408685
19.04002	405089
19.04813	407660
19.05625	400217
19.06438	395590
19.07250	389544
19.08063	401391
19.08875	424625
19.09687	442584
19.10500	492789
19.11312	529477
19.12123	555249
19.12937	537833
19.13748	523002
19.14562	482740
19.15373	441555
19.16185	430562
19.16998	423028
19.17810	401435
19.18623	402184
19.19435	388027
19.20247	385674
19.21060	382107
19.21872	360177
19.22685	359542
19.23497	355746
19.24308	341559
19.25122	346207
19.25933	336237
19.26745	322466
19.27558	322367
19.28370	325094
19.29183	318143
19.29995	325328
19.30807	328898
19.31620	327269
19.32432	326690
19.33245	323047
19.34057	316839
19.34868	316159
19.35682	310730
19.36493	317367
19.37307	318732
19.38118	316728
19.38930	316511
19.39743	303353
19.40555	301197
19.41367	295239
19.42180	294814
19.42992	301207
19.43805	299841
19.44617	304226
19.45428	294338
19.46242	295016
19.47053	288611
19.47867	302584
19.48678	311162
19.49490	315419
19.50303	351052
19.51115	403460
19.51927	447547
19.52740	485666
19.53552	476213
19.54365	446010
19.55177	379985
19.55988	334595
19.56802	309774
19.57613	285170
19.58427	274767
19.59238	277716
19.60050	275091
19.60863	259967
19.61675	269423
19.62488	251586
19.63300	273043
19.64112	311504
19.64925	364832
19.65737	496361
19.66548	658879
19.67362	838509
19.68173	963438
19.68987	975494
19.69798	934633
19.70610	824204
19.71423	708566
19.72235	621553
19.73048	551945
19.73860	499557
19.74672	440726
19.75485	413003
19.76297	374562
19.77108	347502
19.77922	323002
19.78733	319336
19.79547	313089
19.80358	308595
19.81170	311868
19.81983	317015
19.82795	310186
19.83608	298944
19.84420	282858
19.85232	284771
19.86045	268994
19.86857	271390
19.87670	260627
19.88482	266240
19.89293	284680
19.90107	300352
19.90918	314125
19.91730	327336
19.92543	335023
19.93355	331225
19.94168	325178
19.94980	322904
19.95792	311053
19.96605	310519
19.97417	302158
19.98230	297960
19.99042	294197
19.99853	289931
20.00667	298645
20.01478	300852
20.02290	301644
20.03103	306318
20.03915	299793
20.04728	291987
20.05540	277834
20.06352	267333
20.07165	256581
20.07977	257280
20.08790	256461
20.09602	260272
20.10413	262685
20.11227	257064
20.12038	250223
20.12852	243310
20.13663	242561
20.14475	239707
20.15288	241129
20.16100	253047
20.16912	254790
20.17725	266924
20.18537	296695
20.19350	334044
20.20162	345636
20.20973	363316
20.21787	360038
20.22598	344580
20.23412	328734
20.24223	319219
20.25035	313285
20.25848	353589
20.26660	436905
20.27473	530300
20.28285	636286
20.29097	728825
20.29910	761174
20.30722	711601
20.31533	645712
20.32347	550475
20.33158	469844
20.33972	394712
20.34783	348834
20.35595	321663
20.36408	287524
20.37220	270724
20.38033	258479
20.38845	264187
20.39657	274475
20.40470	286125
20.41282	312651
20.42095	327443
20.42907	336993
20.43718	342537
20.44532	355459
20.45343	363986
20.46155	361297
20.46968	335605
20.47780	326401
20.48593	303353
20.49405	293815
20.50217	267763
20.51030	259316
20.51842	242126
20.52655	237495
20.53467	228327
20.54278	219830
20.55092	220745
20.55903	217754
20.56715	215824
20.57528	218291
20.58340	216608
20.59153	211334
20.59965	209370
20.60777	205394
20.61590	203660
20.62402	203945
20.63215	205430
20.64027	204179
20.64838	204948
20.65652	211714
20.66463	204851
20.67277	198748
20.68088	205106
20.68900	205384
20.69713	200283
20.70525	206663
20.71337	199622
20.72150	198442
20.72962	190001
20.73775	191869
20.74587	190204
20.75398	201120
20.76212	195749
20.77023	201496
20.77837	198806
20.78648	204838
20.79460	224294
20.80273	261758
20.81085	300386
20.81897	349420
20.82710	389574
20.83522	393148
20.84335	357526
20.85147	311613
20.85958	287829
20.86772	246668
20.87583	231283
20.88397	220733
20.89208	217958
20.90020	206769
20.90833	204558
20.91645	202867
20.92458	202734
20.93270	195794
20.94082	190653
20.94895	208976
20.95707	198782
20.96518	197242
20.97332	193696
20.98143	189464
20.98957	199256
20.99768	190888
21.00580	190978
21.01393	183857
21.02205	186587
21.03018	184821
21.03830	190350
21.04642	189810
21.05455	186806
21.06267	179904
21.07080	183847
21.07892	185414
21.08703	189678
21.09517	188418
21.10328	188229
21.11140	172205
21.11953	185529
21.12765	188635
21.13578	198545
21.14390	203740
21.15202	239596
21.16015	254535
21.16827	290210
21.17640	310414
21.18452	305758
21.19263	287651
21.20077	264896
21.20888	244109
21.21700	216779
21.22513	215068
21.23325	197380
21.24138	206478
21.24950	203426
21.25762	193394
21.26575	180656
21.27387	181006
21.28200	187420
21.29012	187998
21.29823	185096
21.30637	185472
21.31448	178463
21.32262	181516
21.33073	181098
21.33885	179109
21.34698	180235
21.35510	183446
21.36322	173826
21.37135	176949
21.37947	174187
21.38760	169813
21.39572	168372
21.40383	166304
21.41197	170968
21.42008	170976
21.42822	169709
21.43633	169442
21.44445	175945
21.45258	173628
21.46070	166017
21.46883	162024
21.47695	158731
21.48507	148147
21.49320	159259
21.50132	152662
21.50943	153738
21.51757	154581
21.52568	147955
21.53382	153729
21.54193	143143
21.55005	145144
21.55818	148448
21.56630	148833
21.57443	145949
21.58255	148145
21.59067	156646
21.59880	148320
21.60692	147140
21.61503	151421
21.62317	168338
21.63128	188310
21.63942	200215
21.64753	222087
21.65565	243508
21.66378	241941
21.67190	235674
21.68003	220003
21.68815	205489
21.69627	192445
21.70440	188079
21.71252	173836
21.72065	167040
21.72877	161357
21.73688	162534
21.74502	147151
21.75313	153562
21.76125	155408
21.76938	150981
21.77750	154177
21.78563	154039
21.79375	151012
21.80187	155141
21.81000	169910
21.81812	171432
21.82625	181322
21.83437	198281
21.84248	208513
21.85062	224986
21.85873	226720
21.86687	217194
21.87498	206147
21.88310	177483
21.89123	167514
21.89935	149442
21.90747	150864
21.91560	136973
21.92372	132856
21.93185	134674
21.93997	128950
21.94808	132647
21.95622	121789
21.96433	126262
21.97247	124051
21.98058	133050
21.98870	115345
21.99683	125101
22.00495	114202
22.01307	114453
22.02120	113007
22.02932	121908
22.03745	119488
22.04557	119488
22.05368	127998
22.06182	129387
22.06993	144750
22.07807	148863
22.08618	151103
22.09430	155923
22.10243	169314
22.11055	166539
22.11868	170392
22.12680	169064
22.13492	173265
22.14305	177284
22.15117	188503
22.15928	188450
22.16742	195794
22.17553	211908
22.18367	213278
22.19178	226208
22.19990	216530
22.20803	219700
22.21615	208085
22.22428	196228
22.23240	202446
22.24052	204210
22.24865	204961
22.25677	198289
22.26488	189062
22.27302	187225
22.28113	190886
22.28927	180889
22.29738	179610
22.30550	181347
22.31363	174099
22.32175	176122
22.32988	176113
22.33800	174026
22.34612	177110
22.35425	173655
22.36237	164467
22.37050	174824
22.37862	175504
22.38673	173338
22.39487	175001
22.40298	179159
22.41110	192102
22.41923	200060
22.42735	213188
22.43548	220318
22.44360	213991
22.45172	210029
22.45985	184099
22.46797	173400
22.47610	158142
22.48422	154501
22.49233	144329
22.50047	140062
22.50858	131842
22.51672	142377
22.52483	135140
22.53295	131624
22.54108	133829
22.54920	121798
22.55732	127330
22.56545	129669
22.57357	120487
22.58170	120015
22.58982	113626
22.59793	116387
22.60607	107727
22.61418	99858
22.62232	99901
22.63043	104980
22.63855	105068
22.64668	101313
22.65480	105106
22.66292	115067
22.67105	111501
22.67917	113228
22.68730	114688
22.69542	113030
22.70353	122393
22.71167	121942
22.71978	118705
22.72792	125031
22.73603	123328
22.74415	131735
22.75228	133893
22.76040	145757
22.76853	153374
22.77665	159330
22.78477	161150
22.79290	167822
22.80102	166126
22.80913	178963
22.81727	181757
22.82538	178235
22.83352	187797
22.84163	185603
22.84975	188611
22.85788	184618
22.86600	189560
22.87413	191802
22.88225	190922
22.89037	200941
22.89850	218377
22.90662	227633
22.91475	241218
22.92287	282110
22.93098	312580
22.93912	341208
22.94723	357110
22.95535	327584
22.96348	309230
22.97160	286145
22.97973	263388
22.98785	256632
22.99597	244039
23.00410	232557
23.01222	230022
23.02035	225090
23.02847	218671
23.03658	212069
23.04472	204711
23.05283	199396
23.06095	187858
23.06908	195359
23.07720	181530
23.08533	181072
23.09345	179490
23.10157	180443
23.10970	180654
23.11782	173718
23.12595	176884
23.13407	179290
23.14218	177344
23.15032	175506
23.15843	176487
23.16657	175376
23.17468	175692
23.18280	175727
23.19093	176636
23.19905	162937
23.20717	166274
23.21530	165971
23.22342	167497
23.23155	154610
23.23967	158534
23.24778	162898
23.25592	161828
23.26403	166935
23.27217	165281
23.28028	162605
23.28840	164220
23.29653	169197
23.30465	163122
23.31277	154831
23.32090	153969
23.32902	152708
23.33715	159153
23.34527	166573
23.35338	179142
23.36152	188019
23.36963	191917
23.37777	202332
23.38588	209709
23.39400	200733
23.40213	186068
23.41025	176183
23.41838	165659
23.42650	163936
23.43462	154764
23.44275	158911
23.45087	152430
23.45898	140665
23.46712	144164
23.47523	140840
23.48337	148093
23.49148	145206
23.49960	143499
23.50773	150310
23.51585	158256
23.52398	144304
23.53210	140344
23.54022	150590
23.54835	145960
23.55647	140222
23.56460	146801
23.57272	152562
23.58083	161310
23.58897	166020
23.59708	173250
23.60520	178944
23.61333	189581
23.62145	198556
23.62958	171138
23.63770	174430
23.64582	157723
23.65395	159330
23.66207	157166
23.67020	149673
23.67832	149613
23.68643	141174
23.69457	139626
23.70268	133733
23.71080	135783
23.71893	129583
23.72705	137898
23.73518	136161
23.74330	146771
23.75142	189916
23.75955	330639
23.76767	674984
23.77580	1319552
23.78392	2294113
23.79203	3282630
23.80017	4003706
23.80828	4172699
23.81642	3611020
23.82453	2873131
23.83265	2071384
23.84078	1512124
23.84890	1179612
23.85702	945529
23.86515	764714
23.87327	651128
23.88140	552521
23.88952	483997
23.89763	438123
23.90577	413447
23.91388	388091
23.92202	370549
23.93013	355945
23.93825	334474
23.94638	310387
23.95450	301702
23.96263	296444
23.97075	271979
23.97887	260108
23.98700	246920
23.99512	263830
24.00323	313387
24.01137	488552
24.01948	885469
24.02762	1471167
24.03573	2165165
24.04385	2576499
24.05198	2510990
24.06010	2003637
24.06823	1413083
24.07635	924065
24.08447	578282
24.09260	380482
24.10072	290805
24.10883	237907
24.11697	217168
24.12508	210327
24.13322	206307
24.14133	218949
24.14945	231158
24.15758	239456
24.16570	241729
24.17383	241490
24.18195	217446
24.19007	212877
24.19820	198657
24.20632	192535
24.21445	188085
24.22257	188015
24.23068	184730
24.23882	186463
24.24693	177662
24.25505	167797
24.26318	155600
24.27130	154202
24.27943	145849
24.28755	143022
24.29567	141219
24.30380	142346
24.31192	140931
24.32005	136026
24.32817	141653
24.33628	137004
24.34442	135618
24.35253	148192
24.36065	168475
24.36878	208830
24.37690	222648
24.38503	255600
24.39315	285089
24.40127	328576
24.40940	357489
24.41752	362540
24.42565	375945
24.43377	356729
24.44188	333600
24.45002	324866
24.45813	301267
24.46627	302353
24.47438	298937
24.48250	304705
24.49063	295335
24.49875	302735
24.50687	328611
24.51500	333591
24.52312	346792
24.53125	348545
24.53937	353629
24.54748	335628
24.55562	340298
24.56373	337366
24.57187	328636
24.57998	316341
24.58810	321080
24.59623	318156
24.60435	332057
24.61248	317143
24.62060	313402
24.62872	310616
24.63685	305891
24.64497	317446
24.65308	314098
24.66122	311905
24.66933	317548
24.67747	319496
24.68558	311705
24.69370	312190
24.70183	296172
24.70995	299732
24.71808	295177
24.72620	288383
24.73432	278038
24.74245	277382
24.75057	280357
24.75870	280991
24.76682	279522
24.77493	281255
24.78307	283490
24.79118	297767
24.79930	294256
24.80743	299894
24.81555	290841
24.82368	279864
24.83180	298837
24.83992	305012
24.84805	315161
24.85617	335318
24.86430	365056
24.87242	452021
24.88053	516276
24.88867	602866
24.89678	681085
24.90490	722969
24.91303	679128
24.92115	607200
24.92928	514231
24.93740	423232
24.94552	361883
24.95365	322938
24.96177	283915
24.96990	268702
24.97802	262651
24.98613	262664
24.99427	261413
25.00238	257340
25.01052	257976
25.01863	262980
25.02675	243559
25.03488	246719
25.04300	236809
25.05112	239922
25.05925	246399
25.06737	245082
25.07550	245844
25.08362	240211
25.09173	238580
25.09987	257683
25.10798	291134
25.11612	403671
25.12423	620228
25.13235	995252
25.14048	1494195
25.14860	2010790
25.15672	2347858
25.16485	2308278
25.17297	2037389
25.18110	1637581
25.18922	1218480
25.19733	866143
25.20547	614760
25.21358	470132
25.22172	378316
25.22983	343665
25.23795	340328
25.24608	397865
25.25420	536786
25.26233	762237
25.27045	1001138
25.27857	1193797
25.28670	1287189
25.29482	1228810
25.30293	1000246
25.31107	749696
25.31918	519103
25.32732	362602
25.33543	271201
25.34355	224862
25.35168	196693
25.35980	180243
25.36793	169157
25.37605	160524
25.38417	147708
25.39230	143206
25.40042	139925
25.40855	137308
25.41667	135001
25.42478	131724
25.43292	132254
25.44103	130073
25.44915	130204
25.45728	129868
25.46540	132803
25.47353	134615
25.48165	136988
25.48977	132932
25.49790	134124
25.50602	131523
25.51415	131810
25.52227	122650
25.53038	121634
25.53852	120005
25.54663	116738
25.55475	117725
25.56288	117668
25.57100	112152
25.57913	113786
25.58725	112865
25.59537	112913
25.60350	115063
25.61162	114823
25.61975	121630
25.62787	127751
25.63598	136449
25.64412	155123
25.65223	176575
25.66037	178648
25.66848	167516
25.67660	153954
25.68473	136172
25.69285	130657
25.70097	113033
25.70910	112733
25.71722	111592
25.72535	119193
25.73347	120115
25.74158	148381
25.74972	172181
25.75783	196755
25.76597	215435
25.77408	250130
25.78220	298708
25.79033	341193
25.79845	355303
25.80658	361496
25.81470	331606
25.82282	306254
25.83095	274227
25.83907	266884
25.84718	263467
25.85532	265071
25.86343	257163
25.87157	261927
25.87968	254666
25.88780	249237
25.89593	239261
25.90405	251936
25.91218	245196
25.92030	244426
25.92842	241129
25.93655	258014
25.94467	257803
25.95278	253252
25.96092	264408
25.96903	256899
25.97717	252058
25.98528	247204
25.99340	234803
26.00153	232537
26.00965	228615
26.01778	229137
26.02590	230366
26.03402	226184
26.04215	228697
26.05027	226185
26.05840	225468
26.06652	220902
26.07463	222824
26.08277	229338
26.09088	219946
26.09900	221208
26.10713	216855
26.11525	217444
26.12338	206901
26.13150	210478
26.13962	220494
26.14775	218651
26.15587	213330
26.16400	218355
26.17212	207992
26.18023	209395
26.18837	211926
26.19648	209452
26.20460	200427
26.21273	196700
26.22085	196736
26.22898	199830
26.23710	191996
26.24522	195603
26.25335	194343
26.26147	198040
26.26960	204301
26.27772	207057
26.28583	218094
26.29397	231237
26.30208	238269
26.31022	232996
26.31833	222812
26.32645	215454
26.33458	196537
26.34270	190278
26.35082	174765
26.35895	179548
26.36707	173648
26.37520	182072
26.38332	191764
26.39143	193744
26.39957	208965
26.40768	208233
26.41582	217386
26.42393	212185
26.43205	212668
26.44018	208705
26.44830	191490
26.45643	187793
26.46455	178933
26.47267	186729
26.48080	182289
26.48892	176608
26.49703	163489
26.50517	162344
26.51328	163977
26.52142	160433
26.52953	159534
26.53765	157823
26.54578	154933
26.55390	154613
26.56203	151635
26.57015	148449
26.57827	150840
26.58640	151908
26.59452	149144
26.60263	154625
26.61077	148154
26.61888	147421
26.62702	140387
26.63513	147068
26.64325	146136
26.65138	146228
26.65950	146778
26.66763	141412
26.67575	144259
26.68387	138627
26.69200	137310
26.70012	142788
26.70825	132695
26.71637	140798
26.72448	129519
26.73262	134454
26.74073	136560
26.74885	134787
26.75698	129572
26.76510	133596
26.77323	127451
26.78135	131149
26.78947	133602
26.79760	142649
26.80572	136955
26.81385	139540
26.82197	140483
26.83008	141788
26.83822	140770
26.84633	134455
26.85447	133945
26.86258	132917
26.87070	134481
26.87883	132007
26.88695	127717
26.89507	129684
26.90320	122329
26.91132	121001
26.91945	125726
26.92757	128923
26.93568	125311
26.94382	123380
26.95193	129452
26.96007	138056
26.96818	151912
26.97630	195940
26.98443	271936
26.99255	409284
27.00067	627362
27.00880	963107
27.01692	1412483
27.02505	1824140
27.03317	2038249
27.04128	1977283
27.04942	1817302
27.05753	1490063
27.06567	1179839
27.07378	897075
27.08190	717787
27.09003	595558
27.09815	513591
27.10628	456791
27.11440	400159
27.12252	356455
27.13065	322818
27.13877	310272
27.14688	289827
27.15502	282919
27.16313	287895
27.17127	309041
27.17938	326920
27.18750	361635
27.19563	373534
27.20375	370816
27.21188	340373
27.22000	321612
27.22812	288962
27.23625	261280
27.24437	248206
27.25250	220791
27.26062	201534
27.26873	194391
27.27687	191224
27.28498	184936
27.29310	181887
27.30123	176789
27.30935	171360
27.31748	169887
27.32560	165867
27.33372	164564
27.34185	156903
27.34997	160630
27.35810	153414
27.36622	157823
27.37433	158695
27.38247	157098
27.39058	159243
27.39870	152969
27.40683	143505
27.41495	140509
27.42308	139098
27.43120	136734
27.43932	134445
27.44745	126897
27.45557	127944
27.46370	129911
27.47182	127517
27.47993	132156
27.48807	119676
27.49618	124428
27.50432	125031
27.51243	124720
27.52055	126883
27.52868	119993
27.53680	127469
27.54492	124886
27.55305	129124
27.56117	123025
27.56930	124141
27.57742	124360
27.58553	128363
27.59367	135285
27.60178	138425
27.60992	145465
27.61803	145376
27.62615	139270
27.63428	130614
27.64240	125506
27.65052	119113
27.65865	117401
27.66677	116213
27.67490	115602
27.68302	117045
27.69113	109361
27.69927	108060
27.70738	107743
27.71552	111317
27.72363	100950
27.73175	104246
27.73988	105475
27.74800	105670
27.75613	111420
27.76425	119369
27.77237	134189
27.78050	168682
27.78862	176593
27.79673	199901
27.80487	206142
27.81298	187756
27.82112	149438
27.82923	143053
27.83735	123692
27.84548	114406
27.85360	108053
27.86173	108559
27.86985	102429
27.87797	97729
27.88610	103888
27.89422	99246
27.90235	102493
27.91047	97805
27.91858	100793
27.92672	100341
27.93483	98719
27.94295	96899
27.95108	93660
27.95920	92498
27.96733	94189
27.97545	95747
27.98357	91563
27.99170	94728
27.99982	93942
28.00795	97302
28.01607	100568
28.02418	104785
28.03232	99489
28.04043	99165
28.04855	102704
28.05668	105721
28.06480	97056
28.07293	99434
28.08105	94490
28.08917	91618
28.09730	92671
28.10542	96222
28.11355	92604
28.12167	89751
28.12978	85280
28.13792	87045
28.14603	87157
28.15417	87344
28.16228	88165
28.17040	90162
28.17853	86430
28.18665	93809
28.19477	99812
28.20290	108835
28.21102	117494
28.21915	133155
28.22727	139389
28.23538	137736
28.24352	130966
28.25163	127868
28.25977	125579
28.26788	111070
28.27600	111699
28.28413	106915
28.29225	104023
28.30038	104092
28.30850	109923
28.31662	114774
28.32475	124500
28.33287	127632
28.34098	147299
28.34912	167154
28.35723	194992
28.36537	212202
28.37348	225055
28.38160	250563
28.38973	266114
28.39785	267895
28.40598	267290
28.41410	258585
28.42222	252912
28.43035	244075
28.43847	228023
28.44658	210587
28.45472	195102
28.46283	185850
28.47097	183329
28.47908	169150
28.48720	172069
28.49533	164883
28.50345	168412
28.51158	162766
28.51970	171106
28.52782	152064
28.53595	156027
28.54407	145185
28.55220	144991
28.56032	133654
28.56843	138261
28.57657	125426
28.58468	134831
28.59280	121358
28.60093	117413
28.60905	121291
28.61718	125520
28.62530	121988
28.63342	124982
28.64155	124476
28.64967	130514
28.65780	124966
28.66592	122062
28.67403	126764
28.68217	120503
28.69028	122894
28.69840	117249
28.70653	115721
28.71465	109316
28.72278	112499
28.73090	115463
28.73902	106172
28.74715	113331
28.75527	106423
28.76340	114750
28.77152	120824
28.77963	133435
28.78777	136938
28.79588	139114
28.80402	135909
28.81213	133795
28.82025	121078
28.82838	121413
28.83650	115024
28.84462	113635
28.85275	108559
28.86087	108267
28.86900	103647
28.87712	104196
28.88523	106962
28.89337	102054
28.90148	111393
28.90962	106271
28.91773	115040
28.92585	110188
28.93398	105455
28.94210	110995
28.95023	116531
28.95835	113698
28.96647	116002
28.97460	117129
28.98272	113218
28.99083	107456
28.99897	108495
29.00708	102548
29.01522	99572
29.02333	91976
29.03145	99703
29.03958	95535
29.04770	104865
29.05583	106319
29.06395	109296
29.07207	113817
29.08020	120594
29.08832	118420
29.09645	125780
29.10457	119387
29.11268	111428
29.12082	104775
29.12893	102168
29.13705	96579
29.14518	95377
29.15330	95626
29.16143	94137
29.16955	98459
29.17767	93888
29.18580	97546
29.19392	101881
29.20205	108139
29.21017	110856
29.21828	119961
29.22642	125492
29.23453	127024
29.24265	131853
29.25078	137084
29.25890	152066
29.26703	158165
29.27515	159427
29.28327	155116
29.29140	140803
29.29952	129895
29.30765	123066
29.31577	108056
29.32388	103216
29.33202	99128
29.34013	99157
29.34827	96889
29.35638	95944
29.36450	92148
29.37263	89015
29.38075	91885
29.38887	87981
29.39700	91683
29.40512	88263
29.41325	93122
29.42137	89501
29.42948	98051
29.43762	92405
29.44573	89500
29.45387	93970
29.46198	93148
29.47010	89483
29.47823	89190
29.48635	99148
29.49447	99474
29.50260	100400
29.51072	98490
29.51885	100062
29.52697	99011
29.53508	101838
29.54322	106914
29.55133	104204
29.55947	105290
29.56758	99751
29.57570	99662
29.58383	93165
29.59195	86523
29.60008	85731
29.60820	86633
29.61632	92394
29.62445	92282
29.63257	86092
29.64068	89324
29.64882	85280
29.65693	83134
29.66507	82384
29.67318	81625
29.68130	81497
29.68943	82469
29.69755	88514
29.70568	81758
29.71380	77404
29.72192	87075
29.73005	89655
29.73817	79547
29.74628	80584
29.75442	83856
29.76253	80228
29.77067	79547
29.77878	75744
29.78690	76643
29.79503	73108
29.80315	76292
29.81128	75756
29.81940	77249
29.82752	80263
29.83565	75695
29.84377	80449
29.85190	80988
29.86002	84074
29.86813	96306
29.87627	126529
29.88438	169835
29.89250	230620
29.90063	306926
29.90875	342642
29.91688	340974
29.92500	295792
29.93312	230662
29.94125	174259
29.94937	132966
29.95750	120869
29.96562	112313
29.97373	99470
29.98187	107993
29.98998	113045
29.99812	119779
30.00623	124722
30.01435	129552
30.02248	142023
30.03060	150655
30.03872	144119
30.04685	146395
30.05497	151688
30.06310	146301
30.07122	144850
30.07933	148824
30.08747	140732
30.09558	146812
30.10372	141934
30.11183	131567
30.11995	136605
30.12808	133361
30.13620	125840
30.14433	122727
30.15245	127585
30.16057	129748
30.16870	116775
30.17682	112867
30.18493	112015
30.19307	110689
30.20118	111099
30.20932	109270
30.21743	106523
30.22555	100722
30.23368	96687
30.24180	98069
30.24993	96001
30.25805	101506
30.26617	92360
30.27430	96884
30.28242	92933
30.29053	86853
30.29867	83056
30.30678	87843
30.31492	83133
30.32303	91767
30.33115	80712
30.33928	86359
30.34740	92754
30.35553	91446
30.36365	81469
30.37177	85677
30.37990	82703
30.38802	86133
30.39615	84167
30.40427	81820
30.41238	84856
30.42052	81778
30.42863	86262
30.43675	85710
30.44488	84315
30.45300	77897
30.46113	86202
30.46925	84231
30.47737	90287
30.48550	91255
30.49362	94951
30.50175	98686
30.50987	98561
30.51798	97533
30.52612	93911
30.53423	88850
30.54235	91015
30.55048	84547
30.55860	82579
30.56673	85720
30.57485	86306
30.58297	85134
30.59110	82084
30.59922	81745
30.60735	81330
30.61547	77888
30.62358	83163
30.63172	82109
30.63983	83422
30.64797	77960
30.65608	81429
30.66420	81681
30.67233	76961
30.68045	78310
30.68857	79095
30.69670	79659
30.70482	74912
30.71295	79158
30.72107	79706
30.72918	77151
30.73732	78616
30.74543	80128
30.75357	77276
30.76168	77990
30.76980	86227
30.77793	99350
30.78605	126593
30.79418	178702
30.80230	246019
30.81042	323375
30.81855	372737
30.82667	354485
30.83478	315278
30.84292	252162
30.85103	181755
30.85917	148908
30.86728	116281
30.87540	100615
30.88353	101871
30.89165	95530
30.89978	99605
30.90790	89661
30.91602	89277
30.92415	86288
30.93227	83611
30.94038	84221
30.94852	83201
30.95663	80784
30.96477	85291
30.97288	83527
30.98100	77174
30.98913	79858
30.99725	77288
31.00538	75221
31.01350	78424
31.02162	74639
31.02975	73563
31.03787	81288
31.04600	81211
31.05412	79700
31.06223	80940
31.07037	85725
31.07848	85453
31.08660	91347
31.09473	101209
31.10285	112490
31.11098	115522
31.11910	115811
31.12722	111145
31.13535	99036
31.14347	93824
31.15160	101727
31.15972	90197
31.16783	87807
31.17597	87721
31.18408	100023
31.19222	105085
31.20033	124654
31.20845	157391
31.21658	179640
31.22470	199337
31.23282	212785
31.24095	210120
31.24907	191939
31.25720	163801
31.26532	153638
31.27343	132197
31.28157	120830
31.28968	109492
31.29782	106307
31.30593	106876
31.31405	103772
31.32218	105977
31.33030	103141
31.33842	105518
31.34655	102157
31.35467	99316
31.36280	99292
31.37092	101117
31.37903	100594
31.38717	99286
31.39528	97229
31.40342	97181
31.41153	95221
31.41965	107918
31.42778	105461
31.43590	106652
31.44403	112427
31.45215	109612
31.46027	101177
31.46840	109704
31.47652	111348
31.48463	118076
31.49277	123220
31.50088	120592
31.50902	119317
31.51713	112044
31.52525	113115
31.53338	109871
31.54150	104913
31.54963	118280
31.55775	118237
31.56587	123316
31.57400	130344
31.58212	131305
31.59023	124358
31.59837	118321
31.60648	112140
31.61462	109122
31.62273	109330
31.63085	105202
31.63898	101593
31.64710	101445
31.65523	100438
31.66335	104897
31.67147	107512
31.67960	97333
31.68772	106210
31.69585	99252
31.70397	103260
31.71208	102342
31.72022	95246
31.72833	94391
31.73645	92189
31.74458	89774
31.75270	90341
31.76083	89400
31.76895	91798
31.77707	91300
31.78520	90728
31.79332	93045
31.80145	93681
31.80957	98163
31.81768	89922
31.82582	94165
31.83393	91996
31.84207	95843
31.85018	89614
31.85830	92826
31.86643	96907
31.87455	91279
31.88267	92897
31.89080	96003
31.89892	97380
31.90705	93536
31.91517	92969
31.92328	99820
31.93142	95816
31.93953	107647
31.94767	109912
31.95578	114320
31.96390	122111
31.97203	133863
31.98015	123291
31.98827	132999
31.99640	134247
32.00452	136111
32.01265	131084
32.02077	134566
32.02888	131702
32.03702	128869
32.04513	126403
32.05327	124107
32.06138	113435
32.06950	114232
32.07763	121594
32.08575	121823
32.09388	123924
32.10200	117324
32.11012	114512
32.11825	107365
32.12637	106364
32.13448	102523
32.14262	95061
32.15073	100717
32.15887	95498
32.16698	96014
32.17510	93494
32.18323	92664
32.19135	95944
32.19948	93325
32.20760	87753
32.21572	95110
32.22385	92155
32.23197	89677
32.24010	92973
32.24822	93218
32.25633	99613
32.26447	97955
32.27258	112554
32.28070	104184
32.28883	111279
32.29695	98588
32.30508	100507
32.31320	94199
32.32132	88235
32.32945	83298
32.33757	93373
32.34570	92693
32.35382	89144
32.36193	84441
32.37007	83694
32.37818	84163
32.38630	88040
32.39443	92298
32.40255	84701
32.41068	85220
32.41880	79114
32.42692	86105
32.43505	85875
32.44317	84876
32.45130	75776
32.45942	78853
32.46753	82374
32.47567	80134
32.48378	81425
32.49192	79380
32.50003	78057
32.50815	80864
32.51628	80765
32.52440	73298
32.53252	77328
32.54065	76897
32.54877	81424
32.55690	75382
32.56502	77010
32.57313	77669
32.58127	80377
32.58938	82572
32.59752	80477
32.60563	76933
32.61375	81258
32.62188	78045
32.63000	75753
32.63813	76436
32.64625	81018
32.65437	75750
32.66250	85818
32.67062	93722
32.67873	95544
32.68687	96018
32.69498	99558
32.70312	98733
32.71123	90531
32.71935	92308
32.72748	90906
32.73560	85443
32.74373	92095
32.75185	83078
32.75997	84922
32.76810	78731
32.77622	76187
32.78433	74383
32.79247	72200
32.80058	74366
32.80872	79517
32.81683	77252
32.82495	74862
32.83308	77318
32.84120	71958
32.84933	73142
32.85745	77877
32.86557	86148
32.87370	73195
32.88182	67362
32.88995	74591
32.89807	77563
32.90618	73750
32.91432	75169
32.92243	81725
32.93055	72547
32.93868	76034
32.94680	75606
32.95493	77139
32.96305	75373
32.97117	77902
32.97930	85281
32.98742	97383
32.99555	108013
33.00367	119504
33.01178	128338
33.01992	124754
33.02803	117204
33.03615	109297
33.04428	102057
33.05240	89958
33.06053	89254
33.06865	88852
33.07677	85781
33.08490	88235
33.09302	92155
33.10115	98883
33.10927	103477
33.11738	106393
33.12552	119040
33.13363	119333
33.14177	112060
33.14988	101230
33.15800	96377
33.16613	86760
33.17425	82386
33.18237	83413
33.19050	83317
33.19862	83316
33.20675	85294
33.21487	84310
33.22298	85121
33.23112	85083
33.23923	90807
33.24737	78117
33.25548	83384
33.26360	77096
33.27173	81206
33.27985	76376
33.28798	74828
33.29610	79230
33.30422	81603
33.31235	73892
33.32047	77164
33.32858	79431
33.33672	78802
33.34483	78832
33.35297	76201
33.36108	69365
33.36920	73272
33.37733	78554
33.38545	72497
33.39358	74796
33.40170	80226
33.40982	76562
33.41795	80373
33.42607	84772
33.43418	84162
33.44232	86636
33.45043	87583
33.45857	85312
33.46668	83349
33.47480	78719
33.48293	78616
33.49105	85066
33.49918	83934
33.50730	83165
33.51542	76182
33.52355	85290
33.53167	83336
33.53980	78593
33.54792	70796
33.55603	70264
33.56417	76412
33.57228	76191
33.58040	78567
33.58853	68836
33.59665	74208
33.60478	69063
33.61290	71026
33.62102	72103
33.62915	72833
33.63727	74419
33.64540	79255
33.65352	77986
33.66163	87224
33.66977	79394
33.67788	80585
33.68602	77736
33.69413	73276
33.70225	73651
33.71038	75317
33.71850	76898
33.72662	85731
33.73475	87142
33.74287	89151
33.75100	95627
33.75912	92183
33.76723	98251
33.77537	84832
33.78348	90390
33.79162	80515
33.79973	76449
33.80785	76575
33.81598	76341
33.82410	76275
33.83222	81303
33.84035	81509
33.84847	87077
33.85660	82706
33.86472	86020
33.87283	94446
33.88097	97378
33.88908	101332
33.89722	92487
33.90533	105573
33.91345	99716
33.92158	103311
33.92970	103438
33.93783	98134
33.94595	101185
33.95407	95332
33.96220	86320
33.97032	77946
33.97843	82179
33.98657	81922
33.99468	83371
34.00282	76906
34.01093	75992
34.01905	78062
34.02718	74844
34.03530	84819
34.04343	71907
34.05155	75811
34.05967	80192
34.06780	82566
34.07592	80077
34.08403	75575
34.09217	79046
34.10028	77590
34.10842	78010
34.11653	78234
34.12465	71513
34.13278	74180
34.14090	74388
34.14903	71371
34.15715	74980
34.16527	77049
34.17340	77514
34.18152	76442
34.18965	86863
34.19777	84305
34.20588	84935
34.21402	83973
34.22213	88176
34.23025	91121
34.23838	85050
34.24650	82531
34.25463	80710
34.26275	78340
34.27087	75001
34.27900	75876
34.28712	71460
34.29525	72163
34.30337	72676
34.31148	73178
34.31962	75384
34.32773	69899
34.33587	78602
34.34398	75706
34.35210	73774
34.36023	71434
34.36835	75322
34.37647	79122
34.38460	73869
34.39272	77646
34.40085	75285
34.40897	73501
34.41708	74461
34.42522	73323
34.43333	72108
34.44147	69441
34.44958	75063
34.45770	71623
34.46583	73556
34.47395	71787
34.48207	74138
34.49020	71419
34.49832	70140
34.50645	74952
34.51457	69965
34.52268	78616
34.53082	80645
34.53893	87977
34.54707	95361
34.55518	103643
34.56330	109780
34.57143	107057
34.57955	110239
34.58768	106741
34.59580	104838
34.60392	101812
34.61205	108420
34.62017	108199
34.62828	105321
34.63642	100921
34.64453	101478
34.65267	100308
34.66078	95754
34.66890	89820
34.67703	89660
34.68515	91329
34.69328	91238
34.70140	89683
34.70952	88903
34.71765	80977
34.72577	87866
34.73390	84519
34.74202	79948
34.75013	80354
34.75827	82750
34.76638	82777
34.77450	85302
34.78263	80488
34.79075	84776
34.79888	80827
34.80700	81740
34.81512	79186
34.82325	78452
34.83137	75813
34.83950	78744
34.84762	81539
34.85573	80449
34.86387	80219
34.87198	83894
34.88010	84593
34.88823	79101
34.89635	80870
34.90448	78231
34.91260	76994
34.92072	81356
34.92885	83462
34.93697	87421
34.94510	87758
34.95322	87072
34.96133	91792
34.96947	94969
34.97758	102011
34.98572	105348
34.99383	102356
35.00195	101457
35.01008	97457
35.01820	100303
35.02632	101255
35.03445	101096
35.04257	101444
35.05070	102271
35.05882	98446
35.06693	91763
35.07507	92484
35.08318	92733
35.09132	90090
35.09943	86316
35.10755	87867
35.11568	84441
35.12380	85117
35.13192	77323
35.14005	77042
35.14817	84507
35.15630	83282
35.16442	77585
35.17253	82301
35.18067	83534
35.18878	83813
35.19692	80138
35.20503	79256
35.21315	79723
35.22128	82718
35.22940	79340
35.23753	79409
35.24565	84192
35.25377	84377
35.26190	82131
35.27002	83537
35.27813	84279
35.28627	83150
35.29438	84607
35.30252	83553
35.31063	81751
35.31875	83643
35.32688	80824
35.33500	82844
35.34313	85556
35.35125	78397
35.35937	85720
35.36750	81321
35.37562	89806
35.38375	92591
35.39187	98403
35.39998	95929
35.40812	110915
35.41623	116119
35.42435	122709
35.43248	120796
35.44060	115833
35.44873	108844
35.45685	106130
35.46497	98630
35.47310	91814
35.48122	94828
35.48935	85609
35.49747	86929
35.50558	82029
35.51372	80821
35.52183	85368
35.52997	91494
35.53808	78069
35.54620	81856
35.55433	82347
35.56245	86362
35.57057	78165
35.57870	85053
35.58682	83042
35.59495	83255
35.60307	81779
35.61118	74936
35.61932	74976
35.62743	82429
35.63557	83467
35.64368	76981
35.65180	81125
35.65993	75829
35.66805	85404
35.67617	88276
35.68430	87823
35.69242	84614
35.70055	88797
35.70867	94331
35.71678	94847
35.72492	91482
35.73303	85005
35.74117	92655
35.74928	85799
35.75740	87618
35.76553	87144
35.77365	88535
35.78178	88322
35.78990	91349
35.79802	87557
35.80615	90167
35.81427	89976
35.82238	85195
35.83052	84952
35.83863	81800
35.84677	79765
35.85488	83941
35.86300	84259
35.87113	87213
35.87925	82866
35.88738	86211
35.89550	84083
35.90362	86882
35.91175	85025
35.91987	88954
35.92798	80464
35.93612	84298
35.94423	90974
35.95237	79087
35.96048	81619
35.96860	77086
35.97673	82286
35.98485	84477
35.99298	81295
36.00110	82940
36.00922	84915
36.01735	80501
36.02547	79548
36.03360	85976
36.04172	79144
36.04983	79094
36.05797	82527
36.06608	83142
36.07420	77923
36.08233	82405
36.09045	84877
36.09858	83407
36.10670	80786
36.11482	76541
36.12295	81694
36.13107	79748
36.13920	84301
36.14732	77751
36.15543	78823
36.16357	75930
36.17168	80612
36.17982	75351
36.18793	81022
36.19605	73593
36.20418	80387
36.21230	76050
36.22042	80233
36.22855	77133
36.23667	79290
36.24480	79029
36.25292	81295
36.26103	80766
36.26917	86303
36.27728	84691
36.28542	85890
36.29353	90064
36.30165	88787
36.30978	94285
36.31790	93981
36.32602	94267
36.33415	93901
36.34227	91655
36.35040	84466
36.35852	84119
36.36663	80934
36.37477	84750
36.38288	82306
36.39102	82034
36.39913	74943
36.40725	80658
36.41538	80217
36.42350	82458
36.43163	89899
36.43975	89064
36.44787	90716
36.45600	91227
36.46412	95075
36.47223	100350
36.48037	96844
36.48848	91645
36.49662	94752
36.50473	96608
36.51285	93980
36.52098	97695
36.52910	97744
36.53723	94168
36.54535	92852
36.55347	93037
36.56160	85574
36.56972	85706
36.57785	83676
36.58597	80738
36.59408	77669
36.60222	80912
36.61033	79683
36.61845	81249
36.62658	88844
36.63470	91771
36.64283	95174
36.65095	97468
36.65907	107825
36.66720	102849
36.67532	107238
36.68345	106841
36.69157	102839
36.69968	103994
36.70782	98543
36.71593	98100
36.72405	94851
36.73218	94858
36.74030	93021
36.74843	97378
36.75655	99790
36.76467	102644
36.77280	97896
36.78092	96698
36.78905	100050
36.79717	100958
36.80528	95289
36.81342	92963
36.82153	100479
36.82967	96566
36.83778	97972
36.84590	98389
36.85403	97694
36.86215	99077
36.87027	99686
36.87840	101952
36.88652	100535
36.89465	102876
36.90277	101040
36.91088	106407
36.91902	100901
36.92713	100785
36.93527	100285
36.94338	103499
36.95150	108114
36.95963	115951
36.96775	127011
36.97587	130539
36.98400	129972
36.99212	125396
37.00025	123330
37.00837	109691
37.01648	106460
37.02462	100309
37.03273	101720
37.04087	111422
37.04898	101024
37.05710	105225
37.06523	100230
37.07335	103151
37.08148	95851
37.08960	100159
37.09772	105317
37.10585	99304
37.11397	110957
37.12208	115178
37.13022	106600
37.13833	112996
37.14647	111135
37.15458	113754
37.16270	112519
37.17083	107072
37.17895	105791
37.18708	101091
37.19520	102172
37.20332	97642
37.21145	98058
37.21957	99438
37.22770	98389
37.23582	95286
37.24393	95416
37.25207	97914
37.26018	98363
37.26830	96485
37.27643	97877
37.28455	94922
37.29268	99781
37.30080	95345
37.30892	98039
37.31705	98467
37.32517	105402
37.33330	102535
37.34142	98629
37.34953	109473
37.35767	103350
37.36578	114091
37.37390	121311
37.38203	118037
37.39015	117237
37.39828	112000
37.40640	110286
37.41452	107740
37.42265	106949
37.43077	109761
37.43890	105691
37.44702	101171
37.45513	100000
37.46327	107488
37.47138	104595
37.47952	104951
37.48763	108998
