Z:\data\JTB-E02\BACandBLUE\JTB-E02-208-07.D Thu Mar 14 08:57:13 2019
Start of data points
2.09518	60408
2.10332	62946
2.11143	64580
2.11957	62634
2.12768	61854
2.13580	57072
2.14393	60561
2.15205	62573
2.16017	57785
2.16830	52321
2.17642	54743
2.18455	58031
2.19267	51855
2.20078	51783
2.20892	49194
2.21703	51087
2.22517	48127
2.23328	50312
2.24140	48170
2.24953	49089
2.25765	48843
2.26578	60825
2.27390	443711
2.28202	2299411
2.29015	2789818
2.29827	1312444
2.30638	622332
2.31452	441024
2.32263	375745
2.33077	338613
2.33888	291612
2.34700	266449
2.35513	236423
2.36325	205663
2.37138	201705
2.37950	181342
2.38762	174834
2.39575	168265
2.40387	158443
2.41198	167067
2.42012	162695
2.42823	197040
2.43637	186098
2.44448	156512
2.45260	162700
2.46073	154722
2.46885	138048
2.47698	130677
2.48510	118214
2.49322	113762
2.50135	113642
2.50947	118902
2.51760	110230
2.52572	104224
2.53383	96517
2.54197	90783
2.55008	95320
2.55820	98470
2.56633	101890
2.57445	113746
2.58258	99610
2.59070	95024
2.59882	89571
2.60695	95769
2.61507	98660
2.62320	116439
2.63132	113799
2.63943	107044
2.64757	104100
2.65568	98216
2.66382	94333
2.67193	96300
2.68005	93377
2.68818	93783
2.69630	88794
2.70442	90030
2.71255	86663
2.72067	85960
2.72880	88475
2.73692	85601
2.74503	81525
2.75317	82680
2.76128	80785
2.76942	81446
2.77753	76728
2.78565	78367
2.79378	76532
2.80190	79570
2.81002	79739
2.81815	83757
2.82627	88220
2.83440	82885
2.84252	78404
2.85063	79104
2.85877	76459
2.86688	80552
2.87502	79843
2.88313	74868
2.89125	75570
2.89938	77746
2.90750	82539
2.91563	78879
2.92375	77580
2.93187	77155
2.94000	78726
2.94812	73218
2.95623	77747
2.96437	77833
2.97248	75603
2.98062	75647
2.98873	75656
2.99685	77549
3.00498	71091
3.01310	74502
3.02123	76227
3.02935	74895
3.03747	75503
3.04560	71897
3.05372	76956
3.06183	69638
3.06997	72392
3.07808	71249
3.08622	76598
3.09433	72426
3.10245	73934
3.11058	76692
3.11870	89348
3.12683	95823
3.13495	85230
3.14307	84124
3.15120	78107
3.15932	75308
3.16745	79484
3.17557	74708
3.18368	75610
3.19182	69369
3.19993	75499
3.20805	77709
3.21618	72954
3.22430	72875
3.23243	70216
3.24055	64247
3.24867	69237
3.25680	67712
3.26492	68711
3.27305	65764
3.28117	61553
3.28928	65600
3.29742	104082
3.30553	356148
3.31367	1246390
3.32178	2916823
3.32990	4048515
3.33803	3876569
3.34615	2922542
3.35427	2143590
3.36240	1599575
3.37052	1288053
3.37865	1055133
3.38677	884078
3.39488	772778
3.40302	671769
3.41113	594252
3.41927	546420
3.42738	506822
3.43550	473816
3.44363	434916
3.45175	407418
3.45987	380585
3.46800	361939
3.47612	355967
3.48425	335010
3.49237	312895
3.50048	298517
3.50862	287706
3.51673	276540
3.52487	254395
3.53298	238149
3.54110	219941
3.54923	214807
3.55735	213012
3.56548	208475
3.57360	207119
3.58172	212180
3.58985	210307
3.59797	225975
3.60608	217289
3.61422	227623
3.62233	225296
3.63047	222707
3.63858	225936
3.64670	220812
3.65483	207663
3.66295	206944
3.67108	196360
3.67920	189618
3.68732	180826
3.69545	173982
3.70357	169398
3.71170	173566
3.71982	167209
3.72793	163362
3.73607	165843
3.74418	162212
3.75230	166288
3.76043	156884
3.76855	155022
3.77668	157775
3.78480	155368
3.79292	150927
3.80105	154581
3.80917	156999
3.81730	155235
3.82542	161082
3.83353	165827
3.84167	166297
3.84978	153240
3.85790	152863
3.86603	148760
3.87415	143552
3.88228	148246
3.89040	137794
3.89852	145867
3.90665	144334
3.91477	137987
3.92290	137372
3.93102	142154
3.93913	139719
3.94727	135657
3.95538	143778
3.96352	134008
3.97163	128904
3.97975	132950
3.98788	131204
3.99600	133730
4.00412	132469
4.01225	129045
4.02037	135807
4.02850	137103
4.03662	135730
4.04473	131791
4.05287	128430
4.06098	134381
4.06912	132631
4.07723	129964
4.08535	129476
4.09348	124937
4.10160	126031
4.10972	123505
4.11785	124762
4.12597	121179
4.13410	116614
4.14222	119962
4.15033	134343
4.15847	149717
4.16658	164807
4.17472	168582
4.18283	154457
4.19095	140315
4.19908	128794
4.20720	125140
4.21533	117390
4.22345	113179
4.23157	119485
4.23970	126554
4.24782	133661
4.25593	137475
4.26407	136362
4.27218	133509
4.28032	120328
4.28843	125056
4.29655	118084
4.30468	113014
4.31280	118678
4.32093	111063
4.32905	119908
4.33717	119080
4.34530	121410
4.35342	122333
4.36155	115539
4.36967	113905
4.37778	115751
4.38592	115773
4.39403	127931
4.40215	118967
4.41028	123267
4.41840	113394
4.42653	116357
4.43465	107942
4.44277	105991
4.45090	111282
4.45902	103713
4.46715	112549
4.47527	106265
4.48338	108515
4.49152	105290
4.49963	106185
4.50777	108096
4.51588	102031
4.52400	108108
4.53213	110099
4.54025	107871
4.54837	105094
4.55650	99828
4.56462	101359
4.57275	103783
4.58087	108449
4.58898	103496
4.59712	100210
4.60523	102929
4.61337	104082
4.62148	101765
4.62960	102678
4.63773	101611
4.64585	99039
4.65397	99184
4.66210	100272
4.67022	105074
4.67835	98819
4.68647	97930
4.69458	100631
4.70272	100638
4.71083	101200
4.71897	98097
4.72708	96777
4.73520	96541
4.74333	99731
4.75145	98088
4.75958	104520
4.76770	99695
4.77582	97678
4.78395	97009
4.79207	98132
4.80018	103339
4.80832	98028
4.81643	98282
4.82457	97800
4.83268	101735
4.84080	93638
4.84893	94472
4.85705	96010
4.86518	95458
4.87330	99928
4.88142	101922
4.88955	96869
4.89767	96689
4.90578	95609
4.91392	99324
4.92203	97040
4.93017	96164
4.93828	96907
4.94640	97260
4.95453	117232
4.96265	212921
4.97078	435851
4.97890	841781
4.98702	1286529
4.99515	1487325
5.00327	1378016
5.01140	1109222
5.01952	858202
5.02763	661840
5.03577	555279
5.04388	487102
5.05200	432778
5.06013	392974
5.06825	344355
5.07638	330846
5.08450	307561
5.09262	285962
5.10075	255681
5.10887	238506
5.11700	229024
5.12512	213774
5.13323	209444
5.14137	222251
5.14948	214101
5.15762	225322
5.16573	221732
5.17385	216794
5.18198	208641
5.19010	209882
5.19822	206348
5.20635	197899
5.21447	194946
5.22260	188193
5.23072	183230
5.23883	184853
5.24697	172335
5.25508	191345
5.26322	194559
5.27133	178066
5.27945	175604
5.28758	159889
5.29570	161492
5.30382	160756
5.31195	157826
5.32007	160744
5.32820	153488
5.33632	159137
5.34443	154790
5.35257	149353
5.36068	150163
5.36882	146164
5.37693	153493
5.38505	150060
5.39318	141036
5.40130	143271
5.40943	145843
5.41755	138754
5.42567	135997
5.43380	137993
5.44192	136670
5.45003	133070
5.45817	136143
5.46628	137866
5.47442	140350
5.48253	134712
5.49065	133556
5.49878	133512
5.50690	128366
5.51503	128055
5.52315	141460
5.53127	139230
5.53940	124894
5.54752	122039
5.55565	119968
5.56377	121722
5.57188	127023
5.58002	122425
5.58813	125008
5.59625	121939
5.60438	122938
5.61250	125731
5.62063	120418
5.62875	126309
5.63687	123709
5.64500	126590
5.65312	124159
5.66125	127891
5.66937	126210
5.67748	128858
5.68562	122627
5.69373	126069
5.70185	141827
5.70998	152770
5.71810	157756
5.72623	153305
5.73435	139637
5.74247	140594
5.75060	121090
5.75872	125195
5.76685	113777
5.77497	118359
5.78308	111891
5.79122	117547
5.79933	113313
5.80747	112879
5.81558	115344
5.82370	121584
5.83183	112783
5.83995	109565
5.84807	109918
5.85620	112779
5.86432	113915
5.87245	104848
5.88057	106769
5.88868	105409
5.89682	105994
5.90493	104099
5.91307	102025
5.92118	93285
5.92930	85496
5.93743	80367
5.94555	82105
5.95367	81224
5.96180	82712
5.96992	78723
5.97805	85386
5.98617	83197
5.99428	87719
6.00242	89665
6.01053	90471
6.01867	94787
6.02678	88124
6.03490	91880
6.04303	90615
6.05115	82710
6.05928	87001
6.06740	85479
6.07552	85945
6.08365	87264
6.09177	79514
6.09988	84578
6.10802	80497
6.11613	88234
6.12427	80272
6.13238	79617
6.14050	84748
6.14863	85224
6.15675	82738
6.16488	88894
6.17300	91088
6.18112	87176
6.18925	94705
6.19737	94978
6.20550	98759
6.21362	101630
6.22173	101595
6.22987	105637
6.23798	101722
6.24610	102983
6.25423	105996
6.26235	104399
6.27048	115369
6.27860	118056
6.28672	121939
6.29485	119755
6.30297	120395
6.31110	125576
6.31922	125165
6.32733	122809
6.33547	128990
6.34358	130840
6.35170	136196
6.35983	139253
6.36795	140988
6.37608	138455
6.38420	139869
6.39232	143271
6.40045	148685
6.40857	139380
6.41670	146917
6.42482	150585
6.43293	146689
6.44107	146106
6.44918	158994
6.45732	153500
6.46543	162761
6.47355	161389
6.48168	165688
6.48980	166994
6.49792	167689
6.50605	141660
6.51417	122145
6.52230	114032
6.53042	106846
6.53853	100026
6.54667	105020
6.55478	98757
6.56292	98563
6.57103	97249
6.57915	94980
6.58728	94541
6.59540	91235
6.60353	88449
6.61165	88164
6.61977	90264
6.62790	87391
6.63602	90579
6.64413	90354
6.65227	84009
6.66038	93104
6.66852	90055
6.67663	85690
6.68475	88126
6.69288	87162
6.70100	81434
6.70913	86664
6.71725	88486
6.72537	84215
6.73350	82093
6.74162	81096
6.74973	82059
6.75787	80877
6.76598	80769
6.77412	79099
6.78223	81852
6.79035	79567
6.79848	78712
6.80660	78747
6.81473	79981
6.82285	83051
6.83097	82379
6.83910	81195
6.84722	82162
6.85535	81797
6.86347	80227
6.87158	67350
6.87972	62338
6.88783	62354
6.89595	66698
6.90408	66430
6.91220	64454
6.92033	63804
6.92845	64393
6.93657	59011
6.94470	59642
6.95282	58817
6.96095	57567
6.96907	56734
6.97718	56385
6.98532	57074
6.99343	58299
7.00157	53387
7.00968	56712
7.01780	52831
7.02593	53305
7.03405	53376
7.04217	57538
7.05030	54520
7.05842	59121
7.06655	56401
7.07467	52225
7.08278	55954
7.09092	55261
7.09903	55225
7.10717	54891
7.11528	50354
7.12340	56796
7.13153	52742
7.13965	51638
7.14777	55309
7.15590	51342
7.16402	50002
7.17215	55312
7.18027	52721
7.18838	54425
7.19652	54224
7.20463	52913
7.21277	53764
7.22088	57218
7.22900	54618
7.23713	54627
7.24525	52494
7.25338	54307
7.26150	55513
7.26962	55111
7.27775	53807
7.28587	52901
7.29398	53121
7.30212	56241
7.31023	52147
7.31837	51012
7.32648	50701
7.33460	50875
7.34273	52409
7.35085	48608
7.35898	52918
7.36710	51032
7.37522	53749
7.38335	51474
7.39147	50536
7.39958	49710
7.40772	54574
7.41583	51524
7.42397	54361
7.43208	52410
7.44020	56860
7.44833	53291
7.45645	53917
7.46458	56488
7.47270	55948
7.48082	54450
7.48895	54611
7.49707	55072
7.50520	52289
7.51332	50797
7.52143	53524
7.52957	51376
7.53768	54136
7.54580	50392
7.55393	54182
7.56205	55989
7.57018	50493
7.57830	53579
7.58642	53807
7.59455	52105
7.60267	51913
7.61080	51098
7.61892	48333
7.62703	49613
7.63517	49903
7.64328	49087
7.65142	51203
7.65953	50195
7.66765	51767
7.67578	49120
7.68390	51243
7.69202	49319
7.70015	53637
7.70827	50726
7.71640	51079
7.72452	47374
7.73263	50502
7.74077	49704
7.74888	51576
7.75702	49221
7.76513	47897
7.77325	49392
7.78138	46727
7.78950	48250
7.79762	50243
7.80575	55737
7.81387	48747
7.82200	49862
7.83012	48578
7.83823	51885
7.84637	45119
7.85448	47068
7.86262	47708
7.87073	45727
7.87885	48365
7.88698	45214
7.89510	49295
7.90323	44816
7.91135	48161
7.91947	43675
7.92760	43297
7.93572	48651
7.94383	45103
7.95197	45149
7.96008	44999
7.96822	46889
7.97633	46267
7.98445	47127
7.99258	47158
8.00070	48521
8.00883	47560
8.01695	47322
8.02507	45792
8.03320	47177
8.04132	44005
8.04945	47182
8.05757	47671
8.06568	45493
8.07382	45439
8.08193	45828
8.09005	48170
8.09818	45008
8.10630	47001
8.11443	46648
8.12255	44727
8.13067	48815
8.13880	48617
8.14692	44775
8.15505	50091
8.16317	44011
8.17128	46331
8.17942	46527
8.18753	48954
8.19565	50580
8.20378	49824
8.21190	48707
8.22003	46102
8.22815	48064
8.23627	49171
8.24440	44435
8.25252	50627
8.26065	49760
8.26877	48995
8.27688	48899
8.28502	48388
8.29313	50127
8.30127	47525
8.30938	46802
8.31750	51359
8.32563	51564
8.33375	48527
8.34187	51247
8.35000	48215
8.35812	50955
8.36625	53130
8.37437	52269
8.38248	51261
8.39062	54504
8.39873	52302
8.40687	49486
8.41498	50354
8.42310	48559
8.43123	50647
8.43935	54553
8.44747	50087
8.45560	48042
8.46372	48230
8.47185	48389
8.47997	52819
8.48808	50720
8.49622	51625
8.50433	51788
8.51247	54107
8.52058	54851
8.52870	59182
8.53683	63541
8.54495	66928
8.55308	66974
8.56120	63592
8.56932	58221
8.57745	55374
8.58557	59593
8.59368	56272
8.60182	52847
8.60993	52308
8.61807	70763
8.62618	307841
8.63430	589123
8.64243	318815
8.65055	135167
8.65868	102313
8.66680	89303
8.67492	85515
8.68305	78992
8.69117	73212
8.69930	66899
8.70742	77782
8.71553	83560
8.72367	69954
8.73178	68756
8.73990	69192
8.74803	65888
8.75615	63912
8.76428	67431
8.77240	59849
8.78052	63668
8.78865	76375
8.79677	97092
8.80490	154723
8.81302	237186
8.82113	333808
8.82927	413128
8.83738	408504
8.84550	369893
8.85363	310923
8.86175	260509
8.86988	213340
8.87800	187973
8.88612	159818
8.89425	160607
8.90237	147783
8.91050	142389
8.91862	136597
8.92673	134353
8.93487	128870
8.94298	121599
8.95112	119487
8.95923	118943
8.96735	121191
8.97548	113822
8.98360	113652
8.99172	110621
8.99985	102843
9.00797	103529
9.01610	111702
9.02422	153338
9.03233	434452
9.04047	622742
9.04858	438293
9.05672	315453
9.06483	249342
9.07295	220424
9.08108	197643
9.08920	178834
9.09733	164516
9.10545	161815
9.11357	143323
9.12170	144820
9.12982	132621
9.13793	131432
9.14607	130215
9.15418	120330
9.16232	120906
9.17043	117925
9.17855	118683
9.18668	115438
9.19480	113312
9.20293	111609
9.21105	110411
9.21917	108944
9.22730	110638
9.23542	112129
9.24353	111317
9.25167	109472
9.25978	105679
9.26792	103898
9.27603	97997
9.28415	94928
9.29228	95440
9.30040	96022
9.30853	94253
9.31665	92729
9.32477	86844
9.33290	92422
9.34102	89258
9.34915	85446
9.35727	87242
9.36538	86856
9.37352	84339
9.38163	81844
9.38975	82147
9.39788	86370
9.40600	87535
9.41413	85184
9.42225	82625
9.43037	80065
9.43850	82598
9.44662	83898
9.45475	85619
9.46287	81920
9.47098	79633
9.47912	76709
9.48723	81018
9.49535	79877
9.50348	81806
9.51160	83928
9.51973	125985
9.52785	207447
9.53597	229772
9.54410	176752
9.55222	152922
9.56035	134882
9.56847	129983
9.57658	121519
9.58472	105866
9.59283	102701
9.60097	92757
9.60908	82500
9.61720	88424
9.62533	85667
9.63345	86808
9.64157	84096
9.64970	81262
9.65782	71434
9.66595	73229
9.67407	72768
9.68218	70959
9.69032	71170
9.69843	68467
9.70657	66343
9.71468	65304
9.72280	70947
9.73093	66874
9.73905	66433
9.74718	66589
9.75530	63558
9.76342	64816
9.77155	65327
9.77967	66647
9.78778	63936
9.79592	62046
9.80403	59928
9.81217	60597
9.82028	60700
9.82840	62947
9.83653	62111
9.84465	62165
9.85278	69115
9.86090	65230
9.86902	67977
9.87715	68186
9.88527	61388
9.89340	61091
9.90152	61261
9.90963	60797
9.91777	60362
9.92588	61445
9.93400	57848
9.94213	57299
9.95025	55747
9.95838	57489
9.96650	57539
9.97462	58229
9.98275	55521
9.99087	55137
9.99900	58385
10.00712	55968
10.01523	67736
10.02337	63886
10.03148	68798
10.03960	70898
10.04773	70907
10.05585	72666
10.06398	73781
10.07210	68008
10.08022	70969
10.08835	65879
10.09647	60224
10.10460	66246
10.11272	63128
10.12083	62256
10.12897	63445
10.13708	64840
10.14522	58885
10.15333	60578
10.16145	55716
10.16958	51735
10.17770	59387
10.18582	59161
10.19395	62796
10.20207	60527
10.21020	65772
10.21832	67567
10.22643	75070
10.23457	84063
10.24268	95517
10.25082	104361
10.25893	111637
10.26705	119822
10.27518	108704
10.28330	89406
10.29142	80146
10.29955	76497
10.30767	75149
10.31580	78851
10.32392	84390
10.33203	93406
10.34017	101752
10.34828	88808
10.35642	92263
10.36453	83583
10.37265	81385
10.38078	76149
10.38890	73771
10.39703	71081
10.40515	72253
10.41327	64720
10.42140	69072
10.42952	67428
10.43763	66401
10.44577	67257
10.45388	65588
10.46202	63937
10.47013	62102
10.47825	61911
10.48638	63005
10.49450	64533
10.50263	58990
10.51075	59679
10.51887	58304
10.52700	54192
10.53512	58316
10.54325	56794
10.55137	60406
10.55948	58532
10.56762	59953
10.57573	56866
10.58385	57486
10.59198	59194
10.60010	62240
10.60823	55105
10.61635	60483
10.62447	53472
10.63260	56446
10.64072	51025
10.64885	55326
10.65697	55238
10.66508	55955
10.67322	56016
10.68133	57445
10.68945	52371
10.69758	56667
10.70570	51988
10.71383	56049
10.72195	58630
10.73007	59439
10.73820	58384
10.74632	63913
10.75445	56258
10.76257	58953
10.77068	54790
10.77882	57221
10.78693	58488
10.79507	59695
10.80318	56178
10.81130	56983
10.81943	54019
10.82755	54268
10.83567	56066
10.84380	51238
10.85192	50006
10.86005	53638
10.86817	53182
10.87628	53374
10.88442	46619
10.89253	52448
10.90067	51523
10.90878	51996
10.91690	55838
10.92503	49268
10.93315	53591
10.94128	48354
10.94940	52581
10.95752	51050
10.96565	46939
10.97377	50586
10.98188	51413
10.99002	51621
10.99813	50780
11.00627	49866
11.01438	52734
11.02250	48237
11.03063	46430
11.03875	49689
11.04688	49804
11.05500	49897
11.06312	52217
11.07125	47905
11.07937	46047
11.08748	48672
11.09562	51648
11.10373	66896
11.11187	70518
11.11998	77773
11.12810	71555
11.13623	64264
11.14435	60613
11.15248	56716
11.16060	59960
11.16872	53987
11.17685	55731
11.18497	55842
11.19310	56493
11.20122	61684
11.20933	63447
11.21747	69579
11.22558	70031
11.23370	72531
11.24183	65148
11.24995	65793
11.25808	58258
11.26620	58016
11.27432	48501
11.28245	49471
11.29057	47674
11.29870	47304
11.30682	51442
11.31493	45772
11.32307	46483
11.33118	48552
11.33930	47239
11.34743	45964
11.35555	48063
11.36368	49360
11.37180	52987
11.37992	43090
11.38805	49382
11.39617	45358
11.40430	46336
11.41242	46336
11.42053	51476
11.42867	43510
11.43678	54207
11.44492	46848
11.45303	44627
11.46115	41497
11.46928	44512
11.47740	44966
11.48552	42397
11.49365	43483
11.50177	46413
11.50990	43195
11.51802	45258
11.52613	43309
11.53427	49173
11.54238	44061
11.55052	46963
11.55863	41910
11.56675	41445
11.57488	44029
11.58300	51331
11.59113	45009
11.59925	41683
11.60737	46240
11.61550	46755
11.62362	43321
11.63173	41399
11.63987	47514
11.64798	45944
11.65612	46067
11.66423	43261
11.67235	44349
11.68048	46112
11.68860	45862
11.69673	43191
11.70485	41386
11.71297	45049
11.72110	52742
11.72922	46760
11.73733	45470
11.74547	51285
11.75358	47873
11.76172	51066
11.76983	50714
11.77795	48161
11.78608	49184
11.79420	47540
11.80233	45613
11.81045	48656
11.81857	50185
11.82670	45721
11.83482	50158
11.84295	43882
11.85107	45006
11.85918	43557
11.86732	43106
11.87543	45090
11.88355	46261
11.89168	44298
11.89980	45012
11.90793	47109
11.91605	43179
11.92417	42712
11.93230	43901
11.94042	43102
11.94855	45400
11.95667	44422
11.96478	40888
11.97292	43548
11.98103	44413
11.98917	40827
11.99728	45721
12.00540	42075
12.01353	43086
12.02165	47297
12.02977	45454
12.03790	45312
12.04602	45243
12.05415	44134
12.06227	44604
12.07038	42238
12.07852	43220
12.08663	44970
12.09477	40899
12.10288	49356
12.11100	43632
12.11913	43405
12.12725	43703
12.13537	46721
12.14350	42586
12.15162	43937
12.15975	39055
12.16787	40063
12.17598	47168
12.18412	39598
12.19223	42248
12.20037	42098
12.20848	45053
12.21660	46129
12.22473	40869
12.23285	40495
12.24098	38939
12.24910	41073
12.25722	43269
12.26535	39583
12.27347	45619
12.28158	44121
12.28972	39706
12.29783	46941
12.30597	41827
12.31408	41609
12.32220	40293
12.33033	38173
12.33845	43560
12.34658	39236
12.35470	40464
12.36282	39901
12.37095	37902
12.37907	39926
12.38718	40771
12.39532	42622
12.40343	40580
12.41157	43166
12.41968	42090
12.42780	38488
12.43593	45112
12.44405	39387
12.45218	42674
12.46030	40179
12.46842	43172
12.47655	41186
12.48467	42070
12.49280	46128
12.50092	38302
12.50903	38397
12.51717	43837
12.52528	43576
12.53340	41200
12.54153	40047
12.54965	38948
12.55778	40566
12.56590	40866
12.57402	40112
12.58215	44229
12.59027	42211
12.59840	43239
12.60652	38928
12.61463	41837
12.62277	42278
12.63088	42024
12.63902	40252
12.64713	41549
12.65525	40219
12.66338	40820
12.67150	41030
12.67962	37109
12.68775	37191
12.69587	37412
12.70400	40210
12.71212	39565
12.72023	37962
12.72837	39462
12.73648	39950
12.74462	42201
12.75273	44923
12.76085	47813
12.76898	49397
12.77710	48959
12.78522	47708
12.79335	44765
12.80147	46425
12.80960	45069
12.81772	45435
12.82583	41483
12.83397	41930
12.84208	43247
12.85022	40982
12.85833	38530
12.86645	40914
12.87458	41691
12.88270	40472
12.89083	39984
12.89895	39958
12.90707	40331
12.91520	40315
12.92332	37448
12.93143	39276
12.93957	40288
12.94768	41902
12.95582	36448
12.96393	39314
12.97205	40425
12.98018	37128
12.98830	42094
12.99643	39145
13.00455	38075
13.01267	34872
13.02080	41209
13.02892	45683
13.03705	37181
13.04517	40115
13.05328	38455
13.06142	40208
13.06953	34468
13.07765	35317
13.08578	37282
13.09390	40005
13.10203	36186
13.11015	38723
13.11827	37494
13.12640	38761
13.13452	39882
13.14265	40346
13.15077	40706
13.15888	35949
13.16702	36514
13.17513	39126
13.18325	35810
13.19138	38217
13.19950	39533
13.20763	41175
13.21575	39396
13.22387	41713
13.23200	42999
13.24012	43126
13.24825	43649
13.25637	40591
13.26448	43373
13.27262	42372
13.28073	37815
13.28887	43045
13.29698	39510
13.30510	39990
13.31323	39133
13.32135	38913
13.32947	39205
13.33760	38738
13.34572	36474
13.35385	39922
13.36197	37280
13.37008	36567
13.37822	39326
13.38633	41836
13.39447	38459
13.40258	41942
13.41070	38010
13.41883	36280
13.42695	36271
13.43508	42402
13.44320	37996
13.45132	40777
13.45945	41388
13.46757	37558
13.47568	37657
13.48382	37353
13.49193	38301
13.50007	37958
13.50818	40512
13.51630	38202
13.52443	35864
13.53255	38732
13.54068	39018
13.54880	38161
13.55692	35417
13.56505	36177
13.57317	38510
13.58128	37927
13.58942	35823
13.59753	38628
13.60567	36144
13.61378	37950
13.62190	37011
13.63003	39082
13.63815	38864
13.64628	33908
13.65440	35103
13.66252	40523
13.67065	35892
13.67877	37697
13.68690	36054
13.69502	36899
13.70313	42396
13.71127	36237
13.71938	38337
13.72750	41513
13.73563	38051
13.74375	36042
13.75188	36075
13.76000	39957
13.76812	34850
13.77625	40327
13.78437	37904
13.79250	38866
13.80062	38415
13.80873	40787
13.81687	39279
13.82498	41020
13.83310	35246
13.84123	38434
13.84935	38723
13.85748	41747
13.86560	41284
13.87372	39044
13.88185	39755
13.88997	41160
13.89810	35899
13.90622	39394
13.91433	39748
13.92247	40863
13.93058	40486
13.93872	40683
13.94683	39798
13.95495	43028
13.96308	41090
13.97120	41034
13.97932	41260
13.98745	41025
13.99557	38956
14.00370	45443
14.01182	39617
14.01993	45094
14.02807	41127
14.03618	42965
14.04432	36155
14.05243	45148
14.06055	41891
14.06868	41601
14.07680	41139
14.08493	46589
14.09305	48867
14.10117	41196
14.10930	44128
14.11742	42981
14.12553	40680
14.13367	40858
14.14178	43021
14.14992	40677
14.15803	41406
14.16615	40511
14.17428	43190
14.18240	41930
14.19053	36806
14.19865	47003
14.20677	52184
14.21490	75900
14.22302	101145
14.23113	130466
14.23927	139903
14.24738	144944
14.25552	133591
14.26363	112849
14.27175	104539
14.27988	92814
14.28800	87217
14.29613	82372
14.30425	78101
14.31237	78281
14.32050	75652
14.32862	72118
14.33675	67940
14.34487	70601
14.35298	63420
14.36112	68793
14.36923	60990
14.37735	58457
14.38548	55938
14.39360	53769
14.40173	47530
14.40985	46893
14.41797	49236
14.42610	41199
14.43422	43337
14.44235	44033
14.45047	45299
14.45858	45850
14.46672	46201
14.47483	40271
14.48297	47164
14.49108	42518
14.49920	42308
14.50733	43567
14.51545	40838
14.52357	41865
14.53170	40742
14.53982	43429
14.54795	41008
14.55607	39647
14.56418	41798
14.57232	37981
14.58043	38356
14.58857	36835
14.59668	38718
14.60480	43150
14.61293	40906
14.62105	38816
14.62917	39814
14.63730	38505
14.64542	40905
14.65355	45333
14.66167	34586
14.66978	37015
14.67792	40455
14.68603	34338
14.69417	36342
14.70228	38135
14.71040	38275
14.71853	38642
14.72665	36780
14.73478	43514
14.74290	40675
14.75102	45278
14.75915	36177
14.76727	38796
14.77538	42132
14.78352	37649
14.79163	40961
14.79977	42469
14.80788	38021
14.81600	39365
14.82413	42666
14.83225	44107
14.84038	42854
14.84850	50350
14.85662	47500
14.86475	46987
14.87287	43527
14.88098	42975
14.88912	44404
14.89723	41876
14.90537	43274
14.91348	42616
14.92160	41900
14.92973	40166
14.93785	43615
14.94598	47275
14.95410	40789
14.96222	38525
14.97035	42173
14.97847	40819
14.98660	37399
14.99472	37261
15.00283	40405
15.01097	38057
15.01908	42813
15.02720	40044
15.03533	39442
15.04345	38903
15.05158	37470
15.05970	39170
15.06782	38177
15.07595	38980
15.08407	33364
15.09220	36049
15.10032	38682
15.10843	37710
15.11657	38254
15.12468	34476
15.13282	37711
15.14093	33306
15.14905	34955
15.15718	33774
15.16530	33887
15.17342	39440
15.18155	36164
15.18967	34593
15.19780	33280
15.20592	32980
15.21403	34859
15.22217	31611
15.23028	34675
15.23842	34443
15.24653	30654
15.25465	32526
15.26278	37156
15.27090	34470
15.27903	32412
15.28715	29540
15.29527	35277
15.30340	32068
15.31152	35542
15.31963	35934
15.32777	33015
15.33588	30586
15.34402	32059
15.35213	30870
15.36025	32359
15.36838	32556
15.37650	31493
15.38463	30809
15.39275	30804
15.40087	31261
15.40900	31836
15.41712	35385
15.42523	35419
15.43337	34763
15.44148	31765
15.44962	31814
15.45773	30660
15.46585	34375
15.47398	33331
15.48210	31964
15.49023	41448
15.49835	33861
15.50647	32524
15.51460	34565
15.52272	34093
15.53085	33949
15.53897	38400
15.54708	35739
15.55522	37317
15.56333	33790
15.57145	34053
15.57958	36336
15.58770	32950
15.59583	36853
15.60395	32315
15.61207	36445
15.62020	28355
15.62832	30832
15.63645	32683
15.64457	30370
15.65268	32127
15.66082	30110
15.66893	30357
15.67705	29548
15.68518	31649
15.69330	34392
15.70143	32042
15.70955	33596
15.71767	32943
15.72580	32775
15.73392	30747
15.74205	34279
15.75017	32545
15.75828	30558
15.76642	32608
15.77453	33307
15.78267	35680
15.79078	31326
15.79890	29872
15.80703	29891
15.81515	33031
15.82327	30906
15.83140	34609
15.83952	33003
15.84765	37386
15.85577	32117
15.86388	34458
15.87202	33457
15.88013	37443
15.88827	30913
15.89638	34341
15.90450	32092
15.91263	30517
15.92075	31886
15.92888	33428
15.93700	33423
15.94512	32441
15.95325	33777
15.96137	33285
15.96948	34451
15.97762	34834
15.98573	34581
15.99387	36039
16.00198	32439
16.01010	33555
16.01823	33131
16.02635	38497
16.03448	42975
16.04260	55467
16.05072	55137
16.05885	54738
16.06697	53936
16.07508	50227
16.08322	44898
16.09133	43840
16.09947	40440
16.10758	42620
16.11570	36760
16.12383	38119
16.13195	39297
16.14008	36461
16.14820	35430
16.15632	36450
16.16445	36915
16.17257	35916
16.18070	34593
16.18882	32753
16.19693	34836
16.20507	36100
16.21318	36246
16.22130	34172
16.22943	34100
16.23755	36047
16.24568	36705
16.25380	36803
16.26192	36872
16.27005	38583
16.27817	34784
16.28630	33830
16.29442	32447
16.30253	37502
16.31067	35546
16.31878	33723
16.32692	34202
16.33503	32862
16.34315	35144
16.35128	33143
16.35940	36299
16.36752	37357
16.37565	33486
16.38377	39679
16.39190	35316
16.40002	36623
16.40813	35736
16.41627	32324
16.42438	36975
16.43252	37961
16.44063	35016
16.44875	33697
16.45688	32615
16.46500	36846
16.47312	36612
16.48125	35863
16.48937	33376
16.49750	36373
16.50562	38852
16.51373	39334
16.52187	36466
16.52998	37162
16.53812	35796
16.54623	34839
16.55435	33136
16.56248	37033
16.57060	36005
16.57873	34646
16.58685	32972
16.59497	35642
16.60310	35463
16.61122	37222
16.61933	37463
16.62747	34715
16.63558	34048
16.64372	35621
16.65183	37071
16.65995	33011
16.66808	35422
16.67620	34940
16.68433	33147
16.69245	37113
16.70057	31188
16.70870	37638
16.71682	39645
16.72493	31571
16.73307	31556
16.74118	30838
16.74932	29935
16.75743	30550
16.76555	31225
16.77368	31287
16.78180	33087
16.78993	36593
16.79805	34829
16.80617	30511
16.81430	31568
16.82242	32544
16.83055	30554
16.83867	30512
16.84678	31933
16.85492	30223
16.86303	30893
16.87115	28215
16.87928	30564
16.88740	30062
16.89553	30997
16.90365	28379
16.91177	30432
16.91990	28351
16.92802	31211
16.93615	32110
16.94427	33744
16.95238	36759
16.96052	35125
16.96863	34332
16.97677	34391
16.98488	36289
16.99300	32639
17.00113	30143
17.00925	31926
17.01737	29826
17.02550	29990
17.03362	32927
17.04175	32625
17.04987	29686
17.05798	34057
17.06612	33169
17.07423	31521
17.08237	32417
17.09048	30323
17.09860	32770
17.10673	32273
17.11485	32739
17.12297	33386
17.13110	32944
17.13922	32664
17.14735	31077
17.15547	31361
17.16358	31746
17.17172	33486
17.17983	31008
17.18797	28377
17.19608	32992
17.20420	32936
17.21233	29801
17.22045	31750
17.22858	27892
17.23670	30817
17.24482	28468
17.25295	29519
17.26107	34340
17.26918	34447
17.27732	28430
17.28543	28903
17.29357	29513
17.30168	34431
17.30980	30720
17.31793	29787
17.32605	29093
17.33418	32413
17.34230	26625
17.35042	30873
17.35855	28960
17.36667	35318
17.37480	36511
17.38292	38961
17.39103	38729
17.39917	37960
17.40728	40913
17.41540	38064
17.42353	32750
17.43165	33051
17.43978	36411
17.44790	33230
17.45602	35548
17.46415	35946
17.47227	34979
17.48040	34547
17.48852	33603
17.49663	36390
17.50477	35616
17.51288	34585
17.52100	35137
17.52913	32616
17.53725	32240
17.54538	35827
17.55350	33277
17.56162	31840
17.56975	37862
17.57787	33528
17.58600	33964
17.59412	33180
17.60223	35476
17.61037	31844
17.61848	35787
17.62662	30709
17.63473	28371
17.64285	32391
17.65098	33255
17.65910	34192
17.66722	31848
17.67535	33511
17.68347	32827
17.69160	33309
17.69972	39994
17.70783	40726
17.71597	37547
17.72408	41746
17.73222	40735
17.74033	37511
17.74845	40602
17.75658	36603
17.76470	40672
17.77282	40718
17.78095	40997
17.78907	36571
17.79720	35381
17.80532	36395
17.81343	35231
17.82157	35758
17.82968	38197
17.83782	37363
17.84593	33914
17.85405	39829
17.86218	37973
17.87030	37446
17.87843	37268
17.88655	35245
17.89467	36184
17.90280	34051
17.91092	37001
17.91903	31294
17.92717	34983
17.93528	35498
17.94342	32049
17.95153	31419
17.95965	30207
17.96778	31294
17.97590	34336
17.98403	30207
17.99215	31565
18.00027	31092
18.00840	30501
18.01652	29167
18.02465	34096
18.03277	32188
18.04088	34474
18.04902	28965
18.05713	33410
18.06525	32106
18.07338	35664
18.08150	35166
18.08963	32522
18.09775	39771
18.10587	36822
18.11400	37154
18.12212	43236
18.13025	42686
18.13837	43651
18.14648	36276
18.15462	36196
18.16273	36818
18.17085	40150
18.17898	38375
18.18710	40003
18.19523	37309
18.20335	35263
18.21147	35278
18.21960	39262
18.22772	38135
18.23585	38981
18.24397	40136
18.25208	37937
18.26022	38618
18.26833	40199
18.27647	47060
18.28458	41767
18.29270	41387
18.30083	39366
18.30895	41685
18.31707	39007
18.32520	35040
18.33332	34500
18.34145	36953
18.34957	37975
18.35768	36300
18.36582	36658
18.37393	31547
18.38207	33719
18.39018	33621
18.39830	35679
18.40643	39097
18.41455	33849
18.42268	34411
18.43080	32602
18.43892	33029
18.44705	30542
18.45517	32994
18.46328	32322
18.47142	32425
18.47953	32725
18.48767	33517
18.49578	30727
18.50390	35132
18.51203	30854
18.52015	31813
18.52828	33810
18.53640	37890
18.54452	36578
18.55265	35021
18.56077	31241
18.56888	33951
18.57702	35881
18.58513	35060
18.59327	36404
18.60138	32217
18.60950	34596
18.61763	31330
18.62575	34522
18.63388	35220
18.64200	33374
18.65012	33187
18.65825	36203
18.66637	34037
18.67450	31450
18.68262	33710
18.69073	31887
18.69887	29793
18.70698	30611
18.71510	34696
18.72323	32203
18.73135	30865
18.73948	35867
18.74760	33231
18.75572	32702
18.76385	29912
18.77197	30949
18.78010	33347
18.78822	32885
18.79633	35348
18.80447	32535
18.81258	29232
18.82072	31475
18.82883	31834
18.83695	32277
18.84508	31142
18.85320	33172
18.86132	31067
18.86945	29362
18.87757	31427
18.88570	36564
18.89382	35273
18.90193	30768
18.91007	32622
18.91818	30028
18.92632	35593
18.93443	33032
18.94255	29929
18.95068	34653
18.95880	30614
18.96692	35087
18.97505	34259
18.98317	33141
18.99130	36843
18.99942	34260
19.00753	33314
19.01567	33966
19.02378	34639
19.03192	32995
19.04003	36083
19.04815	35273
19.05628	29218
19.06440	34438
19.07253	33061
19.08065	31229
19.08877	33699
19.09690	37210
19.10502	40443
19.11313	44527
19.12127	46607
19.12938	49981
19.13752	53424
19.14563	53876
19.15375	55600
19.16188	51342
19.17000	46552
19.17813	46226
19.18625	47463
19.19437	48254
19.20250	43715
19.21062	42711
19.21873	44801
19.22687	44466
19.23498	45017
19.24312	39084
19.25123	41335
19.25935	44123
19.26748	38494
19.27560	40255
19.28373	41464
19.29185	43004
19.29997	50553
19.30810	53012
19.31622	58471
19.32435	58180
19.33247	57900
19.34058	51448
19.34872	46619
19.35683	46005
19.36495	43774
19.37308	41234
19.38120	42838
19.38933	40482
19.39745	41268
19.40557	37922
19.41370	36366
19.42182	39784
19.42995	37681
19.43807	43660
19.44618	40285
19.45432	35962
19.46243	35470
19.47057	34175
19.47868	37868
19.48680	37372
19.49493	42343
19.50305	44738
19.51117	47376
19.51930	60914
19.52742	71222
19.53555	88487
19.54367	89662
19.55178	78449
19.55992	67382
19.56803	57517
19.57617	50678
19.58428	37894
19.59240	38024
19.60053	35951
19.60865	34952
19.61677	36208
19.62490	40884
19.63302	38317
19.64115	41650
19.64927	49276
19.65738	61242
19.66552	93612
19.67363	136135
19.68177	159074
19.68988	194891
19.69800	203203
19.70613	178232
19.71425	151107
19.72238	118655
19.73050	97204
19.73862	79039
19.74675	76222
19.75487	59167
19.76298	55176
19.77112	56230
19.77923	56175
19.78737	54106
19.79548	47135
19.80360	52216
19.81173	45403
19.81985	41160
19.82798	44903
19.83610	39936
19.84422	36791
19.85235	40681
19.86047	43347
19.86860	41824
19.87672	44671
19.88483	60997
19.89297	97036
19.90108	169500
19.90920	281352
19.91733	427964
19.92545	598253
19.93358	726220
19.94170	851358
19.94982	901998
19.95795	898786
19.96607	882917
19.97420	843351
19.98232	809681
19.99043	775488
19.99857	747151
20.00668	715914
20.01480	692450
20.02293	673365
20.03105	629080
20.03918	589305
20.04730	553673
20.05542	499795
20.06355	411310
20.07167	334803
20.07980	264029
20.08792	203893
20.09603	166300
20.10417	144058
20.11228	134588
20.12042	129444
20.12853	120782
20.13665	119779
20.14478	120127
20.15290	115172
20.16102	111585
20.16915	102791
20.17727	107814
20.18540	98772
20.19352	102298
20.20163	98409
20.20977	99992
20.21788	98561
20.22602	93553
20.23413	90886
20.24225	93631
20.25038	89298
20.25850	95150
20.26662	94102
20.27475	119164
20.28287	142540
20.29100	158989
20.29912	191949
20.30723	201349
20.31537	178571
20.32348	172109
20.33162	147043
20.33973	128983
20.34785	101189
20.35598	91151
20.36410	75549
20.37223	70179
20.38035	61708
20.38847	61402
20.39660	64082
20.40472	62074
20.41283	71875
20.42097	68332
20.42908	77267
20.43722	82853
20.44533	91936
20.45345	95388
20.46158	105213
20.46970	108457
20.47783	105568
20.48595	102905
20.49407	102510
20.50220	94052
20.51032	86563
20.51845	83369
20.52657	82849
20.53468	75080
20.54282	77668
20.55093	73519
20.55905	72409
20.56718	75235
20.57530	70470
20.58343	69491
20.59155	72016
20.59967	67575
20.60780	70088
20.61592	70653
20.62405	68061
20.63217	66455
20.64028	69245
20.64842	70750
20.65653	71377
20.66467	66435
20.67278	65773
20.68090	67663
20.68903	66998
20.69715	65523
20.70527	66291
20.71340	64769
20.72152	62149
20.72965	65715
20.73777	62189
20.74588	62431
20.75402	62936
20.76213	59619
20.77027	57318
20.77838	59011
20.78650	60356
20.79463	61887
20.80275	62835
20.81087	62299
20.81900	58744
20.82712	60519
20.83525	62654
20.84337	54839
20.85148	55974
20.85962	60456
20.86773	57158
20.87587	56989
20.88398	62478
20.89210	58323
20.90023	61235
20.90835	55889
20.91648	61621
20.92460	55404
20.93272	53568
20.94085	55578
20.94897	54662
20.95708	56482
20.96522	57497
20.97333	58368
20.98147	57005
20.98958	57755
20.99770	55145
21.00583	51812
21.01395	51366
21.02208	53359
21.03020	53350
21.03832	56958
21.04645	57641
21.05457	53919
21.06268	55562
21.07082	57572
21.07893	54016
21.08707	54498
21.09518	52098
21.10330	48941
21.11143	53779
21.11955	50095
21.12768	53552
21.13580	52018
21.14392	51860
21.15205	58891
21.16017	56243
21.16830	55429
21.17642	55597
21.18453	61028
21.19267	59321
21.20078	63764
21.20890	57378
21.21703	60074
21.22515	59240
21.23328	58918
21.24140	56978
21.24952	53621
21.25765	57208
21.26577	58724
21.27390	56426
21.28202	56855
21.29013	57212
21.29827	55722
21.30638	57551
21.31452	55166
21.32263	53446
21.33075	51174
21.33888	52949
21.34700	52408
21.35512	51368
21.36325	51178
21.37137	50830
21.37950	53793
21.38762	52432
21.39573	52088
21.40387	45683
21.41198	47666
21.42012	47125
21.42823	49831
21.43635	52181
21.44448	48772
21.45260	49931
21.46072	50527
21.46885	46945
21.47697	49337
21.48510	47077
21.49322	51258
21.50133	53796
21.50947	45972
21.51758	47674
21.52572	48232
21.53383	53715
21.54195	50713
21.55008	46046
21.55820	47443
21.56633	49227
21.57445	47421
21.58257	45577
21.59070	45888
21.59882	46512
21.60693	45495
21.61507	46918
21.62318	47376
21.63132	53701
21.63943	62419
21.64755	72892
21.65568	82224
21.66380	86974
21.67193	85511
21.68005	80518
21.68817	76969
21.69630	64549
21.70442	59106
21.71255	61305
21.72067	54188
21.72878	54174
21.73692	53583
21.74503	55246
21.75315	55455
21.76128	52705
21.76940	53289
21.77753	54826
21.78565	44314
21.79377	43213
21.80190	49808
21.81002	45505
21.81815	45716
21.82627	42455
21.83438	48808
21.84252	55138
21.85063	64203
21.85875	76011
21.86688	73299
21.87500	64545
21.88313	63794
21.89125	55908
21.89937	55064
21.90750	44663
21.91562	43201
21.92375	40508
21.93187	44714
21.93998	44430
21.94812	42771
21.95623	45783
21.96437	39483
21.97248	44093
21.98060	41113
21.98873	41336
21.99685	37524
22.00497	40163
22.01310	36781
22.02122	36749
22.02935	38168
22.03747	37768
22.04558	37248
22.05372	35716
22.06183	36589
22.06997	34562
22.07808	36130
22.08620	34601
22.09433	38342
22.10245	35400
22.11057	39319
22.11870	37435
22.12682	41724
22.13495	37001
22.14307	33945
22.15118	34167
22.15932	40988
22.16743	39684
22.17557	39461
22.18368	39476
22.19180	40241
22.19993	41445
22.20805	35556
22.21618	37126
22.22430	39141
22.23242	38414
22.24055	39673
22.24867	40227
22.25678	44330
22.26492	44455
22.27303	38901
22.28117	39146
22.28928	38588
22.29740	37192
22.30553	33171
22.31365	33169
22.32178	36391
22.32990	39977
22.33802	39812
22.34615	40254
22.35427	42713
22.36240	46902
22.37052	44438
22.37863	47507
22.38677	46280
22.39488	44362
22.40300	45495
22.41113	42420
22.41925	47888
22.42738	41989
22.43550	39380
22.44362	36924
22.45175	34814
22.45987	39752
22.46800	36938
22.47612	36766
22.48423	32422
22.49237	33256
22.50048	32951
22.50860	37889
22.51673	37786
22.52485	31793
22.53298	34836
22.54110	35618
22.54922	35180
22.55735	32215
22.56547	31700
22.57360	29465
22.58172	32591
22.58983	27852
22.59797	35545
22.60608	33825
22.61422	33842
22.62233	30914
22.63045	29491
22.63858	28375
22.64670	30651
22.65482	32649
22.66295	32074
22.67107	35053
22.67920	31316
22.68732	32535
22.69543	34776
22.70357	36840
22.71168	33677
22.71982	38635
22.72793	37522
22.73605	37638
22.74418	37019
22.75230	36527
22.76043	39089
22.76855	35053
22.77667	33570
22.78480	34942
22.79292	34338
22.80103	32393
22.80917	36867
22.81728	33407
22.82542	32838
22.83353	33294
22.84165	36426
22.84978	30040
22.85790	34822
22.86603	34274
22.87415	37347
22.88227	37078
22.89040	37774
22.89852	36574
22.90663	38284
22.91477	43664
22.92288	48368
22.93102	59818
22.93913	70024
22.94725	84499
22.95538	95503
22.96350	95342
22.97163	96260
22.97975	89486
22.98787	80204
22.99600	74600
23.00412	69804
23.01225	64388
23.02037	57940
23.02848	55878
23.03662	49607
23.04473	45329
23.05285	41731
23.06098	41343
23.06910	37759
23.07723	40677
23.08535	35240
23.09347	35880
23.10160	38948
23.10972	37795
23.11785	33572
23.12597	35431
23.13408	33650
23.14222	34107
23.15033	36209
23.15847	35018
23.16658	37132
23.17470	35855
23.18283	35614
23.19095	33850
23.19907	33838
23.20720	36598
23.21532	42536
23.22345	35118
23.23157	36283
23.23968	36202
23.24782	33827
23.25593	34312
23.26407	33499
23.27218	33802
23.28030	34856
23.28843	35763
23.29655	36148
23.30467	37005
23.31280	34755
23.32092	31854
23.32905	29255
23.33717	33686
23.34528	38689
23.35342	31015
23.36153	35189
23.36967	34590
23.37778	34049
23.38590	31824
23.39403	33625
23.40215	32931
23.41028	32610
23.41840	37777
23.42652	33580
23.43465	33735
23.44277	34921
23.45088	36081
23.45902	33388
23.46713	31728
23.47527	32259
23.48338	33998
23.49150	35491
23.49963	34788
23.50775	32527
23.51588	31190
23.52400	34568
23.53212	34187
23.54025	34009
23.54837	37157
23.55648	36838
23.56462	36370
23.57273	36876
23.58087	39319
23.58898	38495
23.59710	36729
23.60523	34881
23.61335	38622
23.62148	37577
23.62960	41844
23.63772	37903
23.64585	38910
23.65397	45456
23.66210	47876
23.67022	56373
23.67833	71310
23.68647	81239
23.69458	89773
23.70270	93265
23.71083	95561
23.71895	87624
23.72708	82353
23.73520	77407
23.74332	74171
23.75145	76947
23.75957	107234
23.76770	214241
23.77582	460852
23.78393	1044326
23.79207	2019289
23.80018	2829512
23.80832	3332411
23.81643	3198936
23.82455	2764253
23.83268	2161738
23.84080	1596629
23.84892	1149837
23.85705	868896
23.86517	641077
23.87330	533762
23.88142	490843
23.88953	460580
23.89767	483801
23.90578	551749
23.91392	632568
23.92203	659327
23.93015	615372
23.93828	557112
23.94640	485435
23.95452	386088
23.96265	334504
23.97077	295784
23.97890	259642
23.98702	233075
23.99513	215714
24.00327	195991
24.01138	177583
24.01952	170762
24.02763	160995
24.03575	153036
24.04388	150033
24.05200	144822
24.06013	137512
24.06825	133420
24.07637	127489
24.08450	125829
24.09262	118303
24.10073	112260
24.10887	109593
24.11698	112587
24.12512	105068
24.13323	105001
24.14135	110292
24.14948	105015
24.15760	107489
24.16573	110412
24.17385	106591
24.18197	101105
24.19010	94228
24.19822	91429
24.20635	94641
24.21447	86755
24.22258	86295
24.23072	94393
24.23883	98673
24.24695	99684
24.25508	94517
24.26320	88675
24.27133	88966
24.27945	83978
24.28757	76675
24.29570	75011
24.30382	75697
24.31195	75260
24.32007	71320
24.32818	72311
24.33632	70002
24.34443	70560
24.35255	69516
24.36068	65252
24.36880	70057
24.37693	63722
24.38505	65576
24.39317	68865
24.40130	71462
24.40942	85253
24.41755	87990
24.42567	94211
24.43378	92098
24.44192	95923
24.45003	78252
24.45817	72180
24.46628	71804
24.47440	67044
24.48253	65050
24.49065	63031
24.49877	67675
24.50690	68220
24.51502	65511
24.52315	71375
24.53127	76920
24.53938	77415
24.54752	73436
24.55563	76934
24.56377	73501
24.57188	68404
24.58000	66214
24.58813	62002
24.59625	61427
24.60437	61703
24.61250	63717
24.62062	59287
24.62875	55990
24.63687	56449
24.64498	59531
24.65312	58558
24.66123	58852
24.66937	64124
24.67748	61266
24.68560	55065
24.69373	58138
24.70185	54868
24.70998	53476
24.71810	51731
24.72622	53495
24.73435	45311
24.74247	48356
24.75058	49223
24.75872	51364
24.76683	46143
24.77497	48375
24.78308	46552
24.79120	46667
24.79933	45431
24.80745	48141
24.81558	49869
24.82370	44462
24.83182	48838
24.83995	43938
24.84807	44133
24.85620	49663
24.86432	45540
24.87243	43463
24.88057	46263
24.88868	47874
24.89680	46178
24.90493	45896
24.91305	45024
24.92118	47061
24.92930	47605
24.93742	45112
24.94555	45195
24.95367	44406
24.96180	44135
24.96992	41102
24.97803	44789
24.98617	41944
24.99428	42315
25.00240	42240
25.01053	45267
25.01865	37329
25.02678	41034
25.03490	37950
25.04302	45010
25.05115	40940
25.05927	41356
25.06740	44833
25.07552	40446
25.08363	41937
25.09177	44697
25.09988	43166
25.10802	41372
25.11613	41836
25.12425	40995
25.13238	41749
25.14050	41238
25.14862	49290
25.15675	51682
25.16487	50088
25.17300	51889
25.18112	53845
25.18923	49110
25.19737	47479
25.20548	45297
25.21362	48771
25.22173	45719
25.22985	42695
25.23798	38819
25.24610	40333
25.25423	42446
25.26235	42944
25.27047	44076
25.27860	43618
25.28672	41439
25.29483	40994
25.30297	46454
25.31108	52803
25.31922	53626
25.32733	53135
25.33545	55913
25.34358	55242
25.35170	50944
25.35983	48020
25.36795	47159
25.37607	45898
25.38420	38732
25.39232	40900
25.40043	39210
25.40857	41144
25.41668	42709
25.42482	38077
25.43293	36199
25.44105	40034
25.44918	38361
25.45730	36928
25.46543	39713
25.47355	41304
25.48167	41881
25.48980	42817
25.49792	48152
25.50605	44411
25.51417	44022
25.52228	45819
25.53042	43037
25.53853	36536
25.54665	42322
25.55478	41787
25.56290	36896
25.57103	39103
25.57915	37433
25.58727	40218
25.59540	39105
25.60352	43434
25.61165	37952
25.61977	35863
25.62788	35773
25.63602	37832
25.64413	35760
25.65225	36207
25.66038	36632
25.66850	37549
25.67663	36429
25.68475	42637
25.69287	42643
25.70100	38006
25.70912	37174
25.71725	37166
25.72537	39531
25.73348	37863
25.74162	39433
25.74973	34836
25.75787	39293
25.76598	39797
25.77410	36123
25.78223	35153
25.79035	42772
25.79847	38689
25.80660	42911
25.81472	36435
25.82285	36271
25.83097	37282
25.83908	38762
25.84722	41401
25.85533	40615
25.86347	39559
25.87158	37627
25.87970	37362
25.88783	38289
25.89595	33212
25.90408	31874
25.91220	31699
25.92032	31184
25.92845	35855
25.93657	35724
25.94468	32856
25.95282	38630
25.96093	35582
25.96907	37105
25.97718	37944
25.98530	34031
25.99343	32671
26.00155	32893
26.00968	32777
26.01780	31576
26.02592	33519
26.03405	30855
26.04217	32058
26.05030	33550
26.05842	33090
26.06653	31425
26.07467	35174
26.08278	34057
26.09090	35738
26.09903	35529
26.10715	36136
26.11528	37058
26.12340	36475
26.13152	41648
26.13965	45518
26.14777	47541
26.15590	45542
26.16402	50897
26.17213	47185
26.18027	45743
26.18838	47985
26.19650	43779
26.20463	41437
26.21275	42317
26.22088	40204
26.22900	38091
26.23712	38270
26.24525	35252
26.25337	36169
26.26150	38801
26.26962	34176
26.27773	33041
26.28587	38689
26.29398	35735
26.30212	36399
26.31023	31398
26.31835	35599
26.32648	34224
26.33460	35256
26.34272	37276
26.35085	36305
26.35897	32800
26.36710	36805
26.37522	32080
26.38333	33932
26.39147	32138
26.39958	32674
26.40772	30222
26.41583	33848
26.42395	31894
26.43208	30279
26.44020	37493
26.44832	34012
26.45645	34336
26.46457	31618
26.47270	32523
26.48082	30778
26.48893	33598
26.49707	34846
26.50518	35467
26.51332	31645
26.52143	34974
26.52955	32776
26.53768	30610
26.54580	33021
26.55393	32862
26.56205	32433
26.57017	34031
26.57830	31979
26.58642	32481
26.59453	33170
26.60267	32202
26.61078	35499
26.61892	33209
26.62703	35538
26.63515	33374
26.64328	33086
26.65140	36695
26.65953	33930
26.66765	34475
26.67577	34042
26.68390	33154
26.69202	35693
26.70015	34859
26.70827	33617
26.71638	35548
26.72452	35385
26.73263	32422
26.74075	31884
26.74888	33604
26.75700	34758
26.76513	31177
26.77325	33218
26.78137	33388
26.78950	34968
26.79762	35201
26.80575	35418
26.81387	35740
26.82198	38874
26.83012	38701
26.83823	36729
26.84635	36949
26.85448	36558
26.86260	36595
26.87073	35667
26.87885	37401
26.88697	36626
26.89510	37558
26.90322	35503
26.91135	34120
26.91947	32821
26.92758	34566
26.93572	41873
26.94383	34853
26.95197	36427
26.96008	35034
26.96820	38486
26.97633	49297
26.98445	73595
26.99257	130031
27.00070	217491
27.00882	365243
27.01695	555413
27.02507	831849
27.03318	1092524
27.04132	1266755
27.04943	1238082
27.05757	1115541
27.06568	962081
27.07380	788533
27.08193	665126
27.09005	533644
27.09818	427783
27.10630	347926
27.11442	295277
27.12255	254477
27.13067	221522
27.13878	198250
27.14692	180172
27.15503	165768
27.16317	154828
27.17128	139268
27.17940	135510
27.18753	129383
27.19565	124117
27.20378	112316
27.21190	113523
27.22002	104105
27.22815	100067
27.23627	100530
27.24438	97366
27.25252	92162
27.26063	90463
27.26877	85842
27.27688	78503
27.28500	78271
27.29313	79984
27.30125	74815
27.30938	76234
27.31750	72784
27.32562	71344
27.33375	66181
27.34187	67659
27.35000	69582
27.35812	69993
27.36623	65280
27.37437	60966
27.38248	61941
27.39060	62350
27.39873	64089
27.40685	62965
27.41498	58691
27.42310	61641
27.43122	59777
27.43935	61988
27.44747	57866
27.45560	55761
27.46372	53329
27.47183	57985
27.47997	53456
27.48808	52541
27.49620	53609
27.50433	48547
27.51245	55612
27.52058	47424
27.52870	51655
27.53682	51661
27.54495	54680
27.55307	53215
27.56120	51087
27.56932	54804
27.57743	53873
27.58557	46844
27.59368	48375
27.60182	49468
27.60993	48499
27.61805	50247
27.62618	49442
27.63430	48120
27.64242	47650
27.65055	50113
27.65867	46093
27.66680	47067
27.67492	43136
27.68303	43065
27.69117	42584
27.69928	48009
27.70742	46451
27.71553	41874
27.72365	46231
27.73178	44945
27.73990	43190
27.74803	43012
27.75615	43687
27.76427	41342
27.77240	46274
27.78052	41236
27.78863	46089
27.79677	37221
27.80488	39951
27.81302	43662
27.82113	40890
27.82925	45001
27.83738	48834
27.84550	40111
27.85363	42996
27.86175	41999
27.86987	45076
27.87800	44893
27.88612	46125
27.89423	43711
27.90237	43336
27.91048	40511
27.91862	36518
27.92673	42118
27.93485	44546
27.94298	37138
27.95110	39775
27.95923	38805
27.96735	41048
27.97547	39921
27.98360	39055
27.99172	38856
27.99985	34885
28.00797	37344
28.01608	41150
28.02422	39718
28.03233	38556
28.04045	38381
28.04858	35818
28.05670	39722
28.06483	35806
28.07295	35238
28.08107	37119
28.08920	37701
28.09732	38200
28.10545	41890
28.11357	41158
28.12168	35171
28.12982	39496
28.13793	33687
28.14607	35312
28.15418	37220
28.16230	33780
28.17043	33217
28.17855	37061
28.18667	38303
28.19480	38437
28.20292	35619
28.21105	43312
28.21917	45516
28.22728	44270
28.23542	45996
28.24353	45939
28.25167	47002
28.25978	46693
28.26790	39843
28.27603	37544
28.28415	41386
28.29227	39993
28.30040	42966
28.30852	46042
28.31665	50842
28.32477	63736
28.33288	81321
28.34102	115220
28.34913	144215
28.35727	185078
28.36538	215734
28.37350	265076
28.38163	285661
28.38975	307604
28.39788	321050
28.40600	311519
28.41412	300091
28.42225	292718
28.43037	273802
28.43848	246034
28.44662	216361
28.45473	185373
28.46287	165661
28.47098	157528
28.47910	140533
28.48723	136295
28.49535	124982
28.50348	119045
28.51160	106006
28.51972	96718
28.52785	96489
28.53597	86386
28.54410	88101
28.55222	85215
28.56033	83681
28.56847	82992
28.57658	78420
28.58470	79280
28.59283	74877
28.60095	72654
28.60908	75343
28.61720	72130
28.62532	71770
28.63345	72009
28.64157	71474
28.64970	69788
28.65782	74416
28.66593	74480
28.67407	81316
28.68218	76401
28.69030	71903
28.69843	74517
28.70655	68338
28.71468	62689
28.72280	70304
28.73092	63151
28.73905	61166
28.74717	54852
28.75530	61762
28.76342	60763
28.77153	63750
28.77967	64227
28.78778	69250
28.79592	69144
28.80403	68502
28.81215	64392
28.82028	65360
28.82840	58610
28.83652	55702
28.84465	56260
28.85277	58360
28.86090	55264
28.86902	51825
28.87713	46278
28.88527	54699
28.89338	53661
28.90152	51160
28.90963	49785
28.91775	50310
28.92588	52743
28.93400	50655
28.94212	52381
28.95025	51804
28.95837	54102
28.96650	52637
28.97462	57858
28.98273	55316
28.99087	53477
28.99898	49350
29.00712	51195
29.01523	55477
29.02335	50938
29.03148	48064
29.03960	45469
29.04773	45587
29.05585	49100
29.06397	45954
29.07210	49551
29.08022	50584
29.08833	46605
29.09647	47695
29.10458	45655
29.11272	47556
29.12083	42635
29.12895	45234
29.13708	44165
29.14520	48141
29.15333	49498
29.16145	45456
29.16957	47475
29.17770	44209
29.18582	47468
29.19395	51688
29.20207	44727
29.21018	42878
29.21832	50475
29.22643	47325
29.23455	45957
29.24268	44448
29.25080	45043
29.25893	42876
29.26705	48752
29.27517	52467
29.28330	47063
29.29142	50883
29.29955	42927
29.30767	44729
29.31578	46253
29.32392	42606
29.33203	47333
29.34015	47229
29.34828	43830
29.35640	43774
29.36453	43540
29.37265	47997
29.38077	44022
29.38890	43652
29.39702	43174
29.40515	42259
29.41327	38935
29.42138	41218
29.42952	43068
29.43763	40640
29.44577	45807
29.45388	42217
29.46200	43758
29.47013	42277
29.47825	41788
29.48637	40998
29.49450	43628
29.50262	45992
29.51075	52007
29.51887	54649
29.52698	55414
29.53512	53293
29.54323	48220
29.55137	46647
29.55948	43954
29.56760	48123
29.57573	42299
29.58385	44014
29.59198	44844
29.60010	40824
29.60822	43432
29.61635	40259
29.62447	42240
29.63258	43243
29.64072	42836
29.64883	42247
29.65697	44094
29.66508	43323
29.67320	43491
29.68133	37218
29.68945	39895
29.69758	41186
29.70570	38803
29.71382	40880
29.72195	37898
29.73007	39126
29.73818	38717
29.74632	47002
29.75443	39551
29.76257	42204
29.77068	41432
29.77880	42333
29.78693	39441
29.79505	38843
29.80318	38597
29.81130	40640
29.81942	37008
29.82755	40870
29.83567	39298
29.84380	38871
29.85192	37737
29.86003	38200
29.86817	36665
29.87628	40602
29.88440	42698
29.89253	50438
29.90065	55234
29.90878	67959
29.91690	71158
29.92502	79801
29.93315	68023
29.94127	62128
29.94940	58550
29.95752	59110
29.96563	61509
29.97377	67606
29.98188	76098
29.99000	85239
29.99813	92113
30.00625	106586
30.01438	119564
30.02250	132663
30.03062	143855
30.03875	156311
30.04687	162684
30.05500	153960
30.06312	160295
30.07123	152530
30.07937	147404
30.08748	143584
30.09562	140595
30.10373	142798
30.11185	128261
30.11998	123678
30.12810	108778
30.13622	101094
30.14435	98221
30.15247	100182
30.16060	90138
30.16872	90935
30.17683	82584
30.18497	79350
30.19308	75957
30.20122	70501
30.20933	69833
30.21745	68561
30.22558	67396
30.23370	62721
30.24183	58887
30.24995	60889
30.25807	58430
30.26620	53079
30.27432	55632
30.28243	56288
30.29057	53157
30.29868	53703
30.30682	54340
30.31493	60117
30.32305	59915
30.33118	55014
30.33930	49358
30.34743	46688
30.35555	49946
30.36367	43838
30.37180	49299
30.37992	49637
30.38803	43584
30.39617	45966
30.40428	44316
30.41242	45034
30.42053	44575
30.42865	49026
30.43678	45827
30.44490	46506
30.45303	42277
30.46115	46509
30.46927	43390
30.47740	43248
30.48552	45282
30.49365	43416
30.50177	45677
30.50988	42099
30.51802	47107
30.52613	42174
30.53425	47483
30.54238	39405
30.55050	42506
30.55863	43432
30.56675	40539
30.57487	42767
30.58300	42957
30.59112	43007
30.59925	41658
30.60737	39739
30.61548	38886
30.62362	37622
30.63173	43693
30.63987	38279
30.64798	42209
30.65610	42234
30.66423	44038
30.67235	39627
30.68047	41545
30.68860	36834
30.69672	40110
30.70485	40124
30.71297	40035
30.72108	38348
30.72922	44372
30.73733	37971
30.74547	39558
30.75358	37220
30.76170	40655
30.76983	40950
30.77795	41381
30.78607	37999
30.79420	42812
30.80232	49699
30.81045	44371
30.81857	43069
30.82668	43194
30.83482	43103
30.84293	44905
30.85107	44788
30.85918	40376
30.86730	40586
30.87543	36830
30.88355	40287
30.89168	37919
30.89980	41724
30.90792	37149
30.91605	43281
30.92417	36830
30.93228	39523
30.94042	40357
30.94853	41810
30.95667	40215
30.96478	38934
30.97290	36391
30.98103	42703
30.98915	36289
30.99728	35410
31.00540	41480
31.01352	37883
31.02165	37547
31.02977	45568
31.03788	40295
31.04602	44553
31.05413	46450
31.06227	45185
31.07038	49972
31.07850	44833
31.08663	46836
31.09475	50427
31.10288	52290
31.11100	61636
31.11912	66375
31.12725	69863
31.13537	61884
31.14350	58379
31.15162	61284
31.15973	47635
31.16787	46383
31.17598	47059
31.18410	47199
31.19223	47190
31.20035	53618
31.20848	56821
31.21660	59063
31.22472	61799
31.23285	64482
31.24097	66872
31.24910	68113
31.25722	62778
31.26533	55790
31.27347	51872
31.28158	53787
31.28972	44653
31.29783	47163
31.30595	48009
31.31408	44101
31.32220	40281
31.33032	45568
31.33845	44139
31.34657	42399
31.35470	40188
31.36282	36605
31.37093	43403
31.37907	38160
31.38718	37003
31.39532	39433
31.40343	38508
31.41155	35377
31.41968	41383
31.42780	40326
31.43593	38404
31.44405	42104
31.45217	36118
31.46030	40166
31.46842	40913
31.47653	41169
31.48467	39674
31.49278	35340
31.50092	39044
31.50903	39974
31.51715	35750
31.52528	37935
31.53340	39982
31.54153	37411
31.54965	42560
31.55777	39634
31.56590	35184
31.57402	39081
31.58213	37011
31.59027	36278
31.59838	35201
31.60652	36004
31.61463	38707
31.62275	40219
31.63088	36640
31.63900	38974
31.64713	37079
31.65525	36266
31.66337	36296
31.67150	42681
31.67962	37619
31.68775	38918
31.69587	36036
31.70398	37630
31.71212	36402
31.72023	36253
31.72835	37279
31.73648	34267
31.74460	39809
31.75273	36659
31.76085	35131
31.76897	38079
31.77710	39134
31.78522	35350
31.79335	38333
31.80147	40044
31.80958	41822
31.81772	40608
31.82583	40747
31.83395	40882
31.84208	40070
31.85020	40461
31.85833	44437
31.86645	44954
31.87457	43856
31.88270	46991
31.89082	45575
31.89895	46882
31.90707	43055
31.91518	54039
31.92332	49089
31.93143	58305
31.93957	65235
31.94768	72211
31.95580	75748
31.96393	79321
31.97205	93832
31.98017	96523
31.98830	99104
31.99642	100880
32.00455	101099
32.01267	101731
32.02078	89521
32.02892	88240
32.03703	83936
32.04517	81601
32.05328	76141
32.06140	73777
32.06953	69147
32.07765	71131
32.08578	72426
32.09390	66676
32.10202	69879
32.11015	69168
32.11827	59037
32.12638	56496
32.13452	55479
32.14263	52937
32.15077	51804
32.15888	48716
32.16700	48702
32.17513	49107
32.18325	47840
32.19138	42662
32.19950	51164
32.20762	45290
32.21575	42066
32.22387	47303
32.23198	44425
32.24012	44369
32.24823	44467
32.25637	41285
32.26448	47954
32.27260	43685
32.28073	42314
32.28885	47627
32.29698	43633
32.30510	44217
32.31322	42388
32.32135	45748
32.32947	45740
32.33760	46755
32.34572	50213
32.35383	59159
32.36197	57949
32.37008	65143
32.37820	66395
32.38633	61614
32.39445	66400
32.40258	53588
32.41070	55158
32.41882	49669
32.42695	51066
32.43507	46926
32.44320	47205
32.45132	45894
32.45943	49393
32.46757	43480
32.47568	42963
32.48382	41375
32.49193	45387
32.50005	41319
32.50818	40492
32.51630	41882
32.52442	42652
32.53255	42061
32.54067	41190
32.54880	41350
32.55692	41468
32.56503	46665
32.57317	42231
32.58128	40116
32.58942	40502
32.59753	41957
32.60565	42381
32.61378	43347
32.62190	45907
32.63002	38792
32.63815	40697
32.64627	42034
32.65440	42060
32.66252	41940
32.67063	45333
32.67877	45885
32.68688	54540
32.69502	47995
32.70313	57200
32.71125	52121
32.71938	49190
32.72750	43708
32.73563	44990
32.74375	44302
32.75187	47091
32.76000	43790
32.76812	43516
32.77623	36551
32.78437	40956
32.79248	39406
32.80062	41430
32.80873	36201
32.81685	38585
32.82498	39256
32.83310	38944
32.84123	39287
32.84935	39071
32.85747	40368
32.86560	40003
32.87372	38080
32.88183	37261
32.88997	39335
32.89808	36850
32.90622	34697
32.91433	36846
32.92245	38316
32.93058	36439
32.93870	37934
32.94683	37723
32.95495	42291
32.96307	34967
32.97120	37470
32.97932	40159
32.98745	35797
32.99557	38435
33.00368	41332
33.01182	39364
33.01993	39512
33.02805	43064
33.03618	38800
33.04430	39314
33.05243	36622
33.06055	37992
33.06867	40042
33.07680	43941
33.08492	38225
33.09305	44449
33.10117	40805
33.10928	42695
33.11742	57599
33.12553	57228
33.13367	61010
33.14178	62601
33.14990	54453
33.15803	54921
33.16615	47086
33.17427	45663
33.18240	44695
33.19052	41471
33.19865	42549
33.20677	46716
33.21488	42689
33.22302	46862
33.23113	42471
33.23927	42442
33.24738	44208
33.25550	38707
33.26363	39607
33.27175	38539
33.27987	37369
33.28800	40732
33.29612	42151
33.30425	38402
33.31237	42187
33.32048	37778
33.32862	42005
33.33673	40539
33.34487	39003
33.35298	41672
33.36110	41434
33.36923	38197
33.37735	38649
33.38548	37544
33.39360	38444
33.40172	39679
33.40985	39552
33.41797	39016
33.42608	37842
33.43422	37353
33.44233	37591
33.45047	39218
33.45858	35435
33.46670	40584
33.47483	36522
33.48295	37302
33.49108	36096
33.49920	33387
33.50732	34142
33.51545	39027
33.52357	41363
33.53170	39229
33.53982	37018
33.54793	37834
33.55607	40261
33.56418	38200
33.57230	39099
33.58043	34433
33.58855	41844
33.59668	37143
33.60480	35227
33.61292	37561
33.62105	36938
33.62917	41983
33.63730	41781
33.64542	35754
33.65353	37886
33.66167	35360
33.66978	36604
33.67790	36761
33.68603	37448
33.69415	39130
33.70228	40037
33.71040	34413
33.71852	38985
33.72665	36958
33.73477	38245
33.74290	37441
33.75102	38827
33.75913	40082
33.76727	39898
33.77538	34894
33.78352	37479
33.79163	38540
33.79975	38524
33.80788	37372
33.81600	38807
33.82412	35841
33.83225	33987
33.84037	38272
33.84850	40704
33.85662	45497
33.86473	43949
33.87287	44740
33.88098	42462
33.88912	38213
33.89723	42930
33.90535	40584
33.91348	44978
33.92160	39469
33.92973	40240
33.93785	37209
33.94597	40454
33.95410	42537
33.96222	41156
33.97033	42384
33.97847	41867
33.98658	43232
33.99472	39447
34.00283	40233
34.01095	41184
34.01908	36887
34.02720	42237
34.03533	37199
34.04345	38425
34.05157	39867
34.05970	42537
34.06782	39801
34.07593	38629
34.08407	44175
34.09218	39820
34.10032	38162
34.10843	41089
34.11655	38668
34.12468	38895
34.13280	36590
34.14093	39490
34.14905	36946
34.15717	38363
34.16530	41528
34.17342	42021
34.18155	36881
34.18967	38037
34.19778	41563
34.20592	43167
34.21403	41012
34.22215	41080
34.23028	38236
34.23840	38699
34.24653	39675
34.25465	38670
34.26277	39149
34.27090	39148
34.27902	38276
34.28715	38489
34.29527	36032
34.30338	39500
34.31152	37906
34.31963	38000
34.32775	39656
34.33588	39741
34.34400	40237
34.35213	44364
34.36025	38441
34.36837	43940
34.37650	41259
34.38462	38349
34.39275	38729
34.40087	38638
34.40898	40069
34.41712	41386
34.42523	40805
34.43337	38343
34.44148	40429
34.44960	41510
34.45773	40646
34.46585	40402
34.47397	40209
34.48210	41078
34.49022	37007
34.49835	40416
34.50647	39220
34.51458	41757
34.52272	41618
34.53083	46912
34.53897	59277
34.54708	58769
34.55520	66405
34.56333	75141
34.57145	75964
34.57958	81704
34.58770	76148
34.59582	74838
34.60395	70739
34.61207	71119
34.62018	63076
34.62832	59616
34.63643	54902
34.64457	54042
34.65268	52686
34.66080	48782
34.66893	50823
34.67705	47149
34.68518	50198
34.69330	48858
34.70142	48025
34.70955	42278
34.71767	45371
34.72578	44623
34.73392	44946
34.74203	45124
34.75017	42767
34.75828	46710
34.76640	46025
34.77453	46355
34.78265	46319
34.79078	50224
34.79890	41052
34.80702	41864
34.81515	42812
34.82327	41747
34.83140	47364
34.83952	45022
34.84763	42560
34.85577	43991
34.86388	46468
34.87200	45144
34.88013	42626
34.88825	42468
34.89638	43186
34.90450	41882
34.91262	45492
34.92075	43947
34.92887	46800
34.93700	45626
34.94512	48575
34.95323	48273
34.96137	49697
34.96948	54796
34.97762	60715
34.98573	66107
34.99385	67690
35.00198	76913
35.01010	69843
35.01822	57756
35.02635	59969
35.03447	51100
35.04260	53315
35.05072	51397
35.05883	49069
35.06697	50487
35.07508	49523
35.08322	47975
35.09133	49286
35.09945	48561
35.10758	48901
35.11570	49036
35.12382	46150
35.13195	45671
35.14007	43809
35.14820	45080
35.15632	43875
35.16443	46238
35.17257	52831
35.18068	47705
35.18882	53054
35.19693	45992
35.20505	49699
35.21318	45342
35.22130	41070
35.22943	46367
35.23755	43957
35.24567	48512
35.25380	46849
35.26192	49395
35.27003	50652
35.27817	47697
35.28628	50981
35.29442	50190
35.30253	49973
35.31065	50137
35.31878	47991
35.32690	43587
35.33503	41026
35.34315	43581
35.35127	44094
35.35940	42424
35.36752	46063
35.37563	45951
35.38377	40234
35.39188	39841
35.40002	40836
35.40813	42883
35.41625	42193
35.42438	39586
35.43250	44746
35.44063	47713
35.44875	51721
35.45687	53377
35.46500	47991
35.47312	50644
35.48125	55398
35.48937	53039
35.49748	51177
35.50562	50070
35.51373	46416
35.52185	45749
35.52998	45459
35.53810	46787
35.54623	47363
35.55435	42273
35.56247	44093
35.57060	49880
35.57872	48828
35.58685	52005
35.59497	49029
35.60308	48776
35.61122	47674
35.61933	44902
35.62747	44810
35.63558	45847
35.64370	44451
35.65183	44358
35.65995	49477
35.66807	42638
35.67620	45037
35.68432	47211
35.69245	50303
35.70057	47859
35.70868	47278
35.71682	49225
35.72493	49553
35.73307	46475
35.74118	47485
35.74930	48384
35.75743	44768
35.76555	42006
35.77367	46966
35.78180	41752
35.78992	40913
35.79805	44603
35.80617	46252
35.81428	47247
35.82242	45808
35.83053	48337
35.83867	49867
35.84678	48500
35.85490	47939
35.86303	44566
35.87115	46178
35.87928	47777
35.88740	45956
35.89552	45748
35.90365	44276
35.91177	45109
35.91988	42326
35.92802	44203
35.93613	43720
35.94427	46640
35.95238	46514
35.96050	46104
35.96863	43585
35.97675	38849
35.98488	43818
35.99300	42413
36.00112	44559
36.00925	51195
36.01737	51376
36.02550	48812
36.03362	53162
36.04173	53122
36.04987	51307
36.05798	53591
36.06610	48127
36.07423	51373
36.08235	49715
36.09048	48552
36.09860	49396
36.10672	48536
36.11485	45706
36.12297	48356
36.13110	46163
36.13922	45909
36.14733	45815
36.15547	48711
36.16358	46487
36.17170	50002
36.17983	48286
36.18795	48048
36.19608	44598
36.20420	46714
36.21232	44614
36.22045	44235
36.22857	44679
36.23670	45801
36.24482	43759
36.25293	50229
36.26107	45064
36.26918	44874
36.27732	47711
36.28543	44763
36.29355	45250
36.30168	48158
36.30980	45906
36.31792	50692
36.32605	54462
36.33417	56919
36.34230	54390
36.35042	55751
36.35853	52897
36.36667	50063
36.37478	50674
36.38292	46753
36.39103	46358
36.39915	48679
36.40728	51074
36.41540	47456
36.42352	52797
36.43165	49741
36.43977	49249
36.44790	44450
36.45602	44896
36.46413	46641
36.47227	45462
36.48038	43755
36.48852	44813
36.49663	44571
36.50475	47891
36.51288	49992
36.52100	50653
36.52913	49587
36.53725	53738
36.54537	54640
36.55350	45355
36.56162	43118
36.56973	42269
36.57787	49700
36.58598	44319
36.59412	45074
36.60223	46680
36.61035	48672
36.61848	50159
36.62660	48507
36.63473	52230
36.64285	43653
36.65097	45476
36.65910	48196
36.66722	48308
36.67535	45841
36.68347	48637
36.69158	50461
36.69972	51313
36.70783	46884
36.71595	50449
36.72408	45552
36.73220	48863
36.74033	46791
36.74845	45227
36.75657	49702
36.76470	48316
36.77282	45547
36.78095	47327
36.78907	47892
36.79718	45016
36.80532	47851
36.81343	46049
36.82157	49739
36.82968	45503
36.83780	49156
36.84593	45422
36.85405	47541
36.86217	45333
36.87030	47212
36.87842	44425
36.88655	47756
36.89467	48413
36.90278	47160
36.91092	49435
36.91903	52656
36.92717	47841
36.93528	48555
36.94340	53624
36.95153	52087
36.95965	57638
36.96777	51962
36.97590	53507
36.98402	59799
36.99215	59783
37.00027	60343
37.00838	58520
37.01652	62407
37.02463	62947
37.03277	63571
37.04088	63336
37.04900	63818
37.05713	68001
37.06525	65166
37.07338	63113
37.08150	59059
37.08962	56666
37.09775	60562
37.10587	58786
37.11398	53990
37.12212	57076
37.13023	54370
37.13837	58525
37.14648	54884
37.15460	54287
37.16273	58904
37.17085	53541
37.17898	51003
37.18710	55131
37.19522	51344
37.20335	49489
37.21147	55580
37.21958	51126
37.22772	53227
37.23583	55306
37.24397	57275
37.25208	54218
37.26020	52510
37.26833	51256
37.27645	49676
37.28458	49109
37.29270	51019
37.30082	52195
37.30895	53482
37.31707	51774
37.32520	53782
37.33332	55856
37.34143	61697
37.34957	60216
37.35768	70166
37.36580	69358
37.37393	75480
37.38205	78207
37.39018	73944
37.39830	72501
37.40642	74604
37.41455	68989
37.42267	66642
37.43080	62175
37.43892	64430
37.44703	59876
37.45517	66985
37.46328	53972
37.47142	57125
37.47953	56390
37.48765	59957
