C:\MassHunter\GCMS\1\data\20191125_ALKANES\JTB-E18-40-07.D Mon Nov 25 13:22:58 2019
Start of data points
2.09517	6.148408E+07
2.10330	5.499223E+07
2.11142	5.688099E+07
2.11955	6.749005E+07
2.12767	7.907701E+07
2.13578	8.621741E+07
2.14392	9.091928E+07
2.15203	9.516087E+07
2.16017	9.805678E+07
2.16828	9.928547E+07
2.17640	9.978426E+07
2.18453	1.008022E+08
2.19265	1.01888E+08
2.20078	1.02977E+08
2.20890	1.034964E+08
2.21702	1.030521E+08
2.22515	1.027598E+08
2.23327	1.017674E+08
2.24138	1.006592E+08
2.24952	9.984209E+07
2.25763	9.977178E+07
2.26577	9.983642E+07
2.27388	1.004585E+08
2.28200	1.014614E+08
2.29013	1.025261E+08
2.29825	1.039664E+08
2.30638	1.05456E+08
2.31450	1.067927E+08
2.32262	1.082413E+08
2.33075	1.095706E+08
2.33887	1.122071E+08
2.34698	1.273502E+08
2.35512	1.393161E+08
2.36323	1.378432E+08
2.37137	1.347738E+08
2.37948	1.326782E+08
2.38760	1.301731E+08
2.39573	1.283955E+08
2.40385	1.266375E+08
2.41198	1.250636E+08
2.42010	1.236783E+08
2.42822	1.218989E+08
2.43635	1.204881E+08
2.44447	1.191677E+08
2.45260	1.177765E+08
2.46072	1.167426E+08
2.46883	1.158976E+08
2.47697	1.148738E+08
2.48508	1.137883E+08
2.49320	1.128903E+08
2.50133	1.131634E+08
2.50945	1.237597E+08
2.51758	1.400567E+08
2.52570	1.380331E+08
2.53382	1.370752E+08
2.54195	1.361696E+08
2.55007	1.355494E+08
2.55820	1.346977E+08
2.56632	1.338315E+08
2.57443	1.331581E+08
2.58257	1.328096E+08
2.59068	1.321175E+08
2.59880	1.308305E+08
2.60693	1.301192E+08
2.61505	1.29019E+08
2.62318	1.282388E+08
2.63130	1.270372E+08
2.63942	1.266763E+08
2.64755	1.263591E+08
2.65567	1.250976E+08
2.66380	1.241242E+08
2.67192	1.240333E+08
2.68003	1.236751E+08
2.68817	1.235547E+08
2.69628	1.232632E+08
2.70442	1.234638E+08
2.71253	1.236436E+08
2.72065	1.240875E+08
2.72878	1.243706E+08
2.73690	1.246778E+08
2.74502	1.248577E+08
2.75315	1.245434E+08
2.76127	1.242115E+08
2.76940	1.230371E+08
2.77752	1.224324E+08
2.78563	1.216228E+08
2.79377	1.208247E+08
2.80188	1.20272E+08
2.81002	1.195836E+08
2.81813	1.179966E+08
2.82625	1.176384E+08
2.83438	1.175718E+08
2.84250	1.175703E+08
2.85063	1.175825E+08
2.85875	1.176189E+08
2.86687	1.178439E+08
2.87500	1.179503E+08
2.88312	1.179798E+08
2.89123	1.179911E+08
2.89937	1.180232E+08
2.90748	1.179441E+08
2.91562	1.180149E+08
2.92373	1.178891E+08
2.93185	1.178232E+08
2.93998	1.175211E+08
2.94810	1.176797E+08
2.95623	1.179442E+08
2.96435	1.18402E+08
2.97247	1.202133E+08
2.98060	1.201483E+08
2.98872	1.195179E+08
2.99683	1.175435E+08
3.00497	1.176932E+08
3.01308	1.181675E+08
3.02122	1.184341E+08
3.02933	1.184642E+08
3.03745	1.187274E+08
3.04558	1.187683E+08
3.05370	1.188069E+08
3.06183	1.189242E+08
3.06995	1.19113E+08
3.07807	1.192235E+08
3.08620	1.192279E+08
3.09432	1.195285E+08
3.10245	1.197581E+08
3.11057	1.19931E+08
3.11868	1.198546E+08
3.12682	1.203198E+08
3.13493	1.207283E+08
3.14305	1.212577E+08
3.15118	1.217917E+08
3.15930	1.254987E+08
3.16743	1.263663E+08
3.17555	1.281336E+08
3.18367	1.549515E+08
3.19180	1.721216E+08
3.19992	1.724381E+08
3.20805	1.725941E+08
3.21617	1.663441E+08
3.22428	1.662447E+08
3.23242	1.670375E+08
3.24053	1.685313E+08
3.24867	1.709483E+08
3.25678	1.699063E+08
3.26490	1.678862E+08
3.27303	1.678578E+08
3.28115	1.681213E+08
3.28927	1.683157E+08
3.29740	1.688272E+08
3.30552	1.692962E+08
3.31365	1.70126E+08
3.32177	1.702455E+08
3.32988	1.704515E+08
3.33802	1.709935E+08
3.34613	1.714333E+08
3.35427	1.721329E+08
3.36238	1.728631E+08
3.37050	1.731112E+08
3.37863	1.733226E+08
3.38675	1.729269E+08
3.39487	1.729927E+08
3.40300	1.630517E+08
3.41112	1.309498E+08
3.41925	1.218715E+08
3.42737	1.315113E+08
3.43548	1.450386E+08
3.44362	1.431821E+08
3.45173	1.16576E+08
3.45987	1.02818E+08
3.46798	1.019527E+08
3.47610	1.013338E+08
3.48423	1.008904E+08
3.49235	1.008813E+08
3.50048	1.010031E+08
3.50860	1.006579E+08
3.51672	1.00324E+08
3.52485	9.965766E+07
3.53297	9.934317E+07
3.54108	9.926843E+07
3.54922	9.945067E+07
3.55733	9.914337E+07
3.56547	9.879542E+07
3.57358	9.881995E+07
3.58170	9.758823E+07
3.58983	9.755278E+07
3.59795	9.810753E+07
3.60608	9.727906E+07
3.61420	9.707342E+07
3.62232	9.682202E+07
3.63045	9.674766E+07
3.63857	9.650138E+07
3.64668	9.644273E+07
3.65482	9.628565E+07
3.66293	9.62251E+07
3.67107	9.550827E+07
3.67918	9.550818E+07
3.68730	9.479735E+07
3.69543	9.438402E+07
3.70355	9.439581E+07
3.71168	9.40694E+07
3.71980	9.382215E+07
3.72792	9.348958E+07
3.73605	9.397996E+07
3.74417	9.388102E+07
3.75230	9.391422E+07
3.76042	9.336246E+07
3.76853	9.212856E+07
3.77667	9.195946E+07
3.78478	9.18993E+07
3.79290	9.189814E+07
3.80103	9.182311E+07
3.80915	9.212749E+07
3.81728	9.28124E+07
3.82540	9.392324E+07
3.83352	9.300654E+07
3.84165	9.079237E+07
3.84977	8.908431E+07
3.85790	8.845178E+07
3.86602	8.83081E+07
3.87413	8.811281E+07
3.88227	8.747256E+07
3.89038	8.756431E+07
3.89852	8.764422E+07
3.90663	8.698308E+07
3.91475	8.661775E+07
3.92288	8.570583E+07
3.93100	8.531604E+07
3.93912	8.501022E+07
3.94725	8.466483E+07
3.95537	8.445834E+07
3.96350	8.46077E+07
3.97162	8.477087E+07
3.97973	8.452683E+07
3.98787	8.390723E+07
3.99598	8.413058E+07
4.00412	8.387497E+07
4.01223	8.373676E+07
4.02035	8.320793E+07
4.02848	8.31327E+07
4.03660	8.208252E+07
4.04473	8.181233E+07
4.05285	8.167695E+07
4.06097	8.052361E+07
4.06910	8.016717E+07
4.07722	8.004033E+07
4.08533	7.982127E+07
4.09347	7.964761E+07
4.10158	7.955749E+07
4.10972	7.936844E+07
4.11783	7.949807E+07
4.12595	7.97917E+07
4.13408	7.918086E+07
4.14220	7.896204E+07
4.15033	7.886317E+07
4.15845	7.74528E+07
4.16657	7.739126E+07
4.17470	7.740714E+07
4.18282	7.704031E+07
4.19093	7.635534E+07
4.19907	7.620879E+07
4.20718	7.577388E+07
4.21532	7.574006E+07
4.22343	7.536135E+07
4.23155	7.452374E+07
4.23968	7.435833E+07
4.24780	7.430665E+07
4.25593	7.427394E+07
4.26405	7.383079E+07
4.27217	7.416467E+07
4.28030	7.359732E+07
4.28842	7.331312E+07
4.29655	7.300414E+07
4.30467	7.254711E+07
4.31278	7.259012E+07
4.32092	7.227331E+07
4.32903	7.170496E+07
4.33715	7.149125E+07
4.34528	7.090636E+07
4.35340	6.973006E+07
4.36153	7.008033E+07
4.36965	6.956621E+07
4.37777	6.849072E+07
4.38590	6.84601E+07
4.39402	6.847441E+07
4.40215	6.85953E+07
4.41027	6.859871E+07
4.41838	6.861413E+07
4.42652	6.850636E+07
4.43463	6.84549E+07
4.44275	6.833466E+07
4.45088	6.8363E+07
4.45900	6.829146E+07
4.46713	6.844697E+07
4.47525	6.755667E+07
4.48337	6.703986E+07
4.49150	6.730166E+07
4.49962	6.714122E+07
4.50775	6.642172E+07
4.51587	6.644114E+07
4.52398	6.592184E+07
4.53212	6.565624E+07
4.54023	6.53864E+07
4.54837	6.523174E+07
4.55648	6.4984E+07
4.56460	6.509168E+07
4.57273	6.479324E+07
4.58085	6.428436E+07
4.58897	6.403314E+07
4.59710	6.350184E+07
4.60522	6.374259E+07
4.61335	6.329338E+07
4.62147	6.268184E+07
4.62958	6.275867E+07
4.63772	6.320758E+07
4.64583	6.274596E+07
4.65397	6.281542E+07
4.66208	6.249785E+07
4.67020	6.227346E+07
4.67833	6.214018E+07
4.68645	6.189248E+07
4.69458	6.182276E+07
4.70270	6.190475E+07
4.71082	6.183483E+07
4.71895	6.080568E+07
4.72707	6.125353E+07
4.73518	6.05449E+07
4.74332	6.012293E+07
4.75143	6.071989E+07
4.75957	5.880194E+07
4.76768	5.866253E+07
4.77580	5.953472E+07
4.78393	5.87406E+07
4.79205	5.865434E+07
4.80018	5.844504E+07
4.80830	5.843311E+07
4.81642	5.855768E+07
4.82455	5.858673E+07
4.83267	5.844483E+07
4.84078	5.825984E+07
4.84892	5.823268E+07
4.85703	5.786555E+07
4.86517	5.821218E+07
4.87328	5.782358E+07
4.88140	5.734889E+07
4.88953	5.81119E+07
4.89765	5.747287E+07
4.90578	5.73847E+07
4.91390	5.730955E+07
4.92202	5.719082E+07
4.93015	5.708564E+07
4.93827	5.642806E+07
4.94640	5.618995E+07
4.95452	5.600774E+07
4.96263	5.602028E+07
4.97077	5.570215E+07
4.97888	5.575257E+07
4.98700	5.587846E+07
4.99513	5.549775E+07
5.00325	5.530552E+07
5.01138	5.547278E+07
5.01950	5.535756E+07
5.02762	5.514008E+07
5.03575	5.487438E+07
5.04387	5.483258E+07
5.05200	5.483834E+07
5.06012	5.476895E+07
5.06823	5.40404E+07
5.07637	5.447342E+07
5.08448	5.399638E+07
5.09262	5.402143E+07
5.10073	5.29862E+07
5.10885	5.342908E+07
5.11698	5.296391E+07
5.12510	5.424696E+07
5.13322	5.304602E+07
5.14135	5.249948E+07
5.14947	5.246138E+07
5.15760	5.172599E+07
5.16572	5.206167E+07
5.17383	5.153892E+07
5.18197	5.152304E+07
5.19008	5.147769E+07
5.19822	5.177596E+07
5.20633	5.182232E+07
5.21445	5.186664E+07
5.22258	5.174651E+07
5.23070	5.151078E+07
5.23882	5.109132E+07
5.24695	5.081266E+07
5.25507	4.993331E+07
5.26320	5.068744E+07
5.27132	5.019231E+07
5.27943	5.013541E+07
5.28757	4.700842E+07
5.29568	4.193896E+07
5.30382	4.143995E+07
5.31193	4.048466E+07
5.32005	4.12271E+07
5.32818	4.106754E+07
5.33630	4.0537E+07
5.34443	4.010292E+07
5.35255	3.149046E+07
5.36067	2.602606E+07
5.36880	2.597369E+07
5.37692	2.549526E+07
5.38503	2.498203E+07
5.39317	2.505902E+07
5.40128	2.534926E+07
5.40942	2.50261E+07
5.41753	2.511308E+07
5.42565	2.518207E+07
5.43378	2.559386E+07
5.44190	2.435136E+07
5.45003	2.450035E+07
5.45815	2.496268E+07
5.46627	2.442383E+07
5.47440	2.316498E+07
5.48252	9755869
5.49063	1255902
5.49877	776195
5.50688	631646
5.51502	541456
5.52313	535023
5.53125	546450
5.53938	530080
5.54750	536731
5.55563	490518
5.56375	464738
5.57187	455077
5.58000	443464
5.58812	442984
5.59625	444991
5.60437	451609
5.61248	491145
5.62062	517741
5.62873	556231
5.63685	594881
5.64498	607530
5.65310	608918
5.66123	627744
5.66935	617664
5.67747	594561
5.68560	517273
5.69372	440995
5.70185	429919
5.70997	442453
5.71808	432045
5.72622	428198
5.73433	431344
5.74247	453071
5.75058	456116
5.75870	458962
5.76683	469557
5.77495	459499
5.78307	445249
5.79120	441870
5.79932	452309
5.80745	465966
5.81557	451412
5.82368	460784
5.83182	454722
5.83993	468948
5.84807	473399
5.85618	488482
5.86430	483053
5.87243	482553
5.88055	499881
5.88867	526717
5.89680	547984
5.90492	574622
5.91305	595928
5.92117	646544
5.92928	638735
5.93742	636296
5.94553	617335
5.95367	594466
5.96178	601772
5.96990	590950
5.97803	590011
5.98615	612417
5.99428	622058
6.00240	654762
6.01052	694588
6.01865	718766
6.02677	704590
6.03488	742152
6.04302	731554
6.05113	736470
6.05927	725393
6.06738	734682
6.07550	755618
6.08363	745744
6.09175	761822
6.09988	748077
6.10800	757687
6.11612	760372
6.12425	751163
6.13237	762774
6.14050	760099
6.14862	746639
6.15673	748684
6.16487	755231
6.17298	748190
6.18110	780132
6.18923	756877
6.19735	792466
6.20548	802393
6.21360	905509
6.22172	1097914
6.22985	1540805
6.23797	1989562
6.24610	1944594
6.25422	1358143
6.26233	691630
6.27047	317188
6.27858	182402
6.28670	145707
6.29483	143603
6.30295	146985
6.31108	146965
6.31920	151401
6.32732	146225
6.33545	148666
6.34357	143485
6.35170	142808
6.35982	140340
6.36793	145082
6.37607	149335
6.38418	143939
6.39232	145589
6.40043	146684
6.40855	153228
6.41668	148186
6.42480	145447
6.43292	145662
6.44105	149196
6.44917	144758
6.45730	145209
6.46542	143932
6.47353	136851
6.48167	141344
6.48978	135768
6.49792	135750
6.50603	137922
6.51415	137956
6.52228	131171
6.53040	138708
6.53853	138140
6.54665	135623
6.55477	134729
6.56290	132853
6.57102	138567
6.57913	132683
6.58727	135770
6.59538	134068
6.60352	137484
6.61163	133700
6.61975	131032
6.62788	129781
6.63600	131881
6.64413	124777
6.65225	127775
6.66037	130593
6.66850	128965
6.67662	124955
6.68473	129201
6.69287	130621
6.70098	131006
6.70912	126809
6.71723	118941
6.72535	124462
6.73348	130747
6.74160	132483
6.74973	137029
6.75785	131079
6.76597	126934
6.77410	128402
6.78222	133028
6.79035	127922
6.79847	129766
6.80658	129411
6.81472	133779
6.82283	124349
6.83095	122570
6.83908	118565
6.84720	122773
6.85533	123088
6.86345	119933
6.87157	126430
6.87970	122228
6.88782	117699
6.89595	124251
6.90407	127732
6.91218	122954
6.92032	122906
6.92843	113429
6.93655	114697
6.94468	108787
6.95280	114790
6.96093	117903
6.96905	118374
6.97717	117809
6.98530	110129
6.99342	117761
7.00155	112326
7.00967	120748
7.01778	117218
7.02592	112238
7.03403	118150
7.04217	117100
7.05028	122107
7.05840	120132
7.06653	125477
7.07465	122573
7.08277	143764
7.09090	175150
7.09902	184313
7.10715	174351
7.11527	156085
7.12338	121057
7.13152	111239
7.13963	114878
7.14777	109409
7.15588	109745
7.16400	114635
7.17213	110724
7.18025	122163
7.18838	120688
7.19650	118414
7.20462	110021
7.21275	111081
7.22087	100645
7.22898	102832
7.23712	105257
7.24523	113681
7.25337	108089
7.26148	112937
7.26960	103451
7.27773	109535
7.28585	108922
7.29398	107386
7.30210	103741
7.31022	104054
7.31835	114870
7.32647	114530
7.33458	110375
7.34272	105242
7.35083	103445
7.35897	104194
7.36708	104400
7.37520	102743
7.38333	101241
7.39145	99978
7.39958	105054
7.40770	98937
7.41582	99584
7.42395	97516
7.43207	106966
7.44020	111561
7.44832	123628
7.45643	189565
7.46457	342318
7.47268	617203
7.48080	898340
7.48893	1001982
7.49705	814461
7.50518	525616
7.51330	291735
7.52142	165475
7.52955	114970
7.53767	110156
7.54580	99711
7.55392	103462
7.56203	102061
7.57017	105235
7.57828	98780
7.58642	101815
7.59453	101084
7.60265	98851
7.61078	104097
7.61890	98017
7.62702	100489
7.63515	97583
7.64327	107475
7.65140	102575
7.65952	98273
7.66763	102223
7.67577	99058
7.68388	108054
7.69202	107266
7.70013	103169
7.70825	99841
7.71638	103175
7.72450	100226
7.73262	91894
7.74075	99245
7.74887	98753
7.75700	97090
7.76512	98983
7.77323	103680
7.78137	105878
7.78948	105254
7.79762	104325
7.80573	99589
7.81385	94650
7.82198	98471
7.83010	101867
7.83823	109408
7.84635	104531
7.85447	104920
7.86260	96792
7.87072	97863
7.87883	91780
7.88697	90570
7.89508	95248
7.90322	91207
7.91133	98066
7.91945	87420
7.92758	89663
7.93570	96928
7.94383	92468
7.95195	91560
7.96007	91480
7.96820	96893
7.97632	89044
7.98443	96021
7.99257	94671
8.00068	94446
8.00882	90635
8.01693	86726
8.02505	93979
8.03318	96200
8.04130	93140
8.04943	101712
8.05755	92319
8.06567	95528
8.07380	90226
8.08192	95503
8.09005	98959
8.09817	97971
8.10628	97981
8.11442	103952
8.12253	102812
8.13065	109421
8.13878	115948
8.14690	137761
8.15503	150680
8.16315	171730
8.17127	170737
8.17940	143241
8.18752	119929
8.19565	104579
8.20377	86689
8.21188	92469
8.22002	89202
8.22813	95165
8.23627	96683
8.24438	96070
8.25250	94965
8.26063	99632
8.26875	97695
8.27687	103139
8.28500	112175
8.29312	114660
8.30125	107203
8.30937	99677
8.31748	87873
8.32562	89485
8.33373	90426
8.34187	103223
8.34998	99694
8.35810	93790
8.36623	98501
8.37435	88283
8.38248	86124
8.39060	78269
8.39872	78503
8.40685	84349
8.41497	83719
8.42308	85922
8.43122	82076
8.43933	80190
8.44747	86278
8.45558	81960
8.46370	79494
8.47183	77890
8.47995	78823
8.48808	81251
8.49620	90677
8.50432	107542
8.51245	119001
8.52057	117928
8.52868	113266
8.53682	96704
8.54493	90441
8.55307	83958
8.56118	74190
8.56930	77038
8.57743	74887
8.58555	76308
8.59368	81388
8.60180	73799
8.60992	72276
8.61805	75287
8.62617	74728
8.63430	72831
8.64242	79148
8.65053	77773
8.65867	75958
8.66678	77700
8.67490	75728
8.68303	71337
8.69115	74887
8.69928	73929
8.70740	74742
8.71552	74707
8.72365	74011
8.73177	76332
8.73990	68043
8.74802	73514
8.75613	71152
8.76427	75583
8.77238	77510
8.78050	77984
8.78863	103156
8.79675	142165
8.80488	214806
8.81300	275767
8.82112	295671
8.82925	257979
8.83737	183570
8.84550	124349
8.85362	96660
8.86173	83712
8.86987	79826
8.87798	77226
8.88612	80489
8.89423	77999
8.90235	72759
8.91048	73178
8.91860	78579
8.92672	78013
8.93485	73126
8.94297	74367
8.95110	77403
8.95922	78736
8.96733	71673
8.97547	75424
8.98358	79587
8.99172	73820
8.99983	78169
9.00795	75743
9.01608	80151
9.02420	72677
9.03233	72712
9.04045	71510
9.04857	75538
9.05670	76753
9.06482	75273
9.07293	73352
9.08107	73299
9.08918	73848
9.09732	71998
9.10543	75417
9.11355	73705
9.12168	75728
9.12980	78133
9.13793	78171
9.14605	76083
9.15417	71370
9.16230	76768
9.17042	75849
9.17853	66013
9.18667	68736
9.19478	75884
9.20292	70195
9.21103	67200
9.21915	70009
9.22728	68211
9.23540	70337
9.24353	66013
9.25165	70193
9.25977	71743
9.26790	69272
9.27602	71774
9.28415	65567
9.29227	72613
9.30038	66248
9.30852	70044
9.31663	65846
9.32475	68232
9.33288	71121
9.34100	67191
9.34913	70018
9.35725	66975
9.36537	65641
9.37350	69705
9.38162	70350
9.38975	69202
9.39787	68310
9.40598	68279
9.41412	70984
9.42223	68402
9.43037	66784
9.43848	72113
9.44660	69170
9.45473	67635
9.46285	63597
9.47097	73926
9.47910	62063
9.48722	70943
9.49535	70343
9.50347	72046
9.51158	65163
9.51972	66117
9.52783	67046
9.53597	64063
9.54408	66227
9.55220	66149
9.56033	63705
9.56845	65167
9.57657	72401
9.58470	64161
9.59282	63320
9.60095	75070
9.60907	77578
9.61718	76071
9.62532	80193
9.63343	75693
9.64157	75847
9.64968	79140
9.65780	82675
9.66593	80338
9.67405	86671
9.68218	87559
9.69030	86325
9.69842	86343
9.70655	85042
9.71467	72894
9.72278	75270
9.73092	74144
9.73903	82831
9.74717	77868
9.75528	76227
9.76340	73026
9.77153	68810
9.77965	64319
9.78778	64001
9.79590	70212
9.80402	62808
9.81215	64467
9.82027	61871
9.82838	64505
9.83652	64109
9.84463	64208
9.85277	59895
9.86088	63743
9.86900	65176
9.87713	60555
9.88525	63407
9.89338	63155
9.90150	62605
9.90962	62294
9.91775	65201
9.92587	66766
9.93400	59178
9.94212	59529
9.95023	67943
9.95837	59968
9.96648	57941
9.97460	61479
9.98273	63861
9.99085	59192
9.99898	60667
10.00710	62375
10.01522	64022
10.02335	65788
10.03147	64519
10.03960	71439
10.04772	68664
10.05583	76462
10.06397	79999
10.07208	104563
10.08022	155084
10.08833	246596
10.09645	405401
10.10458	551303
10.11270	609719
10.12082	546037
10.12895	393045
10.13707	241824
10.14520	151408
10.15332	101860
10.16143	83807
10.16957	72979
10.17768	74489
10.18582	67046
10.19393	68083
10.20205	68556
10.21018	63400
10.21830	65161
10.22642	68188
10.23455	64194
10.24267	72342
10.25080	82849
10.25892	76346
10.26703	72841
10.27517	74699
10.28328	69282
10.29142	65560
10.29953	60141
10.30765	62150
10.31578	59972
10.32390	59805
10.33203	61209
10.34015	61401
10.34827	64718
10.35640	59858
10.36452	63357
10.37263	62658
10.38077	58598
10.38888	63013
10.39702	60441
10.40513	59656
10.41325	58496
10.42138	62529
10.42950	56332
10.43763	57695
10.44575	59607
10.45387	56915
10.46200	60465
10.47012	58424
10.47825	61659
10.48637	56786
10.49448	57823
10.50262	52190
10.51073	52601
10.51885	58521
10.52698	60483
10.53510	55839
10.54323	54487
10.55135	54892
10.55947	52549
10.56760	57708
10.57572	58989
10.58385	57095
10.59197	55472
10.60008	59662
10.60822	59695
10.61633	61600
10.62445	56714
10.63258	53033
10.64070	57772
10.64883	54386
10.65695	53762
10.66507	60088
10.67320	60130
10.68132	57694
10.68945	54924
10.69757	54823
10.70568	55077
10.71382	55937
10.72193	53555
10.73007	54473
10.73818	57235
10.74630	56138
10.75443	57729
10.76255	60922
10.77067	58169
10.77880	59646
10.78692	58022
10.79505	55149
10.80317	52318
10.81128	51247
10.81942	55582
10.82753	52648
10.83567	48672
10.84378	52987
10.85190	56610
10.86003	52172
10.86815	56662
10.87628	56202
10.88440	50938
10.89252	51472
10.90065	53803
10.90877	55096
10.91688	53300
10.92502	51262
10.93313	55005
10.94127	52496
10.94938	52094
10.95750	52178
10.96563	49942
10.97375	49317
10.98188	50324
10.99000	54793
10.99812	50396
11.00625	52042
11.01437	53841
11.02248	52364
11.03062	52631
11.03873	56254
11.04687	58202
11.05498	56551
11.06310	54288
11.07123	53668
11.07935	47099
11.08748	50163
11.09560	48308
11.10372	53578
11.11185	56812
11.11997	47448
11.12810	51146
11.13622	50638
11.14433	50268
11.15247	55210
11.16058	52846
11.16870	46087
11.17683	47478
11.18495	49437
11.19308	49373
11.20120	53104
11.20932	55013
11.21745	51752
11.22557	51309
11.23370	53068
11.24182	47690
11.24993	49228
11.25807	52952
11.26618	47144
11.27430	50594
11.28243	47731
11.29055	49080
11.29868	48498
11.30680	49622
11.31492	53499
11.32305	48493
11.33117	46205
11.33930	45642
11.34742	50202
11.35553	51497
11.36367	47848
11.37178	49265
11.37992	55481
11.38803	50952
11.39615	53395
11.40428	50757
11.41240	54345
11.42052	49508
11.42865	48114
11.43677	51020
11.44490	51138
11.45302	51145
11.46113	50809
11.46927	49894
11.47738	53941
11.48552	52998
11.49363	53281
11.50175	57001
11.50988	52215
11.51800	47696
11.52613	50191
11.53425	48750
11.54237	51189
11.55050	50170
11.55862	50614
11.56673	49813
11.57487	48390
11.58298	51620
11.59112	50422
11.59923	51423
11.60735	50301
11.61548	53692
11.62360	54746
11.63173	61284
11.63985	65662
11.64797	60173
11.65610	59445
11.66422	55103
11.67233	49338
11.68047	48634
11.68858	47636
11.69672	42950
11.70483	47933
11.71295	45039
11.72108	49094
11.72920	50902
11.73733	51763
11.74545	53452
11.75357	58023
11.76170	53883
11.76982	51023
11.77795	50891
11.78607	51680
11.79418	51175
11.80232	46512
11.81043	46285
11.81855	48136
11.82668	47670
11.83480	47633
11.84293	44592
11.85105	47538
11.85917	49012
11.86730	46154
11.87542	46987
11.88355	44568
11.89167	46050
11.89978	44668
11.90792	47744
11.91603	45222
11.92417	49191
11.93228	46821
11.94040	46852
11.94853	46883
11.95665	42951
11.96477	47181
11.97290	45700
11.98102	44628
11.98915	44044
11.99727	48140
12.00538	46593
12.01352	50234
12.02163	46994
12.02977	45255
12.03788	44586
12.04600	45374
12.05413	47717
12.06225	48061
12.07037	49655
12.07850	48797
12.08662	46478
12.09475	51005
12.10287	50510
12.11098	50211
12.11912	49185
12.12723	50394
12.13537	47523
12.14348	42123
12.15160	43440
12.15973	43027
12.16785	46905
12.17598	46072
12.18410	43080
12.19222	52959
12.20035	46851
12.20847	43101
12.21658	45539
12.22472	47008
12.23283	41304
12.24097	44452
12.24908	44523
12.25720	44890
12.26533	45531
12.27345	43204
12.28158	49266
12.28970	50026
12.29782	47791
12.30595	45612
12.31407	42982
12.32218	44498
12.33032	44156
12.33843	42428
12.34657	43183
12.35468	44970
12.36280	38574
12.37093	44471
12.37905	42400
12.38718	42282
12.39530	53082
12.40342	44700
12.41155	48823
12.41967	52922
12.42780	50252
12.43592	44801
12.44403	45637
12.45217	43459
12.46028	42712
12.46840	42107
12.47653	44630
12.48465	47243
12.49278	44064
12.50090	45766
12.50902	45231
12.51715	43666
12.52527	45282
12.53340	43985
12.54152	44365
12.54963	42887
12.55777	43426
12.56588	44554
12.57402	43027
12.58213	45296
12.59025	40230
12.59838	46692
12.60650	42307
12.61462	43037
12.62275	45097
12.63087	45502
12.63900	46032
12.64712	46902
12.65523	49942
12.66337	49239
12.67148	43591
12.67962	44613
12.68773	44402
12.69585	42420
12.70398	39913
12.71210	41034
12.72022	43327
12.72835	47547
12.73647	56758
12.74460	57363
12.75272	58292
12.76083	58641
12.76897	59044
12.77708	50790
12.78522	53386
12.79333	45712
12.80145	39707
12.80958	40940
12.81770	44139
12.82583	43653
12.83395	43280
12.84207	42328
12.85020	43969
12.85832	44535
12.86643	43679
12.87457	43145
12.88268	39288
12.89082	43040
12.89893	46508
12.90705	43686
12.91518	47264
12.92330	42430
12.93143	38304
12.93955	42787
12.94767	39870
12.95580	45205
12.96392	42689
12.97205	45839
12.98017	46232
12.98828	45526
12.99642	48146
13.00453	54075
13.01265	49369
13.02078	46439
13.02890	42356
13.03703	43160
13.04515	44914
13.05327	50472
13.06140	65848
13.06952	91474
13.07765	139623
13.08577	212712
13.09388	267741
13.10202	298188
13.11013	270828
13.11825	204505
13.12638	138465
13.13450	93105
13.14263	65781
13.15075	53536
13.15887	51317
13.16700	45607
13.17512	43343
13.18325	47320
13.19137	43710
13.19948	43819
13.20762	43875
13.21573	43435
13.22387	41816
13.23198	48835
13.24010	41819
13.24823	43338
13.25635	43359
13.26447	44584
13.27260	43214
13.28072	43551
13.28885	46828
13.29697	48443
13.30508	42731
13.31322	40934
13.32133	36392
13.32947	38186
13.33758	40792
13.34570	41718
13.35383	43344
13.36195	41457
13.37007	42260
13.37820	42974
13.38632	48337
13.39445	41722
13.40257	43573
13.41068	42510
13.41882	39672
13.42693	37367
13.43507	40469
13.44318	44509
13.45130	40852
13.45943	41123
13.46755	42442
13.47568	40952
13.48380	38728
13.49192	37739
13.50005	40203
13.50817	41908
13.51628	38722
13.52442	38704
13.53253	41545
13.54067	39722
13.54878	39874
13.55690	38808
13.56503	41360
13.57315	40469
13.58128	38241
13.58940	41479
13.59752	39654
13.60565	41553
13.61377	40266
13.62190	40297
13.63002	44080
13.63813	39230
13.64627	37422
13.65438	36232
13.66250	41347
13.67063	41090
13.67875	38206
13.68688	42187
13.69500	37423
13.70312	41229
13.71125	39265
13.71937	41164
13.72750	38244
13.73562	41504
13.74373	40033
13.75187	42113
13.75998	45595
13.76812	48774
13.77623	45692
13.78435	44306
13.79248	45909
13.80060	41845
13.80872	41016
13.81685	40767
13.82497	45160
13.83310	40620
13.84122	44256
13.84933	38862
13.85747	38547
13.86558	40544
13.87372	41791
13.88183	40143
13.88995	40664
13.89808	40973
13.90620	41794
13.91432	39450
13.92245	42025
13.93057	44185
13.93870	41390
13.94682	39800
13.95493	42493
13.96307	39855
13.97118	39117
13.97932	43398
13.98743	40000
13.99555	42305
14.00368	39447
14.01180	42281
14.01993	39130
14.02805	39699
14.03617	37896
14.04430	38505
14.05242	45199
14.06053	39790
14.06867	36864
14.07678	42907
14.08492	37831
14.09303	38285
14.10115	39799
14.10928	49197
14.11740	51861
14.12553	63359
14.13365	77854
14.14177	74894
14.14990	74615
14.15802	63544
14.16613	54807
14.17427	48915
14.18238	52164
14.19052	53912
14.19863	46573
14.20675	45389
14.21488	43421
14.22300	42503
14.23113	44862
14.23925	44771
14.24737	42724
14.25550	42875
14.26362	35499
14.27175	39307
14.27987	42077
14.28798	37112
14.29612	41341
14.30423	42521
14.31235	39685
14.32048	35921
14.32860	38691
14.33673	37832
14.34485	45617
14.35297	39106
14.36110	38453
14.36922	36403
14.37735	40665
14.38547	39960
14.39358	41660
14.40172	39888
14.40983	42828
14.41797	42029
14.42608	41689
14.43420	46808
14.44233	38448
14.45045	40231
14.45857	38261
14.46670	37418
14.47482	37603
14.48295	38136
14.49107	34724
14.49918	37805
14.50732	34438
14.51543	42273
14.52357	37409
14.53168	40034
14.53980	38074
14.54793	39809
14.55605	43738
14.56417	38724
14.57230	41098
14.58042	36474
14.58855	35800
14.59667	35508
14.60478	35473
14.61292	36194
14.62103	34311
14.62917	37632
14.63728	38017
14.64540	33976
14.65353	36926
14.66165	37503
14.66978	34939
14.67790	36554
14.68602	39921
14.69415	35073
14.70227	38532
14.71038	39571
14.71852	39122
14.72663	42987
14.73477	37012
14.74288	37529
14.75100	40443
14.75913	37963
14.76725	39251
14.77538	36789
14.78350	37798
14.79162	37119
14.79975	39851
14.80787	38767
14.81600	38367
14.82412	42526
14.83223	38261
14.84037	41718
14.84848	44478
14.85660	42246
14.86473	43551
14.87285	40753
14.88098	42094
14.88910	42213
14.89722	40059
14.90535	40694
14.91347	38571
14.92160	38882
14.92972	43751
14.93783	40200
14.94597	42222
14.95408	48395
14.96220	46931
14.97033	43002
14.97845	45364
14.98658	43188
14.99470	43499
15.00282	43617
15.01095	48212
15.01907	45381
15.02720	40988
15.03532	42813
15.04343	43848
15.05157	37059
15.05968	41349
15.06782	36632
15.07593	38544
15.08405	40466
15.09218	39642
15.10030	36505
15.10842	42805
15.11655	39266
15.12467	38792
15.13280	36343
15.14092	43798
15.14903	43378
15.15717	39873
15.16528	46259
15.17342	43627
15.18153	44093
15.18965	41310
15.19778	45275
15.20590	38228
15.21402	40862
15.22215	35592
15.23027	43451
15.23840	40914
15.24652	45614
15.25463	35938
15.26277	40314
15.27088	41156
15.27902	38209
15.28713	37817
15.29525	37550
15.30338	35643
15.31150	39167
15.31963	36953
15.32775	39485
15.33587	34138
15.34400	39516
15.35212	37646
15.36023	39288
15.36837	39235
15.37648	49976
15.38462	46492
15.39273	47309
15.40085	52554
15.40898	50221
15.41710	46629
15.42523	46498
15.43335	42265
15.44147	37696
15.44960	41015
15.45772	37647
15.46585	37186
15.47397	36135
15.48208	41034
15.49022	36201
15.49833	36688
15.50645	35599
15.51458	40931
15.52270	39604
15.53083	39848
15.53895	36049
15.54707	42477
15.55520	36318
15.56332	32723
15.57145	41696
15.57957	39962
15.58768	35487
15.59582	35554
15.60393	36176
15.61205	34929
15.62018	38011
15.62830	40471
15.63643	35008
15.64455	36249
15.65267	34825
15.66080	34054
15.66892	34987
15.67705	32666
15.68517	33040
15.69328	32574
15.70142	33148
15.70953	39629
15.71767	38912
15.72578	38977
15.73390	39501
15.74203	44051
15.75015	49915
15.75827	57749
15.76640	64040
15.77452	66569
15.78265	68180
15.79077	60954
15.79888	50871
15.80702	43141
15.81513	38845
15.82327	41292
15.83138	36178
15.83950	36592
15.84763	31782
15.85575	34911
15.86388	34563
15.87200	36448
15.88012	33877
15.88825	36409
15.89637	37936
15.90448	39983
15.91262	34871
15.92073	33344
15.92887	36293
15.93698	36967
15.94510	42361
15.95323	35402
15.96135	33630
15.96948	44702
15.97760	52435
15.98572	55880
15.99385	71517
16.00197	76854
16.01008	79906
16.01822	71882
16.02633	61478
16.03447	50418
16.04258	43451
16.05070	41018
16.05883	42732
16.06695	37638
16.07508	35369
16.08320	39015
16.09132	42461
16.09945	34046
16.10757	37419
16.11570	37305
16.12382	36186
16.13193	35591
16.14007	36475
16.14818	36158
16.15630	38224
16.16443	45330
16.17255	54082
16.18068	82374
16.18880	127874
16.19692	194998
16.20505	264647
16.21317	321988
16.22130	317118
16.22942	267179
16.23753	199173
16.24567	132078
16.25378	87595
16.26190	58426
16.27003	44904
16.27815	44221
16.28628	41061
16.29440	40987
16.30252	38937
16.31065	39093
16.31877	35848
16.32690	40653
16.33502	40707
16.34313	40134
16.35127	39442
16.35938	38112
16.36752	37831
16.37563	36619
16.38375	37743
16.39188	38920
16.40000	37698
16.40812	39732
16.41625	36799
16.42437	39496
16.43250	35820
16.44062	37495
16.44873	39042
16.45687	37798
16.46498	38204
16.47312	39222
16.48123	36034
16.48935	36806
16.49748	37765
16.50560	36959
16.51373	34066
16.52185	34134
16.52997	39276
16.53810	35414
16.54622	31731
16.55433	35781
16.56247	33832
16.57058	32540
16.57872	35697
16.58683	35298
16.59495	35347
16.60308	33815
16.61120	33405
16.61933	36407
16.62745	37071
16.63557	32138
16.64370	38079
16.65182	31783
16.65993	35519
16.66807	35416
16.67618	33307
16.68432	37671
16.69243	30661
16.70055	34875
16.70868	33287
16.71680	36513
16.72493	36248
16.73305	33621
16.74117	31526
16.74930	34774
16.75742	36364
16.76555	34851
16.77367	33275
16.78178	36914
16.78992	34620
16.79803	36028
16.80615	33755
16.81428	33051
16.82240	35502
16.83053	35602
16.83865	32442
16.84677	35166
16.85490	34346
16.86302	33407
16.87115	38188
16.87927	35862
16.88738	34687
16.89552	38964
16.90363	38731
16.91177	39696
16.91988	45135
16.92800	35292
16.93613	37420
16.94425	36180
16.95237	36021
16.96050	33890
16.96862	32850
16.97675	36432
16.98487	34439
16.99298	33882
17.00112	37907
17.00923	33079
17.01737	33342
17.02548	36045
17.03360	36491
17.04173	36096
17.04985	38585
17.05797	36106
17.06610	36913
17.07422	40319
17.08235	39197
17.09047	35559
17.09858	36832
17.10672	36579
17.11483	34797
17.12297	41739
17.13108	35567
17.13920	33513
17.14733	36084
17.15545	31794
17.16358	32397
17.17170	38807
17.17982	31975
17.18795	31401
17.19607	37368
17.20418	38476
17.21232	33058
17.22043	43576
17.22857	38158
17.23668	43817
17.24480	43466
17.25293	42732
17.26105	43406
17.26918	42456
17.27730	39787
17.28542	37124
17.29355	41182
17.30167	34610
17.30980	35799
17.31792	33575
17.32603	39835
17.33417	36153
17.34228	33262
17.35040	44396
17.35853	36280
17.36665	36953
17.37478	35448
17.38290	33983
17.39102	33702
17.39915	33079
17.40727	37780
17.41540	32689
17.42352	32551
17.43163	33925
17.43977	32861
17.44788	31673
17.45600	33173
17.46413	35571
17.47225	36611
17.48038	38449
17.48850	33865
17.49662	37948
17.50475	37922
17.51287	40357
17.52100	38419
17.52912	35403
17.53723	34540
17.54537	36418
17.55348	35942
17.56162	33144
17.56973	35658
17.57785	33261
17.58598	33122
17.59410	34115
17.60222	35788
17.61035	34915
17.61847	38210
17.62660	35023
17.63472	37790
17.64283	39198
17.65097	37379
17.65908	37059
17.66722	34710
17.67533	34605
17.68345	34048
17.69158	32077
17.69970	30965
17.70782	34275
17.71595	32228
17.72407	39725
17.73220	37356
17.74032	32998
17.74843	37154
17.75657	36711
17.76468	37370
17.77282	32397
17.78093	32980
17.78905	32816
17.79718	32751
17.80530	33643
17.81343	33504
17.82155	38262
17.82967	34587
17.83780	34467
17.84592	38696
17.85403	34595
17.86217	36382
17.87028	37890
17.87842	36885
17.88653	33502
17.89465	32621
17.90278	34493
17.91090	37248
17.91903	35329
17.92715	38834
17.93527	40797
17.94340	39616
17.95152	40317
17.95965	39517
17.96777	44660
17.97588	43399
17.98402	40265
17.99213	39229
18.00025	39287
18.00838	39846
18.01650	40047
18.02463	37699
18.03275	37803
18.04087	35305
18.04900	37620
18.05712	39549
18.06525	38621
18.07337	35490
18.08148	35017
18.08962	34135
18.09773	36148
18.10585	32704
18.11398	34482
18.12210	33127
18.13023	33444
18.13835	36572
18.14647	36691
18.15460	36581
18.16272	35505
18.17085	34840
18.17897	37491
18.18708	37206
18.19522	38852
18.20333	41553
18.21147	39766
18.21958	40715
18.22770	41889
18.23583	41499
18.24395	39632
18.25207	38813
18.26020	40568
18.26832	35031
18.27645	37809
18.28457	36434
18.29268	37756
18.30082	36130
18.30893	34456
18.31707	36675
18.32518	34446
18.33330	33537
18.34143	34818
18.34955	31467
18.35768	34022
18.36580	36678
18.37392	36306
18.38205	34039
18.39017	34253
18.39828	36008
18.40642	34506
18.41453	37530
18.42267	37342
18.43078	37148
18.43890	37091
18.44703	36305
18.45515	35746
18.46328	41270
18.47140	37032
18.47952	39574
18.48765	35936
18.49577	35240
18.50388	35879
18.51202	35922
18.52013	35397
18.52827	33471
18.53638	38186
18.54450	29874
18.55263	30735
18.56075	31983
18.56888	33711
18.57700	31360
18.58512	33093
18.59325	29338
18.60137	32644
18.60950	30224
18.61762	34536
18.62573	31350
18.63387	32943
18.64198	36000
18.65010	33445
18.65823	30392
18.66635	36266
18.67448	32190
18.68260	33171
18.69072	38699
18.69885	35735
18.70697	32828
18.71510	34588
18.72322	42644
18.73133	39068
18.73947	40921
18.74758	45056
18.75570	42441
18.76383	41249
18.77195	43228
18.78008	44182
18.78820	44862
18.79632	49157
18.80445	52187
18.81257	55886
18.82070	52654
18.82882	56305
18.83693	56562
18.84507	59092
18.85318	63636
18.86132	59185
18.86943	53253
18.87755	52545
18.88568	49441
18.89380	44107
18.90192	45807
18.91005	44565
18.91817	45738
18.92630	39627
18.93442	38844
18.94253	41110
18.95067	38210
18.95878	39318
18.96692	40220
18.97503	37330
18.98315	38420
18.99128	38291
18.99940	37778
19.00753	39609
19.01565	41603
19.02377	38697
19.03190	40477
19.04002	45926
19.04813	53868
19.05627	60730
19.06438	63547
19.07252	70605
19.08063	71156
19.08875	69609
19.09688	63023
19.10500	53206
19.11313	55249
19.12125	47849
19.12937	47922
19.13750	43915
19.14562	45645
19.15375	45284
19.16187	45211
19.16998	48620
19.17812	46323
19.18623	47546
19.19435	49993
19.20248	42822
19.21060	43835
19.21873	45677
19.22685	45985
19.23497	55461
19.24310	55357
19.25122	62230
19.25935	72248
19.26747	85974
19.27558	98365
19.28372	113136
19.29183	135523
19.29995	167201
19.30808	190881
19.31620	213855
19.32433	215843
19.33245	202192
19.34057	165304
19.34870	121130
19.35682	98522
19.36495	71187
19.37307	59793
19.38118	51046
19.38932	49051
19.39743	47351
19.40557	51417
19.41368	56907
19.42180	61666
19.42993	58599
19.43805	60401
19.44617	56454
19.45430	43824
19.46242	42773
19.47055	45242
19.47867	39639
19.48678	38045
19.49492	40406
19.50303	37345
19.51117	39225
19.51928	37714
19.52740	38821
19.53553	38689
19.54365	36886
19.55177	36459
19.55990	34881
19.56802	36506
19.57615	36885
19.58427	36091
19.59238	37286
19.60052	38713
19.60863	39930
19.61677	45369
19.62488	52914
19.63300	57286
19.64113	65991
19.64925	63322
19.65738	61092
19.66550	49231
19.67362	45987
19.68175	40551
19.68987	41196
19.69798	37592
19.70612	36808
19.71423	41978
19.72237	38484
19.73048	40707
19.73860	33451
19.74673	38320
19.75485	37609
19.76298	35987
19.77110	33584
19.77922	36457
19.78735	40862
19.79547	36677
19.80360	40582
19.81172	45950
19.81983	43927
19.82797	49016
19.83608	55931
19.84420	68842
19.85233	85073
19.86045	117079
19.86858	144051
19.87670	164113
19.88482	159091
19.89295	141821
19.90107	106660
19.90920	75489
19.91732	58132
19.92543	45319
19.93357	37584
19.94168	38977
19.94980	38483
19.95793	34242
19.96605	36140
19.97418	40908
19.98230	37377
19.99042	35883
19.99855	34268
20.00667	38786
20.01480	37665
20.02292	34387
20.03103	39535
20.03917	34661
20.04728	34907
20.05542	37473
20.06353	35583
20.07165	32855
20.07978	37715
20.08790	34127
20.09602	32832
20.10415	34950
20.11227	35083
20.12040	38695
20.12852	36821
20.13663	35239
20.14477	35054
20.15288	35511
20.16102	39273
20.16913	33512
20.17725	37276
20.18538	37419
20.19350	35240
20.20163	43889
20.20975	41563
20.21787	50263
20.22600	53932
20.23412	54966
20.24223	52234
20.25037	54247
20.25848	48170
20.26662	45548
20.27473	42003
20.28285	43212
20.29098	42879
20.29910	35175
20.30723	36582
20.31535	36566
20.32347	37810
20.33160	33757
20.33972	31219
20.34783	40446
20.35597	34804
20.36408	38692
20.37222	36816
20.38033	37132
20.38845	40113
20.39658	36510
20.40470	36769
20.41283	38754
20.42095	36255
20.42907	36810
20.43720	37920
20.44532	35757
20.45345	39769
20.46157	41376
20.46968	37252
20.47782	39965
20.48593	43967
20.49405	39295
20.50218	40882
20.51030	39381
20.51843	35986
20.52655	38655
20.53467	36776
20.54280	34832
20.55092	34159
20.55905	32590
20.56717	34157
20.57528	33126
20.58342	34119
20.59153	33454
20.59965	30490
20.60778	33506
20.61590	33217
20.62403	32187
20.63215	33287
20.64027	31083
20.64840	32727
20.65652	34519
20.66465	28167
20.67277	32279
20.68088	31671
20.68902	35388
20.69713	32374
20.70527	34223
20.71338	32116
20.72150	31132
20.72963	32909
20.73775	33299
20.74587	33703
20.75400	33113
20.76212	32351
20.77025	31980
20.77837	31191
20.78648	34033
20.79462	31290
20.80273	34976
20.81087	30428
20.81898	38158
20.82710	33461
20.83523	34209
20.84335	32762
20.85148	32568
20.85960	32819
20.86772	32060
20.87585	34718
20.88397	34149
20.89208	32924
20.90022	36461
20.90833	31786
20.91647	31830
20.92458	33120
20.93270	32965
20.94083	33615
20.94895	32698
20.95708	32715
20.96520	34476
20.97332	33761
20.98145	35881
20.98957	31768
20.99768	36186
21.00582	33425
21.01393	36660
21.02207	35024
21.03018	34153
21.03830	32128
21.04643	37267
21.05455	34806
21.06268	29592
21.07080	34013
21.07892	32143
21.08705	32196
21.09517	36477
21.10330	32192
21.11142	33371
21.11953	34535
21.12767	34194
21.13578	34131
21.14390	34855
21.15203	36120
21.16015	38142
21.16828	35953
21.17640	33555
21.18452	33361
21.19265	31916
21.20077	32205
21.20890	33725
21.21702	30881
21.22513	30655
21.23327	34910
21.24138	32117
21.24952	33654
21.25763	32182
21.26575	36668
21.27388	31593
21.28200	32190
21.29012	35022
21.29825	32577
21.30637	30884
21.31450	31898
21.32262	34356
21.33073	34180
21.33887	30509
21.34698	30719
21.35512	32581
21.36323	31026
21.37135	29649
21.37948	34396
21.38760	32948
21.39572	33903
21.40385	34016
21.41197	31908
21.42010	33013
21.42822	34535
21.43633	31585
21.44447	35028
21.45258	32055
21.46072	33894
21.46883	33446
21.47695	35498
21.48508	32461
21.49320	30142
21.50133	32670
21.50945	34026
21.51757	35186
21.52570	35334
21.53382	34127
21.54193	38600
21.55007	40837
21.55818	38128
21.56632	39353
21.57443	41539
21.58255	39151
21.59068	37733
21.59880	34169
21.60693	32020
21.61505	31857
21.62317	30994
21.63130	30560
21.63942	34941
21.64755	31634
21.65567	30048
21.66378	32294
21.67192	33721
21.68003	35015
21.68815	33307
21.69628	29555
21.70440	35787
21.71253	38810
21.72065	42304
21.72877	43771
21.73690	47533
21.74502	46270
21.75315	50283
21.76127	43327
21.76938	43407
21.77752	40837
21.78563	37564
21.79375	38026
21.80188	34048
21.81000	37940
21.81813	33755
21.82625	33472
21.83437	33641
21.84250	33539
21.85062	30870
21.85875	35412
21.86687	27325
21.87498	31711
21.88312	32793
21.89123	28620
21.89937	32712
21.90748	33572
21.91560	31679
21.92373	33369
21.93185	30045
21.93997	29092
21.94810	29353
21.95622	34564
21.96435	33642
21.97247	36325
21.98058	33130
21.98872	32670
21.99683	34416
22.00497	34514
22.01308	34323
22.02120	41852
22.02933	38954
22.03745	36192
22.04557	37258
22.05370	39401
22.06182	46194
22.06995	42195
22.07807	45509
22.08618	38700
22.09432	37606
22.10243	35464
22.11057	33305
22.11868	37383
22.12680	36471
22.13493	32262
22.14305	35198
22.15118	35297
22.15930	36416
22.16742	41579
22.17555	44713
22.18367	50220
22.19178	58819
22.19992	55186
22.20803	58505
22.21617	58323
22.22428	57030
22.23240	50933
22.24053	43569
22.24865	40066
22.25678	40261
22.26490	42078
22.27302	47004
22.28115	46437
22.28927	57830
22.29740	64001
22.30552	74197
22.31363	79060
22.32177	84570
22.32988	82055
22.33800	77777
22.34613	63998
22.35425	61174
22.36238	59356
22.37050	57575
22.37862	55448
22.38675	57980
22.39487	52794
22.40300	50174
22.41112	51429
22.41923	41489
22.42737	39410
22.43548	38942
22.44360	35288
22.45173	35568
22.45985	38873
22.46798	33911
22.47610	36119
22.48422	36433
22.49235	35894
22.50047	32392
22.50860	38037
22.51672	42323
22.52483	35714
22.53297	35483
22.54108	36554
22.54922	35151
22.55733	32245
22.56545	34624
22.57358	31923
22.58170	31997
22.58982	32696
22.59795	31107
22.60607	31091
22.61420	34033
22.62232	35274
22.63043	33947
22.63857	38220
22.64668	36781
22.65482	36357
22.66293	34363
22.67105	40583
22.67918	34505
22.68730	29471
22.69543	29164
22.70355	30538
22.71167	34712
22.71980	34423
22.72792	32493
22.73603	30460
22.74417	36533
22.75228	35884
22.76042	29704
22.76853	31393
22.77665	31441
22.78478	32062
22.79290	38090
22.80103	39095
22.80915	34609
22.81727	34744
22.82540	31015
22.83352	37115
22.84163	32327
22.84977	32634
22.85788	32188
22.86602	33521
22.87413	36207
22.88225	36431
22.89038	37391
22.89850	40886
22.90663	40084
22.91475	40271
22.92287	38827
22.93100	42543
22.93912	37286
22.94725	34995
22.95537	36162
22.96348	39372
22.97162	38026
22.97973	41449
22.98785	41377
22.99598	42579
23.00410	47531
23.01223	46005
23.02035	43391
23.02847	40535
23.03660	38348
23.04472	41143
23.05285	34255
23.06097	34534
23.06908	33080
23.07722	31769
23.08533	36925
23.09345	31780
23.10158	34620
23.10970	32354
23.11783	33632
23.12595	33556
23.13407	35834
23.14220	34747
23.15032	38903
23.15845	34766
23.16657	37860
23.17468	34724
23.18282	35910
23.19093	40066
23.19907	34311
23.20718	36344
23.21530	32843
23.22343	31597
23.23155	30051
23.23967	30220
23.24780	36413
23.25592	36429
23.26405	34341
23.27217	31969
23.28028	32808
23.28842	33668
23.29653	34757
23.30467	31009
23.31278	34899
23.32090	33193
23.32903	33469
23.33715	35576
23.34528	36271
23.35340	33721
23.36152	39538
23.36965	38266
23.37777	37565
23.38588	37235
23.39402	39240
23.40213	41367
23.41027	41660
23.41838	42973
23.42650	49420
23.43463	46534
23.44275	54608
23.45088	62603
23.45900	64615
23.46712	68820
23.47525	77999
23.48337	69899
23.49150	70917
23.49962	63134
23.50773	56370
23.51587	49998
23.52398	49667
23.53210	43875
23.54023	38468
23.54835	35390
23.55648	38547
23.56460	34547
23.57272	40643
23.58085	37003
23.58897	39921
23.59710	39185
23.60522	35610
23.61333	36082
23.62147	36054
23.62958	43868
23.63770	46490
23.64583	44327
23.65395	43526
23.66208	42786
23.67020	40005
23.67832	39536
23.68645	38231
23.69457	36615
23.70270	37073
23.71082	39151
23.71893	38311
23.72707	35934
23.73518	40588
23.74332	39085
23.75143	44134
23.75955	43140
23.76768	48621
23.77580	49173
23.78392	51509
23.79205	53542
23.80017	45363
23.80830	42446
23.81642	46250
23.82453	44168
23.83267	44645
23.84078	36843
23.84892	40071
23.85703	39923
23.86515	38899
23.87328	41794
23.88140	43371
23.88952	37174
23.89765	41071
23.90577	44398
23.91390	44683
23.92202	47273
23.93013	50624
23.93827	50204
23.94638	48709
23.95452	50805
23.96263	42778
23.97075	40247
23.97888	41753
23.98700	37783
23.99513	37083
24.00325	39980
24.01137	37394
24.01950	39749
24.02762	35658
24.03573	38557
24.04387	39389
24.05198	39302
24.06012	38719
24.06823	36468
24.07635	38454
24.08448	41393
24.09260	37398
24.10073	38637
24.10885	38558
24.11697	46296
24.12510	38144
24.13322	40787
24.14135	42599
24.14947	42196
24.15758	42025
24.16572	40732
24.17383	40429
24.18195	41652
24.19008	38686
24.19820	35589
24.20633	37963
24.21445	40522
24.22257	38811
24.23070	35576
24.23882	36834
24.24695	38190
24.25507	35279
24.26318	40118
24.27132	47279
24.27943	48871
24.28755	44988
24.29568	47434
24.30380	51821
24.31193	50304
24.32005	52353
24.32817	47431
24.33630	45839
24.34442	43228
24.35255	45248
24.36067	44403
24.36878	41698
24.37692	40566
24.38503	47076
24.39317	41537
24.40128	42578
24.40940	41055
24.41753	43199
24.42565	43086
24.43377	40687
24.44190	44584
24.45002	42832
24.45815	35164
24.46627	39886
24.47438	37432
24.48252	35558
24.49063	35378
24.49877	37173
24.50688	34019
24.51500	34549
24.52313	33190
24.53125	34515
24.53938	39612
24.54750	35934
24.55562	36113
24.56375	35693
24.57187	34350
24.57998	37917
24.58812	36936
24.59623	35897
24.60437	37429
24.61248	33528
24.62060	36121
24.62873	36718
24.63685	36561
24.64498	35384
24.65310	37558
24.66122	37688
24.66935	35589
24.67747	32515
24.68558	33434
24.69372	32899
24.70183	37152
24.70997	33565
24.71808	32307
24.72620	32965
24.73433	31343
24.74245	31992
24.75058	34121
24.75870	34877
24.76682	32978
24.77495	35208
24.78307	35579
24.79120	34671
24.79932	32641
24.80743	35182
24.81557	34419
24.82368	36680
24.83180	36562
24.83993	33217
24.84805	40396
24.85618	38414
24.86430	41154
24.87242	44750
24.88055	43701
24.88867	42535
24.89680	38596
24.90492	36062
24.91303	35771
24.92117	33875
24.92928	33376
24.93740	34857
24.94553	32810
24.95365	31660
24.96178	31202
24.96990	33071
24.97802	32450
24.98615	33091
24.99427	33674
25.00240	28560
25.01052	33039
25.01863	32147
25.02677	32289
25.03488	33026
25.04302	34399
25.05113	32407
25.05925	33164
25.06738	33755
25.07550	36663
25.08362	31686
25.09175	33123
25.09987	29925
25.10800	28991
25.11612	33255
25.12423	33508
25.13237	39272
25.14048	33450
25.14862	34367
25.15673	39151
25.16485	41801
25.17298	41363
25.18110	40989
25.18923	43208
25.19735	43422
25.20547	43864
25.21360	39483
25.22172	36255
25.22983	37870
25.23797	33778
25.24608	35056
25.25422	34753
25.26233	34000
25.27045	34970
25.27858	32562
25.28670	31631
25.29483	31397
25.30295	31151
25.31107	39332
25.31920	38937
25.32732	40954
25.33543	52960
25.34357	76311
25.35168	99018
25.35982	146458
25.36793	210510
25.37605	283803
25.38418	399851
25.39230	565654
25.40043	725378
25.40855	896268
25.41667	1044932
25.42480	1067520
25.43292	978090
25.44105	767439
25.44917	520316
25.45728	323293
25.46542	192912
25.47353	121273
25.48165	83356
25.48978	63410
25.49790	55384
25.50603	53979
25.51415	51945
25.52227	50181
25.53040	48757
25.53852	45077
25.54665	49597
25.55477	47839
25.56288	48306
25.57102	42781
25.57913	42050
25.58727	45311
25.59538	42047
25.60350	41069
25.61163	42408
25.61975	43070
25.62787	39066
25.63600	38473
25.64412	40375
25.65225	40229
25.66037	41287
25.66848	40737
25.67662	42265
25.68473	42167
25.69287	36806
25.70098	37392
25.70910	39730
25.71723	36956
25.72535	36768
25.73347	41891
25.74160	37447
25.74972	39733
25.75785	40148
25.76597	41044
25.77408	37026
25.78222	35209
25.79033	36224
25.79847	35445
25.80658	36075
25.81470	36707
25.82283	37211
25.83095	37367
25.83908	37622
25.84720	36091
25.85532	36819
25.86345	35749
25.87157	37483
25.87968	37535
25.88782	38100
25.89593	38207
25.90407	34030
25.91218	33744
25.92030	32838
25.92843	33348
25.93655	31930
25.94468	30868
25.95280	31437
25.96092	36498
25.96905	34156
25.97717	33398
25.98528	34157
25.99342	30492
26.00153	28837
26.00967	35017
26.01778	31805
26.02590	32812
26.03403	33952
26.04215	35693
26.05028	38464
26.05840	31807
26.06652	38785
26.07465	37712
26.08277	39012
26.09090	45356
26.09902	58205
26.10713	58344
26.11527	68984
26.12338	73715
26.13150	75826
26.13963	81039
26.14775	80465
26.15588	69104
26.16400	59730
26.17212	50102
26.18025	43335
26.18837	39946
26.19650	34491
26.20462	31952
26.21273	30389
26.22087	33295
26.22898	33274
26.23712	31416
26.24523	35306
26.25335	29977
26.26148	32123
26.26960	31064
26.27772	30918
26.28585	35822
26.29397	30151
26.30210	30315
26.31022	28915
26.31833	29880
26.32647	33910
26.33458	31205
26.34272	34110
26.35083	34099
26.35895	27838
26.36708	29670
26.37520	28163
26.38332	30743
26.39145	29600
26.39957	29832
26.40770	36695
26.41582	29549
26.42393	29692
26.43207	31835
26.44018	33272
26.44832	33561
26.45643	31928
26.46455	33718
26.47268	29811
26.48080	29397
26.48893	35481
26.49705	31381
26.50517	30834
26.51330	32458
26.52142	32321
26.52953	34092
26.53767	34974
26.54578	32072
26.55392	28506
26.56203	29348
26.57015	31736
26.57828	32975
26.58640	28365
26.59453	30645
26.60265	30605
26.61077	31936
26.61890	30339
26.62702	31488
26.63515	32565
26.64327	26736
26.65138	29908
26.65952	34443
26.66763	30077
26.67575	29402
26.68388	30829
26.69200	30082
26.70013	33060
26.70825	30831
26.71637	29587
26.72450	31002
26.73262	31232
26.74075	34234
26.74887	37229
26.75698	36862
26.76512	39482
26.77323	50141
26.78135	46569
26.78948	46594
26.79760	50301
26.80573	43219
26.81385	44504
26.82197	43839
26.83010	39204
26.83822	40627
26.84635	40689
26.85447	38150
26.86258	37015
26.87072	41535
26.87883	34590
26.88697	31954
26.89508	34236
26.90320	37093
26.91133	31633
26.91945	31583
26.92757	26147
26.93570	30404
26.94382	29122
26.95195	29878
26.96007	33010
26.96818	35145
26.97632	36513
26.98443	39450
26.99257	49793
27.00068	45104
27.00880	48719
27.01693	51447
27.02505	43214
27.03318	43811
27.04130	44148
27.04942	42201
27.05755	41125
27.06567	38235
27.07378	34416
27.08192	36157
27.09003	33687
27.09817	34591
27.10628	34216
27.11440	36388
27.12253	35241
27.13065	37354
27.13878	35734
27.14690	37384
27.15502	35729
27.16315	36519
27.17127	36685
27.17938	34942
27.18752	34689
27.19563	34464
27.20377	35086
27.21188	32838
27.22000	36575
27.22813	37218
27.23625	36819
27.24438	36375
27.25250	33933
27.26062	37311
27.26875	32258
27.27687	35713
27.28500	33726
27.29312	31350
27.30123	32527
27.30937	30205
27.31748	29680
27.32560	30736
27.33373	31700
27.34185	35757
27.34998	34556
27.35810	32235
27.36622	34153
27.37435	29435
27.38247	30889
27.39060	35257
27.39872	35628
27.40683	32598
27.41497	31594
27.42308	32310
27.43120	30107
27.43933	34815
27.44745	33468
27.45558	34106
27.46370	38315
27.47182	34923
27.47995	38661
27.48807	35924
27.49620	35102
27.50432	34145
27.51243	31594
27.52057	34027
27.52868	31035
27.53682	30991
27.54493	28729
27.55305	28237
27.56118	29138
27.56930	30035
27.57742	28741
27.58555	29812
27.59367	32372
27.60180	32031
27.60992	29952
27.61803	31075
27.62617	35193
27.63428	30740
27.64242	31725
27.65053	31061
27.65865	28769
27.66678	29072
27.67490	28942
27.68303	28529
27.69115	27348
27.69927	31421
27.70740	33301
27.71552	32630
27.72363	36997
27.73177	33706
27.73988	37860
27.74802	35827
27.75613	34134
27.76425	31656
27.77238	33623
27.78050	33404
27.78863	33624
27.79675	30465
27.80487	32686
27.81300	33752
27.82112	33172
27.82923	30240
27.83737	31886
27.84548	30142
27.85362	35539
27.86173	30564
27.86985	28685
27.87798	31609
27.88610	28075
27.89423	27589
27.90235	29799
27.91047	28517
27.91860	32035
27.92672	30968
27.93485	33178
27.94297	36192
27.95108	31518
27.95922	31516
27.96733	31723
27.97545	28438
27.98358	29970
27.99170	31988
27.99983	28053
28.00795	31811
28.01607	27758
28.02420	25097
28.03232	28558
28.04045	26921
28.04857	27750
28.05668	26916
28.06482	33161
28.07293	26663
28.08107	27642
28.08918	28284
28.09730	28299
28.10543	33625
28.11355	28644
28.12167	28065
28.12980	30525
28.13792	32538
28.14605	28652
28.15417	28191
28.16228	28713
28.17042	30060
28.17853	27538
28.18667	28422
28.19478	30165
28.20290	33687
28.21103	27163
28.21915	29172
28.22727	25410
28.23540	28173
28.24352	24571
28.25165	25659
28.25977	28366
28.26788	32149
28.27602	31870
28.28413	29973
28.29227	31193
28.30038	34418
28.30850	34008
28.31663	33231
28.32475	35027
28.33288	33784
28.34100	34064
28.34912	31875
28.35725	34367
28.36537	33065
28.37348	37276
28.38162	31792
28.38973	32786
28.39787	31003
28.40598	32293
28.41410	31665
28.42223	34120
28.43035	31553
28.43848	30774
28.44660	32646
28.45472	32306
28.46285	31921
28.47097	32005
28.47908	33595
28.48722	34029
28.49533	33633
28.50347	32975
28.51158	31467
28.51970	29385
28.52783	34623
28.53595	32083
28.54408	30777
28.55220	26445
28.56032	30821
28.56845	32814
28.57657	32175
28.58470	34095
28.59282	34222
28.60093	30165
28.60907	32985
28.61718	33042
28.62530	35286
28.63343	34103
28.64155	35727
28.64968	42835
28.65780	42417
28.66592	42111
28.67405	51205
28.68217	46960
28.69030	44335
28.69842	44744
28.70653	36375
28.71467	41145
28.72278	37198
28.73092	33575
28.73903	35567
28.74715	33572
28.75528	31634
28.76340	34403
28.77152	33362
28.77965	34219
28.78777	33130
28.79590	32637
28.80402	31142
28.81213	32218
28.82027	36812
28.82838	31756
28.83652	28936
28.84463	32504
28.85275	30608
28.86088	30657
28.86900	27630
28.87713	28768
28.88525	30128
28.89337	30134
28.90150	30343
28.90962	26763
28.91773	31141
28.92587	32853
28.93398	30666
28.94212	29937
28.95023	27871
28.95835	32236
28.96648	28704
28.97460	28076
28.98273	27009
28.99085	30038
28.99897	27584
29.00710	25558
29.01522	33169
29.02333	28853
29.03147	30620
29.03958	30774
29.04772	34294
29.05583	36421
29.06395	41239
29.07208	49290
29.08020	57314
29.08833	82577
29.09645	101428
29.10457	120055
29.11270	146370
29.12082	177886
29.12895	199751
29.13707	214796
29.14518	227198
29.15332	203139
29.16143	150891
29.16955	115597
29.17768	78751
29.18580	54653
29.19393	38563
29.20205	36538
29.21017	34620
29.21830	32909
29.22642	33217
29.23455	31811
29.24267	29882
29.25078	32270
29.25892	35145
29.26703	34394
29.27515	29333
29.28328	32872
29.29140	31182
29.29953	34893
29.30765	33049
29.31577	32652
29.32390	33166
29.33202	31300
29.34015	30338
29.34827	36072
29.35638	32897
29.36452	33280
29.37263	33198
29.38077	32687
29.38888	33461
29.39700	36868
29.40513	32415
29.41325	29338
29.42137	27689
29.42950	30081
29.43762	31568
29.44575	30788
29.45387	30236
29.46198	27382
29.47012	29523
29.47823	29146
29.48637	30154
29.49448	32277
29.50260	28566
29.51073	29212
29.51885	28323
29.52698	31534
29.53510	30585
29.54322	32944
29.55135	35373
29.55947	34849
29.56758	43698
29.57572	44523
29.58383	49685
29.59197	46442
29.60008	44934
29.60820	40835
29.61633	37396
29.62445	40743
29.63258	33052
29.64070	31895
29.64882	31675
29.65695	28796
29.66507	29877
29.67318	31414
29.68132	30914
29.68943	31334
29.69757	39327
29.70568	35341
29.71380	35968
29.72193	39403
29.73005	38336
29.73818	35182
29.74630	32381
29.75442	33292
29.76255	39766
29.77067	49169
29.77880	72885
29.78692	84588
29.79503	103604
29.80317	109469
29.81128	116292
29.81940	122202
29.82753	132267
29.83565	131044
29.84378	138148
29.85190	144204
29.86002	141839
29.86815	149688
29.87627	144819
29.88440	145782
29.89252	153378
29.90063	149761
29.90877	146169
29.91688	147911
29.92502	153199
29.93313	145940
29.94125	145709
29.94938	153511
29.95750	145820
29.96562	149984
29.97375	148455
29.98187	142234
29.99000	145782
29.99812	145842
30.00623	153240
30.01437	158510
30.02248	161998
30.03062	176017
30.03873	198700
30.04685	205402
30.05498	216299
30.06310	227580
30.07122	217148
30.07935	196568
30.08747	176321
30.09560	153946
30.10372	135419
30.11183	126873
30.11997	109351
30.12808	109411
30.13622	102653
30.14433	102177
30.15245	95225
30.16058	89196
30.16870	93661
30.17683	92721
30.18495	89207
30.19307	86624
30.20120	87052
30.20932	81504
30.21743	81525
30.22557	76819
30.23368	76964
30.24182	80019
30.24993	81575
30.25805	76104
30.26618	81561
30.27430	77115
30.28243	77901
30.29055	71364
30.29867	68879
30.30680	69631
30.31492	63668
30.32303	64221
30.33117	64749
30.33928	61282
30.34742	63190
30.35553	65518
30.36365	57981
30.37178	60696
30.37990	60280
30.38803	57244
30.39615	57252
30.40427	53587
30.41240	53888
30.42052	53289
30.42865	49959
30.43677	57584
30.44488	58406
30.45302	57163
30.46113	51238
30.46925	52375
30.47738	55850
30.48550	54501
30.49363	51119
30.50175	52868
30.50987	49968
30.51800	51509
30.52612	50625
30.53425	56125
30.54237	49837
30.55048	45511
30.55862	51374
30.56673	49251
30.57487	52902
30.58298	51101
30.59110	50186
30.59923	47449
30.60735	49599
30.61547	47773
30.62360	47297
30.63172	44838
30.63985	48941
30.64797	46510
30.65608	50693
30.66422	47701
30.67233	45273
30.68047	44264
30.68858	46974
30.69670	46988
30.70483	50230
30.71295	46558
30.72107	47030
30.72920	46765
30.73732	44727
30.74545	44056
30.75357	46809
30.76168	43228
30.76982	42389
30.77793	46038
30.78607	46915
30.79418	46967
30.80230	46465
30.81043	46292
30.81855	42174
30.82668	43964
30.83480	42207
30.84292	48123
30.85105	42903
30.85917	45030
30.86728	44648
30.87542	49485
30.88353	42846
30.89167	47789
30.89978	45445
30.90790	42660
30.91603	46741
30.92415	42560
30.93228	44090
30.94040	39357
30.94852	45670
30.95665	43007
30.96477	45481
30.97290	44094
30.98102	43864
30.98913	44562
30.99727	46084
31.00538	41573
31.01350	53394
31.02163	45330
31.02975	44009
31.03788	43956
31.04600	45290
31.05412	39530
31.06225	44291
31.07037	41601
31.07850	39300
31.08662	45117
31.09473	40658
31.10287	43335
31.11098	47593
31.11910	39922
31.12723	44391
31.13535	43358
31.14348	41632
31.15160	45665
31.15972	45306
31.16785	46758
31.17597	41651
31.18410	43917
31.19222	48405
31.20033	49480
31.20847	50574
31.21658	51744
31.22472	46525
31.23283	43420
31.24095	48628
31.24908	46988
31.25720	45367
31.26532	40903
31.27345	39595
31.28157	45518
31.28970	39503
31.29782	39790
31.30593	36617
31.31407	44117
31.32218	42013
31.33032	42734
31.33843	42732
31.34655	40880
31.35468	40567
31.36280	42062
31.37092	39401
31.37905	43211
31.38717	39182
31.39530	43658
31.40342	44118
31.41153	40855
31.41967	41816
31.42778	39253
31.43592	40546
31.44403	40878
31.45215	42939
31.46028	37236
31.46840	38538
31.47653	41171
31.48465	39458
31.49277	39900
31.50090	39741
31.50902	44983
31.51713	40962
31.52527	42961
31.53338	41919
31.54152	42977
31.54963	41816
31.55775	47000
31.56588	49579
31.57400	45068
31.58213	49386
31.59025	43258
31.59837	46487
31.60650	43587
31.61462	42716
31.62275	39745
31.63087	39875
31.63898	39982
31.64712	37557
31.65523	40407
31.66335	40892
31.67148	38810
31.67960	41357
31.68773	41143
31.69585	45219
31.70397	43015
31.71210	46233
31.72022	45279
31.72835	46625
31.73647	42914
31.74458	51435
31.75272	39811
31.76083	39663
31.76895	37009
31.77708	39691
31.78520	38220
31.79333	38107
31.80145	39813
31.80957	42560
31.81770	39914
31.82582	45246
31.83395	42120
31.84207	41730
31.85018	42390
31.85832	44098
31.86643	53556
31.87457	44907
31.88268	43192
31.89080	38877
31.89893	46153
31.90705	45104
31.91517	47179
31.92330	48294
31.93142	52337
31.93955	55367
31.94767	55004
31.95578	60927
31.96392	63133
31.97203	65988
31.98017	61120
31.98828	60223
31.99640	58162
32.00453	52178
32.01265	45719
32.02078	48982
32.02890	51162
32.03702	48761
32.04515	50159
32.05327	47640
32.06138	44725
32.06952	44426
32.07763	43780
32.08577	43405
32.09388	37447
32.10200	41918
32.11013	39565
32.11825	38188
32.12638	41616
32.13450	39638
32.14262	37372
32.15075	37331
32.15887	41542
32.16698	37647
32.17512	43367
32.18323	42552
32.19137	40103
32.19948	43641
32.20760	40941
32.21573	41287
32.22385	36993
32.23198	46339
32.24010	37224
32.24822	40399
32.25635	44082
32.26447	43285
32.27260	44840
32.28072	42360
32.28883	41554
32.29697	41438
32.30508	40202
32.31320	42290
32.32133	44869
32.32945	43921
32.33758	45101
32.34570	44990
32.35382	41172
32.36195	45622
32.37007	41409
32.37820	42264
32.38632	38590
32.39443	44230
32.40257	38681
32.41068	38020
32.41882	40861
32.42693	36602
32.43505	40132
32.44318	38659
32.45130	39919
32.45942	38003
32.46755	41449
32.47567	41103
32.48380	42493
32.49192	37182
32.50003	43676
32.50817	44830
32.51628	41444
32.52442	39654
32.53253	40904
32.54065	41180
32.54878	38131
32.55690	41830
32.56502	43411
32.57315	41746
32.58127	41549
32.58940	44723
32.59752	42047
32.60563	40439
32.61377	42623
32.62188	46087
32.63002	40522
32.63813	43525
32.64625	45639
32.65438	52062
32.66250	51998
32.67063	56246
32.67875	52003
32.68687	53075
32.69500	53808
32.70312	50881
32.71123	51434
32.71937	56182
32.72748	54606
32.73562	52092
32.74373	56413
32.75185	45973
32.75998	46525
32.76810	40943
32.77623	44374
32.78435	42647
32.79247	41241
32.80060	40782
32.80872	42848
32.81683	44307
32.82497	44216
32.83308	44533
32.84122	43392
32.84933	44250
32.85745	45268
32.86558	49832
32.87370	48772
32.88183	49246
32.88995	54951
32.89807	53951
32.90620	53883
32.91432	60546
32.92245	53475
32.93057	51224
32.93868	52248
32.94682	51654
32.95493	46194
32.96305	46549
32.97118	45624
32.97930	44957
32.98743	42082
32.99555	44018
33.00367	43649
33.01180	46226
33.01992	40995
33.02805	40173
33.03617	39096
33.04428	41457
33.05242	43399
33.06053	44986
33.06867	42967
33.07678	43910
33.08490	48179
33.09303	50691
33.10115	50229
33.10927	53017
33.11740	52174
33.12552	47272
33.13365	46067
33.14177	42377
33.14988	44336
33.15802	41225
33.16613	40244
33.17427	45208
33.18238	48185
33.19050	49580
33.19863	50091
33.20675	49550
33.21487	46351
33.22300	44214
33.23112	43244
33.23925	45479
33.24737	37422
33.25548	41736
33.26362	40088
33.27173	42038
33.27987	42689
33.28798	44452
33.29610	45753
33.30423	41220
33.31235	41907
33.32048	41794
33.32860	39745
33.33672	44126
33.34485	40776
33.35297	42631
33.36108	42412
33.36922	41632
33.37733	45794
33.38547	44086
33.39358	45086
33.40170	40518
33.40983	47005
33.41795	50797
33.42608	45092
33.43420	45206
33.44232	47760
33.45045	46318
33.45857	43897
33.46670	43004
33.47482	47262
33.48293	46453
33.49107	48075
33.49918	50627
33.50730	45164
33.51543	48629
33.52355	50377
33.53168	49797
33.53980	51661
33.54792	52350
33.55605	52077
33.56417	56484
33.57230	54103
33.58042	62120
33.58853	63161
33.59667	55833
33.60478	52006
33.61290	55867
33.62103	57144
33.62915	59437
33.63728	60287
33.64540	59975
33.65352	60193
33.66165	59732
33.66977	55065
33.67790	62200
33.68602	61352
33.69413	58845
33.70227	60294
33.71038	54055
33.71852	60596
33.72663	59586
33.73475	60254
33.74288	56344
33.75100	58750
33.75912	59236
33.76725	61353
33.77537	61764
33.78350	59528
33.79162	59315
33.79973	59501
33.80787	61813
33.81598	59842
33.82412	57318
33.83223	54447
33.84035	55581
33.84848	55260
33.85660	54958
33.86472	56421
33.87285	54080
33.88097	54880
33.88910	59936
33.89722	54652
33.90533	58048
33.91347	52381
33.92158	54118
33.92972	49290
33.93783	54809
33.94595	50477
33.95408	55009
33.96220	54097
33.97033	56849
33.97845	51106
33.98657	48374
33.99470	50160
34.00282	47881
34.01093	46551
34.01907	51211
34.02718	47237
34.03532	53765
34.04343	50028
34.05155	50719
34.05968	51093
34.06780	47479
34.07593	45217
34.08405	45429
34.09217	46920
34.10030	46735
34.10842	48056
34.11655	44533
34.12467	52425
34.13278	50404
34.14092	49563
34.14903	52071
34.15715	57334
34.16528	54953
34.17340	53571
34.18153	51892
34.18965	51478
34.19777	51135
34.20590	51739
34.21402	47104
34.22215	47454
34.23027	45353
34.23838	45812
34.24652	46932
34.25463	50155
34.26277	46322
34.27088	50866
34.27900	49629
34.28713	50028
34.29525	49723
34.30337	59733
34.31150	54185
34.31962	55679
34.32775	55115
34.33587	54491
34.34398	56090
34.35212	60852
34.36023	61249
34.36837	62374
34.37648	63641
34.38460	61848
34.39273	62221
34.40085	66014
34.40897	66521
34.41710	71109
34.42522	67067
34.43335	70331
34.44147	77816
34.44958	69299
34.45772	74757
34.46583	70378
34.47397	76736
34.48208	71328
34.49020	75494
34.49833	68600
34.50645	68577
34.51458	64408
34.52270	69325
34.53082	64642
34.53895	61380
34.54707	62113
34.55518	60279
34.56332	62719
34.57143	61779
34.57957	58895
34.58768	57827
34.59580	59266
34.60393	59702
34.61205	57535
34.62018	54505
34.62830	56319
34.63642	57645
34.64455	54965
34.65267	51096
34.66078	53376
34.66892	54130
34.67703	54877
34.68517	51152
34.69328	50030
34.70140	50261
34.70953	49377
34.71765	57928
34.72578	54048
34.73390	54314
34.74202	55240
34.75015	60008
34.75827	55685
34.76640	54632
34.77452	57660
34.78263	53967
34.79077	55889
34.79888	58847
34.80700	61381
34.81513	61348
34.82325	56155
34.83138	60810
34.83950	59851
34.84762	59635
34.85575	59102
34.86387	53670
34.87200	53007
34.88012	50270
34.88823	53714
34.89637	53504
34.90448	51659
34.91262	51476
34.92073	56311
34.92885	53363
34.93698	59968
34.94510	53236
34.95322	57273
34.96135	55180
34.96947	60711
34.97760	58028
34.98572	57092
34.99383	56974
35.00197	54343
35.01008	54673
35.01822	52713
35.02633	54221
35.03445	49471
35.04258	54430
35.05070	57269
35.05882	53006
35.06695	52603
35.07507	47421
35.08320	51944
35.09132	53599
35.09943	58380
35.10757	49794
35.11568	53832
35.12382	54046
35.13193	52478
35.14005	53996
35.14818	55297
35.15630	56357
35.16443	54334
35.17255	55159
35.18067	54282
35.18880	56066
35.19692	61508
35.20503	63026
35.21317	57689
35.22128	58722
35.22942	60191
35.23753	59452
35.24565	51893
35.25378	59396
35.26190	56063
35.27003	59267
35.27815	57907
35.28627	52988
35.29440	54691
35.30252	48635
35.31065	53079
35.31877	58264
35.32688	52865
35.33502	55938
35.34313	56956
35.35125	57600
35.35938	59086
35.36750	54392
35.37563	57350
35.38375	54135
35.39187	58030
35.40000	59605
35.40812	61356
35.41625	59220
35.42437	63840
35.43248	58508
35.44062	66073
35.44873	59091
35.45685	65958
35.46498	71330
35.47310	67653
35.48123	65922
35.48935	61577
35.49747	61320
35.50560	59338
35.51372	59502
35.52185	61471
35.52997	58763
35.53808	64428
35.54622	58139
35.55433	65654
35.56247	66063
35.57058	70005
35.57870	68980
35.58683	73505
35.59495	72249
35.60307	71499
35.61120	73851
35.61932	68951
35.62745	66655
35.63557	63669
35.64368	64031
35.65182	60109
35.65993	62419
35.66807	65450
35.67618	67953
35.68430	70502
35.69243	57037
35.70055	64188
35.70867	65234
35.71680	61910
35.72492	63146
35.73305	62013
35.74117	60790
35.74928	62773
35.75742	59909
35.76553	60630
35.77367	62008
35.78178	67783
35.78990	65456
35.79803	68922
35.80615	65284
35.81428	65899
35.82240	65749
35.83052	62848
35.83865	64097
35.84677	59854
35.85488	60750
35.86302	61421
35.87113	61011
35.87927	63760
35.88738	58508
35.89550	59918
35.90363	62946
35.91175	56471
35.91988	59229
35.92800	55921
35.93612	56705
35.94425	58235
35.95237	62510
35.96050	56935
35.96862	59896
35.97673	54166
35.98487	57107
35.99298	56939
36.00110	59520
36.00923	55327
36.01735	57232
36.02548	59141
36.03360	59789
36.04172	69644
36.04985	70790
36.05797	73057
36.06610	77135
36.07422	83271
36.08233	95048
36.09047	110232
36.09858	117069
36.10670	132959
36.11483	142180
36.12295	156410
36.13108	159654
36.13920	156155
36.14732	147491
36.15545	129684
36.16357	113013
36.17170	97855
36.17982	80984
36.18793	82098
36.19607	73583
36.20418	74392
36.21232	67414
36.22043	69403
36.22855	63099
36.23668	68060
36.24480	67053
36.25292	68737
36.26105	63488
36.26917	64067
36.27730	65067
36.28542	65017
36.29353	69305
36.30167	68640
36.30978	72512
36.31792	65872
36.32603	71479
36.33415	71674
36.34228	71460
36.35040	68295
36.35853	70356
36.36665	70687
36.37477	74492
36.38290	71649
36.39102	78080
36.39913	72514
36.40727	70331
36.41538	68080
36.42352	69252
36.43163	71179
36.43975	71151
36.44788	68844
36.45600	63411
36.46413	67889
36.47225	67727
36.48037	62958
36.48850	61700
36.49662	66934
36.50473	65781
36.51287	77310
36.52098	69060
36.52912	66144
36.53723	73184
36.54535	74599
36.55348	75125
36.56160	73598
36.56973	70602
36.57785	74979
36.58597	77961
36.59410	77810
36.60222	81329
36.61035	77609
36.61847	72358
36.62658	72083
36.63472	77656
36.64283	78350
36.65095	79585
36.65908	76397
36.66720	76425
36.67533	80963
36.68345	84012
36.69157	80780
36.69970	85844
36.70782	78678
36.71595	84926
36.72407	86460
36.73218	88789
36.74032	88846
36.74843	93194
36.75657	89967
36.76468	94741
36.77280	89159
36.78093	87433
36.78905	83622
36.79717	81932
36.80530	79882
36.81342	80308
36.82155	81022
36.82967	81514
36.83778	83156
36.84592	83513
36.85403	91228
36.86217	86534
36.87028	82151
36.87840	82683
36.88653	81551
36.89465	83594
36.90277	79345
36.91090	80434
36.91902	79146
36.92715	77909
36.93527	76654
36.94338	75301
36.95152	80808
36.95963	80753
36.96777	84960
36.97588	84342
36.98400	85814
36.99213	82151
37.00025	84642
37.00838	94323
37.01650	87458
37.02462	86668
37.03275	84268
37.04087	83941
37.04898	84819
37.05712	80975
37.06523	92146
37.07337	88768
37.08148	86143
37.08960	82631
37.09773	89983
37.10585	87516
37.11398	85125
37.12210	86883
37.13022	88112
37.13835	91405
37.14647	89252
37.15458	95604
37.16272	89976
37.17083	86799
37.17897	90181
37.18708	93463
37.19520	94341
37.20333	86326
37.21145	93153
37.21958	93183
37.22770	89221
37.23582	90301
37.24395	86787
37.25207	86463
37.26020	88448
37.26832	88466
37.27643	85425
37.28457	86296
37.29268	80203
37.30080	84235
37.30893	79986
37.31705	81805
37.32518	78088
37.33330	79705
37.34142	79978
37.34955	72031
37.35767	79421
37.36580	81173
37.37392	79558
37.38203	81591
37.39017	72478
37.39828	72684
37.40642	80375
37.41453	78483
37.42265	75620
37.43078	80987
37.43890	77891
37.44702	85249
37.45515	86843
37.46327	86404
37.47140	87484
37.47952	92375
37.48763	93213
