Z:\data\JTB-E02\BACandBLUE\JTB-E02-195-06.D Wed Feb 20 09:48:53 2019
Start of data points
2.09518,72270
2.10330,71981
2.11142,74811
2.11955,72765
2.12767,85537
2.13578,89096
2.14392,102280
2.15203,110754
2.16017,120077
2.16828,126421
2.17640,126925
2.18453,128252
2.19265,131208
2.20078,126958
2.20890,127576
2.21702,124986
2.22515,120627
2.23327,122687
2.24140,109366
2.24952,105240
2.25763,153357
2.26577,951210
2.27388,3018885
2.28200,6054359
2.29013,5764788
2.29825,3324417
2.30638,2116368
2.31450,1650330
2.32262,1388268
2.33075,1235358
2.33887,1194481
2.34700,1176395
2.35512,1019203
2.36323,888478
2.37137,844265
2.37948,798613
2.38760,883199
2.39573,872296
2.40385,877431
2.41198,1222053
2.42010,1692224
2.42822,2561855
2.43635,2280955
2.44447,1704312
2.45260,1441011
2.46072,1233784
2.46883,1087730
2.47697,967533
2.48508,881035
2.49322,836278
2.50133,798904
2.50945,747420
2.51758,752362
2.52570,777334
2.53382,729162
2.54195,737743
2.55007,863313
2.55820,972256
2.56632,985348
2.57443,909887
2.58257,753018
2.59068,656524
2.59882,593151
2.60693,595396
2.61505,641298
2.62318,645951
2.63130,585470
2.63943,522771
2.64755,507160
2.65567,504138
2.66380,509370
2.67192,477818
2.68003,475145
2.68817,467315
2.69628,454062
2.70442,430298
2.71253,394857
2.72065,380274
2.72878,367864
2.73690,356406
2.74503,354538
2.75315,346268
2.76127,330726
2.76940,326882
2.77752,317625
2.78563,317041
2.79377,324049
2.80188,365727
2.81002,445748
2.81813,442378
2.82625,413224
2.83438,383524
2.84250,363569
2.85063,350521
2.85875,373854
2.86687,400695
2.87500,395067
2.88312,373865
2.89125,388715
2.89937,385220
2.90748,373106
2.91562,325371
2.92373,295148
2.93185,295065
2.93998,276005
2.94810,287709
2.95623,272831
2.96435,264741
2.97247,264765
2.98060,246889
2.98872,247484
2.99685,240192
3.00497,258002
3.01308,286625
3.02122,278740
3.02933,257936
3.03745,250732
3.04558,245011
3.05370,246169
3.06183,243153
3.06995,238381
3.07807,225957
3.08620,228287
3.09432,233376
3.10245,262125
3.11057,308916
3.11868,363737
3.12682,373475
3.13493,354679
3.14307,328577
3.15118,306333
3.15930,294292
3.16743,276630
3.17555,265218
3.18367,263576
3.19180,250863
3.19992,252423
3.20805,248055
3.21617,234455
3.22428,231974
3.23242,227357
3.24053,216532
3.24867,212977
3.25678,208970
3.26490,213913
3.27303,522239
3.28115,5363868
3.28928,3.69208E+07
3.29740,9.797485E+07
3.30552,1.549697E+08
3.31365,1.679232E+08
3.32177,1.613625E+08
3.32988,1.426068E+08
3.33802,1.179E+08
3.34613,7.945919E+07
3.35427,6.326746E+07
3.36238,5.124802E+07
3.37050,4.194738E+07
3.37863,3.517392E+07
3.38675,3.017306E+07
3.39488,2.620647E+07
3.40300,2.297598E+07
3.41112,2.037939E+07
3.41925,1.815538E+07
3.42737,1.611701E+07
3.43548,1.465968E+07
3.44362,1.338754E+07
3.45173,1.226795E+07
3.45987,1.146309E+07
3.46798,1.067142E+07
3.47610,9864409
3.48423,9365115
3.49235,8793579
3.50048,8241270
3.50860,7729207
3.51672,7343151
3.52485,6948327
3.53297,6557222
3.54110,6221796
3.54922,5853228
3.55733,5630913
3.56547,5366916
3.57358,5124182
3.58170,5077025
3.58983,4941120
3.59795,4787706
3.60608,4611257
3.61420,4499827
3.62232,4342306
3.63045,4247342
3.63857,4123208
3.64670,3978689
3.65482,3818822
3.66293,3670179
3.67107,3605063
3.67918,3492406
3.68732,3498700
3.69543,3434557
3.70355,3376529
3.71168,3290913
3.71980,3181933
3.72792,3128511
3.73605,3012116
3.74417,2970443
3.75230,2869360
3.76042,2857901
3.76853,2773536
3.77667,2724986
3.78478,2700923
3.79292,2631863
3.80103,2597881
3.80915,2573549
3.81728,2573260
3.82540,2572602
3.83352,2564249
3.84165,2469595
3.84977,2412063
3.85790,2359253
3.86602,2301190
3.87413,2253867
3.88227,2190835
3.89038,2145512
3.89852,2110641
3.90663,2097061
3.91475,2064349
3.92288,2062016
3.93100,2022017
3.93913,1972495
3.94725,1934775
3.95537,1894697
3.96350,1884013
3.97162,1846915
3.97973,1842911
3.98787,1803000
3.99598,1788709
4.00412,1750520
4.01223,1735187
4.02035,1719538
4.02848,1704706
4.03660,1667280
4.04473,1641112
4.05285,1619756
4.06097,1572551
4.06910,1605218
4.07722,1566309
4.08533,1534101
4.09347,1510918
4.10158,1511720
4.10972,1464909
4.11783,1490675
4.12595,1466805
4.13408,1462466
4.14220,1524392
4.15033,1646855
4.15845,1840567
4.16657,1886941
4.17470,1816777
4.18282,1698876
4.19095,1611241
4.19907,1524889
4.20718,1506163
4.21532,1464243
4.22343,1399835
4.23155,1439492
4.23968,1438028
4.24780,1396367
4.25593,1358017
4.26405,1334025
4.27217,1290190
4.28030,1290927
4.28842,1250873
4.29655,1238231
4.30467,1218690
4.31278,1242336
4.32092,1274932
4.32903,1371252
4.33717,1409893
4.34528,1464330
4.35340,1543408
4.36153,1755385
4.36965,1914862
4.37777,1948549
4.38590,1813284
4.39402,1629962
4.40215,1459521
4.41027,1330604
4.41838,1234137
4.42652,1204734
4.43463,1172153
4.44277,1107024
4.45088,1134177
4.45900,1096382
4.46713,1080746
4.47525,1078205
4.48337,1066521
4.49150,1050270
4.49962,1050978
4.50775,1046674
4.51587,1032221
4.52398,1023294
4.53212,1000021
4.54023,975384
4.54837,983770
4.55648,968530
4.56460,947827
4.57273,929440
4.58085,945231
4.58898,927894
4.59710,930183
4.60522,946666
4.61335,970158
4.62147,952822
4.62958,939656
4.63772,919166
4.64583,875638
4.65397,881603
4.66208,863316
4.67020,883142
4.67833,870986
4.68645,841699
4.69458,847388
4.70270,826461
4.71082,826670
4.71895,800761
4.72707,812668
4.73520,790421
4.74332,800620
4.75143,798443
4.75957,780471
4.76768,760424
4.77580,774507
4.78393,781821
4.79205,750888
4.80018,772705
4.80830,756680
4.81642,764920
4.82455,756774
4.83267,750415
4.84080,756229
4.84892,747665
4.85703,774357
4.86517,833893
4.87328,880843
4.88140,891816
4.88953,854968
4.89765,842950
4.90578,814194
4.91390,821495
4.92202,1492325
4.93015,7044684
4.93827,3.324993E+07
4.94640,8.422107E+07
4.95452,1.269832E+08
4.96263,1.467465E+08
4.97077,1.471838E+08
4.97888,1.358114E+08
4.98702,1.168789E+08
4.99513,9.45803E+07
5.00325,7.202314E+07
5.01138,5.296724E+07
5.01950,3.90679E+07
5.02762,2.997873E+07
5.03575,2.378794E+07
5.04387,1.913677E+07
5.05200,1.608531E+07
5.06012,1.382252E+07
5.06823,1.201924E+07
5.07637,1.056743E+07
5.08448,9398023
5.09262,8537587
5.10073,7703621
5.10885,6965364
5.11698,6413775
5.12510,5916982
5.13323,5597161
5.14135,5300061
5.14947,4995828
5.15760,4749176
5.16572,4578452
5.17383,4354667
5.18197,4165199
5.19008,3996086
5.19822,3857960
5.20633,3722923
5.21445,3539313
5.22258,3388903
5.23070,3302532
5.23883,3242195
5.24695,3123292
5.25507,3092447
5.26320,2960976
5.27132,2923769
5.27943,2778346
5.28757,2707095
5.29568,2645322
5.30382,2574886
5.31193,2516456
5.32005,2452914
5.32818,2410077
5.33630,2346427
5.34443,2308175
5.35255,2294146
5.36067,2273403
5.36880,2212892
5.37692,2187692
5.38505,2149802
5.39317,2094993
5.40128,2041084
5.40942,2014949
5.41753,1973770
5.42565,1950171
5.43378,1877086
5.44190,1834995
5.45003,1851018
5.45815,1810832
5.46627,1768020
5.47440,1747970
5.48252,1714092
5.49065,1724732
5.49877,1672794
5.50688,1648562
5.51502,1645810
5.52313,1602991
5.53127,1569691
5.53938,1575652
5.54750,1581379
5.55563,1517275
5.56375,1529353
5.57187,1512360
5.58000,1492525
5.58812,1493454
5.59625,1488743
5.60437,1485635
5.61248,1500109
5.62062,1588984
5.62873,1770536
5.63687,1905741
5.64498,1977188
5.65310,1866051
5.66123,1709362
5.66935,1552364
5.67747,1481116
5.68560,1433700
5.69372,1467339
5.70185,1480345
5.70997,1459341
5.71808,1407321
5.72622,1366735
5.73433,1314344
5.74247,1273419
5.75058,1253162
5.75870,1212626
5.76683,1197273
5.77495,1179445
5.78308,1156762
5.79120,1154487
5.79932,1151542
5.80745,1132538
5.81557,1133692
5.82368,1121098
5.83182,1088251
5.83993,1092377
5.84807,1084571
5.85618,1052837
5.86430,1054579
5.87243,1021777
5.88055,1032177
5.88868,998695
5.89680,1012212
5.90492,990951
5.91305,902994
5.92117,781885
5.92928,741124
5.93742,719780
5.94553,740705
5.95367,719798
5.96178,767219
5.96990,841906
5.97803,1016896
5.98615,1214000
5.99428,1277597
6.00240,1261128
6.01052,1145290
6.01865,1072752
6.02677,986460
6.03490,936480
6.04302,891743
6.05113,860363
6.05927,821668
6.06738,821100
6.07550,794029
6.08363,775565
6.09175,755565
6.09988,746662
6.10800,749826
6.11612,741455
6.12425,739985
6.13237,740266
6.14050,749188
6.14862,742764
6.15673,718646
6.16487,715577
6.17298,718013
6.18112,705874
6.18923,717159
6.19735,694145
6.20548,669735
6.21360,688031
6.22172,668409
6.22985,672326
6.23797,660399
6.24610,666565
6.25422,674899
6.26233,683372
6.27047,679084
6.27858,686039
6.28672,661754
6.29483,665517
6.30295,663975
6.31108,667368
6.31920,659008
6.32732,646496
6.33545,644531
6.34357,657418
6.35170,637518
6.35982,636512
6.36793,631672
6.37607,632337
6.38418,615552
6.39232,623622
6.40043,621685
6.40855,626888
6.41668,619736
6.42480,637637
6.43293,722964
6.44105,897548
6.44917,1103498
6.45730,1187562
6.46542,1067645
6.47353,891097
6.48167,759830
6.48978,708724
6.49792,666009
6.50603,653089
6.51415,631088
6.52228,604645
6.53040,603923
6.53853,601461
6.54665,595369
6.55477,600179
6.56290,608330
6.57102,553777
6.57915,535590
6.58727,510284
6.59538,510616
6.60352,485980
6.61163,478317
6.61975,493078
6.62788,496837
6.63600,488083
6.64413,499360
6.65225,489642
6.66037,465213
6.66850,463810
6.67662,472827
6.68475,467177
6.69287,454249
6.70098,446841
6.70912,432111
6.71723,440580
6.72535,424563
6.73348,446837
6.74160,415777
6.74973,423607
6.75785,423583
6.76597,415527
6.77410,414300
6.78222,402568
6.79035,405361
6.79847,423590
6.80658,410356
6.81472,433525
6.82283,440272
6.83097,450510
6.83908,440895
6.84720,437897
6.85533,434698
6.86345,457190
6.87157,541528
6.87970,711246
6.88782,843816
6.89595,825969
6.90407,729059
6.91218,580240
6.92032,470362
6.92843,413648
6.93657,368256
6.94468,329286
6.95280,297464
6.96093,283492
6.96905,276860
6.97717,250443
6.98530,237449
6.99342,225824
7.00155,218226
7.00967,228714
7.01778,237270
7.02592,250407
7.03403,259228
7.04217,256338
7.05028,251126
7.05840,251734
7.06653,239466
7.07465,231729
7.08278,226345
7.09090,227006
7.09902,226051
7.10715,219050
7.11527,217121
7.12338,215954
7.13152,215092
7.13963,203010
7.14777,207471
7.15588,201393
7.16400,207804
7.17213,203003
7.18025,210286
7.18838,225257
7.19650,251624
7.20462,250967
7.21275,255955
7.22087,233834
7.22900,230825
7.23712,207637
7.24523,197361
7.25337,187240
7.26148,174509
7.26960,183677
7.27773,176651
7.28585,189711
7.29398,193680
7.30210,204132
7.31022,214049
7.31835,201110
7.32647,203682
7.33460,188177
7.34272,185629
7.35083,185361
7.35897,188651
7.36708,172763
7.37520,181210
7.38333,186268
7.39145,190747
7.39958,192804
7.40770,214913
7.41582,231206
7.42395,259182
7.43207,302892
7.44020,329787
7.44832,379990
7.45643,380198
7.46457,354497
7.47268,309571
7.48082,250041
7.48893,217505
7.49705,192259
7.50518,183679
7.51330,184738
7.52142,180146
7.52955,179614
7.53767,178986
7.54580,180439
7.55392,179857
7.56203,172709
7.57017,174225
7.57828,176561
7.58642,175612
7.59453,176325
7.60265,170748
7.61078,179907
7.61890,169435
7.62703,165549
7.63515,167461
7.64327,164253
7.65140,165366
7.65952,165299
7.66763,164288
7.67577,166438
7.68388,159292
7.69202,162303
7.70013,165388
7.70825,164996
7.71638,158868
7.72450,164551
7.73263,159114
7.74075,154773
7.74887,145784
7.75700,158197
7.76512,155651
7.77323,160365
7.78137,160366
7.78948,167714
7.79762,170937
7.80573,176934
7.81385,196041
7.82198,185211
7.83010,182896
7.83823,153221
7.84635,151727
7.85447,138406
7.86260,134579
7.87072,129934
7.87885,124044
7.88697,121568
7.89508,121215
7.90322,129333
7.91133,129971
7.91945,118514
7.92758,125666
7.93570,130023
7.94383,123361
7.95195,134176
7.96007,156929
7.96820,183546
7.97632,232410
7.98445,252659
7.99257,246708
8.00068,222329
8.00882,201397
8.01693,175199
8.02507,156569
8.03318,150147
8.04130,141289
8.04943,143920
8.05755,146204
8.06567,160118
8.07380,155062
8.08192,171676
8.09005,158254
8.09817,164193
8.10628,165186
8.11442,164107
8.12253,161003
8.13067,159255
8.13878,149678
8.14690,157962
8.15503,172708
8.16315,203078
8.17127,239250
8.17940,274986
8.18752,283097
8.19565,271835
8.20377,246976
8.21188,223238
8.22002,204166
8.22813,177789
8.23627,167144
8.24438,158504
8.25250,166879
8.26063,170928
8.26875,174167
8.27688,175425
8.28500,172727
8.29312,172481
8.30125,167292
8.30937,161081
8.31748,170023
8.32562,198299
8.33373,254000
8.34187,330057
8.34998,405603
8.35810,450301
8.36623,427526
8.37435,364666
8.38248,291137
8.39060,229006
8.39872,208579
8.40685,199599
8.41497,201804
8.42308,220467
8.43122,221801
8.43933,222285
8.44747,219636
8.45558,215293
8.46370,198671
8.47183,200042
8.47995,182130
8.48808,179494
8.49620,182223
8.50432,196691
8.51245,215585
8.52057,252895
8.52870,272870
8.53682,282112
8.54493,250418
8.55307,231883
8.56118,204729
8.56930,198658
8.57743,189769
8.58555,185088
8.59368,178241
8.60180,176562
8.60992,168200
8.61805,165535
8.62617,169614
8.63430,159146
8.64242,163025
8.65053,160719
8.65867,156177
8.66678,161966
8.67492,154030
8.68303,161012
8.69115,151723
8.69928,162783
8.70740,161683
8.71552,149784
8.72365,146023
8.73177,153836
8.73990,166239
8.74802,221926
8.75613,662552
8.76427,3054601
8.77238,1.247716E+07
8.78052,3.629402E+07
8.78863,6.444198E+07
8.79675,7.91621E+07
8.80488,7.826938E+07
8.81300,6.916537E+07
8.82112,5.640886E+07
8.82925,4.277877E+07
8.83737,3.139666E+07
8.84550,2.247244E+07
8.85362,1.585049E+07
8.86173,1.117373E+07
8.86987,8026416
8.87798,5872741
8.88612,4527823
8.89423,3719688
8.90235,3170223
8.91048,2736373
8.91860,2421597
8.92673,2169671
8.93485,1981496
8.94297,1788241
8.95110,1700110
8.95922,1608588
8.96733,1477768
8.97547,1398055
8.98358,1328368
8.99172,1292595
8.99983,1226481
9.00795,1208478
9.01608,1102061
9.02420,1077788
9.03233,1037047
9.04045,995414
9.04857,962436
9.05670,910869
9.06482,895629
9.07295,870687
9.08107,831368
9.08918,805877
9.09732,789446
9.10543,736096
9.11355,744300
9.12168,760087
9.12980,748228
9.13793,739657
9.14605,738128
9.15417,750794
9.16230,765201
9.17042,858890
9.17855,949879
9.18667,1010181
9.19478,996878
9.20292,939956
9.21103,866168
9.21915,772714
9.22728,711993
9.23540,655837
9.24353,622642
9.25165,602165
9.25977,574359
9.26790,552560
9.27602,529170
9.28415,526440
9.29227,501111
9.30038,494641
9.30852,465666
9.31663,472202
9.32477,479486
9.33288,464005
9.34100,452835
9.34913,470934
9.35725,446236
9.36537,432086
9.37350,428835
9.38162,419567
9.38975,398834
9.39787,409890
9.40598,387021
9.41412,393380
9.42223,394256
9.43037,362571
9.43848,374177
9.44660,367922
9.45473,370433
9.46285,366159
9.47097,358101
9.47910,342402
9.48722,353924
9.49535,357570
9.50347,347145
9.51158,363139
9.51972,374502
9.52783,405203
9.53597,468275
9.54408,548661
9.55220,611835
9.56033,594490
9.56845,535808
9.57658,498902
9.58470,478982
9.59282,594072
9.60095,770036
9.60907,903791
9.61718,931802
9.62532,815690
9.63343,677259
9.64157,580248
9.64968,518001
9.65780,492236
9.66593,469326
9.67405,446000
9.68218,397520
9.69030,353624
9.69842,331217
9.70655,311283
9.71467,293955
9.72280,290098
9.73092,268551
9.73903,254359
9.74717,257694
9.75528,250564
9.76340,235344
9.77153,238781
9.77965,233850
9.78778,224260
9.79590,224219
9.80402,211080
9.81215,219684
9.82027,216302
9.82840,214750
9.83652,213345
9.84463,218024
9.85277,226351
9.86088,238048
9.86902,214700
9.87713,209582
9.88525,193247
9.89338,194909
9.90150,192752
9.90962,184925
9.91775,187103
9.92587,189685
9.93400,185484
9.94212,196482
9.95023,192922
9.95837,216155
9.96648,239863
9.97462,305211
9.98273,367932
9.99085,454611
9.99898,633016
10.00710,967689
10.01522,1576878
10.02335,2329684
10.03147,3052807
10.03960,3280965
10.04772,2980030
10.05583,2466942
10.06397,1843280
10.07208,1347609
10.08022,966050
10.08833,723891
10.09645,567188
10.10458,438547
10.11270,384073
10.12083,344916
10.12895,306419
10.13707,288774
10.14520,275092
10.15332,269154
10.16143,245748
10.16957,246596
10.17768,242741
10.18582,245394
10.19393,238247
10.20205,228371
10.21018,259146
10.21830,305428
10.22643,433345
10.23455,639101
10.24267,846500
10.25080,928053
10.25892,885745
10.26703,720144
10.27517,551029
10.28328,441049
10.29142,388431
10.29953,373890
10.30765,398772
10.31578,409560
10.32390,451995
10.33203,448669
10.34015,435310
10.34827,396168
10.35640,369592
10.36452,327045
10.37265,309710
10.38077,273484
10.38888,268440
10.39702,256799
10.40513,260729
10.41325,254525
10.42138,243285
10.42950,240434
10.43763,232632
10.44575,223194
10.45387,228223
10.46200,218537
10.47012,222524
10.47825,208977
10.48637,201315
10.49448,211803
10.50262,206073
10.51073,202493
10.51887,205521
10.52698,202931
10.53510,217306
10.54323,225022
10.55135,245405
10.55947,265299
10.56760,263882
10.57572,269672
10.58385,264704
10.59197,252197
10.60008,237997
10.60822,227070
10.61633,221412
10.62447,211895
10.63258,209245
10.64070,192891
10.64883,186306
10.65695,184679
10.66507,190688
10.67320,199748
10.68132,209380
10.68945,218935
10.69757,228709
10.70568,242663
10.71382,238225
10.72193,230288
10.73007,222222
10.73818,223153
10.74630,229557
10.75443,248691
10.76255,288480
10.77068,315881
10.77880,328593
10.78692,339118
10.79505,310678
10.80317,276640
10.81128,254774
10.81942,253202
10.82753,236945
10.83567,242110
10.84378,230944
10.85190,226890
10.86003,218751
10.86815,215163
10.87628,200183
10.88440,199385
10.89252,194385
10.90065,189477
10.90877,187433
10.91690,200721
10.92502,200396
10.93313,223711
10.94127,270977
10.94938,310853
10.95750,374732
10.96563,401201
10.97375,397361
10.98188,382992
10.99000,339197
10.99812,297232
11.00625,263842
11.01437,248941
11.02250,223420
11.03062,210822
11.03873,210378
11.04687,195491
11.05498,200691
11.06310,201871
11.07123,206123
11.07935,203019
11.08748,194036
11.09560,198209
11.10372,200912
11.11185,202653
11.11997,196834
11.12810,205583
11.13622,196327
11.14433,190428
11.15247,202501
11.16058,223112
11.16872,291682
11.17683,463378
11.18495,751222
11.19308,1142902
11.20120,1601655
11.20932,1981187
11.21745,1991157
11.22557,1856859
11.23370,1444091
11.24182,1102554
11.24993,771314
11.25807,539034
11.26618,418566
11.27432,333895
11.28243,283964
11.29055,258557
11.29868,254726
11.30680,250755
11.31492,267775
11.32305,273198
11.33117,290563
11.33930,301650
11.34742,287736
11.35553,269113
11.36367,266936
11.37178,264868
11.37992,235272
11.38803,228482
11.39615,228248
11.40428,215710
11.41240,219101
11.42053,205119
11.42865,202976
11.43677,201364
11.44490,195319
11.45302,191395
11.46113,197202
11.46927,185822
11.47738,195487
11.48552,188757
11.49363,194859
11.50175,197120
11.50988,187681
11.51800,193762
11.52613,183021
11.53425,189330
11.54237,192718
11.55050,183956
11.55862,190652
11.56675,191102
11.57487,180719
11.58298,178487
11.59112,172955
11.59923,186541
11.60735,190855
11.61548,198281
11.62360,206195
11.63173,206971
11.63985,196804
11.64797,193360
11.65610,185100
11.66422,182527
11.67235,177609
11.68047,184202
11.68858,194071
11.69672,199393
11.70483,228857
11.71295,239599
11.72108,261867
11.72920,261958
11.73733,273664
11.74545,290787
11.75357,322557
11.76170,419172
11.76982,556820
11.77795,704868
11.78607,778039
11.79418,733700
11.80232,614183
11.81043,463333
11.81857,349959
11.82668,291693
11.83480,266534
11.84293,281308
11.85105,285297
11.85917,290733
11.86730,294902
11.87542,294767
11.88355,279622
11.89167,254104
11.89978,241659
11.90792,232655
11.91603,218116
11.92417,217779
11.93228,216465
11.94040,203386
11.94853,198117
11.95665,203330
11.96478,206834
11.97290,198461
11.98102,189788
11.98915,188394
11.99727,197854
12.00538,203618
12.01352,202015
12.02163,198389
12.02977,188662
12.03788,198033
12.04600,199722
12.05413,200074
12.06225,198439
12.07038,207798
12.07850,204684
12.08662,190511
12.09475,202963
12.10287,210776
12.11098,197887
12.11912,204960
12.12723,208123
12.13537,217071
12.14348,249452
12.15160,253307
12.15973,258701
12.16785,270728
12.17598,268038
12.18410,275478
12.19222,266026
12.20035,254305
12.20847,263622
12.21660,251547
12.22472,238870
12.23283,232592
12.24097,219909
12.24908,223352
12.25720,215931
12.26533,209393
12.27345,207582
12.28158,204066
12.28970,207369
12.29782,209765
12.30595,205221
12.31407,203819
12.32220,212674
12.33032,201705
12.33843,207981
12.34657,207455
12.35468,203302
12.36280,201704
12.37093,212084
12.37905,207862
12.38718,218190
12.39530,221069
12.40342,229738
12.41155,237108
12.41967,241931
12.42780,261766
12.43592,281715
12.44403,314092
12.45217,390360
12.46028,426007
12.46842,469226
12.47653,468065
12.48465,440056
12.49278,411846
12.50090,366338
12.50902,342457
12.51715,302535
12.52527,280734
12.53340,264872
12.54152,253953
12.54963,243887
12.55777,245795
12.56588,245360
12.57402,234198
12.58213,244903
12.59025,235060
12.59838,229538
12.60650,221480
12.61463,212982
12.62275,219420
12.63087,220079
12.63900,216892
12.64712,217579
12.65523,207189
12.66337,218664
12.67148,217686
12.67962,217541
12.68773,227430
12.69585,230789
12.70398,241564
12.71210,265386
12.72023,328967
12.72835,436396
12.73647,639233
12.74460,868570
12.75272,1041554
12.76083,1123667
12.76897,1056548
12.77708,870375
12.78522,750449
12.79333,584914
12.80145,488577
12.80958,439682
12.81770,388060
12.82583,376022
12.83395,351587
12.84207,358987
12.85020,361818
12.85832,353822
12.86645,348979
12.87457,335834
12.88268,305954
12.89082,297499
12.89893,272425
12.90705,266927
12.91518,251961
12.92330,246401
12.93143,245703
12.93955,242126
12.94767,248340
12.95580,236624
12.96392,249240
12.97205,257928
12.98017,246923
12.98828,274843
12.99642,266710
13.00453,256903
13.01267,247577
13.02078,249011
13.02890,232301
13.03703,222210
13.04515,232995
13.05327,233180
13.06140,221412
13.06952,222629
13.07765,227959
13.08577,231696
13.09388,243408
13.10202,255457
13.11013,249650
13.11827,255595
13.12638,243168
13.13450,254586
13.14263,242731
13.15075,246357
13.15887,232365
13.16700,248440
13.17512,264748
13.18325,337543
13.19137,506910
13.19948,801266
13.20762,1247094
13.21573,1591763
13.22387,1728710
13.23198,1579039
13.24010,1157365
13.24823,776657
13.25635,502872
13.26448,361058
13.27260,305023
13.28072,273546
13.28885,243874
13.29697,251590
13.30508,234758
13.31322,232234
13.32133,227194
13.32947,227193
13.33758,224529
13.34570,215700
13.35383,216698
13.36195,226540
13.37008,225183
13.37820,213486
13.38632,214101
13.39445,212622
13.40257,215270
13.41070,208009
13.41882,212722
13.42693,194461
13.43507,191983
13.44318,198373
13.45130,198731
13.45943,201487
13.46755,189337
13.47568,197809
13.48380,205273
13.49192,196063
13.50005,196302
13.50817,197494
13.51630,193544
13.52442,195205
13.53253,195495
13.54067,194464
13.54878,191614
13.55690,185924
13.56503,204804
13.57315,207658
13.58128,205314
13.58940,211490
13.59752,208417
13.60565,202881
13.61377,198016
13.62190,195670
13.63002,195456
13.63813,180065
13.64627,182476
13.65438,190010
13.66252,188046
13.67063,183630
13.67875,179250
13.68688,182643
13.69500,177501
13.70312,177190
13.71125,178756
13.71937,173139
13.72750,176819
13.73562,172065
13.74373,174860
13.75187,174331
13.75998,174104
13.76812,176962
13.77623,176113
13.78435,178145
13.79248,182029
13.80060,186733
13.80872,189924
13.81685,201451
13.82497,203857
13.83310,208207
13.84122,208170
13.84933,219489
13.85747,230840
13.86558,229301
13.87372,238435
13.88183,231427
13.88995,218934
13.89808,218157
13.90620,251878
13.91433,301963
13.92245,428571
13.93057,601799
13.93870,794692
13.94682,933005
13.95493,901276
13.96307,743976
13.97118,567649
13.97932,415834
13.98743,310649
13.99555,253959
14.00368,239899
14.01180,218131
14.01993,213832
14.02805,214026
14.03617,217039
14.04430,247120
14.05242,305518
14.06055,434653
14.06867,639810
14.07678,900570
14.08492,1050023
14.09303,1041058
14.10115,829570
14.10928,586459
14.11740,405893
14.12553,309352
14.13365,255349
14.14177,242001
14.14990,242069
14.15802,262179
14.16615,329134
14.17427,660852
14.18238,2043776
14.19052,6920779
14.19863,1.698815E+07
14.20675,2.821107E+07
14.21488,3.277839E+07
14.22300,3.089815E+07
14.23113,2.496279E+07
14.23925,1.767805E+07
14.24737,1.1509E+07
14.25550,7146663
14.26362,4500579
14.27175,3004913
14.27987,2212794
14.28798,1717901
14.29612,1400627
14.30423,1165233
14.31237,1029085
14.32048,892793
14.32860,811900
14.33673,737267
14.34485,678779
14.35297,613433
14.36110,558892
14.36922,490890
14.37735,412012
14.38547,349146
14.39358,308807
14.40172,273307
14.40983,277723
14.41797,270895
14.42608,256004
14.43420,265734
14.44233,265602
14.45045,266239
14.45858,260302
14.46670,254711
14.47482,251106
14.48295,249172
14.49107,247876
14.49918,245928
14.50732,236423
14.51543,258013
14.52357,282417
14.53168,333370
14.53980,375391
14.54793,393869
14.55605,392492
14.56418,370790
14.57230,335645
14.58042,304346
14.58855,287500
14.59667,275924
14.60478,258191
14.61292,248384
14.62103,225716
14.62917,222663
14.63728,226696
14.64540,218160
14.65353,212756
14.66165,208031
14.66978,208255
14.67790,205986
14.68602,206718
14.69415,202127
14.70227,214028
14.71040,220851
14.71852,235688
14.72663,241576
14.73477,255908
14.74288,244718
14.75100,241396
14.75913,231960
14.76725,224252
14.77538,230052
14.78350,216221
14.79162,214115
14.79975,212903
14.80787,228104
14.81600,245512
14.82412,307054
14.83223,357822
14.84037,442020
14.84848,485991
14.85660,512958
14.86473,521421
14.87285,506832
14.88098,466671
14.88910,454185
14.89722,429124
14.90535,413621
14.91347,392172
14.92160,401900
14.92972,398446
14.93783,383623
14.94597,373336
14.95408,363011
14.96222,363231
14.97033,345204
14.97845,341896
14.98658,327254
14.99470,334538
15.00282,318919
15.01095,318115
15.01907,306533
15.02720,292995
15.03532,296416
15.04343,289923
15.05157,288279
15.05968,285492
15.06782,283829
15.07593,277012
15.08405,287947
15.09218,294669
15.10030,275512
15.10843,270290
15.11655,266847
15.12467,256643
15.13280,260900
15.14092,253255
15.14903,260005
15.15717,259354
15.16528,257014
15.17342,250339
15.18153,254206
15.18965,266822
15.19778,264973
15.20590,266954
15.21403,253851
15.22215,249173
15.23027,247051
15.23840,237679
15.24652,244853
15.25465,238928
15.26277,240912
15.27088,236319
15.27902,223889
15.28713,215252
15.29525,218275
15.30338,213503
15.31150,206108
15.31963,206847
15.32775,196629
15.33587,199343
15.34400,202949
15.35212,199468
15.36025,200814
15.36837,202430
15.37648,196773
15.38462,199281
15.39273,191755
15.40085,193366
15.40898,185133
15.41710,195514
15.42523,188779
15.43335,200924
15.44147,190681
15.44960,191408
15.45772,182045
15.46585,191829
15.47397,206818
15.48208,212316
15.49022,238586
15.49833,283893
15.50647,357813
15.51458,427285
15.52270,467249
15.53083,456447
15.53895,398985
15.54707,328155
15.55520,266987
15.56332,224929
15.57145,211182
15.57957,198944
15.58768,185208
15.59582,187170
15.60393,183379
15.61207,185058
15.62018,180364
15.62830,177266
15.63643,173570
15.64455,173145
15.65267,180371
15.66080,168897
15.66892,176191
15.67705,178800
15.68517,171001
15.69328,174113
15.70142,173615
15.70953,173532
15.71767,167262
15.72578,171117
15.73390,171653
15.74203,173816
15.75015,179893
15.75828,173510
15.76640,177020
15.77452,184913
15.78265,193235
15.79077,198111
15.79888,203390
15.80702,193389
15.81513,189846
15.82327,191953
15.83138,182300
15.83950,188713
15.84763,175793
15.85575,178511
15.86388,178601
15.87200,173673
15.88012,172995
15.88825,177189
15.89637,176308
15.90450,182971
15.91262,179134
15.92073,189680
15.92887,199298
15.93698,203039
15.94510,193262
15.95323,200501
15.96135,195885
15.96948,181058
15.97760,186628
15.98572,204253
15.99385,275661
16.00197,482695
16.01010,982160
16.01822,1907356
16.02633,3390399
16.03447,4941931
16.04258,6211037
16.05070,6496018
16.05883,5744355
16.06695,4474190
16.07508,3291099
16.08320,2317103
16.09132,1674433
16.09945,1282150
16.10757,1037355
16.11570,882919
16.12382,795089
16.13193,724476
16.14007,684736
16.14818,617469
16.15632,597916
16.16443,546853
16.17255,536480
16.18068,498225
16.18880,481373
16.19692,458896
16.20505,444976
16.21317,433134
16.22130,416465
16.22942,430673
16.23753,419792
16.24567,426370
16.25378,432509
16.26192,432917
16.27003,415587
16.27815,397453
16.28628,381197
16.29440,392344
16.30253,379921
16.31065,370441
16.31877,373547
16.32690,363075
16.33502,371193
16.34313,365187
16.35127,362254
16.35938,356069
16.36752,341554
16.37563,321353
16.38375,307514
16.39188,274807
16.40000,270718
16.40813,266024
16.41625,246540
16.42437,254372
16.43250,244481
16.44062,232442
16.44873,239716
16.45687,245754
16.46498,250162
16.47312,244683
16.48123,250809
16.48935,268499
16.49748,270495
16.50560,271956
16.51373,270371
16.52185,256921
16.52997,261341
16.53810,245179
16.54622,242636
16.55435,229953
16.56247,233545
16.57058,231140
16.57872,218776
16.58683,218954
16.59495,218287
16.60308,209477
16.61120,216497
16.61933,212664
16.62745,214898
16.63557,202796
16.64370,208368
16.65182,212982
16.65995,208756
16.66807,211071
16.67618,204024
16.68432,201210
16.69243,199891
16.70055,190133
16.70868,188036
16.71680,195161
16.72493,193812
16.73305,191848
16.74117,178681
16.74930,174330
16.75742,168031
16.76555,179403
16.77367,170597
16.78178,174602
16.78992,165466
16.79803,172687
16.80617,175151
16.81428,161109
16.82240,174281
16.83053,164106
16.83865,162785
16.84677,163748
16.85490,167089
16.86302,167639
16.87115,160055
16.87927,165716
16.88738,174872
16.89552,167085
16.90363,168500
16.91177,173241
16.91988,182631
16.92800,195787
16.93613,192868
16.94425,201267
16.95238,195003
16.96050,184352
16.96862,182264
16.97675,174912
16.98487,181721
16.99298,174598
17.00112,183463
17.00923,183889
17.01737,203989
17.02548,224782
17.03360,233261
17.04173,240434
17.04985,228305
17.05798,201927
17.06610,199501
17.07422,179129
17.08235,191860
17.09047,197694
17.09858,215044
17.10672,237941
17.11483,252948
17.12297,271500
17.13108,271515
17.13920,257931
17.14733,235666
17.15545,225517
17.16358,209116
17.17170,203501
17.17982,194949
17.18795,187728
17.19607,187256
17.20420,180402
17.21232,175339
17.22043,177366
17.22857,159091
17.23668,165808
17.24480,174369
17.25293,166519
17.26105,180754
17.26918,188990
17.27730,202272
17.28542,209062
17.29355,206967
17.30167,204907
17.30980,188474
17.31792,190569
17.32603,188666
17.33417,188239
17.34228,205578
17.35042,212884
17.35853,270936
17.36665,385887
17.37478,525152
17.38290,693110
17.39102,756279
17.39915,701134
17.40727,557348
17.41540,401355
17.42352,290109
17.43163,239632
17.43977,220827
17.44788,212081
17.45602,205623
17.46413,206170
17.47225,201819
17.48038,200799
17.48850,197634
17.49662,193080
17.50475,187482
17.51287,202406
17.52100,218369
17.52912,220210
17.53723,233083
17.54537,236978
17.55348,231308
17.56162,238749
17.56973,224960
17.57785,220801
17.58598,211615
17.59410,199317
17.60223,200112
17.61035,203508
17.61847,203375
17.62660,200796
17.63472,202447
17.64283,205180
17.65097,198656
17.65908,207851
17.66722,204796
17.67533,202998
17.68345,204559
17.69158,212265
17.69970,221334
17.70783,243905
17.71595,284943
17.72407,370561
17.73220,461010
17.74032,521864
17.74843,493729
17.75657,419054
17.76468,325682
17.77282,253781
17.78093,211231
17.78905,207264
17.79718,197522
17.80530,190672
17.81343,192914
17.82155,191471
17.82967,202293
17.83780,266426
17.84592,513041
17.85405,1316378
17.86217,2546938
17.87028,3380941
17.87842,3696794
17.88653,3679621
17.89465,3585650
17.90278,3353338
17.91090,3167445
17.91903,3047493
17.92715,2976443
17.93527,2857130
17.94340,2760144
17.95152,2651156
17.95965,2530223
17.96777,2444604
17.97588,2356031
17.98402,2245462
17.99213,2129755
18.00027,2127526
18.00838,2071420
18.01650,2000050
18.02463,1966304
18.03275,1856603
18.04087,1839963
18.04900,1829445
18.05712,1769662
18.06525,1777360
18.07337,1849107
18.08148,1954479
18.08962,2120027
18.09773,2363543
18.10587,2457669
18.11398,2394886
18.12210,2311343
18.13023,2157225
18.13835,1948254
18.14647,1898389
18.15460,1847539
18.16272,1836495
18.17085,1780186
18.17897,1696906
18.18708,1628563
18.19522,1531237
18.20333,1456382
18.21147,1381624
18.21958,1314802
18.22770,1265355
18.23583,1238732
18.24395,1236229
18.25208,1223795
18.26020,1196201
18.26832,1188754
18.27645,1170308
18.28457,1132257
18.29268,1074266
18.30082,1046816
18.30893,980317
18.31707,962470
18.32518,933716
18.33330,915855
18.34143,892950
18.34955,864553
18.35768,860311
18.36580,854917
18.37392,845759
18.38205,817142
18.39017,795679
18.39830,800734
18.40642,773633
18.41453,766096
18.42267,758586
18.43078,759325
18.43890,718988
18.44703,731207
18.45515,733447
18.46328,711886
18.47140,723582
18.47952,715495
18.48765,707820
18.49577,701062
18.50390,690736
18.51202,683625
18.52013,686526
18.52827,678671
18.53638,648925
18.54450,615900
18.55263,627513
18.56075,616119
18.56888,603197
18.57700,617238
18.58512,613894
18.59325,626450
18.60137,640274
18.60950,686688
18.61762,698362
18.62573,688466
18.63387,672642
18.64198,655132
18.65012,655143
18.65823,670834
18.66635,691210
18.67448,706446
18.68260,688168
18.69072,665602
18.69885,603400
18.70697,577664
18.71510,543533
18.72322,536183
18.73133,521215
18.73947,517638
18.74758,509943
18.75572,487384
18.76383,494398
18.77195,486830
18.78008,475430
18.78820,475721
18.79633,479519
18.80445,478476
18.81257,469498
18.82070,467587
18.82882,451117
18.83693,453566
18.84507,442388
18.85318,456292
18.86132,434505
18.86943,437254
18.87755,452132
18.88568,451331
18.89380,457246
18.90193,467362
18.91005,456100
18.91817,444105
18.92630,443147
18.93442,432981
18.94253,427450
18.95067,423594
18.95878,430267
18.96692,430772
18.97503,427980
18.98315,443464
18.99128,468210
18.99940,457420
19.00753,457258
19.01565,457974
19.02377,427733
19.03190,411847
19.04002,398531
19.04815,382612
19.05627,398987
19.06438,393460
19.07252,398158
19.08063,445165
19.08875,540671
19.09688,692425
19.10500,874135
19.11313,1041816
19.12125,1107224
19.12937,1062903
19.13750,933814
19.14562,800550
19.15375,676385
19.16187,591462
19.16998,537863
19.17812,513744
19.18623,479236
19.19435,470185
19.20248,445353
19.21060,433422
19.21873,423486
19.22685,408239
19.23497,404483
19.24310,396278
19.25122,391937
19.25935,422596
19.26747,522158
19.27558,723362
19.28372,1110879
19.29183,1610921
19.29997,2113348
19.30808,2564782
19.31620,2611828
19.32433,2350790
19.33245,1946614
19.34057,1548270
19.34870,1251904
19.35682,1117557
19.36495,1067350
19.37307,997917
19.38118,900591
19.38932,773769
19.39743,648772
19.40557,567944
19.41368,526842
19.42180,480060
19.42993,467518
19.43805,462328
19.44618,468797
19.45430,582361
19.46242,925573
19.47055,1912212
19.47867,3962351
19.48678,7764757
19.49492,1.415242E+07
19.50303,2.159187E+07
19.51117,2.619202E+07
19.51928,2.569967E+07
19.52740,2.092046E+07
19.53553,1.471409E+07
19.54365,9291753
19.55178,5092325
19.55990,2573998
19.56802,1369874
19.57615,818723
19.58427,631514
19.59238,544990
19.60052,515455
19.60863,474554
19.61677,479942
19.62488,592555
19.63300,993133
19.64113,2233412
19.64925,5223558
19.65738,1.092725E+07
19.66550,1.848541E+07
19.67362,2.504875E+07
19.68175,2.860502E+07
19.68987,2.75078E+07
19.69800,2.239648E+07
19.70612,1.604311E+07
19.71423,1.013664E+07
19.72237,6332346
19.73048,3917259
19.73860,2643840
19.74673,1914301
19.75485,1467587
19.76298,1216883
19.77110,993630
19.77922,901517
19.78735,789805
19.79547,730583
19.80360,672631
19.81172,619373
19.81983,607516
19.82797,575850
19.83608,566048
19.84422,537308
19.85233,526630
19.86045,505816
19.86858,518058
19.87670,535108
19.88482,593885
19.89295,710304
19.90107,840729
19.90920,988474
19.91732,1080092
19.92543,1054322
19.93357,1031302
19.94168,915702
19.94982,819975
19.95793,760721
19.96605,680053
19.97418,642323
19.98230,614336
19.99042,601479
19.99855,583735
20.00667,583843
20.01480,583767
20.02292,567821
20.03103,565857
20.03917,541749
20.04728,535865
20.05542,513180
20.06353,482052
20.07165,460368
20.07978,454053
20.08790,455205
20.09603,434898
20.10415,423900
20.11227,428020
20.12040,419305
20.12852,416160
20.13663,403071
20.14477,399376
20.15288,402874
20.16102,406380
20.16913,403725
20.17725,383486
20.18538,383110
20.19350,392961
20.20163,387234
20.20975,395662
20.21787,407235
20.22600,437969
20.23412,643645
20.24223,1411056
20.25037,3768565
20.25848,9827978
20.26662,2.119219E+07
20.27473,3.364168E+07
20.28285,4.174051E+07
20.29098,4.272299E+07
20.29910,3.805523E+07
20.30723,2.990528E+07
20.31535,2.050157E+07
20.32347,1.278846E+07
20.33160,7300357
20.33972,4142279
20.34785,2548931
20.35597,1683434
20.36408,1317383
20.37222,1107556
20.38033,1019343
20.38845,965422
20.39658,944610
20.40470,1030761
20.41283,1445503
20.42095,2365694
20.42907,4137677
20.43720,6929461
20.44532,9638929
20.45345,1.146463E+07
20.46157,1.136714E+07
20.46968,9769681
20.47782,7272869
20.48593,4919876
20.49407,3149342
20.50218,2041154
20.51030,1417459
20.51843,1061754
20.52655,869529
20.53467,756266
20.54280,707331
20.55092,649145
20.55905,599908
20.56717,571673
20.57528,556962
20.58342,525077
20.59153,521602
20.59967,511149
20.60778,494339
20.61590,521279
20.62403,539188
20.63215,573121
20.64027,585631
20.64840,594291
20.65652,603631
20.66465,569849
20.67277,551579
20.68088,532145
20.68902,500299
20.69713,485118
20.70527,476520
20.71338,456677
20.72150,443304
20.72963,437706
20.73775,418543
20.74588,412877
20.75400,410553
20.76212,406127
20.77025,416516
20.77837,407697
20.78648,409842
20.79462,393797
20.80273,411861
20.81087,420496
20.81898,426323
20.82710,444008
20.83523,430752
20.84335,418742
20.85148,409691
20.85960,407337
20.86772,381739
20.87585,369680
20.88397,378810
20.89210,372127
20.90022,363101
20.90833,362107
20.91647,354165
20.92458,347218
20.93270,346938
20.94083,342687
20.94895,339530
20.95708,339752
20.96520,336962
20.97332,327999
20.98145,335193
20.98957,333658
20.99770,332339
21.00582,326444
21.01393,320692
21.02207,326805
21.03018,319377
21.03830,326742
21.04643,331493
21.05455,328308
21.06268,323553
21.07080,332220
21.07892,322917
21.08705,315359
21.09517,321501
21.10330,302480
21.11142,299036
21.11953,309911
21.12767,311539
21.13578,321268
21.14392,338591
21.15203,351737
21.16015,375262
21.16828,407893
21.17640,437263
21.18452,448775
21.19265,451851
21.20077,428561
21.20890,423249
21.21702,397241
21.22513,362151
21.23327,363742
21.24138,339715
21.24952,348233
21.25763,341701
21.26575,344275
21.27388,369361
21.28200,375033
21.29012,376876
21.29825,408945
21.30637,401910
21.31450,399098
21.32262,371183
21.33073,344316
21.33887,319421
21.34698,309126
21.35512,294555
21.36323,291471
21.37135,288701
21.37948,307010
21.38760,323307
21.39573,352954
21.40385,388821
21.41197,429770
21.42010,448380
21.42822,434248
21.43633,438506
21.44447,412291
21.45258,409256
21.46072,381083
21.46883,382090
21.47695,353012
21.48508,334668
21.49320,326192
21.50133,306556
21.50945,300023
21.51757,304423
21.52570,300383
21.53382,318839
21.54195,343701
21.55007,392107
21.55818,467122
21.56632,547196
21.57443,537877
21.58255,474247
21.59068,431928
21.59880,463729
21.60693,698608
21.61505,1611044
21.62317,4131572
21.63130,8959787
21.63942,1.471022E+07
21.64755,1.807212E+07
21.65567,1.793951E+07
21.66378,1.476913E+07
21.67192,1.083499E+07
21.68003,7073185
21.68817,4379739
21.69628,2580229
21.70440,1588133
21.71253,1062698
21.72065,817516
21.72877,677731
21.73690,591280
21.74502,528845
21.75315,494892
21.76127,472029
21.76938,460683
21.77752,455937
21.78563,476547
21.79377,516888
21.80188,744612
21.81000,1356961
21.81813,2853289
21.82625,5451785
21.83437,8383826
21.84250,1.019747E+07
21.85062,1.03189E+07
21.85875,8741055
21.86687,6635721
21.87498,4538238
21.88312,2761719
21.89123,1675548
21.89937,1067898
21.90748,749002
21.91560,608594
21.92373,540359
21.93185,522131
21.93998,556493
21.94810,629428
21.95622,705287
21.96435,755916
21.97247,705309
21.98058,617046
21.98872,541177
21.99683,473752
22.00497,423704
22.01308,394500
22.02120,382997
22.02933,370145
22.03745,361886
22.04558,361151
22.05370,349664
22.06182,375042
22.06995,382854
22.07807,398759
22.08618,419731
22.09432,458358
22.10243,483525
22.11057,507997
22.11868,510770
22.12680,514270
22.13493,523006
22.14305,513039
22.15118,567267
22.15930,619058
22.16742,704434
22.17555,748916
22.18367,782358
22.19180,820890
22.19992,848205
22.20803,973108
22.21617,1317888
22.22428,1869795
22.23240,2483519
22.24053,3030374
22.24865,3039416
22.25678,2774450
22.26490,2158915
22.27302,1615318
22.28115,1158771
22.28927,823805
22.29740,686301
22.30552,595442
22.31363,562617
22.32177,558027
22.32988,541442
22.33802,536228
22.34613,532738
22.35425,532544
22.36238,536882
22.37050,540259
22.37862,533341
22.38675,517050
22.39487,495535
22.40300,476521
22.41112,465730
22.41923,467708
22.42737,509472
22.43548,579375
22.44362,710780
22.45173,912622
22.45985,1123834
22.46798,1330196
22.47610,1404315
22.48422,1358221
22.49235,1203824
22.50047,1004386
22.50860,828083
22.51672,703135
22.52483,595603
22.53297,535273
22.54108,497642
22.54922,470120
22.55733,474152
22.56545,466964
22.57358,485151
22.58170,507548
22.58983,527538
22.59795,536118
22.60607,526280
22.61420,493860
22.62232,460641
22.63043,430588
22.63857,445038
22.64668,449245
22.65482,474658
22.66293,501357
22.67105,503155
22.67918,501478
22.68730,465685
22.69543,450857
22.70355,433419
22.71167,429512
22.71980,433845
22.72792,421595
22.73605,408022
22.74417,402664
22.75228,388758
22.76042,384756
22.76853,382471
22.77665,363188
22.78478,382738
22.79290,363757
22.80103,364795
22.80915,374181
22.81727,375012
22.82540,387619
22.83352,389303
22.84165,438565
22.84977,503697
22.85788,590006
22.86602,652693
22.87413,665254
22.88225,598077
22.89038,525939
22.89850,475386
22.90663,464773
22.91475,498247
22.92287,548587
22.93100,652227
22.93912,749063
22.94725,809328
22.95537,834015
22.96348,792905
22.97162,755969
22.97973,693163
22.98787,627660
22.99598,597361
23.00410,575796
23.01223,563998
23.02035,543343
23.02847,516912
23.03660,481227
23.04472,441605
23.05285,424646
23.06097,421083
23.06908,417089
23.07722,441525
23.08533,481273
23.09347,530290
23.10158,565971
23.10970,573531
23.11783,537865
23.12595,461134
23.13407,419501
23.14220,389068
23.15032,367667
23.15845,374120
23.16657,370351
23.17468,385321
23.18282,407940
23.19093,411206
23.19907,422705
23.20718,415871
23.21530,389444
23.22343,381598
23.23155,369912
23.23968,368457
23.24780,354523
23.25592,350768
23.26405,353966
23.27217,347420
23.28028,348027
23.28842,357426
23.29653,352234
23.30467,348307
23.31278,354405
23.32090,353567
23.32903,343788
23.33715,348959
23.34528,364071
23.35340,384077
23.36152,406407
23.36965,437605
23.37777,471248
23.38590,463284
23.39402,440315
23.40213,405694
23.41027,402716
23.41838,399698
23.42650,411768
23.43463,400966
23.44275,383129
23.45088,367726
23.45900,364279
23.46712,339147
23.47525,344727
23.48337,345244
23.49150,352611
23.49962,356155
23.50773,357278
23.51587,372305
23.52398,380461
23.53210,375983
23.54023,371202
23.54835,361291
23.55648,362545
23.56460,383222
23.57272,381190
23.58085,384119
23.58897,366653
23.59710,355687
23.60522,345859
23.61333,333358
23.62147,333875
23.62958,337251
23.63772,332421
23.64583,334262
23.65395,339417
23.66208,380947
23.67020,402295
23.67832,412130
23.68645,421019
23.69457,401844
23.70270,407458
23.71082,373407
23.71893,362209
23.72707,359901
23.73518,358664
23.74332,390933
23.75143,520172
23.75955,935235
23.76768,2074565
23.77580,4224463
23.78393,7265241
23.79205,9860234
23.80017,1.127989E+07
23.80830,1.10442E+07
23.81642,9140989
23.82453,6875532
23.83267,4688513
23.84078,3187411
23.84892,2257057
23.85703,1714902
23.86515,1357817
23.87328,1165017
23.88140,1050941
23.88953,936379
23.89765,866301
23.90577,816774
23.91390,777935
23.92202,744839
23.93013,721509
23.93827,705078
23.94638,669361
23.95452,672927
23.96263,651213
23.97075,661176
23.97888,638666
23.98700,641290
23.99513,639119
24.00325,653112
24.01137,629357
24.01950,600748
24.02762,601736
24.03575,578204
24.04387,588188
24.05198,577010
24.06012,589246
24.06823,571080
24.07635,543969
24.08448,525135
24.09260,505642
24.10073,510516
24.10885,527127
24.11697,660378
24.12510,933575
24.13322,1564915
24.14135,2448039
24.14947,3244864
24.15758,3588359
24.16572,3257647
24.17383,2610721
24.18197,1989821
24.19008,1509728
24.19820,1327357
24.20633,1613590
24.21445,2309048
24.22257,3248250
24.23070,4035072
24.23882,4157931
24.24695,3606624
24.25507,2714472
24.26318,1831436
24.27132,1205554
24.27943,877068
24.28757,682614
24.29568,618057
24.30380,554576
24.31193,541034
24.32005,534141
24.32817,528826
24.33630,521151
24.34442,519391
24.35255,547594
24.36067,621722
24.36878,883394
24.37692,1685470
24.38503,3963403
24.39317,7718971
24.40128,1.149111E+07
24.40940,1.306182E+07
24.41753,1.172806E+07
24.42565,8704638
24.43378,5673517
24.44190,3283455
24.45002,1784244
24.45815,958501
24.46627,637651
24.47438,524240
24.48252,588133
24.49063,878398
24.49877,1684395
24.50688,3473632
24.51500,5897919
24.52313,7574792
24.53125,7751310
24.53938,6603713
24.54750,5063405
24.55562,3543942
24.56375,2383133
24.57187,1539404
24.57998,1059228
24.58812,797576
24.59623,673103
24.60437,619527
24.61248,568496
24.62060,560373
24.62873,556461
24.63685,562881
24.64498,570377
24.65310,567161
24.66122,587401
24.66935,592892
24.67747,636171
24.68560,643032
24.69372,679640
24.70183,679359
24.70997,653700
24.71808,639853
24.72620,596879
24.73433,582187
24.74245,574481
24.75058,582053
24.75870,590555
24.76682,582183
24.77495,597140
24.78307,601931
24.79120,602885
24.79932,598668
24.80743,602424
24.81557,579640
24.82368,565603
24.83182,563947
24.83993,564176
24.84805,563811
24.85618,561654
24.86430,554128
24.87242,589729
24.88055,610508
24.88867,616296
24.89680,608731
24.90492,635004
24.91303,622597
24.92117,620819
24.92928,611083
24.93742,598189
24.94553,594168
24.95365,558247
24.96178,541283
24.96990,512244
24.97802,511294
24.98615,503640
24.99427,493447
25.00240,504872
25.01052,478137
25.01863,500473
25.02677,497394
25.03488,508444
25.04302,532671
25.05113,528921
25.05925,533650
25.06738,547004
25.07550,555263
25.08363,525437
25.09175,533431
25.09987,506518
25.10800,504963
25.11612,515776
25.12423,540205
25.13237,603959
25.14048,722675
25.14862,871592
25.15673,965139
25.16485,1067150
25.17298,1082383
25.18110,1058334
25.18923,1017886
25.19735,916300
25.20547,824992
25.21360,766432
25.22172,753471
25.22985,714734
25.23797,694155
25.24608,684674
25.25422,654092
25.26233,633297
25.27045,575601
25.27858,538036
25.28670,509873
25.29483,497249
25.30295,505663
25.31107,511753
25.31920,509360
25.32732,525387
25.33545,527717
25.34357,503986
25.35168,504303
25.35982,503969
25.36793,489188
25.37605,513140
25.38418,508105
25.39230,488767
25.40043,468491
25.40855,451735
25.41667,446860
25.42480,414344
25.43292,412289
25.44105,413768
25.44917,438181
25.45728,479299
25.46542,599947
25.47353,828784
25.48167,1205848
25.48978,1710090
25.49790,2118953
25.50603,2287943
25.51415,2188540
25.52227,1869297
25.53040,1469614
25.53852,1133634
25.54665,908110
25.55477,773813
25.56288,701165
25.57102,617983
25.57913,580940
25.58727,539420
25.59538,514688
25.60350,486042
25.61163,460237
25.61975,451178
25.62787,457057
25.63600,417751
25.64412,415563
25.65225,416267
25.66037,393720
25.66848,397594
25.67662,394420
25.68473,386687
25.69287,400127
25.70098,411421
25.70910,418185
25.71723,437592
25.72535,452082
25.73348,438432
25.74160,445343
25.74972,427313
25.75785,405276
25.76597,405614
25.77408,384197
25.78222,393422
25.79033,392050
25.79847,429159
25.80658,440369
25.81470,461655
25.82283,479955
25.83095,443890
25.83908,425480
25.84720,418681
25.85532,432024
25.86345,444682
25.87157,433698
25.87970,429598
25.88782,403121
25.89593,365192
25.90407,342462
25.91218,335754
25.92030,338967
25.92843,331374
25.93655,349336
25.94468,337052
25.95280,346257
25.96092,357180
25.96905,359147
25.97717,359235
25.98530,347324
25.99342,344936
26.00153,331091
26.00967,320467
26.01778,317447
26.02592,310071
26.03403,308466
26.04215,317827
26.05028,341728
26.05840,360306
26.06652,369077
26.07465,381197
26.08277,410689
26.09090,409984
26.09902,393531
26.10713,391067
26.11527,374371
26.12338,374316
26.13152,382758
26.13963,392637
26.14775,418733
26.15588,437258
26.16400,566841
26.17212,663406
26.18025,680675
26.18837,641805
26.19650,610558
26.20462,546109
26.21273,519016
26.22087,459895
26.22898,451625
26.23712,414008
26.24523,400555
26.25335,409240
26.26148,438631
26.26960,468821
26.27773,507485
26.28585,537275
26.29397,521212
26.30210,495741
26.31022,467118
26.31833,470040
26.32647,467074
26.33458,464718
26.34272,435800
26.35083,434910
26.35895,445155
26.36708,469455
26.37520,477712
26.38333,493579
26.39145,504392
26.39957,519238
26.40770,507444
26.41582,515986
26.42393,506746
26.43207,497102
26.44018,444427
26.44832,405764
26.45643,378302
26.46455,382310
26.47268,380042
26.48080,382011
26.48893,396113
26.49705,403320
26.50517,404139
26.51330,408302
26.52142,413948
26.52955,402470
26.53767,406297
26.54578,402348
26.55392,398859
26.56203,390242
26.57015,395682
26.57828,387045
26.58640,389811
26.59453,362562
26.60265,351229
26.61077,337091
26.61890,332285
26.62702,320107
26.63515,305829
26.64327,323656
26.65138,322849
26.65952,326126
26.66763,334898
26.67577,322497
26.68388,337341
26.69200,338712
26.70013,317086
26.70825,340299
26.71637,378039
26.72450,442189
26.73262,522502
26.74075,561912
26.74887,541818
26.75698,482050
26.76512,419057
26.77323,358842
26.78137,345971
26.78948,319164
26.79760,338053
26.80573,329298
26.81385,343322
26.82197,362392
26.83010,399248
26.83822,439680
26.84635,516388
26.85447,630644
26.86258,804508
26.87072,986448
26.87883,1070157
26.88697,1002999
26.89508,847369
26.90320,674740
26.91133,545129
26.91945,502449
26.92758,575634
26.93570,1047577
26.94382,2925654
26.95195,9059821
26.96007,2.504239E+07
26.96818,4.845669E+07
26.97632,7.361334E+07
26.98443,9.309827E+07
26.99257,1.050167E+08
27.00068,1.113605E+08
27.00880,1.084335E+08
27.01693,9.727582E+07
27.02505,8.065309E+07
27.03318,6.130576E+07
27.04130,4.571098E+07
27.04942,3.209585E+07
27.05755,2.233437E+07
27.06567,1.554527E+07
27.07380,1.16599E+07
27.08192,9660675
27.09003,8371211
27.09817,7302431
27.10628,6468515
27.11440,5881969
27.12253,5310882
27.13065,4893460
27.13878,4665300
27.14690,4498558
27.15502,4124396
27.16315,3857114
27.17127,3713765
27.17940,3560609
27.18752,3394760
27.19563,3261597
27.20377,3183225
27.21188,3033124
27.22000,2881250
27.22813,2774175
27.23625,2677608
27.24438,2656202
27.25250,2557153
27.26062,2469234
27.26875,2365130
27.27687,2297878
27.28500,2287817
27.29312,2205024
27.30123,2194521
27.30937,2148002
27.31748,2041663
27.32562,2002554
27.33373,1999927
27.34185,1951661
27.34998,1915792
27.35810,1859410
27.36622,1817216
27.37435,1821494
27.38247,1792408
27.39060,1817330
27.39872,1827223
27.40683,1786324
27.41497,1751035
27.42308,1709377
27.43122,1689699
27.43933,1630632
27.44745,1649594
27.45558,1584605
27.46370,1567490
27.47182,1553103
27.47995,1536250
27.48807,1508624
27.49620,1523126
27.50432,1498461
27.51243,1627184
27.52057,1796305
27.52868,2129753
27.53682,2528260
27.54493,2695264
27.55305,2576479
27.56118,2371277
27.56930,2023453
27.57743,1780384
27.58555,1652766
27.59367,1657350
27.60180,1775842
27.60992,1937167
27.61803,2139246
27.62617,2225382
27.63428,2120272
27.64242,1977623
27.65053,1761312
27.65865,1550715
27.66678,1426726
27.67490,1355240
27.68303,1337856
27.69115,1266668
27.69927,1263603
27.70740,1229685
27.71552,1212765
27.72365,1200121
27.73177,1216296
27.73988,1194241
27.74802,1191479
27.75613,1213648
27.76425,1282139
27.77238,1263823
27.78050,1274492
27.78863,1261881
27.79675,1246889
27.80487,1250043
27.81300,1209152
27.82112,1226234
27.82925,1229732
27.83737,1213289
27.84548,1203070
27.85362,1202798
27.86173,1194116
27.86985,1202335
27.87798,1221465
27.88610,1202514
27.89423,1182488
27.90235,1159357
27.91047,1101334
27.91860,1096787
27.92672,1053658
27.93485,1060774
27.94297,1047053
27.95108,1021107
27.95922,1047254
27.96733,1095874
27.97547,1122828
27.98358,1193630
27.99170,1238456
27.99983,1273264
28.00795,1245480
28.01607,1198504
28.02420,1127763
28.03232,1070033
28.04045,996859
28.04857,955065
28.05668,916822
28.06482,888067
28.07293,894643
28.08107,868143
28.08918,864534
28.09730,860494
28.10543,829617
28.11355,807108
28.12168,777142
28.12980,777593
28.13792,781937
28.14605,731928
28.15417,745610
28.16228,741938
28.17042,765496
28.17853,782172
28.18667,925157
28.19478,1250499
28.20290,2047279
28.21103,3001480
28.21915,3489275
28.22728,3479269
28.23540,3245490
28.24352,3010417
28.25165,3631569
28.25977,7145052
28.26788,1.611321E+07
28.27602,3.102787E+07
28.28413,5.017999E+07
28.29227,6.851551E+07
28.30038,7.952545E+07
28.30850,8.708658E+07
28.31663,8.772258E+07
28.32475,8.322313E+07
28.33288,7.6229E+07
28.34100,6.682701E+07
28.34912,5.707348E+07
28.35725,4.800392E+07
28.36537,4.020042E+07
28.37350,3.467189E+07
28.38162,2.954212E+07
28.38973,2.472696E+07
28.39787,2.119233E+07
28.40598,1.771331E+07
28.41410,1.410725E+07
28.42223,1.149814E+07
28.43035,9794422
28.43848,8548193
28.44660,7423999
28.45472,6672777
28.46285,5913337
28.47097,5494046
28.47910,5041488
28.48722,4718153
28.49533,4399754
28.50347,4209276
28.51158,4025358
28.51970,3790557
28.52783,3585129
28.53595,3492729
28.54408,3365750
28.55220,3245673
28.56032,3061894
28.56845,2964467
28.57657,2920982
28.58470,2792833
28.59282,2711878
28.60093,2583912
28.60907,2489765
28.61718,2434700
28.62532,2406676
28.63343,2376022
28.64155,2323840
28.64968,2283895
28.65780,2261421
28.66592,2274719
28.67405,2221001
28.68217,2183352
28.69030,2143110
28.69842,2055427
28.70653,2041660
28.71467,1976601
28.72278,1981429
28.73092,1947311
28.73903,2077037
28.74715,2602983
28.75528,4159368
28.76340,6851236
28.77153,8987554
28.77965,9485389
28.78777,8422277
28.79590,6647999
28.80402,4847268
28.81213,3431704
28.82027,2567226
28.82838,2065047
28.83652,1835455
28.84463,1668729
28.85275,1643635
28.86088,1624764
28.86900,1620551
28.87713,1588118
28.88525,1584235
28.89337,1597593
28.90150,1565820
28.90962,1605680
28.91773,1566116
28.92587,1512673
28.93398,1529869
28.94212,1505038
28.95023,1524338
28.95835,1503828
28.96648,1483877
28.97460,1466757
28.98273,1441809
28.99085,1452642
28.99897,1443720
29.00710,1449021
29.01522,1439365
29.02335,1389576
29.03147,1387185
29.03958,1346422
29.04772,1361088
29.05583,1344468
29.06395,1324081
29.07208,1319145
29.08020,1305637
29.08833,1323751
29.09645,1336258
29.10457,1329024
29.11270,1313716
29.12082,1349594
29.12895,1326225
29.13707,1306109
29.14518,1318354
29.15332,1302851
29.16143,1313465
29.16957,1282458
29.17768,1278486
29.18580,1248948
29.19393,1259145
29.20205,1258298
29.21017,1239327
29.21830,1202589
29.22642,1215561
29.23455,1266296
29.24267,1280265
29.25078,1289695
29.25892,1287735
29.26703,1283652
29.27517,1339842
29.28328,1303379
29.29140,1299991
29.29953,1264807
29.30765,1237972
29.31577,1235062
29.32390,1255797
29.33202,1231198
29.34015,1232048
29.34827,1190821
29.35638,1211782
29.36452,1184579
29.37263,1171004
29.38077,1200592
29.38888,1211994
29.39700,1261987
29.40513,1322111
29.41325,1379114
29.42138,1393863
29.42950,1391978
29.43762,1358903
29.44575,1309193
29.45387,1208799
29.46198,1127591
29.47012,1056753
29.47823,1066127
29.48637,1063365
29.49448,1148202
29.50260,1263979
29.51073,1386173
29.51885,1483363
29.52698,1472284
29.53510,1365880
29.54322,1261279
29.55135,1135097
29.55947,1043566
29.56760,993219
29.57572,951824
29.58383,929185
29.59197,902054
29.60008,902728
29.60820,874849
29.61633,892513
29.62445,903199
29.63258,910750
29.64070,907195
29.64882,924484
29.65695,930272
29.66507,916202
29.67320,901718
29.68132,862687
29.68943,856973
29.69757,823343
29.70568,812159
29.71380,848124
29.72193,834036
29.73005,845223
29.73818,857865
29.74630,899318
29.75442,923655
29.76255,913541
29.77067,888909
29.77880,854328
29.78692,840598
29.79503,806976
29.80317,758428
29.81128,766448
29.81942,756210
29.82753,729592
29.83565,735507
29.84378,718164
29.85190,697713
29.86002,729518
29.86815,757452
29.87627,769398
29.88440,790905
29.89252,824681
29.90063,892063
29.90877,999738
29.91688,1100839
29.92502,1354208
29.93313,1938210
29.94125,3074565
29.94938,5169081
29.95750,9013545
29.96562,1.490507E+07
29.97375,2.221832E+07
29.98187,2.802173E+07
29.99000,3.295402E+07
29.99812,3.579194E+07
30.00623,3.674013E+07
30.01437,3.583923E+07
30.02248,3.347001E+07
30.03062,3.142296E+07
30.03873,2.77393E+07
30.04685,2.428657E+07
30.05498,2.076711E+07
30.06310,1.733964E+07
30.07123,1.421094E+07
30.07935,1.227746E+07
30.08747,1.007433E+07
30.09560,8194417
30.10372,6725831
30.11183,5677356
30.11997,4795007
30.12808,4120531
30.13622,3571131
30.14433,3214411
30.15245,3048395
30.16058,2986797
30.16870,2921456
30.17683,2859263
30.18495,2654485
30.19307,2373056
30.20120,2168015
30.20932,1976751
30.21745,1831729
30.22557,1776599
30.23368,1790774
30.24182,1757977
30.24993,1700857
30.25805,1606181
30.26618,1511499
30.27430,1421863
30.28243,1340034
30.29055,1307472
30.29867,1269138
30.30680,1225962
30.31492,1228918
30.32305,1205624
30.33117,1206340
30.33928,1206584
30.34742,1241763
30.35553,1242818
30.36365,1207855
30.37178,1172196
30.37990,1130436
30.38803,1093747
30.39615,1080421
30.40427,1086463
30.41240,1102700
30.42052,1145263
30.42865,1155006
30.43677,1159779
30.44488,1153273
30.45302,1115415
30.46113,1091718
30.46927,1051341
30.47738,1042989
30.48550,993195
30.49363,1009890
30.50175,1004158
30.50987,989873
30.51800,961040
30.52612,953004
30.53425,966881
30.54237,975400
30.55048,993597
30.55862,965731
30.56673,949261
30.57487,926231
30.58298,901957
30.59110,911252
30.59923,899308
30.60735,891182
30.61548,912960
30.62360,920816
30.63172,917684
30.63985,891597
30.64797,861000
30.65608,806556
30.66422,784585
30.67233,765096
30.68047,774822
30.68858,769458
30.69670,794451
30.70483,794676
30.71295,805428
30.72108,834268
30.72920,826103
30.73732,826071
30.74545,797851
30.75357,790363
30.76168,754824
30.76982,765335
30.77793,751723
30.78607,756947
30.79418,779223
30.80230,804091
30.81043,847306
30.81855,888323
30.82668,919058
30.83480,922851
30.84292,876330
30.85105,838561
30.85917,780711
30.86730,751487
30.87542,753293
30.88353,740350
30.89167,735635
30.89978,741169
30.90790,712209
30.91603,685344
30.92415,682358
30.93228,685175
30.94040,685754
30.94852,684236
30.95665,685297
30.96477,683536
30.97290,713321
30.98102,718357
30.98913,747240
30.99727,735808
31.00538,763065
31.01350,743557
31.02163,752925
31.02975,773140
31.03788,764938
31.04600,764352
31.05412,749893
31.06225,732919
31.07037,701768
31.07850,703743
31.08662,712671
31.09473,770400
31.10287,875251
31.11098,959813
31.11912,1019406
31.12723,1033640
31.13535,1051651
31.14348,1142386
31.15160,1220204
31.15972,1432021
31.16785,1792967
31.17597,2559480
31.18410,4382952
31.19222,8089239
31.20033,1.451669E+07
31.20847,2.43502E+07
31.21658,3.378934E+07
31.22472,4.400745E+07
31.23283,4.887117E+07
31.24095,4.948914E+07
31.24908,4.427312E+07
31.25720,3.493132E+07
31.26533,2.397215E+07
31.27345,1.365631E+07
31.28157,7002048
31.28970,3378880
31.29782,1797917
31.30593,1180603
31.31407,926517
31.32218,813476
31.33032,740063
31.33843,721509
31.34655,720531
31.35468,685621
31.36280,681842
31.37093,691618
31.37905,689347
31.38717,686848
31.39530,715202
31.40342,729263
31.41155,822655
31.41967,917528
31.42778,1133833
31.43592,1292995
31.44403,1365238
31.45215,1284352
31.46028,1147957
31.46840,992682
31.47653,871878
31.48465,786264
31.49277,723412
31.50090,696255
31.50902,689399
31.51715,672280
31.52527,656405
31.53338,676677
31.54152,651814
31.54963,663716
31.55775,649058
31.56588,653001
31.57400,666568
31.58213,662022
31.59025,656879
31.59837,690982
31.60650,700491
31.61462,729876
31.62275,749235
31.63087,781525
31.63898,812500
31.64712,893612
31.65523,930520
31.66337,968607
31.67148,1027144
31.67960,1064373
31.68773,1029021
31.69585,995122
31.70397,887946
31.71210,823922
31.72022,743085
31.72835,669191
31.73647,604982
31.74458,608228
31.75272,588706
31.76083,561219
31.76897,574962
31.77708,568837
31.78520,583307
31.79333,597771
31.80145,583978
31.80957,573951
31.81770,579170
31.82582,573620
31.83395,572911
31.84207,556686
31.85018,576762
31.85832,595339
31.86643,611739
31.87457,631020
31.88268,677579
31.89080,739432
31.89893,872763
31.90705,1179838
31.91518,1769280
31.92330,2981858
31.93142,5155932
31.93955,8379830
31.94767,1.242801E+07
31.95578,1.663432E+07
31.96392,2.023622E+07
31.97203,2.19391E+07
31.98017,2.298883E+07
31.98828,2.243777E+07
31.99640,2.233606E+07
32.00453,2.072293E+07
32.01265,1.885138E+07
32.02078,1.589501E+07
32.02890,1.334533E+07
32.03702,1.087276E+07
32.04515,8664147
32.05327,7212492
32.06140,5986052
32.06952,5201241
32.07763,5012583
32.08577,5313874
32.09388,5485266
32.10200,5229877
32.11013,4739669
32.11825,4032794
32.12638,3344666
32.13450,2711109
32.14262,2263774
32.15075,2007737
32.15887,1783822
32.16700,1618437
32.17512,1502558
32.18323,1416792
32.19137,1292193
32.19948,1247008
32.20760,1214081
32.21573,1126262
32.22385,1101875
32.23198,1061048
32.24010,1054912
32.24822,1005189
32.25635,965997
32.26447,937705
32.27260,925013
32.28072,910061
32.28883,875381
32.29697,883511
32.30508,873408
32.31322,884820
32.32133,856958
32.32945,866022
32.33758,904721
32.34570,892155
32.35382,925947
32.36195,928776
32.37007,940052
32.37820,925602
32.38632,895283
32.39443,840942
32.40257,815336
32.41068,761447
32.41882,744818
32.42693,745719
32.43505,730221
32.44318,735521
32.45130,722714
32.45943,722903
32.46755,737453
32.47567,719183
32.48380,722183
32.49192,691207
32.50003,704258
32.50817,686449
32.51628,689463
32.52442,686284
32.53253,669500
32.54065,646561
32.54878,660459
32.55690,638174
32.56503,646367
32.57315,638485
32.58127,649836
32.58940,646631
32.59752,632375
32.60563,618375
32.61377,633970
32.62188,625150
32.63002,674556
32.63813,837512
32.64625,1352403
32.65438,2639086
32.66250,4659764
32.67063,5905213
32.67875,5935315
32.68687,5107093
32.69500,3817056
32.70312,2722038
32.71125,1848538
32.71937,1302451
32.72748,1005617
32.73562,843574
32.74373,750679
32.75185,727770
32.75998,682851
32.76810,689628
32.77623,671555
32.78435,633911
32.79247,621883
32.80060,623594
32.80872,605041
32.81685,580901
32.82497,612718
32.83308,602646
32.84122,615762
32.84933,612670
32.85745,618810
32.86558,596920
32.87370,609422
32.88183,586653
32.88995,574168
32.89807,595713
32.90620,605077
32.91432,615389
32.92245,651248
32.93057,646453
32.93868,662646
32.94682,642454
32.95493,616002
32.96307,597610
32.97118,572934
32.97930,552166
32.98743,546604
32.99555,541400
33.00367,553593
33.01180,560603
33.01992,557034
33.02805,553897
33.03617,562079
33.04428,577804
33.05242,571691
33.06053,569105
33.06867,557502
33.07678,592900
33.08490,639019
33.09303,684530
33.10115,781897
33.10928,887180
33.11740,1020883
33.12552,1204416
33.13365,1276939
33.14177,1213567
33.14988,1065938
33.15802,892712
33.16613,726056
33.17427,626101
33.18238,590090
33.19050,581691
33.19863,604378
33.20675,676742
33.21488,784407
33.22300,923490
33.23112,1037086
33.23925,1085373
33.24737,1024292
33.25548,924540
33.26362,848478
33.27173,755505
33.27987,722549
33.28798,708251
33.29610,694324
33.30423,695395
33.31235,688631
33.32048,689227
33.32860,683737
33.33672,667184
33.34485,645232
33.35297,627839
33.36110,600461
33.36922,582545
33.37733,557908
33.38547,549876
33.39358,541878
33.40170,533892
33.40983,550746
33.41795,541507
33.42608,544456
33.43420,560706
33.44232,531761
33.45045,533786
33.45857,528723
33.46670,525128
33.47482,530437
33.48293,532241
33.49107,502237
33.49918,513465
33.50732,499155
33.51543,485518
33.52355,510582
33.53168,515743
33.53980,529113
33.54792,547521
33.55605,556061
33.56417,599621
33.57230,604350
33.58042,623867
33.58853,627025
33.59667,610629
33.60478,579581
33.61292,547493
33.62103,525217
33.62915,512588
33.63728,480846
33.64540,492873
33.65352,491604
33.66165,495139
33.66977,504987
33.67790,507464
33.68602,505680
33.69413,502260
33.70227,497888
33.71038,489739
33.71852,474288
33.72663,472044
33.73475,466907
33.74288,464393
33.75100,462660
33.75913,504110
33.76725,554525
33.77537,662573
33.78350,778026
33.79162,978450
33.79973,1160889
33.80787,1250349
33.81598,1296970
33.82412,1212376
33.83223,1070001
33.84035,1015212
33.84848,975549
33.85660,968694
33.86473,958978
33.87285,902366
33.88097,867435
33.88910,813094
33.89722,770417
33.90533,802538
33.91347,900091
33.92158,974447
33.92972,1085177
33.93783,1118850
33.94595,1086756
33.95408,1010004
33.96220,893254
33.97033,789250
33.97845,693389
33.98657,626435
33.99470,602307
34.00282,569415
34.01095,561919
34.01907,549339
34.02718,542441
34.03532,540949
34.04343,564606
34.05155,576184
34.05968,583219
34.06780,589427
34.07593,589842
34.08405,573618
34.09217,571143
34.10030,575153
34.10842,555515
34.11655,547832
34.12467,548419
34.13278,554699
34.14092,547915
34.14903,562872
34.15717,579181
34.16528,584361
34.17340,598019
34.18153,613668
34.18965,604144
34.19777,615128
34.20590,598570
34.21402,580576
34.22215,553310
34.23027,529238
34.23838,518006
34.24652,504459
34.25463,497046
34.26277,508403
34.27088,524539
34.27900,518153
34.28713,501191
34.29525,513632
34.30337,508712
34.31150,511471
34.31962,512917
34.32775,491905
34.33587,524769
34.34398,512841
34.35212,524950
34.36023,529472
34.36837,533267
34.37648,554886
34.38460,556334
34.39273,559157
34.40085,560504
34.40898,538746
34.41710,541617
34.42522,523337
34.43335,507681
34.44147,501979
34.44958,479996
34.45772,468713
34.46583,455513
34.47397,439771
34.48208,443334
34.49020,451972
34.49833,458944
34.50645,507430
34.51458,625208
34.52270,956899
34.53082,1824680
34.53895,3718268
34.54707,6921296
34.55520,1.166335E+07
34.56332,1.613615E+07
34.57143,1.857858E+07
34.57957,1.947028E+07
34.58768,1.811079E+07
34.59580,1.613433E+07
34.60393,1.357589E+07
34.61205,1.110012E+07
34.62018,8846869
34.62830,6704114
34.63642,5036367
34.64455,3926941
34.65267,3210071
34.66080,2651236
34.66892,2268485
34.67703,2070295
34.68517,1831866
34.69328,1710561
34.70140,1618614
34.70953,1515647
34.71765,1480458
34.72578,1442079
34.73390,1419653
34.74202,1429555
34.75015,1442427
34.75827,1423686
34.76640,1358762
34.77452,1259635
34.78263,1159949
34.79077,1082459
34.79888,1029998
34.80702,988721
34.81513,987162
34.82325,955534
34.83138,927226
34.83950,928342
34.84762,924729
34.85575,905635
34.86387,896042
34.87200,892360
34.88012,870637
34.88823,829738
34.89637,817768
34.90448,775621
34.91262,744731
34.92073,725078
34.92885,709884
34.93698,696814
34.94510,700180
34.95323,715097
34.96135,736454
34.96947,792595
34.97760,834071
34.98572,865814
34.99383,859464
35.00197,823622
35.01008,783953
35.01822,738991
35.02633,731730
35.03445,703227
35.04258,714734
35.05070,706179
35.05883,710849
35.06695,706042
35.07507,692309
35.08320,694970
35.09132,665810
35.09943,701297
35.10757,734059
35.11568,840530
35.12382,1017489
35.13193,1312033
35.14005,1782676
35.14818,2372881
35.15630,2922460
35.16443,3365201
35.17255,3515793
35.18067,3241238
35.18880,2799934
35.19692,2163904
35.20505,1680565
35.21317,1252411
35.22128,987401
35.22942,825648
35.23753,765681
35.24565,706286
35.25378,721100
35.26190,717240
35.27003,735091
35.27815,760384
35.28627,781575
35.29440,786335
35.30252,782681
35.31065,761877
35.31877,750419
35.32688,718846
35.33502,689745
35.34313,681577
35.35125,662473
35.35938,658510
35.36750,639272
35.37563,647563
35.38375,630194
35.39187,603928
35.40000,623026
35.40812,604691
35.41625,592067
35.42437,594090
35.43248,586753
35.44062,576069
35.44873,571397
35.45687,564163
35.46498,592115
35.47310,595911
35.48123,595569
35.48935,575854
35.49747,597509
35.50560,604319
35.51372,613985
35.52185,622048
35.52997,631478
35.53808,646144
35.54622,627490
35.55433,645705
35.56247,667099
35.57058,686171
35.57870,705265
35.58683,758202
35.59495,784830
35.60308,774699
35.61120,773471
35.61932,752714
35.62745,758260
35.63557,742811
35.64368,736406
35.65182,744167
35.65993,748775
35.66807,797517
35.67618,973317
35.68430,1269353
35.69243,1549277
35.70055,1674695
35.70868,1641429
35.71680,1479102
35.72492,1272158
35.73305,1103476
35.74117,946916
35.74928,852032
35.75742,780057
35.76553,755471
35.77367,714212
35.78178,689470
35.78990,678100
35.79803,675603
35.80615,668212
35.81428,668098
35.82240,691789
35.83052,741533
35.83865,808691
35.84677,854811
35.85490,863970
35.86302,817337
35.87113,799414
35.87927,736951
35.88738,711186
35.89550,691981
35.90363,666091
35.91175,634602
35.91988,630338
35.92800,608187
35.93612,608367
35.94425,601937
35.95237,589367
35.96050,595029
35.96862,591604
35.97673,585505
35.98487,579760
35.99298,579890
36.00112,570541
36.00923,587227
36.01735,593593
36.02548,627262
36.03360,720091
36.04172,910962
36.04985,1308215
36.05797,1977139
36.06610,3057587
36.07422,4233096
36.08233,5222930
36.09047,5331322
36.09858,4744579
36.10672,3939365
36.11483,3060069
36.12295,2318121
36.13108,1822940
36.13920,1625693
36.14732,1493098
36.15545,1413598
36.16357,1368269
36.17170,1342986
36.17982,1391089
36.18793,1444570
36.19607,1601399
36.20418,1750195
36.21232,1854704
36.22043,1878656
36.22855,1770493
36.23668,1668802
36.24480,1459305
36.25293,1271255
36.26105,1159992
36.26917,1088782
36.27730,1093544
36.28542,1221485
36.29353,1547232
36.30167,2288562
36.30978,3659298
36.31792,5236885
36.32603,6110603
36.33415,5979607
36.34228,5357634
36.35040,4472415
36.35853,3884739
36.36665,3587619
36.37477,3786492
36.38290,4225766
36.39102,4553622
36.39913,4578999
36.40727,4297418
36.41538,3805358
36.42352,3064291
36.43163,2369743
36.43975,1823606
36.44788,1415704
36.45600,1203340
36.46413,1027198
36.47225,884963
36.48037,789723
36.48850,707998
36.49662,664464
36.50475,652198
36.51287,645216
36.52098,661626
36.52912,703705
36.53723,736760
36.54535,756349
36.55348,764353
36.56160,763953
36.56973,709486
36.57785,663812
36.58597,640169
36.59410,618471
36.60222,627028
36.61035,649499
36.61847,688909
36.62658,735444
36.63472,785898
36.64283,800857
36.65097,821334
36.65908,812666
36.66720,843013
36.67533,867463
36.68345,877891
36.69157,839019
36.69970,796410
36.70782,703142
36.71595,665950
36.72407,622928
36.73218,600968
36.74032,581673
36.74843,588671
36.75657,596173
36.76468,572931
36.77280,571361
36.78093,574039
36.78905,576939
36.79718,561984
36.80530,569921
36.81342,580431
36.82155,591164
36.82967,614980
36.83778,615780
36.84592,605210
36.85403,587785
36.86217,569040
36.87028,551390
36.87840,551419
36.88653,526308
36.89465,532836
36.90278,514116
36.91090,520600
36.91902,513389
36.92715,496618
36.93527,502015
36.94338,510921
36.95152,509342
36.95963,502562
36.96777,501266
36.97588,504756
36.98400,493113
36.99213,501036
37.00025,498560
37.00838,489835
37.01650,485203
37.02462,492478
37.03275,477399
37.04087,491175
37.04900,488019
37.05712,509228
37.06523,504255
37.07337,500921
37.08148,531000
37.08960,520858
37.09773,512868
37.10585,521144
37.11398,505520
37.12210,507869
37.13022,496554
37.13835,504320
37.14647,495958
37.15460,515112
37.16272,532660
37.17083,550427
37.17897,582671
37.18708,634107
37.19520,656726
37.20333,674730
37.21145,673174
37.21958,692068
37.22770,666859
37.23582,653770
37.24395,639770
37.25207,612717
37.26020,625564
37.26832,640005
37.27643,653960
37.28457,641073
37.29268,677767
37.30082,669393
37.30893,683407
37.31705,727599
37.32518,926762
37.33330,1591971
37.34142,3113266
37.34955,5570987
37.35767,8807346
37.36580,1.11611E+07
37.37392,1.173542E+07
37.38203,1.154487E+07
37.39017,1.086841E+07
37.39828,9169676
37.40642,7575257
37.41453,6159710
37.42265,4745545
37.43078,3791138
37.43890,3095198
37.44703,2617582
37.45515,2289780
37.46327,2033349
37.47140,1884655
37.47952,1792121
37.48763,1711573
