C:\MassHunter\GCMS\1\data\JTB-E02\BACandBLUE\JTB-E18-022-11.D Thu Jul 11 13:24:02 2019
Start of data points
2.09520,68994
2.10333,72222
2.11145,73663
2.11957,72211
2.12770,73785
2.13582,69497
2.14393,68965
2.15207,76619
2.16018,68563
2.16832,73317
2.17643,68482
2.18455,66694
2.19268,66442
2.20080,65419
2.20893,69407
2.21705,64045
2.22517,65193
2.23330,62071
2.24142,64373
2.24955,67766
2.25767,64830
2.26578,68205
2.27392,249936
2.28203,1202447
2.29015,1127178
2.29828,449623
2.30640,275618
2.31453,230080
2.32265,202873
2.33077,186491
2.33890,176545
2.34702,168782
2.35515,152269
2.36327,139709
2.37138,132696
2.37952,129477
2.38763,129883
2.39577,130429
2.40388,119937
2.41200,120402
2.42013,117829
2.42825,120725
2.43637,115812
2.44450,120380
2.45262,117759
2.46075,113561
2.46887,110470
2.47698,113986
2.48512,103704
2.49323,134315
2.50137,168656
2.50948,135058
2.51760,121029
2.52573,110463
2.53385,111675
2.54197,103755
2.55010,108074
2.55822,120756
2.56635,149234
2.57447,138689
2.58258,117421
2.59072,112901
2.59883,116568
2.60697,174875
2.61508,575084
2.62320,722380
2.63133,407305
2.63945,259618
2.64758,194179
2.65570,167289
2.66382,151804
2.67195,135481
2.68007,128379
2.68818,123859
2.69632,115253
2.70443,122459
2.71257,106768
2.72068,107584
2.72880,106903
2.73693,99860
2.74505,106911
2.75318,100540
2.76130,97570
2.76942,101271
2.77755,100866
2.78567,170048
2.79378,255834
2.80192,209372
2.81003,146387
2.81817,142736
2.82628,155556
2.83440,138779
2.84253,139178
2.85065,123851
2.85878,118247
2.86690,107847
2.87502,105902
2.88315,104650
2.89127,99908
2.89940,102798
2.90752,99894
2.91563,98087
2.92377,98112
2.93188,91882
2.94000,91417
2.94813,99052
2.95625,93298
2.96438,102124
2.97250,108909
2.98062,104361
2.98875,100262
2.99687,96747
3.00500,102569
3.01312,97379
3.02123,100058
3.02937,93698
3.03748,89801
3.04562,91490
3.05373,86951
3.06185,94430
3.06998,99985
3.07810,114193
3.08622,275655
3.09435,1060331
3.10247,2113986
3.11060,3516943
3.11872,4226444
3.12683,2861241
3.13497,1706771
3.14308,1286415
3.15122,993349
3.15933,806669
3.16745,673188
3.17558,616230
3.18370,603357
3.19183,929340
3.19995,1489474
3.20807,1397912
3.21620,968253
3.22432,733735
3.23243,619584
3.24057,532051
3.24868,468274
3.25682,417720
3.26493,370987
3.27305,346881
3.28118,332529
3.28930,447776
3.29743,1310278
3.30555,3741077
3.31367,6576123
3.32180,7004867
3.32992,5345048
3.33803,3621775
3.34617,2582610
3.35428,2003353
3.36242,1598558
3.37053,1345915
3.37865,1132539
3.38678,996443
3.39490,875777
3.40303,789135
3.41115,707474
3.41927,658011
3.42740,624385
3.43552,576175
3.44365,554797
3.45177,526264
3.45988,499999
3.46802,473738
3.47613,458703
3.48425,454507
3.49238,428065
3.50050,417992
3.50863,406624
3.51675,391796
3.52487,378882
3.53300,369937
3.54112,388459
3.54925,373672
3.55737,367313
3.56548,350667
3.57362,366778
3.58173,397452
3.58985,378924
3.59798,354461
3.60610,339962
3.61423,324336
3.62235,333401
3.63047,332399
3.63860,336224
3.64672,344909
3.65485,324406
3.66297,377992
3.67108,1073003
3.67922,3287864
3.68733,5105012
3.69547,4137438
3.70358,2424429
3.71170,1623700
3.71983,1295078
3.72795,1091505
3.73607,961713
3.74420,870080
3.75232,787119
3.76045,727778
3.76857,683740
3.77668,633308
3.78482,600831
3.79293,583846
3.80107,604311
3.80918,877707
3.81730,1516297
3.82543,1881307
3.83355,1516800
3.84168,1089581
3.84980,870132
3.85792,745261
3.86605,668296
3.87417,617736
3.88228,572550
3.89042,541009
3.89853,521408
3.90667,491905
3.91478,496786
3.92290,568931
3.93103,689151
3.93915,719402
3.94728,704450
3.95540,1018266
3.96352,2082885
3.97165,3293777
3.97977,3160062
3.98788,2066048
3.99602,1636237
4.00413,3654373
4.01227,9536494
4.02038,1.538789E+07
4.02850,1.411296E+07
4.03663,8372236
4.04475,4164192
4.05288,2386939
4.06100,1664895
4.06912,1275147
4.07725,1043077
4.08537,908288
4.09350,791718
4.10162,713766
4.10973,657639
4.11787,609445
4.12598,565262
4.13410,559579
4.14223,596271
4.15035,693110
4.15848,739179
4.16660,658624
4.17472,585846
4.18285,521074
4.19097,492512
4.19910,469107
4.20722,568400
4.21533,1642272
4.22347,5629997
4.23158,1.243624E+07
4.23972,1.738938E+07
4.24783,1.717003E+07
4.25595,1.190823E+07
4.26408,6924712
4.27220,4604051
4.28032,3352708
4.28845,2565660
4.29657,2038336
4.30470,1738242
4.31282,1460733
4.32093,1270248
4.32907,1134284
4.33718,1035283
4.34532,957124
4.35343,913457
4.36155,902936
4.36968,859679
4.37780,827464
4.38592,759031
4.39405,710219
4.40217,655389
4.41030,631343
4.41842,599132
4.42653,573208
4.43467,555998
4.44278,534839
4.45092,512806
4.45903,505511
4.46715,482812
4.47528,468225
4.48340,467566
4.49153,452611
4.49965,451178
4.50777,441222
4.51590,432485
4.52402,412689
4.53213,405213
4.54027,411738
4.54838,389280
4.55652,381207
4.56463,374692
4.57275,363641
4.58088,355231
4.58900,348661
4.59713,349365
4.60525,345510
4.61337,342884
4.62150,344879
4.62962,400228
4.63773,528141
4.64587,683961
4.65398,694041
4.66212,592895
4.67023,461111
4.67835,396507
4.68648,372052
4.69460,350781
4.70273,331365
4.71085,315555
4.71897,308888
4.72710,298977
4.73522,303081
4.74335,292338
4.75147,277756
4.75958,284057
4.76772,280436
4.77583,276559
4.78395,269696
4.79208,289029
4.80020,354694
4.80833,446555
4.81645,495800
4.82457,441768
4.83270,394957
4.84082,384988
4.84895,382495
4.85707,373168
4.86518,352920
4.87332,327617
4.88143,314250
4.88957,289636
4.89768,289672
4.90580,288379
4.91393,283629
4.92205,272049
4.93017,344439
4.93830,648226
4.94642,1515916
4.95455,3002239
4.96267,4556015
4.97078,5007076
4.97892,4246211
4.98703,3080107
4.99517,2159898
5.00328,1529221
5.01140,1177525
5.01953,991934
5.02765,941931
5.03577,1102608
5.04390,1380595
5.05202,1428710
5.06015,1228874
5.06827,992266
5.07638,833798
5.08452,753154
5.09263,667774
5.10077,619209
5.10888,578845
5.11700,561808
5.12513,533191
5.13325,508896
5.14138,499506
5.14950,479626
5.15762,479754
5.16575,507136
5.17387,524581
5.18198,488402
5.19012,476639
5.19823,459805
5.20637,454745
5.21448,471121
5.22260,466125
5.23073,447306
5.23885,433973
5.24698,421485
5.25510,397791
5.26322,378767
5.27135,359881
5.27947,337000
5.28760,327465
5.29572,314502
5.30383,313665
5.31197,301127
5.32008,311785
5.32820,310808
5.33633,319627
5.34445,344923
5.35258,342281
5.36070,320009
5.36882,306710
5.37695,287209
5.38507,294295
5.39320,294597
5.40132,294000
5.40943,302805
5.41757,286475
5.42568,282226
5.43380,284205
5.44193,288784
5.45005,290337
5.45818,291945
5.46630,279213
5.47442,270265
5.48255,259445
5.49067,255617
5.49880,248340
5.50692,249268
5.51503,257026
5.52317,257758
5.53128,262106
5.53942,250058
5.54753,244683
5.55565,238853
5.56378,245439
5.57190,256089
5.58002,272943
5.58815,272048
5.59627,255943
5.60440,246740
5.61252,241107
5.62063,232404
5.62877,237964
5.63688,236408
5.64502,252669
5.65313,254659
5.66125,242029
5.66938,249369
5.67750,266018
5.68562,302227
5.69375,342590
5.70187,353285
5.71000,325787
5.71812,296909
5.72623,248825
5.73437,245008
5.74248,238544
5.75062,224923
5.75873,229645
5.76685,218079
5.77498,210623
5.78310,208410
5.79123,208856
5.79935,209985
5.80747,212799
5.81560,205475
5.82372,202113
5.83183,206920
5.83997,215270
5.84808,207713
5.85622,207868
5.86433,201844
5.87245,200750
5.88058,205767
5.88870,199960
5.89683,197842
5.90495,185674
5.91307,162810
5.92120,144733
5.92932,141031
5.93745,144095
5.94557,152552
5.95368,171825
5.96182,197413
5.96993,225952
5.97805,253562
5.98618,307681
5.99430,332153
6.00243,312357
6.01055,263936
6.01867,223294
6.02680,190604
6.03492,179838
6.04305,158505
6.05117,160457
6.05928,152595
6.06742,149191
6.07553,145089
6.08365,136516
6.09178,143243
6.09990,135536
6.10803,135389
6.11615,140005
6.12427,157138
6.13240,203676
6.14052,307738
6.14865,414107
6.15677,451355
6.16488,392428
6.17302,295732
6.18113,242809
6.18927,206926
6.19738,198761
6.20550,191862
6.21363,191167
6.22175,180555
6.22987,185637
6.23800,176756
6.24612,179413
6.25425,172184
6.26237,173827
6.27048,178932
6.27862,177081
6.28673,167184
6.29487,178068
6.30298,172683
6.31110,180444
6.31923,181388
6.32735,177157
6.33548,198215
6.34360,200279
6.35172,202789
6.35985,199613
6.36797,188695
6.37608,188709
6.38422,189619
6.39233,184248
6.40047,178233
6.40858,181954
6.41670,181857
6.42483,184075
6.43295,178423
6.44108,183433
6.44920,182865
6.45732,186736
6.46545,183948
6.47357,175878
6.48168,188022
6.48982,185692
6.49793,185064
6.50607,190767
6.51418,187988
6.52230,190575
6.53043,198207
6.53855,192490
6.54668,189957
6.55480,198846
6.56292,190338
6.57105,199575
6.57917,212373
6.58730,217175
6.59542,218747
6.60353,209850
6.61167,211264
6.61978,197716
6.62790,206473
6.63603,198131
6.64415,197727
6.65228,210707
6.66040,236044
6.66852,253616
6.67665,276023
6.68477,265947
6.69290,253429
6.70102,231518
6.70913,219919
6.71727,215220
6.72538,215815
6.73352,214626
6.74163,217155
6.74975,212257
6.75788,213393
6.76600,186649
6.77412,176726
6.78225,173428
6.79037,167464
6.79850,166752
6.80662,150095
6.81473,146605
6.82287,146753
6.83098,148095
6.83912,140692
6.84723,145719
6.85535,156650
6.86348,164807
6.87160,159738
6.87972,143012
6.88785,124231
6.89597,112330
6.90410,102120
6.91222,94256
6.92033,96786
6.92847,89624
6.93658,86212
6.94472,91000
6.95283,89760
6.96095,90838
6.96908,102748
6.97720,106025
6.98533,118886
6.99345,113655
7.00157,108875
7.00970,97516
7.01782,92935
7.02593,87837
7.03407,86140
7.04218,85855
7.05032,87876
7.05843,83260
7.06655,79448
7.07468,85868
7.08280,80990
7.09093,83704
7.09905,76540
7.10717,76922
7.11530,76566
7.12342,80017
7.13153,76352
7.13967,76335
7.14778,86984
7.15592,107303
7.16403,125016
7.17215,134979
7.18028,123841
7.18840,110831
7.19653,99673
7.20465,96216
7.21277,127519
7.22090,263039
7.22902,634853
7.23715,1194021
7.24527,1628651
7.25338,1566801
7.26152,1105817
7.26963,665556
7.27775,395526
7.28588,273798
7.29400,227406
7.30213,174661
7.31025,149419
7.31837,123254
7.32650,118660
7.33462,122847
7.34275,115039
7.35087,103254
7.35898,98145
7.36712,98029
7.37523,95856
7.38337,96319
7.39148,97054
7.39960,101512
7.40773,93930
7.41585,90494
7.42397,90125
7.43210,88428
7.44022,86492
7.44835,91723
7.45647,87805
7.46458,87349
7.47272,85339
7.48083,81601
7.48897,78705
7.49708,78436
7.50520,80167
7.51333,81254
7.52145,89523
7.52957,111406
7.53770,150937
7.54582,188700
7.55395,212921
7.56207,238619
7.57018,228279
7.57832,188208
7.58643,152682
7.59457,121019
7.60268,104172
7.61080,96527
7.61893,86497
7.62705,83283
7.63518,78928
7.64330,77688
7.65142,73343
7.65955,76992
7.66767,74509
7.67578,71247
7.68392,70884
7.69203,69377
7.70017,74858
7.70828,73991
7.71640,73868
7.72453,73249
7.73265,75753
7.74078,79573
7.74890,78254
7.75702,76112
7.76515,78318
7.77327,74561
7.78140,78347
7.78952,80898
7.79763,85206
7.80577,93235
7.81388,81552
7.82200,84943
7.83013,82398
7.83825,75770
7.84638,71639
7.85450,72767
7.86262,74604
7.87075,79116
7.87887,84992
7.88700,91710
7.89512,87219
7.90323,79673
7.91137,77105
7.91948,78975
7.92760,84542
7.93573,99974
7.94385,114665
7.95198,124233
7.96010,118463
7.96822,109639
7.97635,93535
7.98447,88995
7.99260,78523
8.00072,75582
8.00883,69410
8.01697,69237
8.02508,64366
8.03322,69251
8.04133,69220
8.04945,72094
8.05758,72718
8.06570,64919
8.07382,62999
8.08195,67487
8.09007,67625
8.09820,64902
8.10632,64361
8.11443,64052
8.12257,64102
8.13068,69032
8.13882,79395
8.14693,89517
8.15505,98479
8.16318,101165
8.17130,92467
8.17942,81794
8.18755,70860
8.19567,67864
8.20380,70319
8.21192,66266
8.22003,64251
8.22817,63934
8.23628,71094
8.24442,65494
8.25253,62449
8.26065,60868
8.26878,62490
8.27690,62219
8.28503,63139
8.29315,65797
8.30127,67271
8.30940,70570
8.31752,71978
8.32563,73836
8.33377,68270
8.34188,68487
8.35002,60990
8.35813,61971
8.36625,62154
8.37438,59042
8.38250,62807
8.39063,62618
8.39875,62233
8.40687,57181
8.41500,59968
8.42312,59957
8.43125,56947
8.43937,60241
8.44748,58178
8.45562,53076
8.46373,62412
8.47185,57244
8.47998,55109
8.48810,55621
8.49623,55918
8.50435,54312
8.51247,56681
8.52060,64314
8.52872,84162
8.53685,147141
8.54497,232785
8.55308,326094
8.56122,360869
8.56933,307418
8.57747,226735
8.58558,153492
8.59370,113572
8.60183,99974
8.60995,93774
8.61807,92244
8.62620,88939
8.63432,85773
8.64245,72749
8.65057,67503
8.65868,67801
8.66682,65775
8.67493,67020
8.68307,65136
8.69118,63758
8.69930,68223
8.70743,65557
8.71555,71383
8.72367,64827
8.73180,68893
8.73992,93326
8.74805,173242
8.75617,379631
8.76428,794284
8.77242,1281755
8.78053,1605032
8.78867,1544466
8.79678,1195162
8.80490,781182
8.81303,477709
8.82115,307550
8.82928,224597
8.83740,199445
8.84552,201098
8.85365,193887
8.86177,194492
8.86988,172523
8.87802,167693
8.88613,156547
8.89427,152053
8.90238,139998
8.91050,140873
8.91863,134063
8.92675,127571
8.93488,137184
8.94300,142182
8.95112,163073
8.95925,152961
8.96737,145433
8.97548,139327
8.98362,129919
8.99173,121388
8.99987,122519
9.00798,114170
9.01610,111278
9.02423,108656
9.03235,103798
9.04048,97450
9.04860,97386
9.05672,99633
9.06485,101353
9.07297,92225
9.08110,96515
9.08922,97991
9.09733,99455
9.10547,104281
9.11358,109844
9.12170,112318
9.12983,111614
9.13795,112233
9.14608,106586
9.15420,99116
9.16232,99946
9.17045,92836
9.17857,95043
9.18670,88434
9.19482,84519
9.20293,84927
9.21107,83912
9.21918,84662
9.22732,82989
9.23543,84255
9.24355,84507
9.25168,80383
9.25980,82264
9.26792,81631
9.27605,76642
9.28417,77993
9.29230,77629
9.30042,76087
9.30853,79241
9.31667,77048
9.32478,74223
9.33292,78457
9.34103,73574
9.34915,69552
9.35728,70867
9.36540,73174
9.37352,67408
9.38165,67933
9.38977,80147
9.39790,73028
9.40602,83455
9.41413,79506
9.42227,91500
9.43038,103564
9.43852,98095
9.44663,109156
9.45475,98122
9.46288,93414
9.47100,83075
9.47913,84116
9.48725,80740
9.49537,77954
9.50350,71527
9.51162,81679
9.51973,87187
9.52787,88911
9.53598,81645
9.54412,80357
9.55223,77513
9.56035,77383
9.56848,76647
9.57660,93905
9.58473,122976
9.59285,151405
9.60097,162216
9.60910,145679
9.61722,107614
9.62535,80759
9.63347,64244
9.64158,56368
9.64972,49336
9.65783,46275
9.66595,51107
9.67408,50172
9.68220,48615
9.69033,50635
9.69845,48675
9.70657,48447
9.71470,46444
9.72282,47344
9.73095,45794
9.73907,43661
9.74718,48093
9.75532,47280
9.76343,47209
9.77155,44959
9.77968,45272
9.78780,45195
9.79593,44679
9.80405,43596
9.81217,43374
9.82030,41333
9.82842,41266
9.83655,41360
9.84467,39403
9.85278,43185
9.86092,45557
9.86903,45798
9.87717,44009
9.88528,42697
9.89340,45060
9.90153,47159
9.90965,45877
9.91777,45886
9.92590,51788
9.93402,59723
9.94215,71992
9.95027,88961
9.95838,102641
9.96652,106935
9.97463,99569
9.98277,87857
9.99088,76977
9.99900,74200
10.00713,65968
10.01525,60935
10.02337,61005
10.03150,55514
10.03962,53370
10.04775,52511
10.05587,49379
10.06398,50032
10.07212,49993
10.08023,47251
10.08837,47938
10.09648,53019
10.10460,49250
10.11273,52085
10.12085,48485
10.12898,48897
10.13710,49161
10.14522,50153
10.15335,47047
10.16147,49831
10.16958,49304
10.17772,45218
10.18583,46916
10.19397,44406
10.20208,46313
10.21020,45163
10.21833,46608
10.22645,47696
10.23458,48473
10.24270,55865
10.25082,58145
10.25895,76455
10.26707,133891
10.27520,325532
10.28332,744011
10.29143,1399918
10.29957,2167819
10.30768,3147984
10.31580,4623374
10.32393,6968033
10.33205,9790256
10.34018,1.152863E+07
10.34830,1.107201E+07
10.35642,8189955
10.36455,4670097
10.37267,2369443
10.38080,1260770
10.38892,804645
10.39703,572383
10.40517,448665
10.41328,371723
10.42140,310462
10.42953,270779
10.43765,240641
10.44578,230693
10.45390,212299
10.46202,198265
10.47015,184436
10.47827,174588
10.48640,161871
10.49452,158146
10.50263,154030
10.51077,145585
10.51888,146058
10.52702,144555
10.53513,146988
10.54325,147928
10.55138,140417
10.55950,140008
10.56762,132170
10.57575,122659
10.58387,125782
10.59200,114349
10.60012,106754
10.60823,105629
10.61637,103277
10.62448,96519
10.63262,96168
10.64073,91456
10.64885,89585
10.65698,84566
10.66510,86540
10.67323,87552
10.68135,82395
10.68947,80863
10.69760,86843
10.70572,87579
10.71383,80800
10.72197,79921
10.73008,82210
10.73822,87008
10.74633,80660
10.75445,81789
10.76258,81781
10.77070,75907
10.77883,76915
10.78695,69478
10.79507,68292
10.80320,68187
10.81132,68469
10.81943,67058
10.82757,68635
10.83568,65086
10.84382,67645
10.85193,58197
10.86005,60003
10.86818,63957
10.87630,59219
10.88443,59786
10.89255,59300
10.90067,55810
10.90880,55992
10.91692,59975
10.92505,60574
10.93317,53215
10.94128,54585
10.94942,57573
10.95753,53675
10.96565,53875
10.97378,56584
10.98190,54595
10.99003,54935
10.99815,57588
11.00627,53333
11.01440,52614
11.02252,54522
11.03065,47877
11.03877,54555
11.04688,48471
11.05502,52890
11.06313,52997
11.07125,53188
11.07938,57840
11.08750,50873
11.09563,56543
11.10375,52684
11.11187,50806
11.12000,49949
11.12812,46529
11.13625,44778
11.14437,44769
11.15248,45915
11.16062,43441
11.16873,46382
11.17687,49491
11.18498,50844
11.19310,52230
11.20123,52549
11.20935,47541
11.21747,46446
11.22560,43503
11.23372,44051
11.24185,43715
11.24997,40282
11.25808,43911
11.26622,41730
11.27433,44353
11.28247,42338
11.29058,44067
11.29870,50308
11.30683,63814
11.31495,81056
11.32308,113559
11.33120,169597
11.33932,227576
11.34745,257610
11.35557,245487
11.36368,217000
11.37182,165858
11.37993,116084
11.38807,97184
11.39618,84135
11.40430,75758
11.41243,73446
11.42055,61099
11.42868,65848
11.43680,61732
11.44492,60055
11.45305,54831
11.46117,54625
11.46928,58820
11.47742,63459
11.48553,80700
11.49367,106941
11.50178,132869
11.50990,124336
11.51803,119597
11.52615,106863
11.53428,97729
11.54240,76982
11.55052,77422
11.55865,76581
11.56677,67699
11.57490,68211
11.58302,62784
11.59113,66319
11.59927,73237
11.60738,91511
11.61550,119425
11.62363,133606
11.63175,126895
11.63988,110465
11.64800,85064
11.65612,69500
11.66425,54282
11.67237,54743
11.68050,47142
11.68862,53800
11.69673,55200
11.70487,52983
11.71298,56438
11.72112,57720
11.72923,56384
11.73735,51960
11.74548,47558
11.75360,46391
11.76172,47799
11.76985,47774
11.77797,45252
11.78610,45886
11.79422,47501
11.80233,43854
11.81047,49575
11.81858,45011
11.82672,44621
11.83483,48446
11.84295,50521
11.85108,44849
11.85920,44276
11.86732,41928
11.87545,42245
11.88357,41630
11.89170,43560
11.89982,38628
11.90793,42966
11.91607,41282
11.92418,46068
11.93232,47906
11.94043,50910
11.94855,49628
11.95668,45907
11.96480,43846
11.97293,39546
11.98105,44657
11.98917,60636
11.99730,80420
12.00542,111689
12.01353,134912
12.02167,131938
12.02978,119718
12.03792,89094
12.04603,78191
12.05415,65897
12.06228,56285
12.07040,51639
12.07853,46192
12.08665,53223
12.09477,51432
12.10290,51315
12.11102,48390
12.11915,54325
12.12727,51515
12.13538,50340
12.14352,49158
12.15163,52244
12.15975,53440
12.16788,48093
12.17600,46999
12.18413,42406
12.19225,41194
12.20037,43577
12.20850,46609
12.21662,41891
12.22475,42600
12.23287,45434
12.24098,48111
12.24912,41707
12.25723,43401
12.26535,42312
12.27348,41813
12.28160,44821
12.28973,39926
12.29785,39267
12.30597,37867
12.31410,40756
12.32222,40164
12.33035,40943
12.33847,37426
12.34658,38791
12.35472,39475
12.36283,36666
12.37097,39280
12.37908,41743
12.38720,40411
12.39533,41339
12.40345,48069
12.41157,61480
12.41970,74056
12.42782,84406
12.43595,83785
12.44407,79356
12.45218,69250
12.46032,62326
12.46843,58947
12.47657,53479
12.48468,50857
12.49280,50371
12.50093,49715
12.50905,44914
12.51717,48803
12.52530,62262
12.53342,96462
12.54155,206822
12.54967,451546
12.55778,828298
12.56592,1185014
12.57403,1314502
12.58217,1124183
12.59028,797858
12.59840,481836
12.60653,290390
12.61465,176965
12.62278,134383
12.63090,114009
12.63902,105240
12.64715,83451
12.65527,83904
12.66338,74131
12.67152,76278
12.67963,70541
12.68777,67618
12.69588,69564
12.70400,67061
12.71213,63870
12.72025,63706
12.72838,67362
12.73650,73250
12.74462,74510
12.75275,71661
12.76087,60935
12.76900,59261
12.77712,53454
12.78523,50667
12.79337,49175
12.80148,52348
12.80960,50278
12.81773,50920
12.82585,47237
12.83398,42474
12.84210,49860
12.85022,42536
12.85835,40652
12.86647,42425
12.87460,41680
12.88272,42301
12.89083,39913
12.89897,39271
12.90708,43616
12.91520,41170
12.92333,45679
12.93145,39700
12.93958,39358
12.94770,41701
12.95582,43633
12.96395,50608
12.97207,64873
12.98020,77524
12.98832,89040
12.99643,82997
13.00457,72920
13.01268,62727
13.02082,51452
13.02893,48287
13.03705,46757
13.04518,44300
13.05330,47936
13.06142,44620
13.06955,43504
13.07767,44608
13.08580,42102
13.09392,47092
13.10203,43011
13.11017,41760
13.11828,43615
13.12642,39567
13.13453,43542
13.14265,42937
13.15078,40372
13.15890,43807
13.16703,41581
13.17515,45802
13.18327,43390
13.19140,44642
13.19952,49122
13.20763,45460
13.21577,47090
13.22388,49663
13.23202,50901
13.24013,48274
13.24825,38801
13.25638,41152
13.26450,39375
13.27263,39627
13.28075,41121
13.28887,39200
13.29700,39759
13.30512,40771
13.31323,35112
13.32137,37088
13.32948,37321
13.33762,35676
13.34573,36579
13.35385,36279
13.36198,38600
13.37010,36132
13.37823,37523
13.38635,37709
13.39447,30660
13.40260,33734
13.41072,33611
13.41885,35501
13.42697,32239
13.43508,32918
13.44322,38621
13.45133,32487
13.45945,34773
13.46758,35446
13.47570,33791
13.48383,34507
13.49195,35158
13.50007,33521
13.50820,34403
13.51632,37165
13.52445,36453
13.53257,35975
13.54068,33975
13.54882,35801
13.55693,34140
13.56505,36352
13.57318,35941
13.58130,37439
13.58943,44811
13.59755,51133
13.60567,76600
13.61380,112230
13.62192,141638
13.63005,163166
13.63817,153837
13.64628,120723
13.65442,93013
13.66253,72017
13.67067,55088
13.67878,46828
13.68690,45128
13.69503,44811
13.70315,41926
13.71127,40928
13.71940,43091
13.72752,46077
13.73565,65937
13.74377,121869
13.75188,244030
13.76002,506291
13.76813,885566
13.77627,1336905
13.78438,1439331
13.79250,1327671
13.80063,1068529
13.80875,761243
13.81688,548406
13.82500,427044
13.83312,378663
13.84125,360980
13.84937,327983
13.85748,273542
13.86562,240713
13.87373,198323
13.88187,176161
13.88998,155560
13.89810,144386
13.90623,129263
13.91435,127117
13.92248,117993
13.93060,109478
13.93872,108794
13.94685,100741
13.95497,107012
13.96310,105999
13.97122,107994
13.97933,111266
13.98747,112422
13.99558,106151
14.00370,111504
14.01183,102146
14.01995,100546
14.02808,99423
14.03620,92624
14.04432,92526
14.05245,92461
14.06057,90263
14.06870,84769
14.07682,90750
14.08493,81366
14.09307,82355
14.10118,84256
14.10930,79681
14.11743,79951
14.12555,82338
14.13368,78086
14.14180,79969
14.14992,85973
14.15805,89853
14.16617,127397
14.17430,183569
14.18242,279087
14.19053,384001
14.19867,441941
14.20678,440331
14.21492,370802
14.22303,288472
14.23115,216542
14.23928,180985
14.24740,160825
14.25552,149188
14.26365,149207
14.27177,128366
14.27990,121226
14.28802,112280
14.29613,98048
14.30427,93997
14.31238,87051
14.32052,86944
14.32863,80382
14.33675,76533
14.34488,69774
14.35300,72195
14.36112,64133
14.36925,57353
14.37737,59615
14.38550,67159
14.39362,86637
14.40173,145418
14.40987,236504
14.41798,357862
14.42612,450237
14.43423,456112
14.44235,376693
14.45048,266221
14.45860,180207
14.46673,132382
14.47485,108055
14.48297,87943
14.49110,83153
14.49922,79945
14.50733,72391
14.51547,68948
14.52358,70023
14.53172,66975
14.53983,64798
14.54795,63238
14.55608,62042
14.56420,57844
14.57233,53621
14.58045,55538
14.58857,55400
14.59670,52867
14.60482,52449
14.61295,49865
14.62107,50754
14.62918,47438
14.63732,47860
14.64543,47398
14.65355,46317
14.66168,46127
14.66980,43900
14.67793,46631
14.68605,43845
14.69417,45803
14.70230,45227
14.71042,50755
14.71855,47357
14.72667,45782
14.73478,48223
14.74292,47521
14.75103,49872
14.75915,48771
14.76728,51116
14.77540,50069
14.78353,60331
14.79165,90228
14.79977,183769
14.80790,420185
14.81602,884044
14.82415,1500047
14.83227,2027227
14.84038,2192187
14.84852,1960559
14.85663,1450271
14.86477,949163
14.87288,590065
14.88100,392726
14.88913,292033
14.89725,229226
14.90537,186206
14.91350,169070
14.92162,151942
14.92975,137313
14.93787,125478
14.94598,117516
14.95412,111676
14.96223,109142
14.97037,109626
14.97848,100901
14.98660,97735
14.99473,98735
15.00285,91183
15.01098,92171
15.01910,86566
15.02722,81133
15.03535,83200
15.04347,75010
15.05158,73758
15.05972,74023
15.06783,69077
15.07597,69322
15.08408,63363
15.09220,66166
15.10033,64204
15.10845,65301
15.11658,61139
15.12470,70020
15.13282,68371
15.14095,76226
15.14907,80094
15.15718,75648
15.16532,72312
15.17343,59617
15.18157,60519
15.18968,55748
15.19780,52443
15.20593,55232
15.21405,50320
15.22218,50260
15.23030,49953
15.23842,51647
15.24655,45194
15.25467,44531
15.26280,43762
15.27092,44255
15.27903,44142
15.28717,42560
15.29528,42158
15.30340,40083
15.31153,42319
15.31965,43088
15.32778,47948
15.33590,42439
15.34402,42038
15.35215,40899
15.36027,43453
15.36840,45009
15.37652,43073
15.38463,42075
15.39277,46720
15.40088,45624
15.40900,57897
15.41713,53567
15.42525,55804
15.43338,55117
15.44150,48816
15.44962,43303
15.45775,42981
15.46587,45426
15.47400,48104
15.48212,52660
15.49023,68003
15.49837,85706
15.50648,82780
15.51462,80842
15.52273,82529
15.53085,76302
15.53898,75908
15.54710,67511
15.55522,65027
15.56335,60660
15.57147,53030
15.57960,48954
15.58772,42897
15.59583,42852
15.60397,41559
15.61208,40698
15.62022,41639
15.62833,36838
15.63645,42780
15.64458,37323
15.65270,41497
15.66083,40800
15.66895,40661
15.67707,38232
15.68520,38268
15.69332,35976
15.70143,38151
15.70957,40785
15.71768,41894
15.72582,39507
15.73393,44204
15.74205,46199
15.75018,52981
15.75830,70887
15.76643,98240
15.77455,150807
15.78267,196977
15.79080,246325
15.79892,264213
15.80703,226570
15.81517,172972
15.82328,133336
15.83142,104170
15.83953,87244
15.84765,69392
15.85578,63607
15.86390,64015
15.87203,60660
15.88015,57746
15.88827,56718
15.89640,52848
15.90452,51760
15.91265,51424
15.92077,47782
15.92888,49201
15.93702,47392
15.94513,52201
15.95325,60702
15.96138,64786
15.96950,74616
15.97763,87564
15.98575,89998
15.99387,89060
16.00200,82670
16.01012,75115
16.01825,75025
16.02637,78040
16.03448,72945
16.04262,72698
16.05073,63390
16.05887,59884
16.06698,55893
16.07510,51561
16.08323,48348
16.09135,51817
16.09947,46979
16.10760,46226
16.11572,48975
16.12385,49413
16.13197,49789
16.14008,48445
16.14822,52227
16.15633,51643
16.16447,50638
16.17258,50640
16.18070,49510
16.18883,48472
16.19695,45350
16.20507,46740
16.21320,47721
16.22132,44425
16.22945,47621
16.23757,44754
16.24568,44611
16.25382,42231
16.26193,43123
16.27007,41992
16.27818,44542
16.28630,42498
16.29443,46340
16.30255,43166
16.31068,44019
16.31880,45613
16.32692,45733
16.33505,47805
16.34317,47154
16.35128,59729
16.35942,58186
16.36753,71886
16.37567,80285
16.38378,83752
16.39190,83557
16.40003,68820
16.40815,67622
16.41628,56383
16.42440,54129
16.43252,54529
16.44065,49511
16.44877,56238
16.45688,69806
16.46502,92479
16.47313,132032
16.48127,150608
16.48938,164372
16.49750,155011
16.50563,122171
16.51375,99681
16.52188,79299
16.53000,67125
16.53812,54061
16.54625,59021
16.55437,54161
16.56250,52178
16.57062,55320
16.57873,53927
16.58687,58211
16.59498,61587
16.60310,65333
16.61123,67233
16.61935,73484
16.62748,72278
16.63560,68490
16.64372,62660
16.65185,56242
16.65997,57534
16.66810,50909
16.67622,46398
16.68433,46548
16.69247,46521
16.70058,45415
16.70872,42034
16.71683,46996
16.72495,47881
16.73308,43664
16.74120,46575
16.74932,45276
16.75745,47123
16.76557,48446
16.77370,51058
16.78182,50760
16.78993,41351
16.79807,43728
16.80618,39795
16.81432,42773
16.82243,40335
16.83055,40609
16.83868,39080
16.84680,37978
16.85492,36982
16.86305,38537
16.87117,37018
16.87930,38754
16.88742,39590
16.89553,40692
16.90367,36591
16.91178,41438
16.91992,35836
16.92803,39501
16.93615,39325
16.94428,38988
16.95240,41857
16.96053,41736
16.96865,33852
16.97677,40450
16.98490,38943
16.99302,36443
17.00113,38689
17.00927,41816
17.01738,40839
17.02552,38926
17.03363,44746
17.04175,49008
17.04988,55860
17.05800,57572
17.06613,62624
17.07425,60840
17.08237,63751
17.09050,68430
17.09862,76102
17.10675,83341
17.11487,93375
17.12298,99203
17.13112,101107
17.13923,97929
17.14735,87499
17.15548,81446
17.16360,72452
17.17173,70729
17.17985,61068
17.18797,51282
17.19610,47978
17.20422,44133
17.21235,42288
17.22047,43842
17.22858,37945
17.23672,40350
17.24483,39206
17.25295,45028
17.26108,42106
17.26920,39549
17.27733,39620
17.28545,39144
17.29357,41135
17.30170,38587
17.30982,39166
17.31795,42126
17.32607,41363
17.33418,51546
17.34232,59858
17.35043,57455
17.35857,61610
17.36668,59031
17.37480,55889
17.38293,54536
17.39105,54012
17.39917,51732
17.40730,50249
17.41542,50827
17.42355,47013
17.43167,54611
17.43978,48147
17.44792,45867
17.45603,45943
17.46417,42201
17.47228,43717
17.48040,42375
17.48853,40146
17.49665,43796
17.50478,41548
17.51290,40330
17.52102,40075
17.52915,40336
17.53727,40875
17.54538,44618
17.55352,49490
17.56163,67495
17.56977,104042
17.57788,174050
17.58600,295126
17.59413,476584
17.60225,698306
17.61038,868797
17.61850,890604
17.62662,770949
17.63475,574622
17.64287,399907
17.65098,277565
17.65912,209479
17.66723,167950
17.67537,143665
17.68348,122682
17.69160,118586
17.69973,102413
17.70785,95564
17.71598,89219
17.72410,81610
17.73222,74151
17.74035,65322
17.74847,71257
17.75660,72050
17.76472,67945
17.77283,68836
17.78097,67777
17.78908,67018
17.79720,81003
17.80533,100141
17.81345,130343
17.82158,171028
17.82970,203164
17.83782,212111
17.84595,194952
17.85407,163446
17.86220,138140
17.87032,112145
17.87843,101926
17.88657,87077
17.89468,84561
17.90280,75035
17.91093,63667
17.91905,60807
17.92718,61802
17.93530,59098
17.94342,61472
17.95155,58330
17.95967,52824
17.96780,55291
17.97592,53185
17.98403,51214
17.99217,51603
18.00028,53928
18.00842,55541
18.01653,53688
18.02465,66062
18.03278,69878
18.04090,76473
18.04902,87244
18.05715,101415
18.06527,144226
18.07340,242696
18.08152,404396
18.08963,559028
18.09777,679305
18.10588,664472
18.11402,584484
18.12213,427673
18.13025,314104
18.13838,244486
18.14650,201764
18.15463,180898
18.16275,163122
18.17087,144553
18.17900,139703
18.18712,119737
18.19523,117003
18.20337,109385
18.21148,104875
18.21962,103041
18.22773,95930
18.23585,87863
18.24398,86711
18.25210,80831
18.26023,78093
18.26835,78102
18.27647,70919
18.28460,67194
18.29272,60785
18.30083,56435
18.30897,54282
18.31708,49131
18.32522,47985
18.33333,48357
18.34145,51042
18.34958,47698
18.35770,49297
18.36583,48906
18.37395,59791
18.38207,86095
18.39020,132569
18.39832,180153
18.40645,229490
18.41457,261638
18.42268,291998
18.43082,301666
18.43893,314497
18.44705,334896
18.45518,365484
18.46330,423057
18.47143,472449
18.47955,561793
18.48767,579071
18.49580,574985
18.50392,528080
18.51205,445013
18.52017,389055
18.52828,347496
18.53642,332888
18.54453,301041
18.55267,304461
18.56078,291266
18.56890,288787
18.57703,279248
18.58515,277255
18.59327,282925
18.60140,280967
18.60952,281970
18.61765,271197
18.62577,273741
18.63388,274046
18.64202,270217
18.65013,264124
18.65827,254000
18.66638,250105
18.67450,249731
18.68263,241455
18.69075,235102
18.69887,233872
18.70700,229732
18.71512,230486
18.72325,230505
18.73137,225243
18.73948,222819
18.74762,226266
18.75573,218206
18.76387,210690
18.77198,204466
18.78010,208607
18.78823,202528
18.79635,210573
18.80448,208965
18.81260,208041
18.82072,203878
18.82885,203086
18.83697,199838
18.84508,197153
18.85322,195423
18.86133,193745
18.86947,186309
18.87758,184324
18.88570,181195
18.89383,186715
18.90195,185855
18.91008,178677
18.91820,180401
18.92632,177393
18.93445,181323
18.94257,185130
18.95068,185472
18.95882,187096
18.96693,177706
18.97507,181584
18.98318,173487
18.99130,181817
18.99943,173658
19.00755,167577
19.01568,164264
19.02380,166079
19.03192,160005
19.04005,163618
19.04817,161365
19.05630,161628
19.06442,163059
19.07253,170400
19.08067,201868
19.08878,229307
19.09690,269220
19.10503,289748
19.11315,308374
19.12128,290339
19.12940,258407
19.13752,217627
19.14565,197122
19.15377,169677
19.16190,168741
19.17002,159012
19.17813,150566
19.18627,154302
19.19438,147490
19.20252,145608
19.21063,144059
19.21875,151425
19.22688,139699
19.23500,135746
19.24312,138405
19.25125,135898
19.25937,134855
19.26750,137047
19.27562,139203
19.28373,146223
19.29187,146359
19.29998,150540
19.30812,152079
19.31623,144840
19.32435,147121
19.33248,139890
19.34060,138507
19.34873,148987
19.35685,173103
19.36497,178823
19.37310,203110
19.38122,212447
19.38933,202234
19.39747,185710
19.40558,163460
19.41372,144454
19.42183,128908
19.42995,131578
19.43808,124519
19.44620,132985
19.45433,131643
19.46245,149349
19.47057,162685
19.47870,207898
19.48682,256441
19.49493,300444
19.50307,329879
19.51118,314313
19.51932,259754
19.52743,208106
19.53555,168595
19.54368,143019
19.55180,128554
19.55993,124735
19.56805,120773
19.57617,119935
19.58430,120564
19.59242,112721
19.60055,110274
19.60867,104871
19.61678,114066
19.62492,103386
19.63303,116990
19.64115,129616
19.64928,148751
19.65740,183673
19.66553,226555
19.67365,249110
19.68177,262780
19.68990,252512
19.69802,236450
19.70615,221566
19.71427,188211
19.72238,178978
19.73052,166314
19.73863,147182
19.74675,133318
19.75488,126842
19.76300,121607
19.77113,119727
19.77925,116746
19.78737,121587
19.79550,125410
19.80362,120419
19.81175,123132
19.81987,121255
19.82798,109573
19.83612,109371
19.84423,106584
19.85237,123601
19.86048,184614
19.86860,341550
19.87673,658384
19.88485,1161988
19.89297,1745944
19.90110,2217655
19.90922,2363719
19.91735,2118722
19.92547,1676003
19.93358,1193396
19.94172,836578
19.94983,625050
19.95797,521381
19.96608,452041
19.97420,408989
19.98233,390395
19.99045,363164
19.99857,323961
20.00670,327047
20.01482,304374
20.02295,302331
20.03107,276888
20.03918,259054
20.04732,235331
20.05543,208812
20.06357,184201
20.07168,160519
20.07980,150098
20.08793,146156
20.09605,141067
20.10418,133634
20.11230,128404
20.12042,121244
20.12855,111070
20.13667,110291
20.14478,102778
20.15292,107583
20.16103,109997
20.16917,114631
20.17728,127548
20.18540,132677
20.19353,138121
20.20165,140605
20.20978,139152
20.21790,132423
20.22602,129862
20.23415,127698
20.24227,127338
20.25040,139278
20.25852,162853
20.26663,196452
20.27477,223293
20.28288,232505
20.29100,236584
20.29913,210800
20.30725,190750
20.31538,172285
20.32350,144743
20.33162,130608
20.33975,111854
20.34787,105710
20.35600,96447
20.36412,94649
20.37223,88574
20.38037,84007
20.38848,84188
20.39662,81262
20.40473,80576
20.41285,85895
20.42098,85504
20.42910,93121
20.43722,93207
20.44535,89787
20.45347,93844
20.46160,95420
20.46972,90788
20.47783,84250
20.48597,83028
20.49408,79311
20.50222,76462
20.51033,75181
20.51845,77632
20.52658,73518
20.53470,75000
20.54282,78249
20.55095,76430
20.55907,77471
20.56720,72877
20.57532,72532
20.58343,70025
20.59157,68442
20.59968,67004
20.60782,67337
20.61593,67432
20.62405,66839
20.63218,67297
20.64030,67589
20.64843,71160
20.65655,71513
20.66467,69470
20.67280,72952
20.68092,73406
20.68903,69036
20.69717,69163
20.70528,65074
20.71342,64242
20.72153,68952
20.72965,65320
20.73778,65865
20.74590,62547
20.75403,70724
20.76215,68817
20.77027,69476
20.77840,73708
20.78652,91718
20.79463,113604
20.80277,156666
20.81088,197217
20.81902,225113
20.82713,233373
20.83525,218605
20.84338,173398
20.85150,140995
20.85963,105794
20.86775,87591
20.87587,84088
20.88400,79172
20.89212,76681
20.90025,74979
20.90837,71388
20.91648,74434
20.92462,72834
20.93273,77660
20.94085,73020
20.94898,72701
20.95710,69328
20.96523,71231
20.97335,69105
20.98147,68079
20.98960,65673
20.99772,63369
21.00585,59652
21.01397,64650
21.02208,68185
21.03022,72601
21.03833,67034
21.04647,68246
21.05458,65347
21.06270,66190
21.07083,66534
21.07895,59944
21.08707,63083
21.09520,65439
21.10332,62988
21.11145,62805
21.11957,63302
21.12768,64130
21.13582,62907
21.14393,72841
21.15207,80049
21.16018,85086
21.16830,83834
21.17643,81112
21.18455,77564
21.19267,73847
21.20080,72141
21.20892,70610
21.21705,61624
21.22517,66297
21.23328,62428
21.24142,63383
21.24953,64681
21.25767,59573
21.26578,61511
21.27390,60436
21.28203,60184
21.29015,57643
21.29828,57182
21.30640,58550
21.31452,59065
21.32265,55191
21.33077,52752
21.33888,57499
21.34702,51961
21.35513,56481
21.36327,52791
21.37138,52892
21.37950,54563
21.38763,55644
21.39575,54891
21.40388,51826
21.41200,54134
21.42012,57301
21.42825,56359
21.43637,58630
21.44450,52566
21.45262,52394
21.46073,52031
21.46887,50384
21.47698,49757
21.48510,49153
21.49323,45684
21.50135,47041
21.50948,48957
21.51760,47304
21.52572,49496
21.53385,50105
21.54197,46856
21.55010,51208
21.55822,47314
21.56633,51446
21.57447,53489
21.58258,63081
21.59070,72010
21.59883,71122
21.60695,74301
21.61508,74857
21.62320,81850
21.63132,77967
21.63945,86562
21.64757,82116
21.65570,79287
21.66382,79460
21.67193,78851
21.68007,81271
21.68818,77408
21.69632,79352
21.70443,68947
21.71255,65784
21.72068,62972
21.72880,60296
21.73692,60310
21.74505,55946
21.75317,55321
21.76130,56247
21.76942,55287
21.77753,55180
21.78567,55501
21.79378,54071
21.80192,55498
21.81003,58810
21.81815,63839
21.82628,71339
21.83440,76736
21.84252,76538
21.85065,71930
21.85877,62002
21.86690,60257
21.87502,58902
21.88313,56703
21.89127,53338
21.89938,51013
21.90752,53740
21.91563,54060
21.92375,51249
21.93188,49015
21.94000,53229
21.94813,49730
21.95625,50823
21.96437,45177
21.97250,51087
21.98062,42741
21.98873,43208
21.99687,44942
22.00498,43701
22.01312,42152
22.02123,42479
22.02935,47193
22.03748,43318
22.04560,44706
22.05373,49347
22.06185,48232
22.06997,44909
22.07810,47772
22.08622,53283
22.09435,60400
22.10247,63287
22.11058,66273
22.11872,73937
22.12683,76362
22.13495,79732
22.14308,78727
22.15120,77316
22.15933,80976
22.16745,81105
22.17557,82731
22.18370,80230
22.19182,83519
22.19995,78475
22.20807,79659
22.21618,83485
22.22432,82467
22.23243,82767
22.24055,82995
22.24868,82160
22.25680,79530
22.26493,83906
22.27305,81409
22.28117,81630
22.28930,78788
22.29742,82034
22.30555,76538
22.31367,74932
22.32178,72919
22.32992,69158
22.33803,70427
22.34617,69770
22.35428,61419
22.36240,60397
22.37053,59503
22.37865,59210
22.38677,61538
22.39490,74697
22.40302,80803
22.41115,99375
22.41927,112530
22.42738,115542
22.43552,118060
22.44363,98713
22.45177,85441
22.45988,75153
22.46800,69829
22.47613,70842
22.48425,73442
22.49238,82723
22.50050,85451
22.50862,91115
22.51675,85760
22.52487,75570
22.53298,72843
22.54112,69284
22.54923,63814
22.55737,62352
22.56548,58548
22.57360,53732
22.58173,48927
22.58985,53797
22.59798,51130
22.60610,63035
22.61422,78482
22.62235,90441
22.63047,102814
22.63858,109076
22.64672,119765
22.65483,125133
22.66297,128564
22.67108,129430
22.67920,137908
22.68733,140950
22.69545,144620
22.70358,152459
22.71170,155975
22.71982,166748
22.72795,156807
22.73607,165562
22.74420,162826
22.75232,149593
22.76043,143012
22.76857,148479
22.77668,161134
22.78480,164673
22.79293,183198
22.80105,194092
22.80918,207879
22.81730,216945
22.82542,207092
22.83355,198423
22.84167,183539
22.84980,172784
22.85792,158841
22.86603,148787
22.87417,158537
22.88228,160312
22.89042,162284
22.89853,189103
22.90665,214636
22.91478,241242
22.92290,271047
22.93102,288776
22.93915,277061
22.94727,249741
22.95540,212245
22.96352,186470
22.97163,177222
22.97977,149535
22.98788,144741
22.99602,140204
23.00413,137053
23.01225,135456
23.02038,130150
23.02850,124453
23.03662,120550
23.04475,117051
23.05287,119278
23.06100,115447
23.06912,116632
23.07723,116918
23.08537,111996
23.09348,112944
23.10162,111121
23.10973,105022
23.11785,105572
23.12598,103933
23.13410,109291
23.14223,103923
23.15035,103018
23.15847,105255
23.16660,100579
23.17472,98338
23.18283,96916
23.19097,97592
23.19908,103758
23.20722,96260
23.21533,99427
23.22345,98219
23.23158,98928
23.23970,97758
23.24783,101286
23.25595,101768
23.26407,106058
23.27220,104956
23.28032,106002
23.28843,107271
23.29657,95934
23.30468,91866
23.31282,94410
23.32093,95412
23.32905,100809
23.33718,112078
23.34530,125792
23.35343,162858
23.36155,213851
23.36967,270902
23.37780,345007
23.38592,453484
23.39405,526910
23.40217,598934
23.41028,641874
23.41842,674458
23.42653,667170
23.43465,668790
23.44278,645435
23.45090,612426
23.45903,590015
23.46715,547656
23.47527,500581
23.48340,458729
23.49152,432672
23.49965,404174
23.50777,367055
23.51588,344888
23.52402,318641
23.53213,301828
23.54027,281505
23.54838,265549
23.55650,258805
23.56463,257242
23.57275,253514
23.58087,276194
23.58900,291592
23.59712,311529
23.60525,318848
23.61337,308104
23.62148,285298
23.62962,264732
23.63773,242611
23.64587,218948
23.65398,211906
23.66210,210917
23.67023,206533
23.67835,197116
23.68647,187129
23.69460,166899
23.70272,160618
23.71085,150793
23.71897,137332
23.72708,134269
23.73522,136450
23.74333,170266
23.75147,245115
23.75958,435520
23.76770,825275
23.77583,1393100
23.78395,2107874
23.79208,2670491
23.80020,2707629
23.80832,2566211
23.81645,2234466
23.82457,1775623
23.83268,1369671
23.84082,1038846
23.84893,821483
23.85707,673924
23.86518,576151
23.87330,493574
23.88143,423787
23.88955,377126
23.89768,341235
23.90580,325157
23.91392,307522
23.92205,285258
23.93017,261023
23.93830,246555
23.94642,234613
23.95453,217047
23.96267,203275
23.97078,202266
23.97890,191360
23.98703,179552
23.99515,179328
24.00328,185958
24.01140,220178
24.01952,267388
24.02765,325104
24.03577,369336
24.04390,375905
24.05202,324646
24.06013,263054
24.06827,210331
24.07638,169014
24.08450,149032
24.09263,137807
24.10075,137697
24.10888,123766
24.11700,126635
24.12512,125553
24.13325,124755
24.14137,118833
24.14950,114426
24.15762,121774
24.16573,117536
24.17387,119160
24.18198,120572
24.19012,120309
24.19823,113930
24.20635,116661
24.21448,114290
24.22260,113086
24.23072,102609
24.23885,102589
24.24697,96074
24.25510,91391
24.26322,93296
24.27133,87400
24.27947,87013
24.28758,87397
24.29572,92353
24.30383,87161
24.31195,86493
24.32008,83182
24.32820,81094
24.33632,81614
24.34445,85380
24.35257,86786
24.36070,96136
24.36882,129828
24.37693,164827
24.38507,208802
24.39318,237799
24.40132,241989
24.40943,235323
24.41755,230529
24.42568,232320
24.43380,231358
24.44193,230207
24.45005,240685
24.45817,252878
24.46630,270703
24.47442,280710
24.48253,293140
24.49067,310340
24.49878,307513
24.50692,312404
24.51503,318215
24.52315,317565
24.53128,324717
24.53940,335744
24.54753,341870
24.55565,334023
24.56377,336421
24.57190,339992
24.58002,325591
24.58815,300805
24.59627,312087
24.60438,291604
24.61252,287961
24.62063,280880
24.62875,283961
24.63688,278988
24.64500,271817
24.65313,275361
24.66125,264908
24.66937,263635
24.67750,260064
24.68562,258766
24.69375,252257
24.70187,245520
24.70998,246613
24.71812,239394
24.72623,242263
24.73437,248181
24.74248,238615
24.75060,236905
24.75873,233066
24.76685,236650
24.77497,232506
24.78310,240989
24.79122,227091
24.79935,239134
24.80747,224175
24.81558,220820
24.82372,229229
24.83183,233969
24.83997,245181
24.84808,270127
24.85620,311433
24.86433,381148
24.87245,444815
24.88057,521368
24.88870,607881
24.89682,625261
24.90495,582421
24.91307,490666
24.92118,363104
24.92932,256143
24.93743,192267
24.94557,150810
24.95368,128295
24.96180,111690
24.96993,99091
24.97805,94360
24.98618,94912
24.99430,86352
25.00242,86284
25.01055,84044
25.01867,82272
25.02678,79931
25.03492,79143
25.04303,74747
25.05117,78241
25.05928,76935
25.06740,78108
25.07553,80348
25.08365,83123
25.09178,90661
25.09990,130985
25.10802,228079
25.11615,456226
25.12427,873534
25.13238,1468602
25.14052,2107770
25.14863,2472599
25.15677,2427888
25.16488,2015068
25.17300,1399547
25.18113,858074
25.18925,495450
25.19738,286089
25.20550,183231
25.21362,140796
25.22175,123600
25.22987,113652
25.23800,119485
25.24612,137615
25.25423,163130
25.26237,207459
25.27048,226750
25.27860,227302
25.28673,218409
25.29485,201733
25.30298,169334
25.31110,178646
25.31922,197841
25.32735,241308
25.33547,283743
25.34360,323573
25.35172,340999
25.35983,353860
25.36797,365238
25.37608,362695
25.38422,371384
25.39233,366761
25.40045,375737
25.40858,374008
25.41670,374809
25.42482,372939
25.43295,375759
25.44107,370576
25.44920,372345
25.45732,380292
25.46543,367316
25.47357,372967
25.48168,375501
25.48982,351967
25.49793,350314
25.50605,354157
25.51418,353335
25.52230,354536
25.53042,341961
25.53855,333953
25.54667,333114
25.55480,330513
25.56292,324407
25.57103,329603
25.57917,322190
25.58728,326126
25.59542,314786
25.60353,321536
25.61165,313151
25.61978,313594
25.62790,315513
25.63603,325856
25.64415,323857
25.65227,318753
25.66040,314430
25.66852,300661
25.67663,290163
25.68477,286213
25.69288,282750
25.70102,278957
25.70913,277396
25.71725,270332
25.72538,268540
25.73350,265127
25.74163,262089
25.74975,256090
25.75787,249419
25.76600,260497
25.77412,253935
25.78225,252801
25.79037,244797
25.79848,248236
25.80662,241627
25.81473,242747
25.82285,234217
25.83098,238798
25.83910,247039
25.84723,228240
25.85535,231952
25.86347,223938
25.87160,225149
25.87972,226760
25.88785,221586
25.89597,212187
25.90408,209366
25.91222,205331
25.92033,204501
25.92845,200426
25.93658,206416
25.94470,200507
25.95283,194998
25.96095,192710
25.96907,196199
25.97720,195288
25.98532,180496
25.99345,179580
26.00157,185472
26.00968,174825
26.01782,179654
26.02593,176291
26.03407,170000
26.04218,168944
26.05030,161885
26.05843,166718
26.06655,166152
26.07467,165098
26.08280,161439
26.09092,162571
26.09905,158150
26.10717,157984
26.11528,159121
26.12342,163535
26.13153,157709
26.13967,153804
26.14778,156555
26.15590,154405
26.16403,149239
26.17215,153907
26.18027,149037
26.18840,145031
26.19652,150278
26.20465,148871
26.21277,139959
26.22088,139303
26.22902,139804
26.23713,137450
26.24527,130512
26.25338,132973
26.26150,132968
26.26963,125909
26.27775,128385
26.28588,122606
26.29400,123816
26.30212,125430
26.31025,123097
26.31837,121485
26.32648,119833
26.33462,118085
26.34273,117617
26.35087,115661
26.35898,119176
26.36710,116108
26.37523,116141
26.38335,115388
26.39148,123234
26.39960,131302
26.40772,132130
26.41585,126552
26.42397,122980
26.43210,117767
26.44022,108531
26.44833,110596
26.45647,105924
26.46458,104243
26.47270,105664
26.48083,105748
26.48895,102402
26.49708,105130
26.50520,98579
26.51332,95370
26.52145,92866
26.52957,91018
26.53770,95200
26.54582,86333
26.55393,87726
26.56207,89069
26.57018,88560
26.57830,85020
26.58643,85830
26.59455,85664
26.60268,87191
26.61080,84263
26.61892,83415
26.62705,89043
26.63517,83113
26.64330,81857
26.65142,84700
26.65953,84903
26.66767,84062
26.67578,87704
26.68392,86373
26.69203,82739
26.70015,81824
26.70828,83595
26.71640,78425
26.72452,76388
26.73265,75687
26.74077,75461
26.74890,73121
26.75702,73914
26.76513,77225
26.77327,72458
26.78138,80221
26.78952,78809
26.79763,76943
26.80575,78772
26.81388,78515
26.82200,80500
26.83013,78594
26.83825,79390
26.84637,74132
26.85450,70963
26.86262,70492
26.87073,66758
26.87887,70198
26.88698,68888
26.89512,63881
26.90323,66143
26.91135,66508
26.91948,69941
26.92760,64720
26.93573,68392
26.94385,69378
26.95197,65607
26.96010,77023
26.96822,88598
26.97633,114022
26.98447,148517
26.99258,225912
27.00072,312693
27.00883,422138
27.01695,544417
27.02508,634014
27.03320,692123
27.04133,674947
27.04945,638984
27.05757,550758
27.06570,453296
27.07382,369191
27.08195,320748
27.09007,274953
27.09818,239747
27.10632,207991
27.11443,186361
27.12255,175087
27.13068,167145
27.13880,156685
27.14693,151251
27.15505,134006
27.16317,136151
27.17130,132836
27.17942,127232
27.18755,123591
27.19567,116224
27.20378,112184
27.21192,110819
27.22003,109194
27.22815,100912
27.23628,101007
27.24440,98966
27.25253,90690
27.26065,96661
27.26877,88565
27.27690,85184
27.28502,83975
27.29315,84582
27.30127,80338
27.30938,79849
27.31752,77622
27.32563,79593
27.33377,74240
27.34188,75906
27.35000,78096
27.35813,76827
27.36625,76662
27.37437,75898
27.38250,77067
27.39062,74504
27.39875,70820
27.40687,71170
27.41498,69484
27.42312,67533
27.43123,64735
27.43937,66398
27.44748,64898
27.45560,63035
27.46373,67080
27.47185,64566
27.47998,64002
27.48810,62589
27.49622,62842
27.50435,66706
27.51247,65347
27.52058,64405
27.52872,68224
27.53683,64529
27.54497,63731
27.55308,65279
27.56120,66342
27.56933,67235
27.57745,66886
27.58558,77004
27.59370,81008
27.60182,82596
27.60995,77546
27.61807,76036
27.62618,67850
27.63432,65620
27.64243,64078
27.65057,60413
27.65868,59957
27.66680,55012
27.67493,58441
27.68305,58239
27.69118,59978
27.69930,60306
27.70742,65808
27.71555,55586
27.72367,54135
27.73180,56334
27.73992,55215
27.74803,54081
27.75617,51949
27.76428,52310
27.77240,54573
27.78053,55577
27.78865,53691
27.79678,56080
27.80490,64290
27.81302,61510
27.82115,56731
27.82927,54534
27.83740,54193
27.84552,58251
27.85363,53340
27.86177,53124
27.86988,50382
27.87802,53817
27.88613,55872
27.89425,51333
27.90238,50175
27.91050,53055
27.91862,50698
27.92675,48240
27.93487,48456
27.94300,50141
27.95112,54721
27.95923,49594
27.96737,46151
27.97548,43980
27.98362,51316
27.99173,52630
27.99985,52319
28.00798,53161
28.01610,51800
28.02422,54892
28.03235,58954
28.04047,59764
28.04860,61855
28.05672,64047
28.06483,61126
28.07297,56559
28.08108,56503
28.08922,56176
28.09733,51946
28.10545,55094
28.11358,45022
28.12170,52093
28.12983,46216
28.13795,48313
28.14607,44958
28.15420,45515
28.16232,49724
28.17043,51760
28.17857,54549
28.18668,60181
28.19482,59828
28.20293,69385
28.21105,77860
28.21918,79655
28.22730,79926
28.23543,74092
28.24355,71427
28.25167,65692
28.25980,57544
28.26792,53991
28.27605,50930
28.28417,49659
28.29228,55068
28.30042,60185
28.30853,72740
28.31665,84139
28.32478,98825
28.33290,116493
28.34103,141511
28.34915,164836
28.35727,184240
28.36540,222055
28.37352,226711
28.38165,246328
28.38977,255821
28.39788,256396
28.40602,251344
28.41413,251616
28.42225,234678
28.43038,217338
28.43850,210017
28.44663,196406
28.45475,180377
28.46287,167538
28.47100,159206
28.47912,149068
28.48725,134682
28.49537,128745
28.50348,119839
28.51162,117297
28.51973,112857
28.52787,104525
28.53598,100995
28.54410,94153
28.55223,92817
28.56035,88172
28.56847,87261
28.57660,82572
28.58472,83573
28.59285,77502
28.60097,77522
28.60908,78627
28.61722,75438
28.62533,78152
28.63347,77874
28.64158,82630
28.64970,74702
28.65783,78696
28.66595,81759
28.67407,78507
28.68220,75585
28.69032,74742
28.69845,73742
28.70657,68086
28.71468,66430
28.72282,70852
28.73093,72493
28.73907,78737
28.74718,86390
28.75530,95219
28.76343,90957
28.77155,88897
28.77968,77770
28.78780,76967
28.79592,72139
28.80405,70377
28.81217,71903
28.82028,71541
28.82842,68023
28.83653,66262
28.84467,65135
28.85278,61018
28.86090,59022
28.86903,65251
28.87715,69009
28.88528,74957
28.89340,81920
28.90152,77404
28.90965,78971
28.91777,71362
28.92590,70248
28.93402,65314
28.94213,62920
28.95027,60711
28.95838,64491
28.96650,64556
28.97463,63326
28.98275,60809
28.99088,58066
28.99900,57145
29.00712,54727
29.01525,53714
29.02337,52431
29.03150,56095
29.03962,55814
29.04773,53852
29.05587,56899
29.06398,58019
29.07210,59613
29.08023,59362
29.08835,58132
29.09648,60483
29.10460,54807
29.11272,52539
29.12085,52126
29.12897,52610
29.13710,53902
29.14522,60493
29.15333,53242
29.16147,55149
29.16958,56896
29.17772,65599
29.18583,64885
29.19395,79286
29.20208,91267
29.21020,108451
29.21832,106653
29.22645,104338
29.23457,97142
29.24270,85221
29.25082,74464
29.25893,70567
29.26707,77194
29.27518,73059
29.28332,69179
29.29143,66400
29.29955,61143
29.30768,61917
29.31580,54310
29.32393,55258
29.33205,52743
29.34017,53511
29.34830,47278
29.35642,48020
29.36453,49193
29.37267,50312
29.38078,46722
29.38892,49490
29.39703,47195
29.40515,51004
29.41328,50347
29.42140,52500
29.42953,53429
29.43765,53394
29.44577,52681
29.45390,49669
29.46202,51491
29.47013,51246
29.47827,51498
29.48638,53143
29.49452,52681
29.50263,51271
29.51075,53897
29.51888,47451
29.52700,51666
29.53513,52881
29.54325,50239
29.55137,45821
29.55950,47706
29.56762,45749
29.57575,44823
29.58387,44380
29.59198,44127
29.60012,43304
29.60823,44893
29.61635,47240
29.62448,46205
29.63260,48824
29.64073,46925
29.64885,48207
29.65697,43896
29.66510,48185
29.67322,46780
29.68135,51532
29.68947,50621
29.69758,48250
29.70572,50913
29.71383,49431
29.72195,49357
29.73008,51781
29.73820,49357
29.74633,44451
29.75445,48484
29.76257,48151
29.77070,45915
29.77882,40173
29.78695,43369
29.79507,41291
29.80318,45901
29.81132,40323
29.81943,40646
29.82757,40719
29.83568,41805
29.84380,43033
29.85193,47966
29.86005,55665
29.86817,63559
29.87630,83098
29.88442,110663
29.89255,145075
29.90067,165788
29.90878,178729
29.91692,150063
29.92503,122567
29.93317,95260
29.94128,79100
29.94940,71941
29.95753,72025
29.96565,78769
29.97378,87025
29.98190,92574
29.99002,104339
29.99815,112836
30.00627,119431
30.01438,123897
30.02252,125027
30.03063,133352
30.03877,137295
30.04688,139063
30.05500,139662
30.06313,137256
30.07125,137721
30.07938,142470
30.08750,137068
30.09562,123616
30.10375,122751
30.11187,123441
30.12000,116610
30.12812,117125
30.13623,117009
30.14437,111030
30.15248,102912
30.16060,94849
30.16873,94188
30.17685,92035
30.18498,93558
30.19310,82079
30.20122,78690
30.20935,79759
30.21747,76287
30.22560,77821
30.23372,71032
30.24183,70907
30.24997,71946
30.25808,68676
30.26620,69767
30.27433,60105
30.28245,58554
30.29058,60145
30.29870,61929
30.30682,57051
30.31495,60905
30.32307,59315
30.33120,59794
30.33932,57966
30.34743,58036
30.35557,52828
30.36368,52405
30.37182,56327
30.37993,53013
30.38805,55077
30.39618,51956
30.40430,49485
30.41242,50750
30.42055,53636
30.42867,49280
30.43680,51360
30.44492,47656
30.45303,46767
30.46117,51475
30.46928,51875
30.47742,51776
30.48553,51764
30.49365,47639
30.50178,49196
30.50990,49341
30.51802,48927
30.52615,47723
30.53427,50661
30.54240,46889
30.55052,50148
30.55863,51550
30.56677,46821
30.57488,45761
30.58302,50200
30.59113,47951
30.59925,50449
30.60738,53802
30.61550,46352
30.62363,47247
30.63175,47476
30.63987,48029
30.64800,49326
30.65612,45508
30.66423,44568
30.67237,42535
30.68048,44607
30.68862,45701
30.69673,45322
30.70485,45542
30.71298,43040
30.72110,45955
30.72923,44751
30.73735,46105
30.74547,41714
30.75360,43426
30.76172,47948
30.76985,54447
30.77797,60518
30.78608,85060
30.79422,116527
30.80233,138301
30.81045,158685
30.81858,150654
30.82670,140317
30.83483,108839
30.84295,81614
30.85107,67025
30.85920,57560
30.86732,55238
30.87545,48471
30.88357,51157
30.89168,48261
30.89982,51352
30.90793,43027
30.91605,49078
30.92418,47736
30.93230,47842
30.94043,44093
30.94855,45256
30.95667,44756
30.96480,45066
30.97292,44481
30.98105,44965
30.98917,44115
30.99728,41153
31.00542,43543
31.01353,45684
31.02167,49270
31.02978,52608
31.03790,50816
31.04603,56716
31.05415,57684
31.06227,56614
31.07040,59083
31.07852,61776
31.08665,68490
31.09477,69598
31.10288,79707
31.11102,81512
31.11913,75874
31.12727,71811
31.13538,73613
31.14350,75065
31.15163,73516
31.15975,70487
31.16788,75548
31.17600,72174
31.18412,80474
31.19225,91688
31.20037,103298
31.20848,119745
31.21662,143832
31.22473,148601
31.23287,144822
31.24098,135124
31.24910,120359
31.25723,104868
31.26535,82380
31.27348,72430
31.28160,75410
31.28972,69983
31.29785,66146
31.30597,67259
31.31408,64654
31.32222,65172
31.33033,64930
31.33847,65013
31.34658,65293
31.35470,64703
31.36283,65465
31.37095,65286
31.37908,63650
31.38720,73247
31.39532,67037
31.40345,65057
31.41157,62180
31.41970,59560
31.42782,63514
31.43593,65401
31.44407,59985
31.45218,56227
31.46030,60725
31.46843,58834
31.47655,58753
31.48468,61205
31.49280,58349
31.50092,58459
31.50905,56557
31.51717,60320
31.52530,55866
31.53342,58671
31.54153,58891
31.54967,56475
31.55778,59062
31.56590,57111
31.57403,61841
31.58215,59665
31.59028,57750
31.59840,56547
31.60652,55808
31.61465,55956
31.62277,54479
31.63090,54245
31.63902,64306
31.64713,60558
31.65527,57872
31.66338,57660
31.67152,63603
31.67963,63939
31.68775,54165
31.69588,50196
31.70400,61258
31.71212,55844
31.72025,51300
31.72837,50574
31.73650,50367
31.74462,48734
31.75273,51341
31.76087,48901
31.76898,50685
31.77712,53202
31.78523,49745
31.79335,53917
31.80148,53037
31.80960,50472
31.81773,49509
31.82585,46921
31.83397,51391
31.84210,48118
31.85022,47739
31.85833,54695
31.86647,48926
31.87458,55500
31.88272,56812
31.89083,68154
31.89895,73676
31.90708,75386
31.91520,80169
31.92333,94408
31.93145,96952
31.93957,99580
31.94770,109192
31.95582,111614
31.96393,114352
31.97207,122320
31.98018,116842
31.98832,120624
31.99643,118989
32.00455,116537
32.01268,108238
32.02080,112778
32.02893,105610
32.03705,105973
32.04517,99759
32.05330,101563
32.06142,97127
32.06955,87520
32.07767,91087
32.08578,83483
32.09392,81332
32.10203,78173
32.11015,69982
32.11828,74153
32.12640,68419
32.13453,65073
32.14265,64938
32.15077,61244
32.15890,59855
32.16702,65917
32.17515,62478
32.18327,60215
32.19138,61687
32.19952,55063
32.20763,57597
32.21577,55248
32.22388,55509
32.23200,55986
32.24013,57364
32.24825,63140
32.25637,55194
32.26450,55865
32.27262,55880
32.28075,57366
32.28887,59176
32.29698,55419
32.30512,56208
32.31323,50929
32.32137,49449
32.32948,51309
32.33760,51700
32.34573,54307
32.35385,52900
32.36197,48990
32.37010,50340
32.37822,48033
32.38635,48208
32.39447,49851
32.40258,47994
32.41072,49465
32.41883,46715
32.42697,50574
32.43508,52226
32.44320,49391
32.45133,48035
32.45945,47844
32.46758,43632
32.47570,44984
32.48382,50309
32.49195,47007
32.50007,46067
32.50818,46829
32.51632,47344
32.52443,45333
32.53257,47043
32.54068,48391
32.54880,45680
32.55693,47793
32.56505,46413
32.57318,44319
32.58130,46306
32.58942,44211
32.59755,43844
32.60567,45907
32.61380,47390
32.62192,49089
32.63003,52266
32.63817,56699
32.64628,61971
32.65440,67124
32.66253,62704
32.67065,60870
32.67878,54270
32.68690,51178
32.69502,56803
32.70315,48797
32.71127,49261
32.71940,47368
32.72752,46963
32.73563,49360
32.74377,44364
32.75188,44983
32.76000,44594
32.76813,43761
32.77625,44203
32.78438,46601
32.79250,44534
32.80062,41711
32.80875,39363
32.81687,44186
32.82500,46263
32.83312,43361
32.84123,44298
32.84937,47622
32.85748,42650
32.86562,42331
32.87373,43163
32.88185,46252
32.88998,43782
32.89810,46681
32.90622,48127
32.91435,48053
32.92247,46242
32.93060,45257
32.93872,45750
32.94683,44597
32.95497,43659
32.96308,44193
32.97122,46994
32.97933,50867
32.98745,56931
32.99558,62334
33.00370,63269
33.01182,61284
33.01995,59884
33.02807,56457
33.03620,54125
33.04432,50833
33.05243,49536
33.06057,51483
33.06868,51383
33.07682,54918
33.08493,56397
33.09305,55619
33.10118,55175
33.10930,65346
33.11743,62368
33.12555,62319
33.13367,59516
33.14180,55174
33.14992,55298
33.15803,55460
33.16617,48393
33.17428,48211
33.18242,43598
33.19053,45925
33.19865,47161
33.20678,48542
33.21490,47427
33.22303,46926
33.23115,44367
33.23927,44803
33.24740,44810
33.25552,45419
33.26365,42000
33.27177,43508
33.27988,45811
33.28802,42920
33.29613,46899
33.30425,44195
33.31238,42949
33.32050,40849
33.32863,41254
33.33675,41091
33.34487,43372
33.35300,45396
33.36112,46140
33.36925,48396
33.37737,45702
33.38548,45613
33.39362,44521
33.40173,42144
33.40985,44006
33.41798,40973
33.42610,41519
33.43423,41907
33.44235,39774
33.45047,43689
33.45860,41660
33.46672,41909
33.47485,41703
33.48297,39891
33.49108,43617
33.49922,39864
33.50733,41410
33.51547,44210
33.52358,51322
33.53170,45998
33.53983,46744
33.54795,48089
33.55607,47492
33.56420,47963
33.57232,47949
33.58045,47040
33.58857,45051
33.59668,46851
33.60482,48530
33.61293,43331
33.62107,41787
33.62918,45571
33.63730,44909
33.64543,46022
33.65355,45435
33.66168,44302
33.66980,45258
33.67792,47961
33.68605,44374
33.69417,44970
33.70228,48577
33.71042,41786
33.71853,45622
33.72667,41872
33.73478,45723
33.74290,40574
33.75103,41627
33.75915,41779
33.76728,43580
33.77540,42272
33.78352,39077
33.79165,42578
33.79977,38254
33.80788,43549
33.81602,43205
33.82413,42821
33.83227,45093
33.84038,42548
33.84850,42585
33.85663,44578
33.86475,41396
33.87288,41213
33.88100,43424
33.88912,40035
33.89725,49371
33.90537,42764
33.91350,46642
33.92162,42649
33.92973,43109
33.93787,40124
33.94598,38665
33.95410,38600
33.96223,42810
33.97035,43704
33.97848,41929
33.98660,42268
33.99472,42170
34.00285,39911
34.01097,42081
34.01910,41815
34.02722,41748
34.03533,42119
34.04347,41941
34.05158,44225
34.05970,45185
34.06783,45641
34.07595,41581
34.08408,43226
34.09220,44787
34.10032,43893
34.10845,45395
34.11657,44067
34.12470,45710
34.13282,43112
34.14093,40184
34.14907,42204
34.15718,43720
34.16532,48038
34.17343,41523
34.18155,42681
34.18968,43170
34.19780,43172
34.20592,43074
34.21405,44080
34.22217,43252
34.23030,46144
34.23842,43656
34.24653,42437
34.25467,39298
34.26278,44156
34.27092,44345
34.27903,42108
34.28715,40824
34.29528,40605
34.30340,42368
34.31153,40257
34.31965,43051
34.32777,47445
34.33590,42021
34.34402,43432
34.35213,42143
34.36027,38952
34.36838,41877
34.37652,41283
34.38463,43723
34.39275,43602
34.40088,43819
34.40900,39699
34.41713,41030
34.42525,41683
34.43337,42892
34.44150,39336
34.44962,40331
34.45773,41769
34.46587,47048
34.47398,43174
34.48212,44186
34.49023,48106
34.49835,52548
34.50648,59963
34.51460,71233
34.52273,78599
34.53085,86114
34.53897,98185
34.54710,103129
34.55522,101672
34.56335,103611
34.57147,90750
34.57958,88393
34.58772,86715
34.59583,80033
34.60395,74929
34.61208,73173
34.62020,71322
34.62833,65718
34.63645,64157
34.64457,62431
34.65270,60005
34.66082,57262
34.66895,57514
34.67707,57607
34.68518,57955
34.69332,53170
34.70143,54511
34.70957,51176
34.71768,50517
34.72580,52595
34.73393,46045
34.74205,52558
34.75017,50733
34.75830,51373
34.76642,50646
34.77455,49883
34.78267,52483
34.79078,51183
34.79892,48867
34.80703,50595
34.81517,49840
34.82328,50031
34.83140,51273
34.83953,46743
34.84765,49426
34.85577,50636
34.86390,53057
34.87202,55311
34.88015,48540
34.88827,48761
34.89638,47983
34.90452,50269
34.91263,53443
34.92077,55079
34.92888,53705
34.93700,51933
34.94513,55738
34.95325,56505
34.96138,55344
34.96950,53678
34.97762,59825
34.98575,55522
34.99387,55283
35.00198,50206
35.01012,50491
35.01823,49887
35.02637,44185
35.03448,47726
35.04260,45524
35.05073,44953
35.05885,46385
35.06698,44485
35.07510,45019
35.08322,46138
35.09135,41748
35.09947,48328
35.10758,43714
35.11572,44637
35.12383,43695
35.13197,47870
35.14008,45971
35.14820,48596
35.15633,45799
35.16445,47216
35.17258,45690
35.18070,47272
35.18882,46289
35.19695,44074
35.20507,49346
35.21320,46551
35.22132,46280
35.22943,45854
35.23757,47061
35.24568,44659
35.25380,44081
35.26193,46649
35.27005,51321
35.27818,45112
35.28630,44535
35.29442,45903
35.30255,45326
35.31067,45313
35.31880,40831
35.32692,43476
35.33503,39223
35.34317,45244
35.35128,46281
35.35942,44496
35.36753,44672
35.37565,43504
35.38378,42905
35.39190,45301
35.40002,46713
35.40815,50701
35.41627,47795
35.42440,47817
35.43252,47450
35.44063,48761
35.44877,47771
35.45688,50762
35.46502,50514
35.47313,50287
35.48125,48132
35.48938,46770
35.49750,51636
35.50563,49651
35.51375,46476
35.52187,44969
35.53000,51253
35.53812,44654
35.54623,44359
35.55437,45284
35.56248,45128
35.57062,50391
35.57873,45984
35.58685,51943
35.59498,42848
35.60310,43345
35.61123,44324
35.61935,44168
35.62747,44027
35.63560,47332
35.64372,47631
35.65183,52445
35.65997,47740
35.66808,47413
35.67622,47365
35.68433,46380
35.69245,44740
35.70058,47027
35.70870,47845
35.71683,50702
35.72495,49782
35.73307,45994
35.74120,45618
35.74932,47271
35.75745,50601
35.76557,49917
35.77368,49434
35.78182,50099
35.78993,49390
35.79805,47418
35.80618,44936
35.81430,40963
35.82243,46884
35.83055,43586
35.83867,43751
35.84680,45483
35.85492,46344
35.86305,45013
35.87117,40526
35.87928,48122
35.88742,45363
35.89553,43871
35.90365,46775
35.91178,43413
35.91990,44322
35.92803,45088
35.93615,43782
35.94427,44521
35.95240,46163
35.96052,44496
35.96865,44556
35.97677,44589
35.98488,44539
35.99302,45590
36.00113,48008
36.00927,48066
36.01738,50905
36.02550,48639
36.03363,49034
36.04175,52290
36.04987,49862
36.05800,47751
36.06612,49303
36.07425,46676
36.08237,47737
36.09048,46407
36.09862,48109
36.10673,44381
36.11487,44510
36.12298,46073
36.13110,46390
36.13923,48263
36.14735,45504
36.15548,44122
36.16360,49004
36.17172,49958
36.17985,49502
36.18797,47178
36.19608,48401
36.20422,48830
36.21233,41742
36.22047,46298
36.22858,49726
36.23670,50437
36.24483,47658
36.25295,47693
36.26108,47587
36.26920,48803
36.27732,54886
36.28545,61887
36.29357,64453
36.30168,63628
36.30982,57123
36.31793,57713
36.32607,56715
36.33418,51990
36.34230,51755
36.35043,46713
36.35855,48584
36.36668,49712
36.37480,50537
36.38292,47121
36.39105,48985
36.39917,51010
36.40730,51141
36.41542,53625
36.42353,55573
36.43167,49343
36.43978,48308
36.44790,44360
36.45603,46051
36.46415,46911
36.47228,47986
36.48040,45276
36.48852,43425
36.49665,46322
36.50477,44417
36.51290,45977
36.52102,45755
36.52913,46037
36.53727,46711
36.54538,44111
36.55352,48064
36.56163,44604
36.56975,48098
36.57788,47515
36.58600,46802
36.59412,49196
36.60225,49710
36.61037,47031
36.61850,48503
36.62662,49052
36.63473,50569
36.64287,52159
36.65098,51234
36.65912,47273
36.66723,53463
36.67535,49781
36.68348,50733
36.69160,48444
36.69972,47963
36.70785,50800
36.71597,52980
36.72410,54922
36.73222,51192
36.74033,53807
36.74847,50234
36.75658,49562
36.76472,49142
36.77283,53208
36.78095,52955
36.78908,53361
36.79720,52199
36.80533,51401
36.81345,51636
36.82157,53701
36.82970,50265
36.83782,49472
36.84593,52933
36.85407,52691
36.86218,48185
36.87032,50231
36.87843,54979
36.88655,54929
36.89468,51690
36.90280,51313
36.91093,51036
36.91905,51939
36.92717,52671
36.93530,55082
36.94342,57200
36.95153,66365
36.95967,67159
36.96778,64996
36.97592,68478
36.98403,64965
36.99215,61497
37.00028,59318
37.00840,57584
37.01653,52458
37.02465,52488
37.03277,56073
37.04090,51289
37.04902,49125
37.05715,52188
37.06527,52478
37.07338,54901
37.08152,52229
37.08963,51233
37.09775,56569
37.10588,51929
37.11400,53308
37.12213,54489
37.13025,46662
37.13837,55036
37.14650,55894
37.15462,51116
37.16275,50179
37.17087,53786
37.17898,54497
37.18712,53194
37.19523,55954
37.20337,53370
37.21148,52905
37.21960,50652
37.22773,51738
37.23585,51685
37.24397,52618
37.25210,53553
37.26022,52351
37.26835,50890
37.27647,51293
37.28458,51970
37.29272,57979
37.30083,60494
37.30897,64700
37.31708,73862
37.32520,80504
37.33333,92913
37.34145,99549
37.34957,101901
37.35770,93965
37.36582,89111
37.37395,87524
37.38207,75337
37.39018,71273
37.39832,72436
37.40643,70251
37.41457,67586
37.42268,69263
37.43080,68407
37.43893,67142
37.44705,68208
37.45518,65475
37.46330,69023
37.47142,63325
37.47955,67096
37.48767,66342
