Z:\data\JTB-E02\BACandBLUE\JTB-E02-194-15.D Thu Dec 20 13:03:29 2018
Start of data points
2.09515	68144
2.10327	73890
2.11140	73732
2.11952	75013
2.12763	72505
2.13577	75040
2.14388	74458
2.15202	75142
2.16013	72835
2.16825	74846
2.17638	76408
2.18450	76684
2.19263	74484
2.20075	70813
2.20887	67509
2.21700	69170
2.22512	72188
2.23323	67229
2.24137	70502
2.24948	66673
2.25762	65687
2.26573	92143
2.27385	344300
2.28198	491585
2.29010	344730
2.29823	238253
2.30635	192001
2.31447	166688
2.32260	152103
2.33072	145901
2.33883	137717
2.34697	125849
2.35508	120255
2.36322	113598
2.37133	113128
2.37945	107057
2.38758	99415
2.39570	97063
2.40383	96337
2.41195	93498
2.42007	99319
2.42820	96091
2.43632	91919
2.44445	96347
2.45257	86135
2.46068	84822
2.46882	78576
2.47693	76431
2.48505	79254
2.49318	76959
2.50130	80599
2.50943	73363
2.51755	78737
2.52567	75832
2.53380	75252
2.54192	72892
2.55005	72934
2.55817	78221
2.56628	77671
2.57442	72989
2.58253	73560
2.59065	74400
2.59878	75238
2.60690	158257
2.61503	249062
2.62315	221675
2.63127	168849
2.63940	140148
2.64752	125771
2.65565	110716
2.66377	103675
2.67188	98045
2.68002	95566
2.68813	92799
2.69627	89416
2.70438	86371
2.71250	76350
2.72063	77666
2.72875	79678
2.73687	77276
2.74500	73165
2.75312	71944
2.76125	71147
2.76937	79617
2.77748	205261
2.78562	565322
2.79373	568141
2.80187	346970
2.80998	262513
2.81810	233089
2.82623	214140
2.83435	190273
2.84248	166626
2.85060	151505
2.85872	135197
2.86685	129065
2.87497	125088
2.88308	113578
2.89122	110174
2.89933	105573
2.90747	101433
2.91558	102609
2.92370	94727
2.93183	95884
2.93995	92841
2.94808	90649
2.95620	94073
2.96432	89730
2.97245	89717
2.98057	90200
2.98868	83862
2.99682	84917
3.00493	84624
3.01307	83241
3.02118	85388
3.02930	78632
3.03743	74572
3.04555	77992
3.05368	73014
3.06180	76273
3.06992	80669
3.07805	101604
3.08617	299689
3.09430	723164
3.10242	1296854
3.11053	2095484
3.11867	2047909
3.12678	1474086
3.13490	1101019
3.14303	884310
3.15115	762685
3.15928	638136
3.16740	608265
3.17552	593823
3.18365	773458
3.19177	1490311
3.19990	1988221
3.20802	1647563
3.21613	1270146
3.22427	1034778
3.23238	893678
3.24052	792764
3.24863	742625
3.25675	660783
3.26488	614098
3.27300	565559
3.28112	529021
3.28925	556286
3.29737	769186
3.30550	1285083
3.31362	1737090
3.32173	1657928
3.32987	1343698
3.33798	1048232
3.34612	870840
3.35423	748453
3.36235	683699
3.37048	627948
3.37860	582607
3.38672	529693
3.39485	507202
3.40297	484427
3.41110	453308
3.41922	426996
3.42733	407485
3.43547	413139
3.44358	403285
3.45172	393426
3.45983	381420
3.46795	436223
3.47608	476419
3.48420	453068
3.49233	411379
3.50045	364515
3.50857	343959
3.51670	316147
3.52482	312836
3.53293	316370
3.54107	322594
3.54918	325342
3.55732	322891
3.56543	282600
3.57355	275282
3.58168	265102
3.58980	259663
3.59793	248998
3.60605	243307
3.61417	241554
3.62230	239040
3.63042	244351
3.63853	234584
3.64667	244205
3.65478	283907
3.66292	1005514
3.67103	5136643
3.67915	1.30942E+07
3.68728	1.672954E+07
3.69540	1.349457E+07
3.70353	9286022
3.71165	6880322
3.71977	5671248
3.72790	4820013
3.73602	4213018
3.74415	3744136
3.75227	3375490
3.76038	3043562
3.76852	2794917
3.77663	2587112
3.78475	2399971
3.79288	2280417
3.80100	2165481
3.80913	2145132
3.81725	2234554
3.82537	2216395
3.83350	2025767
3.84162	1855542
3.84975	1714310
3.85787	1642675
3.86598	1608041
3.87412	1514252
3.88223	1436362
3.89037	1362506
3.89848	1298064
3.90660	1262781
3.91473	1291803
3.92285	1407178
3.93097	1571405
3.93910	1587169
3.94722	1467901
3.95535	1411968
3.96347	1588869
3.97158	1728213
3.97972	1624172
3.98783	1401795
3.99597	1282912
4.00408	1458735
4.01220	1841339
4.02033	2117215
4.02845	1921424
4.03657	1580151
4.04470	1317455
4.05282	1199874
4.06095	1128891
4.06907	1051466
4.07718	1021297
4.08532	978803
4.09343	936166
4.10157	923161
4.10968	924076
4.11780	853377
4.12593	823961
4.13405	822918
4.14218	802542
4.15030	797896
4.15842	797160
4.16655	762763
4.17467	771519
4.18278	744473
4.19092	731247
4.19903	707178
4.20717	861605
4.21528	2144398
4.22340	6524206
4.23153	1.412303E+07
4.23965	2.050069E+07
4.24778	2.259005E+07
4.25590	1.931592E+07
4.26402	1.403209E+07
4.27215	1.033553E+07
4.28027	8412450
4.28840	6951028
4.29652	5952753
4.30463	5180369
4.31277	4555149
4.32088	4031255
4.32900	3603452
4.33713	3284868
4.34525	2971403
4.35338	2773291
4.36150	2628000
4.36962	2472974
4.37775	2296845
4.38587	2112615
4.39400	1959908
4.40212	1812253
4.41023	1717760
4.41837	1603549
4.42648	1523744
4.43460	1426426
4.44273	1356236
4.45085	1292479
4.45898	1258075
4.46710	1187229
4.47522	1148053
4.48335	1104357
4.49147	1079783
4.49960	1036015
4.50772	1011853
4.51583	968294
4.52397	933868
4.53208	919797
4.54022	897737
4.54833	865402
4.55645	859957
4.56458	826789
4.57270	808056
4.58082	790094
4.58895	764752
4.59707	758141
4.60520	738362
4.61332	742701
4.62143	736718
4.62957	826600
4.63768	1001360
4.64582	1168316
4.65393	1165770
4.66205	1015911
4.67018	882143
4.67830	811932
4.68642	757735
4.69455	726101
4.70267	683489
4.71080	658995
4.71892	631943
4.72703	616545
4.73517	602860
4.74328	588208
4.75142	585704
4.75953	555028
4.76765	558373
4.77578	551225
4.78390	540341
4.79203	534677
4.80015	570765
4.80827	595335
4.81640	598991
4.82452	589064
4.83263	553089
4.84077	557806
4.84888	567331
4.85702	591197
4.86513	576782
4.87325	542554
4.88138	518533
4.88950	502332
4.89763	486561
4.90575	472514
4.91387	464422
4.92200	451675
4.93012	435113
4.93825	467049
4.94637	530145
4.95448	709507
4.96262	968981
4.97073	1159389
4.97885	1164796
4.98698	1022199
4.99510	851665
5.00323	721442
5.01135	640492
5.01947	610624
5.02760	625310
5.03572	713127
5.04385	846829
5.05197	890238
5.06008	819520
5.06822	742052
5.07633	671040
5.08445	617275
5.09258	591237
5.10070	547161
5.10883	532020
5.11695	515567
5.12507	498966
5.13320	496572
5.14132	480518
5.14945	501086
5.15757	538484
5.16568	607152
5.17382	648243
5.18193	643807
5.19007	589979
5.19818	590285
5.20630	593065
5.21443	601599
5.22255	613640
5.23067	589939
5.23880	533664
5.24692	508891
5.25505	483878
5.26317	459655
5.27128	434440
5.27942	411432
5.28753	402048
5.29567	390717
5.30378	391053
5.31190	379758
5.32003	368003
5.32815	367905
5.33628	364515
5.34440	374406
5.35252	365271
5.36065	356968
5.36877	349839
5.37688	340197
5.38502	350312
5.39313	348515
5.40127	352153
5.40938	348778
5.41750	349709
5.42563	330998
5.43375	326492
5.44188	327984
5.45000	329851
5.45812	344090
5.46625	344957
5.47437	332978
5.48248	328361
5.49062	306057
5.49873	306974
5.50687	291391
5.51498	290192
5.52310	286167
5.53123	286962
5.53935	284438
5.54748	285196
5.55560	305931
5.56372	342449
5.57185	421479
5.57997	482644
5.58810	472641
5.59622	422900
5.60433	379866
5.61247	326931
5.62058	307259
5.62870	300094
5.63683	293838
5.64495	276121
5.65308	285320
5.66120	269834
5.66932	269091
5.67745	272483
5.68557	282738
5.69370	305407
5.70182	325875
5.70993	328553
5.71807	310811
5.72618	298008
5.73432	273770
5.74243	266580
5.75055	261870
5.75868	253339
5.76680	249983
5.77492	242655
5.78305	247655
5.79117	232882
5.79930	236203
5.80742	241075
5.81553	231413
5.82367	229196
5.83178	227504
5.83992	227846
5.84803	226254
5.85615	220940
5.86428	217565
5.87240	221089
5.88052	214696
5.88865	216332
5.89677	209074
5.90490	206511
5.91302	213908
5.92113	212042
5.92927	214842
5.93738	209864
5.94552	224094
5.95363	236119
5.96175	272199
5.96988	320991
5.97800	379224
5.98613	468276
5.99425	586370
6.00237	611055
6.01050	574221
6.01862	484708
6.02673	405321
6.03487	355303
6.04298	316701
6.05112	291099
6.05923	283684
6.06735	263829
6.07548	261815
6.08360	242938
6.09173	234779
6.09985	231291
6.10797	222574
6.11610	220108
6.12422	238327
6.13233	295096
6.14047	424098
6.14858	572422
6.15672	642692
6.16483	602452
6.17295	492030
6.18108	399669
6.18920	352928
6.19733	311789
6.20545	292898
6.21357	254569
6.22170	230454
6.22982	218336
6.23795	212353
6.24607	200357
6.25418	207109
6.26232	212326
6.27043	214433
6.27855	218685
6.28668	213741
6.29480	210680
6.30293	197986
6.31105	200872
6.31917	195911
6.32730	202432
6.33542	198765
6.34355	197126
6.35167	205055
6.35978	204572
6.36792	197565
6.37603	205585
6.38417	206114
6.39228	203898
6.40040	197842
6.40853	197673
6.41665	199370
6.42477	207347
6.43290	196377
6.44102	190660
6.44915	176445
6.45727	158795
6.46538	159761
6.47352	157926
6.48163	148305
6.48977	149121
6.49788	148739
6.50600	152261
6.51413	145637
6.52225	139128
6.53037	149196
6.53850	143428
6.54662	140897
6.55475	137716
6.56287	128705
6.57098	123193
6.57912	132352
6.58723	165619
6.59537	209428
6.60348	252249
6.61160	248905
6.61973	220115
6.62785	187620
6.63598	160648
6.64410	142343
6.65222	135220
6.66035	127387
6.66847	117049
6.67658	115741
6.68472	116070
6.69283	115772
6.70097	118971
6.70908	112306
6.71720	108987
6.72533	108182
6.73345	110925
6.74158	107708
6.74970	105189
6.75782	100628
6.76595	106661
6.77407	101122
6.78220	107465
6.79032	108026
6.79843	105972
6.80657	98701
6.81468	99169
6.82280	107237
6.83093	95236
6.83905	95729
6.84718	95832
6.85530	95834
6.86342	99756
6.87155	103405
6.87967	97777
6.88780	108212
6.89592	118257
6.90403	120488
6.91217	116684
6.92028	104140
6.92840	93496
6.93653	89997
6.94465	84089
6.95278	82247
6.96090	89243
6.96902	91097
6.97715	95413
6.98527	105167
6.99340	105309
7.00152	102211
7.00963	97652
7.01777	92863
7.02588	92370
7.03402	95357
7.04213	95634
7.05025	90942
7.05838	92072
7.06650	81844
7.07462	87106
7.08275	82271
7.09087	86299
7.09900	81141
7.10712	86560
7.11523	92640
7.12337	132226
7.13148	296300
7.13962	870089
7.14773	2132125
7.15585	3925467
7.16398	5224376
7.17210	5004675
7.18022	3445036
7.18835	1836371
7.19647	886894
7.20460	507232
7.21272	381427
7.22083	315454
7.22897	277372
7.23708	257034
7.24522	226790
7.25333	211007
7.26145	197903
7.26958	179184
7.27770	168420
7.28583	158574
7.29395	151320
7.30207	147925
7.31020	142850
7.31832	133359
7.32643	132519
7.33457	124962
7.34268	120008
7.35082	123325
7.35893	114841
7.36705	116556
7.37518	118187
7.38330	126947
7.39143	143904
7.39955	154893
7.40767	162159
7.41580	159801
7.42392	146795
7.43205	127678
7.44017	115388
7.44828	104526
7.45642	100454
7.46453	103354
7.47265	102767
7.48078	108549
7.48890	107600
7.49703	109909
7.50515	103088
7.51327	92320
7.52140	91808
7.52952	90089
7.53765	94077
7.54577	93098
7.55388	101023
7.56202	100136
7.57013	101685
7.57827	114754
7.58638	157921
7.59450	262390
7.60263	448818
7.61075	696547
7.61887	924351
7.62700	1022030
7.63512	973693
7.64325	818447
7.65137	592620
7.65948	423971
7.66762	345896
7.67573	316629
7.68387	318229
7.69198	302631
7.70010	296711
7.70823	267646
7.71635	246358
7.72447	221146
7.73260	204154
7.74072	186587
7.74885	176872
7.75697	170491
7.76508	166241
7.77322	157797
7.78133	148471
7.78947	139054
7.79758	134087
7.80570	127406
7.81383	138379
7.82195	142587
7.83008	153595
7.83820	151904
7.84632	146715
7.85445	133557
7.86257	128806
7.87068	124633
7.87882	123059
7.88693	124855
7.89507	126945
7.90318	123206
7.91130	129525
7.91943	135928
7.92755	138021
7.93568	148049
7.94380	160918
7.95192	167216
7.96005	162868
7.96817	150517
7.97628	144944
7.98442	128186
7.99253	110844
8.00067	103821
8.00878	98469
8.01690	94469
8.02503	88914
8.03315	92624
8.04128	88903
8.04940	87899
8.05752	84986
8.06565	83273
8.07377	80536
8.08190	74513
8.09002	71131
8.09813	73312
8.10627	70057
8.11438	74756
8.12250	72353
8.13063	77225
8.13875	89729
8.14688	112811
8.15500	145103
8.16312	158501
8.17125	151618
8.17937	133468
8.18750	105307
8.19562	93297
8.20373	87767
8.21187	80362
8.21998	77919
8.22812	72469
8.23623	71407
8.24435	74787
8.25248	75577
8.26060	70826
8.26872	69224
8.27685	69091
8.28497	64701
8.29310	65385
8.30122	62048
8.30933	64034
8.31747	62831
8.32558	64478
8.33372	63541
8.34183	61244
8.34995	57433
8.35808	62999
8.36620	61257
8.37432	59959
8.38245	64364
8.39057	66080
8.39870	56860
8.40682	54895
8.41493	52844
8.42307	57753
8.43118	60221
8.43932	58797
8.44743	54535
8.45555	58038
8.46368	55289
8.47180	52979
8.47993	55389
8.48805	59540
8.49617	69878
8.50430	85438
8.51242	106845
8.52053	118046
8.52867	115280
8.53678	107651
8.54492	84542
8.55303	67563
8.56115	70157
8.56928	62939
8.57740	60738
8.58553	60457
8.59365	58989
8.60177	55988
8.60990	53797
8.61802	56121
8.62615	57764
8.63427	53989
8.64238	58521
8.65052	61303
8.65863	65581
8.66675	72635
8.67488	85915
8.68300	87519
8.69113	79219
8.69925	79992
8.70737	70694
8.71550	72162
8.72362	71923
8.73175	69920
8.73987	65884
8.74798	65507
8.75612	62285
8.76423	63387
8.77235	59768
8.78048	64765
8.78860	81975
8.79673	142853
8.80485	219637
8.81297	277077
8.82110	322554
8.82922	297149
8.83735	249013
8.84547	189922
8.85358	149525
8.86172	123934
8.86983	113065
8.87797	103979
8.88608	91720
8.89420	94098
8.90233	99268
8.91045	122239
8.91857	158128
8.92670	173975
8.93482	191893
8.94295	166069
8.95107	139084
8.95918	112440
8.96732	99136
8.97543	93560
8.98357	88016
8.99168	90462
8.99980	95274
9.00793	100091
9.01605	100415
9.02417	92838
9.03230	85053
9.04042	82983
9.04855	77119
9.05667	73393
9.06478	80541
9.07292	73690
9.08103	66711
9.08917	63598
9.09728	65813
9.10540	65572
9.11353	69965
9.12165	84612
9.12978	97266
9.13790	111819
9.14602	114116
9.15415	111846
9.16227	100316
9.17038	87852
9.17852	77248
9.18663	71933
9.19477	65793
9.20288	66487
9.21100	64059
9.21913	65131
9.22725	68332
9.23538	68523
9.24350	65202
9.25162	60381
9.25975	59236
9.26787	56628
9.27600	59155
9.28412	49877
9.29223	59132
9.30037	55429
9.30848	51153
9.31660	59267
9.32473	52020
9.33285	54029
9.34098	55130
9.34910	51844
9.35722	50591
9.36535	52726
9.37347	52940
9.38160	55110
9.38972	51973
9.39783	51549
9.40597	46426
9.41408	46334
9.42220	51061
9.43033	53882
9.43845	62265
9.44658	73299
9.45470	87986
9.46282	111200
9.47095	127424
9.47907	131967
9.48720	128747
9.49532	123800
9.50343	111782
9.51157	102048
9.51968	88478
9.52782	86509
9.53593	82786
9.54405	86692
9.55218	83597
9.56030	75258
9.56842	68348
9.57655	67025
9.58467	59933
9.59280	60968
9.60092	62302
9.60903	58292
9.61717	60373
9.62528	61159
9.63342	63019
9.64153	55661
9.64965	53973
9.65778	55753
9.66590	48947
9.67403	46955
9.68215	49132
9.69027	46404
9.69840	47860
9.70652	54355
9.71463	57265
9.72277	53886
9.73088	56787
9.73902	50087
9.74713	48278
9.75525	45715
9.76338	47830
9.77150	52314
9.77963	46555
9.78775	45215
9.79587	45902
9.80400	42681
9.81212	44021
9.82023	44651
9.82837	44717
9.83648	46095
9.84462	46801
9.85273	48806
9.86085	49973
9.86898	48984
9.87710	45950
9.88523	44662
9.89335	46552
9.90147	43074
9.90960	42898
9.91772	42999
9.92585	42887
9.93397	45972
9.94208	45694
9.95022	50088
9.95833	51974
9.96645	54452
9.97458	59821
9.98270	65721
9.99083	83574
9.99895	84415
10.00707	100083
10.01520	104863
10.02332	100773
10.03145	97805
10.03957	91132
10.04768	83577
10.05582	71630
10.06393	69589
10.07207	65431
10.08018	59039
10.08830	56535
10.09643	53507
10.10455	53850
10.11267	50204
10.12080	50648
10.12892	49236
10.13705	46364
10.14517	46359
10.15328	51924
10.16142	47213
10.16953	47529
10.17767	52691
10.18578	44757
10.19390	47192
10.20203	48571
10.21015	45566
10.21827	48780
10.22640	44846
10.23452	50914
10.24265	61926
10.25077	114532
10.25888	281472
10.26702	767558
10.27513	1755506
10.28327	3245455
10.29138	5129152
10.29950	7240134
10.30763	1.025432E+07
10.31575	1.443199E+07
10.32388	2.025799E+07
10.33200	2.565344E+07
10.34012	2.835595E+07
10.34825	2.602998E+07
10.35637	1.905476E+07
10.36448	1.135188E+07
10.37262	6391600
10.38073	4154021
10.38887	3212817
10.39698	2782983
10.40510	2541491
10.41323	2315957
10.42135	2065711
10.42948	1825421
10.43760	1593246
10.44572	1372469
10.45385	1227070
10.46197	1107706
10.47008	973618
10.47822	896342
10.48633	816050
10.49447	752942
10.50258	707241
10.51070	653107
10.51883	629705
10.52695	591835
10.53508	561789
10.54320	561779
10.55132	543505
10.55945	515972
10.56757	508713
10.57570	473624
10.58382	454599
10.59193	449042
10.60007	406718
10.60818	395522
10.61630	377531
10.62443	358133
10.63255	337857
10.64068	317259
10.64880	316192
10.65692	297561
10.66505	292754
10.67317	280578
10.68130	274491
10.68942	263765
10.69753	260053
10.70567	258121
10.71378	248283
10.72192	254458
10.73003	252975
10.73815	241781
10.74628	237137
10.75440	242083
10.76252	227237
10.77065	227086
10.77877	212139
10.78690	214529
10.79502	205334
10.80313	203960
10.81127	190595
10.81938	191165
10.82752	190958
10.83563	182602
10.84375	188475
10.85188	178631
10.86000	168927
10.86812	176333
10.87625	163465
10.88437	165813
10.89250	153541
10.90062	151083
10.90873	147973
10.91687	147154
10.92498	142781
10.93312	146894
10.94123	143887
10.94935	136991
10.95748	143304
10.96560	139757
10.97373	135786
10.98185	136181
10.98997	134388
10.99810	136146
11.00622	125529
11.01433	127648
11.02247	122931
11.03058	132134
11.03872	129522
11.04683	123264
11.05495	125617
11.06308	129109
11.07120	124701
11.07933	116405
11.08745	117455
11.09557	117265
11.10370	119598
11.11182	122354
11.11995	116275
11.12807	105657
11.13618	102585
11.14432	92757
11.15243	86911
11.16055	82187
11.16868	80607
11.17680	69964
11.18493	70489
11.19305	72631
11.20117	62558
11.20930	71706
11.21742	69594
11.22555	61814
11.23367	65635
11.24178	62830
11.24992	57248
11.25803	60990
11.26615	56596
11.27428	56448
11.28240	51420
11.29053	60146
11.29865	53564
11.30677	53157
11.31490	55580
11.32302	66132
11.33115	79461
11.33927	125331
11.34738	203750
11.35552	347484
11.36363	541689
11.37177	689164
11.37988	762961
11.38800	729093
11.39613	599072
11.40425	463244
11.41237	354102
11.42050	279324
11.42862	219989
11.43675	183860
11.44487	159495
11.45298	139506
11.46112	124962
11.46923	120784
11.47737	114603
11.48548	107745
11.49360	103750
11.50173	104795
11.50985	113935
11.51797	135446
11.52610	169233
11.53422	210104
11.54235	234087
11.55047	245515
11.55858	220193
11.56672	187788
11.57483	151152
11.58297	148283
11.59108	152565
11.59920	188516
11.60733	246826
11.61545	304582
11.62358	348768
11.63170	327528
11.63982	282535
11.64795	231952
11.65607	180040
11.66418	145588
11.67232	122525
11.68043	109136
11.68857	102121
11.69668	99985
11.70480	103260
11.71293	108932
11.72105	116212
11.72918	127862
11.73730	121936
11.74542	108790
11.75355	94427
11.76167	87700
11.76980	80081
11.77792	76394
11.78603	74734
11.79417	78504
11.80228	70448
11.81040	66774
11.81853	61591
11.82665	63895
11.83478	63027
11.84290	62270
11.85102	66580
11.85915	64787
11.86727	65835
11.87540	58600
11.88352	59668
11.89163	61883
11.89977	58248
11.90788	57686
11.91600	60989
11.92413	64469
11.93225	61525
11.94038	64350
11.94850	68784
11.95662	63238
11.96475	60599
11.97287	54313
11.98100	52085
11.98912	52744
11.99723	52293
12.00537	47977
12.01348	47380
12.02162	48537
12.02973	51330
12.03785	53847
12.04598	50570
12.05410	46750
12.06222	52781
12.07035	52475
12.07847	54339
12.08660	53644
12.09472	54781
12.10283	51752
12.11097	54487
12.11908	53470
12.12722	60494
12.13533	62287
12.14345	80165
12.15158	107070
12.15970	134056
12.16783	154967
12.17595	168586
12.18407	169427
12.19220	140857
12.20032	113862
12.20843	90775
12.21657	80784
12.22468	64968
12.23282	65531
12.24093	60976
12.24905	60627
12.25718	53193
12.26530	52565
12.27343	51105
12.28155	52271
12.28967	50427
12.29780	46454
12.30592	55640
12.31403	44717
12.32217	45089
12.33028	45357
12.33842	47601
12.34653	49460
12.35465	47036
12.36278	48063
12.37090	46871
12.37903	45664
12.38715	51624
12.39527	62414
12.40340	93171
12.41152	147723
12.41965	221332
12.42777	295406
12.43588	326140
12.44402	289614
12.45213	225098
12.46025	179219
12.46838	131865
12.47650	110464
12.48463	90036
12.49275	82030
12.50087	75852
12.50900	71144
12.51712	67049
12.52525	62873
12.53337	71829
12.54148	74648
12.54962	98114
12.55773	122462
12.56585	128103
12.57398	132828
12.58210	122873
12.59023	111960
12.59835	103898
12.60647	89247
12.61460	80537
12.62272	78720
12.63085	65688
12.63897	65320
12.64708	66253
12.65522	60642
12.66333	60093
12.67147	59787
12.67958	57129
12.68770	56601
12.69583	51355
12.70395	48106
12.71207	54048
12.72020	52597
12.72832	49821
12.73645	52809
12.74457	53904
12.75268	50370
12.76082	55997
12.76893	54118
12.77707	52010
12.78518	49798
12.79330	53581
12.80143	43915
12.80955	49542
12.81768	47436
12.82580	43479
12.83392	44600
12.84205	41943
12.85017	40536
12.85828	43113
12.86642	38944
12.87453	40081
12.88267	45930
12.89078	38878
12.89890	39687
12.90703	39280
12.91515	40446
12.92328	40108
12.93140	41134
12.93952	42971
12.94765	41538
12.95577	40070
12.96390	42948
12.97202	43985
12.98013	48250
12.98827	50331
12.99638	49988
13.00450	46965
13.01263	42007
13.02075	47659
13.02888	42849
13.03700	42685
13.04512	41554
13.05325	44005
13.06137	39897
13.06950	44488
13.07762	44837
13.08573	46259
13.09387	49127
13.10198	47545
13.11010	47606
13.11823	44654
13.12635	42441
13.13448	42550
13.14260	45232
13.15072	41095
13.15885	41325
13.16697	44047
13.17510	43896
13.18322	44891
13.19133	45901
13.19947	48958
13.20758	41047
13.21572	49017
13.22383	48043
13.23195	46060
13.24008	48907
13.24820	51518
13.25632	53944
13.26445	54966
13.27257	54010
13.28070	55129
13.28882	50152
13.29693	45835
13.30507	48019
13.31318	45981
13.32132	43593
13.32943	42016
13.33755	42611
13.34568	40062
13.35380	34212
13.36192	38595
13.37005	38505
13.37817	37982
13.38630	38216
13.39442	34376
13.40253	39242
13.41067	38106
13.41878	38472
13.42692	36792
13.43503	40506
13.44315	39601
13.45128	36172
13.45940	41048
13.46753	38793
13.47565	40331
13.48377	39741
13.49190	41978
13.50002	41232
13.50813	40742
13.51627	41153
13.52438	45513
13.53252	48776
13.54063	47619
13.54875	48828
13.55688	47655
13.56500	42315
13.57313	42257
13.58125	37655
13.58937	40825
13.59750	50383
13.60562	56857
13.61375	62965
13.62187	79639
13.62998	77876
13.63812	79453
13.64623	70321
13.65435	62648
13.66248	53578
13.67060	51489
13.67873	45157
13.68685	44062
13.69497	43072
13.70310	41541
13.71122	41346
13.71935	40980
13.72747	47149
13.73558	39296
13.74372	42873
13.75183	43055
13.75995	55494
13.76808	68538
13.77620	83534
13.78433	108169
13.79245	143540
13.80057	178679
13.80870	211596
13.81682	221250
13.82495	236743
13.83307	244243
13.84118	286789
13.84932	351624
13.85743	405575
13.86557	405187
13.87368	373760
13.88180	313782
13.88993	246819
13.89805	197111
13.90617	151118
13.91430	127245
13.92242	106664
13.93055	100227
13.93867	92360
13.94678	88474
13.95492	78218
13.96303	74916
13.97117	67054
13.97928	71289
13.98740	69622
13.99553	64247
14.00365	67782
14.01178	68222
14.01990	71475
14.02802	67568
14.03615	63841
14.04427	60578
14.05238	57784
14.06052	53738
14.06863	56492
14.07677	53680
14.08488	59924
14.09300	53166
14.10113	54729
14.10925	51314
14.11738	50337
14.12550	52165
14.13362	51601
14.14175	52790
14.14987	47531
14.15798	51515
14.16612	49572
14.17423	52777
14.18237	54868
14.19048	55018
14.19860	53890
14.20673	58120
14.21485	66058
14.22298	73099
14.23110	82438
14.23922	82580
14.24735	92330
14.25547	94857
14.26360	99944
14.27172	107243
14.27983	113387
14.28797	102634
14.29608	87626
14.30420	76067
14.31233	66709
14.32045	58978
14.32858	59079
14.33670	57948
14.34482	51609
14.35295	55873
14.36107	53647
14.36920	51634
14.37732	50426
14.38543	48260
14.39357	52470
14.40168	62963
14.40980	73024
14.41793	88683
14.42605	109258
14.43418	115830
14.44230	115024
14.45042	105865
14.45855	95484
14.46667	77370
14.47480	65018
14.48292	61696
14.49103	59007
14.49917	58638
14.50728	62823
14.51542	59257
14.52353	55207
14.53165	59839
14.53978	52997
14.54790	49601
14.55602	47370
14.56415	52908
14.57227	48039
14.58040	47635
14.58852	52002
14.59663	50509
14.60477	44905
14.61288	44522
14.62102	39777
14.62913	44133
14.63725	46157
14.64538	42891
14.65350	37790
14.66163	42691
14.66975	39401
14.67787	38577
14.68600	41197
14.69412	37354
14.70223	37706
14.71037	39743
14.71848	41667
14.72662	35549
14.73473	42439
14.74285	44112
14.75098	41868
14.75910	48276
14.76723	43648
14.77535	43227
14.78347	50546
14.79160	72912
14.79972	159288
14.80783	462705
14.81597	1244129
14.82408	2886596
14.83222	5293282
14.84033	7953970
14.84845	9607596
14.85658	9414936
14.86470	7617255
14.87283	5296170
14.88095	3110154
14.88907	1911990
14.89720	1249086
14.90532	914078
14.91345	739816
14.92157	643731
14.92968	566837
14.93782	498818
14.94593	460378
14.95405	412299
14.96218	376415
14.97030	351708
14.97843	336437
14.98655	311319
14.99467	300618
15.00280	292570
15.01092	269520
15.01905	251637
15.02717	238795
15.03528	233963
15.04342	214276
15.05153	213547
15.05967	212073
15.06778	198481
15.07590	187795
15.08403	181060
15.09215	172123
15.10027	165595
15.10840	155282
15.11652	167234
15.12465	166358
15.13277	171705
15.14088	186526
15.14902	208873
15.15713	215086
15.16527	210897
15.17338	183845
15.18150	155081
15.18963	117569
15.19775	97113
15.20587	84567
15.21400	83262
15.22212	71295
15.23025	76919
15.23837	66216
15.24648	62814
15.25462	62877
15.26273	62238
15.27087	57637
15.27898	65005
15.28710	60419
15.29523	61295
15.30335	58670
15.31148	59756
15.31960	53214
15.32772	53554
15.33585	53458
15.34397	59485
15.35208	53042
15.36022	53720
15.36833	55402
15.37647	55267
15.38458	57792
15.39270	60876
15.40083	59534
15.40895	61542
15.41708	57916
15.42520	53760
15.43332	52255
15.44145	56398
15.44957	53468
15.45770	49968
15.46582	51936
15.47393	51474
15.48207	56049
15.49018	60047
15.49830	73135
15.50643	99831
15.51455	127565
15.52268	158751
15.53080	168944
15.53892	169271
15.54705	160119
15.55517	131833
15.56330	100300
15.57142	78883
15.57953	74963
15.58767	65510
15.59578	61029
15.60390	57786
15.61203	54887
15.62015	60595
15.62828	56968
15.63640	58998
15.64452	55206
15.65265	52026
15.66077	53789
15.66890	51519
15.67702	49953
15.68513	50864
15.69327	49682
15.70138	46653
15.70952	45203
15.71763	44802
15.72575	44552
15.73388	47198
15.74200	43203
15.75012	47086
15.75825	66859
15.76637	92145
15.77450	178588
15.78262	339958
15.79073	539755
15.79887	745137
15.80698	802130
15.81512	706687
15.82323	531657
15.83135	367838
15.83948	242428
15.84760	169584
15.85572	135150
15.86385	116207
15.87197	106442
15.88010	89994
15.88822	90293
15.89633	85402
15.90447	84056
15.91258	73597
15.92072	74582
15.92883	75634
15.93695	73100
15.94508	71605
15.95320	65847
15.96133	69212
15.96945	63123
15.97757	62781
15.98570	59092
15.99382	65751
16.00193	62037
16.01007	67607
16.01818	67118
16.02632	74351
16.03443	78915
16.04255	80410
16.05068	89129
16.05880	82458
16.06693	76243
16.07505	70464
16.08317	64032
16.09130	59252
16.09942	55771
16.10755	53493
16.11567	49959
16.12378	53481
16.13192	53316
16.14003	54272
16.14815	55879
16.15628	62218
16.16440	71423
16.17253	72648
16.18065	77504
16.18877	65634
16.19690	61166
16.20502	58717
16.21315	54274
16.22127	62753
16.22938	64685
16.23752	62491
16.24563	61915
16.25375	56539
16.26188	53710
16.27000	48051
16.27813	50278
16.28625	48758
16.29437	52124
16.30250	52425
16.31062	57322
16.31875	61052
16.32687	65985
16.33498	69616
16.34312	65585
16.35123	64647
16.35937	60813
16.36748	58470
16.37560	56656
16.38373	54814
16.39185	50877
16.39997	53266
16.40810	49737
16.41622	50132
16.42435	50266
16.43247	46922
16.44058	56279
16.44872	70309
16.45683	117957
16.46497	268376
16.47308	607126
16.48120	1198049
16.48933	1832615
16.49745	2260259
16.50558	2282410
16.51370	1919612
16.52182	1276528
16.52995	779761
16.53807	484382
16.54618	333276
16.55432	245934
16.56243	206444
16.57057	177210
16.57868	171202
16.58680	157578
16.59493	146541
16.60305	139381
16.61118	128545
16.61930	118889
16.62742	123770
16.63555	106427
16.64367	100912
16.65178	100975
16.65992	88601
16.66803	95396
16.67617	83759
16.68428	82011
16.69240	85551
16.70053	80642
16.70865	78621
16.71678	74513
16.72490	69910
16.73302	67654
16.74115	61995
16.74927	58128
16.75740	74609
16.76552	78825
16.77363	85826
16.78177	88626
16.78988	90966
16.79800	85832
16.80613	71830
16.81425	67955
16.82238	57694
16.83050	52257
16.83862	57063
16.84675	52362
16.85487	47512
16.86300	45391
16.87112	48295
16.87923	47822
16.88737	48033
16.89548	45201
16.90360	50119
16.91173	42506
16.91985	46827
16.92798	42865
16.93610	46586
16.94422	46126
16.95235	46231
16.96047	46772
16.96860	48349
16.97672	45947
16.98483	42547
16.99297	48987
17.00108	43927
17.00922	44837
17.01733	45332
17.02545	45074
17.03358	47579
17.04170	51920
17.04982	57376
17.05795	69456
17.06607	78519
17.07420	78019
17.08232	83643
17.09043	75316
17.09857	64694
17.10668	57151
17.11482	56273
17.12293	52760
17.13105	54466
17.13918	55584
17.14730	58468
17.15543	54059
17.16355	53178
17.17167	57738
17.17980	54952
17.18792	53709
17.19603	55581
17.20417	47375
17.21228	47181
17.22042	44728
17.22853	45275
17.23665	44627
17.24478	44542
17.25290	46712
17.26103	42031
17.26915	44475
17.27727	48200
17.28540	50572
17.29352	44647
17.30163	43538
17.30977	43836
17.31788	45945
17.32602	45160
17.33413	56119
17.34225	67982
17.35038	83881
17.35850	98867
17.36663	106638
17.37475	108401
17.38287	96959
17.39100	79836
17.39912	71448
17.40725	64219
17.41537	56482
17.42348	58973
17.43162	60313
17.43973	60771
17.44785	57832
17.45598	57906
17.46410	59985
17.47223	56375
17.48035	54887
17.48847	50162
17.49660	50700
17.50472	47427
17.51285	44680
17.52097	46671
17.52908	48917
17.53722	45881
17.54533	48352
17.55347	48671
17.56158	54571
17.56970	71172
17.57783	120382
17.58595	229417
17.59407	475125
17.60220	879252
17.61032	1405835
17.61845	1864068
17.62657	2026546
17.63468	1853315
17.64282	1520162
17.65093	1103095
17.65907	756019
17.66718	514295
17.67530	377028
17.68343	301105
17.69155	248824
17.69967	226657
17.70780	195265
17.71592	179529
17.72405	165386
17.73217	155758
17.74028	141540
17.74842	133369
17.75653	125894
17.76467	119105
17.77278	109787
17.78090	106220
17.78903	101975
17.79715	92831
17.80528	89102
17.81340	85871
17.82152	79567
17.82965	79251
17.83777	75548
17.84588	72956
17.85402	76956
17.86213	83740
17.87027	99729
17.87838	107486
17.88650	117624
17.89463	105016
17.90275	91478
17.91088	80644
17.91900	70943
17.92712	60049
17.93525	56103
17.94337	55510
17.95148	58227
17.95962	54493
17.96773	49320
17.97587	51649
17.98398	51390
17.99210	48846
18.00023	47997
18.00835	51812
18.01648	53337
18.02460	63956
18.03272	79214
18.04085	101435
18.04897	129943
18.05710	159627
18.06522	210947
18.07333	339057
18.08147	653320
18.08958	1241854
18.09770	2017187
18.10583	2714123
18.11395	2965888
18.12208	2757852
18.13020	2213852
18.13832	1643359
18.14645	1159657
18.15457	899013
18.16270	741421
18.17082	647021
18.17893	564420
18.18707	504285
18.19518	437720
18.20332	396909
18.21143	370300
18.21955	342923
18.22768	311290
18.23580	296871
18.24392	286249
18.25205	272997
18.26017	254256
18.26830	239770
18.27642	220587
18.28453	193055
18.29267	168116
18.30078	143342
18.30892	116971
18.31703	96453
18.32515	78636
18.33328	77854
18.34140	72206
18.34953	72403
18.35765	74793
18.36577	70268
18.37390	65296
18.38202	63390
18.39013	60172
18.39827	61303
18.40638	65356
18.41452	63942
18.42263	63782
18.43075	65687
18.43888	70587
18.44700	82779
18.45513	107346
18.46325	154703
18.47137	233912
18.47950	375190
18.48762	520259
18.49573	673111
18.50387	719251
18.51198	655376
18.52012	528207
18.52823	398516
18.53635	281489
18.54448	207100
18.55260	162104
18.56073	131911
18.56885	115699
18.57697	103016
18.58510	95022
18.59322	89402
18.60135	89235
18.60947	89642
18.61758	83861
18.62572	88071
18.63383	83388
18.64195	87964
18.65008	89212
18.65820	83540
18.66633	71103
18.67445	71391
18.68257	62810
18.69070	59605
18.69882	59058
18.70695	54918
18.71507	53065
18.72318	54255
18.73132	54506
18.73943	54173
18.74755	50719
18.75568	48970
18.76380	50196
18.77193	50842
18.78005	51418
18.78817	42049
18.79630	47511
18.80442	47204
18.81255	48319
18.82067	50874
18.82878	44560
18.83692	43990
18.84503	49255
18.85317	47603
18.86128	49371
18.86940	48845
18.87753	46740
18.88565	48428
18.89377	48919
18.90190	47011
18.91002	48146
18.91815	49226
18.92627	53906
18.93438	56543
18.94252	61542
18.95063	63759
18.95877	72378
18.96688	81452
18.97500	82582
18.98313	86825
18.99125	85961
18.99938	79240
19.00750	70081
19.01562	62108
19.02375	57017
19.03187	56073
19.03998	46821
19.04812	56113
19.05623	49730
19.06437	49027
19.07248	50401
19.08060	49419
19.08873	47138
19.09685	56431
19.10498	58365
19.11310	66194
19.12122	75392
19.12935	74692
19.13747	74678
19.14558	62542
19.15372	57400
19.16183	52058
19.16997	49767
19.17808	46301
19.18620	49796
19.19433	43180
19.20245	43532
19.21058	43581
19.21870	43038
19.22682	45059
19.23495	43808
19.24307	42123
19.25120	54279
19.25932	45127
19.26743	46539
19.27557	49680
19.28368	48370
19.29180	50311
19.29993	59879
19.30805	57803
19.31618	68048
19.32430	67529
19.33242	63267
19.34055	63905
19.34867	65477
19.35680	62767
19.36492	81316
19.37303	99955
19.38117	142766
19.38928	162825
19.39742	173260
19.40553	157342
19.41365	133213
19.42178	102869
19.42990	80981
19.43802	69964
19.44615	60769
19.45427	60088
19.46240	59080
19.47052	54184
19.47863	60493
19.48677	59129
19.49488	56201
19.50302	60759
19.51113	61882
19.51925	64478
19.52738	68003
19.53550	69906
19.54362	67272
19.55175	77084
19.55987	75204
19.56800	81230
19.57612	89876
19.58423	109589
19.59237	123577
19.60048	125694
19.60862	130127
19.61673	128657
19.62485	127536
19.63298	134974
19.64110	141167
19.64923	143079
19.65735	162567
19.66547	201197
19.67360	246247
19.68172	305492
19.68983	357383
19.69797	387097
19.70608	384373
19.71422	366854
19.72233	325390
19.73045	297810
19.73858	274789
19.74670	240481
19.75483	220925
19.76295	201892
19.77107	188208
19.77920	176291
19.78732	181264
19.79543	182187
19.80357	194303
19.81168	194985
19.81982	215773
19.82793	212313
19.83605	203155
19.84418	196485
19.85230	180116
19.86043	175148
19.86855	162602
19.87667	178677
19.88480	203617
19.89292	250784
19.90105	330337
19.90917	410982
19.91728	464651
19.92542	472278
19.93353	421939
19.94165	343064
19.94978	273384
19.95790	228559
19.96603	189619
19.97415	182246
19.98227	178871
19.99040	164686
19.99852	165016
20.00665	154866
20.01477	154973
20.02288	152950
20.03102	153703
20.03913	153325
20.04727	149481
20.05538	149480
20.06350	150354
20.07163	148497
20.07975	158374
20.08787	160896
20.09600	174489
20.10412	174747
20.11225	180426
20.12037	178480
20.12848	168007
20.13662	154530
20.14473	150598
20.15287	144404
20.16098	145782
20.16910	160066
20.17723	179277
20.18535	216974
20.19347	267134
20.20160	315339
20.20972	367609
20.21785	377148
20.22597	359496
20.23408	325492
20.24222	279218
20.25033	256621
20.25847	247327
20.26658	259744
20.27470	311820
20.28283	366226
20.29095	428040
20.29908	495255
20.30720	492615
20.31532	470739
20.32345	406413
20.33157	319423
20.33968	276986
20.34782	235954
20.35593	202398
20.36407	173153
20.37218	163758
20.38030	157576
20.38843	149672
20.39655	145217
20.40468	141168
20.41280	139501
20.42092	133947
20.42905	133564
20.43717	134843
20.44530	140429
20.45342	143660
20.46153	141964
20.46967	151581
20.47778	155792
20.48590	146589
20.49403	138432
20.50215	134606
20.51028	127674
20.51840	119736
20.52652	122293
20.53465	122689
20.54277	116820
20.55090	121991
20.55902	116784
20.56713	125266
20.57527	123114
20.58338	128349
20.59150	118220
20.59963	117594
20.60775	113232
20.61588	110114
20.62400	111964
20.63212	109541
20.64025	106737
20.64837	110419
20.65650	115357
20.66462	117580
20.67273	113408
20.68087	113012
20.68898	113905
20.69712	111754
20.70523	108204
20.71335	112159
20.72148	105369
20.72960	111609
20.73772	103607
20.74585	104365
20.75397	108534
20.76210	106019
20.77022	111756
20.77833	115720
20.78647	122956
20.79458	138808
20.80272	172061
20.81083	242358
20.81895	350534
20.82708	493608
20.83520	580465
20.84333	624363
20.85145	546425
20.85957	412254
20.86770	288387
20.87582	216051
20.88393	163162
20.89207	139585
20.90018	139618
20.90832	125174
20.91643	118410
20.92455	118834
20.93268	115845
20.94080	118909
20.94893	121295
20.95705	124830
20.96517	120533
20.97330	118279
20.98142	120351
20.98953	114803
20.99767	108441
21.00578	105538
21.01392	98137
21.02203	105440
21.03015	97923
21.03828	99196
21.04640	103207
21.05453	100875
21.06265	105550
21.07077	99935
21.07890	103338
21.08702	95144
21.09515	99722
21.10327	95725
21.11138	95410
21.11952	95781
21.12763	96817
21.13575	96785
21.14388	101524
21.15200	110806
21.16013	137442
21.16825	171059
21.17637	189733
21.18450	200116
21.19262	194673
21.20075	167555
21.20887	136946
21.21698	124517
21.22512	118929
21.23323	102767
21.24135	101421
21.24948	99418
21.25760	91134
21.26573	92678
21.27385	86954
21.28197	88567
21.29010	83077
21.29822	87644
21.30635	85145
21.31447	83687
21.32258	79100
21.33072	83169
21.33883	86753
21.34697	77427
21.35508	81238
21.36320	83756
21.37133	81386
21.37945	87753
21.38757	88529
21.39570	95777
21.40382	113277
21.41195	124826
21.42007	135562
21.42818	164732
21.43632	165635
21.44443	148501
21.45257	137381
21.46068	125660
21.46880	114086
21.47693	103834
21.48505	97040
21.49318	99126
21.50130	90693
21.50942	88557
21.51755	85716
21.52567	83666
21.53378	77325
21.54192	80710
21.55003	78856
21.55817	82630
21.56628	78607
21.57440	77196
21.58253	83067
21.59065	88834
21.59878	103960
21.60690	107080
21.61502	111685
21.62315	110046
21.63127	116764
21.63938	96304
21.64752	97984
21.65563	103964
21.66377	108256
21.67188	121775
21.68000	135922
21.68813	140972
21.69625	146095
21.70438	148308
21.71250	138565
21.72062	121078
21.72875	111916
21.73687	98802
21.74500	88373
21.75312	82499
21.76123	81745
21.76937	80555
21.77748	76446
21.78560	75930
21.79373	75949
21.80185	79321
21.80998	81565
21.81810	74414
21.82622	81327
21.83435	74422
21.84247	80307
21.85060	87871
21.85872	91844
21.86683	95792
21.87497	98231
21.88308	98355
21.89122	95082
21.89933	86863
21.90745	83209
21.91558	82398
21.92370	78135
21.93182	80650
21.93995	85121
21.94807	77052
21.95620	72278
21.96432	72621
21.97243	67785
21.98057	65180
21.98868	65631
21.99682	64452
22.00493	66557
22.01305	66885
22.02118	62477
22.02930	63961
22.03742	66508
22.04555	69327
22.05367	72910
22.06180	72638
22.06992	75019
22.07803	69189
22.08617	69980
22.09428	68297
22.10242	65637
22.11053	66026
22.11865	68441
22.12678	65962
22.13490	67652
22.14303	64074
22.15115	63777
22.15927	61240
22.16740	59615
22.17552	58527
22.18363	58749
22.19177	63083
22.19988	59767
22.20802	57334
22.21613	58391
22.22425	57529
22.23238	60183
22.24050	62786
22.24863	61687
22.25675	62439
22.26487	75181
22.27300	71478
22.28112	64883
22.28923	67831
22.29737	73892
22.30548	76372
22.31362	73808
22.32173	73489
22.32985	68024
22.33798	73470
22.34610	70934
22.35423	71915
22.36235	65958
22.37047	62826
22.37860	64752
22.38672	63834
22.39485	73255
22.40297	84737
22.41108	99995
22.41922	130521
22.42733	169942
22.43545	198398
22.44358	203199
22.45170	195840
22.45983	168493
22.46795	127193
22.47607	110158
22.48420	95656
22.49232	92894
22.50045	98439
22.50857	113192
22.51668	114886
22.52482	119405
22.53293	118871
22.54107	113288
22.54918	101524
22.55730	91537
22.56543	81378
22.57355	77005
22.58167	70483
22.58980	68577
22.59792	65912
22.60605	66456
22.61417	58577
22.62228	58468
22.63042	57975
22.63853	61066
22.64667	61085
22.65478	60836
22.66290	60985
22.67103	59883
22.67915	64976
22.68728	72386
22.69540	72809
22.70352	79236
22.71165	93185
22.71977	119236
22.72788	133030
22.73602	156472
22.74413	153769
22.75227	137274
22.76038	119993
22.76850	105904
22.77663	90255
22.78475	89471
22.79288	100873
22.80100	135955
22.80912	179250
22.81725	226845
22.82537	266972
22.83348	295871
22.84162	262217
22.84973	240959
22.85787	178613
22.86598	138682
22.87410	113639
22.88223	106717
22.89035	108501
22.89848	114480
22.90660	112901
22.91472	119232
22.92285	141094
22.93097	159336
22.93910	189033
22.94722	197545
22.95533	184928
22.96347	170035
22.97158	132778
22.97970	112433
22.98783	92707
22.99595	81081
23.00408	74519
23.01220	65211
23.02032	68558
23.02845	60714
23.03657	59529
23.04470	56880
23.05282	58726
23.06093	55653
23.06907	58397
23.07718	60428
23.08530	64319
23.09343	62754
23.10155	65969
23.10968	59768
23.11780	60039
23.12592	59445
23.13405	55184
23.14217	55568
23.15030	54154
23.15842	56807
23.16653	59301
23.17467	56663
23.18278	59049
23.19092	52663
23.19903	59472
23.20715	59283
23.21528	54042
23.22340	48359
23.23152	51396
23.23965	48732
23.24777	53095
23.25590	62990
23.26402	65494
23.27213	72540
23.28027	77423
23.28838	84505
23.29652	83187
23.30463	76471
23.31275	72776
23.32088	62720
23.32900	59664
23.33713	57231
23.34525	68260
23.35337	76796
23.36150	96498
23.36962	108584
23.37773	128969
23.38587	139299
23.39398	143930
23.40212	137262
23.41023	134780
23.41835	123113
23.42648	100931
23.43460	92248
23.44273	92793
23.45085	83919
23.45897	84384
23.46710	79806
23.47522	72351
23.48333	71426
23.49147	72131
23.49958	64344
23.50772	68481
23.51583	62694
23.52395	65409
23.53208	58578
23.54020	67421
23.54833	59221
23.55645	62349
23.56457	64700
23.57270	71741
23.58082	73450
23.58895	87006
23.59707	90042
23.60518	105373
23.61332	110828
23.62143	121760
23.62955	119672
23.63768	101362
23.64580	99527
23.65393	85844
23.66205	80310
23.67017	70961
23.67830	69262
23.68642	70175
23.69455	65700
23.70267	63900
23.71078	59563
23.71892	56060
23.72703	51678
23.73517	52720
23.74328	54091
23.75140	52528
23.75953	52579
23.76765	67728
23.77577	87387
23.78390	141010
23.79202	248247
23.80015	385342
23.80827	534763
23.81638	635198
23.82452	643748
23.83263	580313
23.84077	489828
23.84888	391541
23.85700	304101
23.86513	253056
23.87325	211519
23.88137	185882
23.88950	162396
23.89762	149990
23.90575	145467
23.91387	148312
23.92198	160038
23.93012	172080
23.93823	179539
23.94637	161539
23.95448	150069
23.96260	136617
23.97073	118372
23.97885	100717
23.98698	93136
23.99510	91357
24.00322	85172
24.01135	87978
24.01947	89233
24.02758	102514
24.03572	116406
24.04383	138586
24.05197	154251
24.06008	149901
24.06820	139448
24.07633	118132
24.08445	99849
24.09258	82236
24.10070	74517
24.10882	70013
24.11695	71528
24.12507	68560
24.13318	66370
24.14132	64611
24.14943	71950
24.15757	75286
24.16568	74010
24.17380	82759
24.18193	81766
24.19005	85355
24.19818	86300
24.20630	87514
24.21442	82349
24.22255	80615
24.23067	78044
24.23880	73290
24.24692	68433
24.25503	69234
24.26317	64820
24.27128	65624
24.27940	58568
24.28753	59932
24.29565	57726
24.30378	64739
24.31190	68386
24.32002	66624
24.32815	61885
24.33627	67872
24.34440	69156
24.35252	68648
24.36063	64974
24.36877	65313
24.37688	59044
24.38502	61362
24.39313	60448
24.40125	55923
24.40938	59744
24.41750	59130
24.42562	61035
24.43375	66434
24.44187	60887
24.45000	63461
24.45812	57511
24.46623	58102
24.47437	58523
24.48248	57509
24.49062	60822
24.49873	58789
24.50685	56073
24.51498	58507
24.52310	55552
24.53122	57585
24.53935	66934
24.54747	69805
24.55560	75938
24.56372	82012
24.57183	94942
24.57997	86393
24.58808	87728
24.59622	85057
24.60433	83854
24.61245	76959
24.62058	68270
24.62870	62565
24.63683	62500
24.64495	58969
24.65307	56553
24.66120	55759
24.66932	54942
24.67743	53415
24.68557	52854
24.69368	50234
24.70182	52202
24.70993	56539
24.71805	54390
24.72618	58532
24.73430	57925
24.74243	55050
24.75055	65052
24.75867	56827
24.76680	59685
24.77492	57511
24.78305	64064
24.79117	70192
24.79928	74503
24.80742	78391
24.81553	72174
24.82365	80751
24.83178	73814
24.83990	81121
24.84803	98901
24.85615	124495
24.86427	170959
24.87240	234798
24.88052	365484
24.88865	522989
24.89677	716606
24.90488	930182
24.91302	1039964
24.92113	1004292
24.92925	839874
24.93738	634330
24.94550	430208
24.95363	291442
24.96175	202724
24.96987	141290
24.97800	116371
24.98612	97890
24.99425	86854
25.00237	84780
25.01048	74076
25.01862	74141
25.02673	67994
25.03487	72686
25.04298	68736
25.05110	69724
25.05923	63965
25.06735	71110
25.07547	74985
25.08360	69075
25.09172	75165
25.09985	80632
25.10797	107549
25.11608	184020
25.12422	387232
25.13233	837598
25.14047	1754592
25.14858	2848168
25.15670	4034586
25.16483	4670250
25.17295	4772531
25.18107	3779876
25.18920	2733995
25.19732	1711909
25.20545	1002477
25.21357	576078
25.22168	346324
25.22982	229656
25.23793	177079
25.24607	164147
25.25418	159002
25.26230	183880
25.27043	223424
25.27855	267050
25.28668	304303
25.29480	301433
25.30292	283488
25.31105	237754
25.31917	191017
25.32728	148346
25.33542	116157
25.34353	95303
25.35167	85324
25.35978	77377
25.36790	77040
25.37603	73659
25.38415	71162
25.39228	68053
25.40040	71042
25.40852	63722
25.41665	64566
25.42477	63280
25.43290	64819
25.44102	72624
25.44913	60900
25.45727	64097
25.46538	59903
25.47350	61658
25.48163	59349
25.48975	63162
25.49788	60129
25.50600	60618
25.51412	55624
25.52225	64445
25.53037	56911
25.53850	54907
25.54662	56271
25.55473	51909
25.56287	57835
25.57098	55156
25.57910	56837
25.58723	54829
25.59535	52344
25.60348	56112
25.61160	56272
25.61972	57462
25.62785	56245
25.63597	52701
25.64410	55020
25.65222	47817
25.66033	50770
25.66847	52484
25.67658	55106
25.68472	51454
25.69283	47670
25.70095	57815
25.70908	52626
25.71720	53441
25.72532	54889
25.73345	50589
25.74157	55659
25.74970	58720
25.75782	50772
25.76593	53514
25.77407	48715
25.78218	46670
25.79032	46016
25.79843	49628
25.80655	44031
25.81468	44304
25.82280	44920
25.83093	49704
25.83905	47931
25.84717	50007
25.85530	46706
25.86342	49232
25.87153	46656
25.87967	45212
25.88778	46176
25.89592	49660
25.90403	49188
25.91215	48279
25.92028	45703
25.92840	50017
25.93653	47833
25.94465	48400
25.95277	47157
25.96090	47708
25.96902	56144
25.97713	66721
25.98527	64391
25.99338	63079
26.00152	57359
26.00963	55829
26.01775	52320
26.02588	48569
26.03400	48143
26.04213	45619
26.05025	45373
26.05837	45531
26.06650	45696
26.07462	47276
26.08275	50683
26.09087	50323
26.09898	50963
26.10712	51579
26.11523	52343
26.12335	50603
26.13148	49374
26.13960	49835
26.14773	47510
26.15585	53037
26.16397	48907
26.17210	53269
26.18022	50080
26.18835	50727
26.19647	54739
26.20458	56767
26.21272	56523
26.22083	53849
26.22897	52516
26.23708	55526
26.24520	51303
26.25333	50868
26.26145	48494
26.26957	52376
26.27770	51323
26.28582	47944
26.29395	47917
26.30207	45624
26.31018	46758
26.31832	49388
26.32643	49026
26.33457	46580
26.34268	46268
26.35080	57165
26.35893	73344
26.36705	113960
26.37517	164109
26.38330	209203
26.39142	258150
26.39955	312181
26.40767	351501
26.41578	378397
26.42392	386118
26.43203	355838
26.44017	321759
26.44828	285917
26.45640	256166
26.46453	235703
26.47265	234464
26.48078	230110
26.48890	229685
26.49702	231392
26.50515	227010
26.51327	229496
26.52138	226654
26.52952	227983
26.53763	219514
26.54577	219846
26.55388	214435
26.56200	208668
26.57013	210895
26.57825	217879
26.58638	204155
26.59450	226739
26.60262	207024
26.61075	206641
26.61887	205639
26.62698	206272
26.63512	216304
26.64323	197079
26.65137	197236
26.65948	200814
26.66760	202239
26.67573	200488
26.68385	204436
26.69198	201749
26.70010	193452
26.70822	196684
26.71635	193298
26.72447	202470
26.73260	196197
26.74072	196635
26.74883	186736
26.75697	192965
26.76508	187899
26.77320	187965
26.78133	187350
26.78945	193542
26.79758	191851
26.80570	190349
26.81382	197149
26.82195	197165
26.83007	193012
26.83820	186610
26.84632	183615
26.85443	185080
26.86257	183591
26.87068	186635
26.87882	180813
26.88693	175457
26.89505	170850
26.90318	180317
26.91130	171020
26.91942	178991
26.92755	169515
26.93567	168492
26.94380	167454
26.95192	173764
26.96003	164489
26.96817	170182
26.97628	169921
26.98442	172962
26.99253	185985
27.00065	196461
27.00878	233966
27.01690	283246
27.02502	356280
27.03315	433105
27.04127	470370
27.04940	499833
27.05752	467456
27.06563	417193
27.07377	356463
27.08188	319605
27.09002	292953
27.09813	249132
27.10625	235494
27.11438	224941
27.12250	222953
27.13063	214745
27.13875	213197
27.14687	207946
27.15500	203196
27.16312	190280
27.17123	196015
27.17937	186519
27.18748	195730
27.19562	198870
27.20373	201557
27.21185	204265
27.21998	195032
27.22810	196521
27.23623	181164
27.24435	174731
27.25247	173648
27.26060	164973
27.26872	161277
27.27685	155422
27.28497	147470
27.29308	149560
27.30122	145809
27.30933	142325
27.31745	141157
27.32558	141558
27.33370	141572
27.34183	148989
27.34995	140827
27.35807	147521
27.36620	143185
27.37432	135618
27.38245	137899
27.39057	149784
27.39868	139824
27.40682	137494
27.41493	135612
27.42305	132968
27.43118	126402
27.43930	128217
27.44743	129752
27.45555	120801
27.46367	124748
27.47180	124326
27.47992	120002
27.48805	120651
27.49617	116262
27.50428	116600
27.51242	114087
27.52053	116847
27.52867	113719
27.53678	109890
27.54490	113838
27.55303	114318
27.56115	109073
27.56927	111992
27.57740	107339
27.58552	120981
27.59365	124401
27.60177	142872
27.60988	159286
27.61802	165033
27.62613	157168
27.63427	153187
27.64238	133499
27.65050	123460
27.65863	117213
27.66675	110154
27.67487	104266
27.68300	100666
27.69112	97905
27.69925	102261
27.70737	107553
27.71548	104860
27.72362	100189
27.73173	99280
27.73987	95062
27.74798	89347
27.75610	93487
27.76423	90864
27.77235	93631
27.78048	91041
27.78860	94645
27.79672	104770
27.80485	101190
27.81297	100215
27.82108	94775
27.82922	98153
27.83733	94185
27.84547	98289
27.85358	87042
27.86170	83417
27.86983	84995
27.87795	81857
27.88608	82341
27.89420	81394
27.90232	79039
27.91045	79576
27.91857	81651
27.92670	85680
27.93482	79033
27.94293	85926
27.95107	85110
27.95918	77292
27.96730	80515
27.97543	78971
27.98355	78306
27.99168	78580
27.99980	79327
28.00792	79856
28.01605	80943
28.02417	83129
28.03230	76353
28.04042	81453
28.04853	83194
28.05667	92525
28.06478	86589
28.07292	92443
28.08103	92166
28.08915	84433
28.09728	81477
28.10540	75217
28.11352	66999
28.12165	74084
28.12977	73385
28.13790	70333
28.14602	65962
28.15413	76485
28.16227	67139
28.17038	69086
28.17852	66620
28.18663	73035
28.19475	72196
28.20288	75937
28.21100	91120
28.21912	109891
28.22725	121817
28.23537	136891
28.24350	143233
28.25162	141346
28.25973	133545
28.26787	108966
28.27598	97510
28.28412	86971
28.29223	77421
28.30035	71465
28.30848	71820
28.31660	73600
28.32473	76271
28.33285	85809
28.34097	92709
28.34910	89455
28.35722	92841
28.36533	84636
28.37347	84306
28.38158	76977
28.38972	89845
28.39783	96539
28.40595	91029
28.41408	98215
28.42220	96180
28.43033	95959
28.43845	94640
28.44657	94748
28.45470	86926
28.46282	83384
28.47093	81719
28.47907	83675
28.48718	83008
28.49532	76821
28.50343	77696
28.51155	74864
28.51968	78767
28.52780	68865
28.53593	73333
28.54405	71223
28.55217	64061
28.56030	61747
28.56842	67020
28.57655	65867
28.58467	63735
28.59278	64446
28.60092	60510
28.60903	68227
28.61715	59812
28.62528	62335
28.63340	70077
28.64153	65002
28.64965	63148
28.65777	67325
28.66590	64075
28.67402	62476
28.68215	64722
28.69027	64052
28.69838	57467
28.70652	60630
28.71463	61816
28.72277	62382
28.73088	56449
28.73900	63436
28.74713	56658
28.75525	58964
28.76337	55595
28.77150	55633
28.77962	57423
28.78775	57630
28.79587	63300
28.80398	66076
28.81212	68795
28.82023	71253
28.82837	73280
28.83648	75261
28.84460	73579
28.85273	70435
28.86085	71332
28.86897	63390
28.87710	64012
28.88522	70840
28.89335	74980
28.90147	83661
28.90958	89785
28.91772	98957
28.92583	90608
28.93397	88359
28.94208	78499
28.95020	70541
28.95833	63059
28.96645	61318
28.97458	60564
28.98270	56248
28.99082	60436
28.99895	57373
29.00707	56068
29.01518	53593
29.02332	59072
29.03143	59821
29.03957	61867
29.04768	59758
29.05580	58674
29.06393	58735
29.07205	62882
29.08018	59528
29.08830	64303
29.09642	65848
29.10455	68963
29.11267	67779
29.12080	63454
29.12892	62001
29.13703	67485
29.14517	63318
29.15328	58656
29.16140	59463
29.16953	58817
29.17765	58575
29.18578	66027
29.19390	69990
29.20202	75390
29.21015	105077
29.21827	128695
29.22640	153269
29.23452	177190
29.24263	168361
29.25077	151480
29.25888	131171
29.26700	106955
29.27513	97959
29.28325	78205
29.29138	72295
29.29950	66201
29.30762	64315
29.31575	60937
29.32387	59392
29.33200	59382
29.34012	62496
29.34823	57578
29.35637	58378
29.36448	61989
29.37262	57778
29.38073	53722
29.38885	57854
29.39698	56088
29.40510	54842
29.41322	57341
29.42135	61432
29.42947	59272
29.43760	58474
29.44572	62250
29.45383	57662
29.46197	61055
29.47008	53514
29.47822	58536
29.48633	57829
29.49445	58861
29.50258	55290
29.51070	58087
29.51882	56679
29.52695	52306
29.53507	56925
29.54320	57731
29.55132	56435
29.55943	57185
29.56757	61925
29.57568	60793
29.58382	60645
29.59193	55888
29.60005	56064
29.60818	54967
29.61630	53457
29.62443	52188
29.63255	59222
29.64067	59380
29.64880	53072
29.65692	58337
29.66503	51079
29.67317	56186
29.68128	57943
29.68942	63715
29.69753	64531
29.70565	67286
29.71378	66974
29.72190	70861
29.73003	67679
29.73815	67313
29.74627	58743
29.75440	57382
29.76252	57787
29.77065	55861
29.77877	49370
29.78688	48049
29.79502	48114
29.80313	55030
29.81125	52045
29.81938	50110
29.82750	52083
29.83563	59413
29.84375	52215
29.85187	54608
29.86000	56431
29.86812	56952
29.87625	59037
29.88437	60298
29.89248	72796
29.90062	85547
29.90873	99422
29.91685	110686
29.92498	113825
29.93310	104980
29.94123	87681
29.94935	80636
29.95747	65303
29.96560	59934
29.97372	58676
29.98185	56447
29.98997	55672
29.99808	58373
30.00622	60430
30.01433	59939
30.02247	66966
30.03058	63978
30.03870	61686
30.04683	63809
30.05495	63219
30.06307	70131
30.07120	65880
30.07932	63706
30.08745	63109
30.09557	66697
30.10368	68377
30.11182	66329
30.11993	61027
30.12807	62265
30.13618	58680
30.14430	60644
30.15243	61230
30.16055	61505
30.16868	56857
30.17680	64885
30.18492	61835
30.19305	58965
30.20117	61939
30.20928	54556
30.21742	60727
30.22553	56333
30.23367	58678
30.24178	62790
30.24990	52931
30.25803	52700
30.26615	50621
30.27428	54085
30.28240	57993
30.29052	52878
30.29865	54639
30.30677	58720
30.31488	50496
30.32302	49054
30.33113	53461
30.33927	53587
30.34738	56419
30.35550	53417
30.36363	51958
30.37175	59568
30.37988	54975
30.38800	53599
30.39612	52812
30.40425	50565
30.41237	50314
30.42050	52468
30.42862	54863
30.43673	47801
30.44487	48354
30.45298	51260
30.46110	50918
30.46923	54903
30.47735	49926
30.48548	48981
30.49360	50804
30.50172	52197
30.50985	50398
30.51797	50670
30.52610	52212
30.53422	52281
30.54233	53285
30.55047	54606
30.55858	51923
30.56670	53979
30.57483	54361
30.58295	52788
30.59108	54085
30.59920	53251
30.60732	51160
30.61545	53612
30.62357	48838
30.63170	52248
30.63982	55162
30.64793	49520
30.65607	52431
30.66418	49500
30.67232	48818
30.68043	50879
30.68855	49660
30.69668	52860
30.70480	49397
30.71292	49141
30.72105	52258
30.72917	48399
30.73730	49088
30.74542	49313
30.75353	54469
30.76167	50201
30.76978	50519
30.77792	55035
30.78603	54993
30.79415	65118
30.80228	82642
30.81040	113962
30.81853	136769
30.82665	146360
30.83477	158605
30.84290	133714
30.85102	113874
30.85913	88245
30.86727	73155
30.87538	68040
30.88352	58642
30.89163	62232
30.89975	60132
30.90788	55610
30.91600	55597
30.92413	55632
30.93225	54175
30.94037	48623
30.94850	53351
30.95662	55346
30.96473	58307
30.97287	54150
30.98098	55891
30.98912	57983
30.99723	58136
31.00535	52639
31.01348	48943
31.02160	54546
31.02973	57279
31.03785	49662
31.04597	56130
31.05410	58135
31.06222	50045
31.07035	53921
31.07847	50451
31.08658	50105
31.09472	51029
31.10283	54257
31.11095	61037
31.11908	60878
31.12720	64148
31.13533	66324
31.14345	62227
31.15157	59769
31.15970	61193
31.16782	64084
31.17595	65399
31.18407	69621
31.19218	62637
31.20032	59164
31.20843	58949
31.21657	57570
31.22468	57748
31.23280	55170
31.24093	57957
31.24905	58565
31.25717	51567
31.26530	54455
31.27342	54956
31.28155	54235
31.28967	55629
31.29778	53621
31.30592	50592
31.31403	57027
31.32217	53710
31.33028	55758
31.33840	61091
31.34653	66740
31.35465	58538
31.36277	65171
31.37090	61070
31.37902	60579
31.38715	50801
31.39527	53902
31.40338	50870
31.41152	51730
31.41963	49205
31.42777	51257
31.43588	47149
31.44400	49062
31.45213	48600
31.46025	50998
31.46838	49896
31.47650	54116
31.48462	50468
31.49275	48786
31.50087	50929
31.50898	52011
31.51712	53175
31.52523	57662
31.53337	51567
31.54148	54489
31.54960	57629
31.55773	52422
31.56585	58531
31.57398	54567
31.58210	50207
31.59022	53794
31.59835	56416
31.60647	55454
31.61460	56649
31.62272	50131
31.63083	49551
31.63897	52612
31.64708	49167
31.65520	58490
31.66333	50368
31.67145	52604
31.67958	61855
31.68770	66794
31.69582	65428
31.70395	67265
31.71207	60144
31.72020	54979
31.72832	54043
31.73643	54248
31.74457	55569
31.75268	47826
31.76080	55870
31.76893	53225
31.77705	51369
31.78518	53019
31.79330	50487
31.80142	53931
31.80955	48496
31.81767	46914
31.82580	51415
31.83392	51227
31.84203	49333
31.85017	52735
31.85828	47818
31.86642	47712
31.87453	52589
31.88265	53741
31.89078	52401
31.89890	49902
31.90702	51554
31.91515	47326
31.92327	47922
31.93140	48497
31.93952	45056
31.94763	47570
31.95577	49913
31.96388	51359
31.97202	50934
31.98013	51842
31.98825	53261
31.99638	57080
32.00450	61688
32.01262	64827
32.02075	63427
32.02887	64282
32.03700	57728
32.04512	62127
32.05323	55463
32.06137	54168
32.06948	57938
32.07762	52035
32.08573	52014
32.09385	54620
32.10198	56580
32.11010	54764
32.11823	53484
32.12635	52823
32.13447	56979
32.14260	49620
32.15072	47564
32.15883	54330
32.16697	48581
32.17508	48239
32.18322	49649
32.19133	48538
32.19945	50260
32.20758	48568
32.21570	54389
32.22383	49017
32.23195	49209
32.24007	49280
32.24820	51544
32.25632	49287
32.26445	48311
32.27257	47671
32.28068	50182
32.28882	51835
32.29693	55975
32.30505	50277
32.31318	52204
32.32130	53626
32.32943	47943
32.33755	50972
32.34567	48792
32.35380	47265
32.36192	46106
32.37005	47973
32.37817	49062
32.38628	52383
32.39442	49998
32.40253	47219
32.41065	50597
32.41878	49211
32.42690	50426
32.43503	48353
32.44315	51808
32.45127	49274
32.45940	50656
32.46752	50055
32.47565	46037
32.48377	47606
32.49188	50777
32.50002	48748
32.50813	48574
32.51627	47668
32.52438	47835
32.53250	46269
32.54063	50207
32.54875	49397
32.55687	49189
32.56500	47205
32.57312	52104
32.58125	50354
32.58937	45560
32.59748	50224
32.60562	45403
32.61373	46413
32.62187	46215
32.62998	51206
32.63810	47060
32.64623	50048
32.65435	46806
32.66248	44429
32.67060	51526
32.67872	49967
32.68685	46493
32.69497	46919
32.70308	50302
32.71122	53131
32.71933	49403
32.72747	48634
32.73558	51049
32.74370	50902
32.75183	52515
32.75995	48901
32.76808	50501
32.77620	44979
32.78432	52039
32.79245	50421
32.80057	47296
32.80868	51866
32.81682	42152
32.82493	47272
32.83307	50797
32.84118	47466
32.84930	45886
32.85743	50874
32.86555	48972
32.87368	50576
32.88180	49286
32.88992	50314
32.89805	53479
32.90617	56674
32.91430	59718
32.92242	65637
32.93053	64860
32.93867	61507
32.94678	57284
32.95490	53649
32.96303	54127
32.97115	57773
32.97928	56337
32.98740	60446
32.99552	65788
33.00365	80578
33.01177	88517
33.01990	94217
33.02802	92462
33.03613	92298
33.04427	83899
33.05238	77769
33.06052	76264
33.06863	72455
33.07675	75606
33.08488	82408
33.09300	86607
33.10112	81398
33.10925	85247
33.11737	81958
33.12550	81678
33.13362	77541
33.14173	77571
33.14987	75949
33.15798	69500
33.16612	69018
33.17423	72808
33.18235	65413
33.19048	64759
33.19860	57832
33.20672	54191
33.21485	54811
33.22297	54277
33.23110	58149
33.23922	56708
33.24733	54360
33.25547	55778
33.26358	56011
33.27172	53482
33.27983	56213
33.28795	51501
33.29608	54928
33.30420	52480
33.31233	52821
33.32045	55514
33.32857	50446
33.33670	55035
33.34482	54849
33.35293	53608
33.36107	53765
33.36918	61505
33.37732	63497
33.38543	66315
33.39355	60706
33.40168	60408
33.40980	58403
33.41793	54319
33.42605	54373
33.43417	52994
33.44230	52010
33.45042	48963
33.45855	52795
33.46667	52613
33.47478	51511
33.48292	51638
33.49103	50481
33.49915	52953
33.50728	49920
33.51540	51341
33.52353	52663
33.53165	57250
33.53977	53666
33.54790	55951
33.55602	59299
33.56415	67030
33.57227	64373
33.58038	67155
33.58852	67813
33.59663	67031
33.60475	61908
33.61288	62332
33.62100	57519
33.62913	56115
33.63725	57572
33.64537	50760
33.65350	56164
33.66162	52347
33.66975	59372
33.67787	56619
33.68598	59190
33.69412	56166
33.70223	57276
33.71037	55460
33.71848	54558
33.72660	54943
33.73473	52996
33.74285	55391
33.75097	56302
33.75910	54513
33.76722	51276
33.77535	52726
33.78347	54407
33.79158	54609
33.79972	53923
33.80783	52082
33.81597	53529
33.82408	51600
33.83220	49599
33.84033	49790
33.84845	53277
33.85657	53711
33.86470	48304
33.87282	51967
33.88095	55309
33.88907	51176
33.89718	60819
33.90532	50297
33.91343	51473
33.92157	53754
33.92968	54703
33.93780	50035
33.94593	51791
33.95405	51390
33.96218	50116
33.97030	50518
33.97842	50903
33.98655	50093
33.99467	57097
34.00278	49598
34.01092	51967
34.01903	54804
34.02717	48307
34.03528	52207
34.04340	54838
34.05153	55287
34.05965	49278
34.06778	48041
34.07590	54403
34.08402	55652
34.09215	50728
34.10027	60300
34.10840	51196
34.11652	51811
34.12463	52313
34.13277	47938
34.14088	52168
34.14900	56006
34.15713	53150
34.16525	50718
34.17338	51640
34.18150	56568
34.18962	56371
34.19775	47683
34.20587	47387
34.21400	51937
34.22212	50121
34.23023	51331
34.23837	54722
34.24648	52337
34.25460	49870
34.26273	53964
34.27085	49014
34.27898	53635
34.28710	46963
34.29522	51660
34.30335	49185
34.31147	49583
34.31960	49819
34.32772	51033
34.33583	55493
34.34397	52916
34.35208	47618
34.36022	54581
34.36833	53011
34.37645	53442
34.38458	52876
34.39270	54562
34.40082	54174
34.40895	55530
34.41707	49901
34.42520	55963
34.43332	55481
34.44143	52429
34.44957	51400
34.45768	50622
34.46582	51477
34.47393	52538
34.48205	51422
34.49018	51574
34.49830	48719
34.50643	61045
34.51455	59651
34.52267	55832
34.53080	52883
34.53892	59983
34.54703	53127
34.55517	50167
34.56328	58268
34.57142	62055
34.57953	58889
34.58765	62299
34.59578	59326
34.60390	58233
34.61203	60471
34.62015	58086
34.62827	55984
34.63640	53938
34.64452	55548
34.65263	51961
34.66077	53335
34.66888	54068
34.67702	54814
34.68513	55817
34.69325	55533
34.70138	54338
34.70950	57867
34.71763	51851
34.72575	55441
34.73387	51544
34.74200	52947
34.75012	54916
34.75825	59249
34.76637	57222
34.77448	53694
34.78262	55626
34.79073	56956
34.79885	55061
34.80698	54886
34.81510	59008
34.82323	54847
34.83135	57164
34.83947	51283
34.84760	51026
34.85572	55687
34.86385	52836
34.87197	52089
34.88008	57180
34.88822	53948
34.89633	51548
34.90445	56200
34.91258	55364
34.92070	54904
34.92883	52191
34.93695	50214
34.94507	57863
34.95320	52663
34.96132	57130
34.96945	57410
34.97757	58216
34.98568	56806
34.99382	57069
35.00193	66810
35.01007	59305
35.01818	61116
35.02630	56627
35.03443	57941
35.04255	58666
35.05067	60100
35.05880	58054
35.06692	54771
35.07505	54734
35.08317	55462
35.09128	57059
35.09942	57004
35.10753	61668
35.11567	55774
35.12378	58827
35.13190	56002
35.14003	57391
35.14815	48741
35.15628	56902
35.16440	60498
35.17252	58851
35.18065	65084
35.18877	55558
35.19688	55982
35.20502	55849
35.21313	55701
35.22127	51909
35.22938	54075
35.23750	57705
35.24563	56966
35.25375	56400
35.26188	53424
35.27000	51881
35.27812	54293
35.28625	57024
35.29437	57492
35.30248	57975
35.31062	57812
35.31873	54480
35.32687	53429
35.33498	54197
35.34310	52275
35.35123	53211
35.35935	55527
35.36748	52268
35.37560	54589
35.38372	56882
35.39185	53571
35.39997	54922
35.40810	60329
35.41622	54004
35.42433	57933
35.43247	55749
35.44058	59328
35.44870	54947
35.45683	55625
35.46495	56259
35.47308	56274
35.48120	57740
35.48932	55426
35.49745	57533
35.50557	62005
35.51370	56038
35.52182	58841
35.52993	58846
35.53807	60090
35.54618	56618
35.55432	55252
35.56243	53931
35.57055	53308
35.57868	54350
35.58680	57657
35.59492	54003
35.60305	58901
35.61117	56143
35.61930	55382
35.62742	60280
35.63553	57976
35.64367	59366
35.65178	61743
35.65992	55885
35.66803	56323
35.67615	59132
35.68428	53656
35.69240	57179
35.70052	56777
35.70865	59475
35.71677	53619
35.72490	53906
35.73302	58623
35.74113	59375
35.74927	56490
35.75738	60053
35.76552	64789
35.77363	63075
35.78175	68800
35.78988	75790
35.79800	69569
35.80613	65093
35.81425	67102
35.82237	61052
35.83050	57264
35.83862	59969
35.84673	57971
35.85487	63439
35.86298	61933
35.87112	65764
35.87923	61462
35.88735	64413
35.89548	57690
35.90360	61018
35.91173	60055
35.91985	59618
35.92797	57046
35.93610	57377
35.94422	57760
35.95235	58639
35.96047	58823
35.96858	58255
35.97672	60101
35.98483	61152
35.99295	57994
36.00108	57511
36.00920	58422
36.01733	57497
36.02545	58358
36.03357	58437
36.04170	61027
36.04982	62998
36.05795	57224
36.06607	58308
36.07418	56856
36.08232	53899
36.09043	59833
36.09855	54299
36.10668	61249
36.11480	57490
36.12293	61464
36.13105	61194
36.13917	57644
36.14730	65760
36.15542	65642
36.16355	64815
36.17167	66762
36.17978	63994
36.18792	61997
36.19603	62695
36.20417	59760
36.21228	55066
36.22040	53028
36.22853	61180
36.23665	59875
36.24477	59728
36.25290	53385
36.26102	56981
36.26915	58816
36.27727	57677
36.28538	57060
36.29352	58666
36.30163	56470
36.30977	65753
36.31788	67241
36.32600	62257
36.33413	58892
36.34225	63214
36.35037	67456
36.35850	62224
36.36662	60302
36.37475	57680
36.38287	59620
36.39098	58152
36.39912	54535
36.40723	55659
36.41537	65842
36.42348	63037
36.43160	58820
36.43973	61321
36.44785	64481
36.45598	62863
36.46410	61597
36.47222	63171
36.48035	64610
36.48847	61233
36.49658	60694
36.50472	62369
36.51283	61346
36.52097	62330
36.52908	58317
36.53720	58134
36.54533	56357
36.55345	57600
36.56158	62179
36.56970	60464
36.57782	58731
36.58595	57638
36.59407	62905
36.60220	58119
36.61032	61327
36.61843	61362
36.62657	59886
36.63468	62270
36.64280	63874
36.65093	59147
36.65905	60100
36.66718	59011
36.67530	56807
36.68342	57790
36.69155	59499
36.69967	59326
36.70780	56613
36.71592	58087
36.72403	60177
36.73217	64490
36.74028	60730
36.74840	58206
36.75653	63359
36.76465	62389
36.77278	62195
36.78090	58423
36.78902	61148
36.79715	58635
36.80527	56669
36.81340	59721
36.82152	68644
36.82963	60663
36.83777	60650
36.84588	65387
36.85402	60584
36.86213	58643
36.87025	65828
36.87838	62038
36.88650	58547
36.89462	61966
36.90275	59714
36.91087	59094
36.91900	64359
36.92712	63199
36.93523	61822
36.94337	67526
36.95148	66557
36.95962	72735
36.96773	83246
36.97585	92608
36.98398	94357
36.99210	109771
37.00023	104202
37.00835	95980
37.01647	83576
37.02460	76621
37.03272	75331
37.04083	68266
37.04897	69607
37.05708	72143
37.06522	68468
37.07333	67219
37.08145	62956
37.08958	66756
37.09770	64881
37.10583	67859
37.11395	73414
37.12207	65365
37.13020	69547
37.13832	65423
37.14643	69253
37.15457	66204
37.16268	64321
37.17082	66689
37.17893	62977
37.18705	59526
37.19518	62559
37.20330	63460
37.21143	62099
37.21955	67314
37.22767	69384
37.23580	62840
37.24392	67940
37.25205	66701
37.26017	67365
37.26828	66304
37.27642	65043
37.28453	69650
37.29265	63834
37.30078	65678
37.30890	67510
37.31703	63002
37.32515	62271
37.33327	64038
37.34140	67269
37.34952	67708
37.35765	62119
37.36577	69989
37.37388	65176
37.38202	66356
37.39013	66810
37.39825	63584
37.40638	61076
37.41450	63868
37.42263	66696
37.43075	69207
37.43887	68089
37.44700	71627
37.45512	68480
37.46325	68431
37.47137	68674
37.47948	73738
37.48762	65254
