Z:\data\JTB-E02\BACandBLUE\JTB-E02-204-06.D Sat Mar 09 07:53:29 2019
Start of data points
2.09513,36523
2.10325,41623
2.11138,41834
2.11950,37458
2.12763,44418
2.13575,44022
2.14387,46039
2.15200,44796
2.16012,52191
2.16825,48977
2.17637,50397
2.18448,49953
2.19262,48824
2.20073,45334
2.20885,46256
2.21698,47496
2.22510,42650
2.23323,41478
2.24135,40478
2.24947,40212
2.25760,42838
2.26572,129192
2.27385,1494192
2.28197,4398767
2.29008,3339581
2.29822,1400618
2.30633,808255
2.31447,628415
2.32258,567066
2.33070,487704
2.33883,434308
2.34695,366921
2.35507,332211
2.36320,292833
2.37132,268967
2.37945,252163
2.38757,253661
2.39568,232316
2.40382,220936
2.41193,219592
2.42007,240043
2.42818,263859
2.43630,211363
2.44443,192339
2.45255,192179
2.46067,179403
2.46880,167218
2.47692,152281
2.48505,151886
2.49317,148418
2.50128,138380
2.50942,140180
2.51753,143011
2.52567,141696
2.53378,132750
2.54190,139489
2.55003,154309
2.55815,152561
2.56628,147594
2.57440,134281
2.58252,127586
2.59065,122639
2.59877,114158
2.60688,125567
2.61502,140602
2.62313,139005
2.63127,126764
2.63938,125038
2.64750,123046
2.65563,115723
2.66375,112117
2.67188,110872
2.68000,115182
2.68812,106594
2.69625,112932
2.70437,108900
2.71250,104947
2.72062,100821
2.72873,102807
2.73687,101296
2.74498,96313
2.75310,96900
2.76123,96656
2.76935,96373
2.77748,93147
2.78560,94392
2.79372,100800
2.80185,100990
2.80997,102647
2.81810,105870
2.82622,95323
2.83433,100473
2.84247,92828
2.85058,95085
2.85870,92342
2.86683,95408
2.87495,91471
2.88308,89782
2.89120,98927
2.89932,94483
2.90745,94457
2.91557,82891
2.92370,85190
2.93182,85839
2.93993,88713
2.94807,83959
2.95618,87726
2.96432,88173
2.97243,92037
2.98055,89252
2.98868,84407
2.99680,82772
3.00492,88995
3.01305,83233
3.02117,86773
3.02930,82531
3.03742,82903
3.04553,79442
3.05367,78060
3.06178,78467
3.06992,75633
3.07803,77236
3.08615,80762
3.09428,80903
3.10240,85643
3.11052,107368
3.11865,119712
3.12677,110475
3.13490,96507
3.14302,90571
3.15113,92015
3.15927,86800
3.16738,86692
3.17552,86118
3.18363,82480
3.19175,81228
3.19988,79145
3.20800,80480
3.21613,78726
3.22425,74821
3.23237,75899
3.24050,72439
3.24862,79381
3.25673,78695
3.26487,74875
3.27298,72832
3.28112,82877
3.28923,143544
3.29735,579857
3.30548,2157222
3.31360,4831873
3.32173,6526522
3.32985,6152665
3.33797,4777830
3.34610,3679661
3.35422,2951014
3.36235,2392565
3.37047,2019125
3.37858,1746538
3.38672,1550441
3.39483,1354389
3.40295,1216429
3.41108,1095089
3.41920,1000981
3.42733,945595
3.43545,873952
3.44357,805675
3.45170,766947
3.45982,707868
3.46795,679886
3.47607,647714
3.48418,628577
3.49232,596878
3.50043,572357
3.50857,560844
3.51668,531205
3.52480,497379
3.53293,497740
3.54105,471751
3.54917,442594
3.55730,436544
3.56542,422286
3.57355,413293
3.58167,402782
3.58978,401718
3.59792,386915
3.60603,366928
3.61417,355674
3.62228,350297
3.63040,342261
3.63853,346269
3.64665,341356
3.65477,321579
3.66290,320175
3.67102,310560
3.67915,311961
3.68727,302741
3.69538,320391
3.70352,303006
3.71163,288702
3.71977,292959
3.72788,286089
3.73600,290860
3.74413,273059
3.75225,268945
3.76038,261792
3.76850,264679
3.77662,259839
3.78475,256619
3.79287,247560
3.80098,245418
3.80912,258092
3.81723,244374
3.82537,246661
3.83348,248037
3.84160,242319
3.84973,235518
3.85785,229489
3.86598,222183
3.87410,234163
3.88222,223641
3.89035,222686
3.89847,223362
3.90658,216923
3.91472,212467
3.92283,218565
3.93097,211434
3.93908,210417
3.94720,209033
3.95533,202050
3.96345,208418
3.97158,205793
3.97970,197068
3.98782,196472
3.99595,192698
4.00407,191531
4.01220,194247
4.02032,192154
4.02843,203833
4.03657,197969
4.04468,195838
4.05280,188237
4.06093,185442
4.06905,188037
4.07718,191639
4.08530,186848
4.09342,176318
4.10155,178137
4.10967,178523
4.11780,175641
4.12592,183250
4.13403,177790
4.14217,181448
4.15028,196672
4.15842,198507
4.16653,195185
4.17465,183726
4.18278,168235
4.19090,168897
4.19902,168089
4.20715,168268
4.21527,170597
4.22340,172175
4.23152,182082
4.23963,190998
4.24777,197131
4.25588,190887
4.26402,183680
4.27213,180422
4.28025,174127
4.28838,172362
4.29650,166973
4.30462,161227
4.31275,170858
4.32087,164301
4.32900,177633
4.33712,174743
4.34523,183649
4.35337,161222
4.36148,167896
4.36962,162364
4.37773,167794
4.38585,162966
4.39398,166054
4.40210,154729
4.41023,155366
4.41835,159464
4.42647,149942
4.43460,150729
4.44272,149049
4.45083,152485
4.45897,148092
4.46708,152627
4.47522,144755
4.48333,147011
4.49145,144159
4.49958,142510
4.50770,142477
4.51583,145093
4.52395,143938
4.53207,139602
4.54020,137736
4.54832,141942
4.55645,138435
4.56457,132772
4.57268,134953
4.58082,128002
4.58893,136296
4.59705,142100
4.60518,128146
4.61330,130249
4.62143,131907
4.62955,133224
4.63767,139034
4.64580,138072
4.65392,130238
4.66205,140718
4.67017,129928
4.67828,125856
4.68642,133589
4.69453,132358
4.70265,129345
4.71078,124498
4.71890,129663
4.72703,125491
4.73515,132817
4.74327,133557
4.75140,120067
4.75952,121426
4.76765,129221
4.77577,125321
4.78388,123825
4.79202,120718
4.80013,117238
4.80827,125962
4.81638,123640
4.82450,125855
4.83263,126066
4.84075,129370
4.84887,121275
4.85700,126995
4.86512,121140
4.87325,124168
4.88137,122179
4.88948,122380
4.89762,120117
4.90573,120063
4.91387,120865
4.92198,122893
4.93010,123586
4.93823,145557
4.94635,241944
4.95447,534510
4.96260,1100297
4.97072,1764689
4.97885,2249523
4.98697,2173484
4.99508,1820117
5.00322,1473803
5.01133,1188704
5.01947,979974
5.02758,816421
5.03570,734926
5.04383,676255
5.05195,602368
5.06008,557829
5.06820,528417
5.07632,480460
5.08445,457609
5.09257,444717
5.10068,433584
5.10882,398881
5.11693,385393
5.12507,369751
5.13318,366819
5.14130,354920
5.14943,343139
5.15755,333573
5.16568,326740
5.17380,322695
5.18192,324894
5.19005,301238
5.19817,295707
5.20630,297341
5.21442,293241
5.22253,280849
5.23067,277452
5.23878,280080
5.24690,287997
5.25503,269543
5.26315,265226
5.27128,249002
5.27940,243000
5.28752,234662
5.29565,232768
5.30377,234620
5.31190,226667
5.32002,228699
5.32813,223386
5.33627,231259
5.34438,228153
5.35250,222681
5.36063,214875
5.36875,210365
5.37688,209649
5.38500,210156
5.39312,198041
5.40125,198154
5.40937,199892
5.41750,198249
5.42562,195897
5.43373,189590
5.44187,192500
5.44998,195770
5.45812,180067
5.46623,183684
5.47435,184031
5.48248,184016
5.49060,191767
5.49872,179090
5.50685,173254
5.51497,179669
5.52310,177299
5.53122,168101
5.53933,173241
5.54747,170682
5.55558,172678
5.56372,168832
5.57183,165854
5.57995,170516
5.58808,170633
5.59620,165844
5.60433,169848
5.61245,171764
5.62057,174378
5.62870,199086
5.63682,212668
5.64493,214059
5.65307,217117
5.66118,203578
5.66932,179154
5.67743,175406
5.68555,197132
5.69368,212020
5.70180,215189
5.70993,211085
5.71805,204603
5.72617,180437
5.73430,167791
5.74242,170072
5.75053,163573
5.75867,160303
5.76678,157800
5.77492,152906
5.78303,153396
5.79115,152128
5.79928,151393
5.80740,147999
5.81553,145986
5.82365,143288
5.83177,144109
5.83990,136922
5.84802,143077
5.85615,150442
5.86427,139004
5.87238,142857
5.88052,146531
5.88863,140504
5.89675,140431
5.90488,135790
5.91300,125222
5.92113,117855
5.92925,110062
5.93737,104968
5.94550,106263
5.95362,106583
5.96175,107351
5.96987,116240
5.97798,126185
5.98612,143958
5.99423,147356
6.00237,137425
6.01048,128456
6.01860,121654
6.02673,113514
6.03485,116945
6.04297,108545
6.05110,108906
6.05922,114491
6.06735,108166
6.07547,110308
6.08358,103935
6.09172,104852
6.09983,103762
6.10797,98201
6.11608,97551
6.12420,101742
6.13233,107920
6.14045,103240
6.14857,106152
6.15670,109598
6.16482,109397
6.17295,110915
6.18107,107613
6.18918,112385
6.19732,107711
6.20543,116980
6.21357,117714
6.22168,116987
6.22980,109585
6.23793,117430
6.24605,121217
6.25418,119072
6.26230,125632
6.27042,122111
6.27855,128879
6.28667,127677
6.29478,129758
6.30292,129486
6.31103,131520
6.31917,130619
6.32728,130678
6.33540,134172
6.34353,135689
6.35165,137503
6.35978,138216
6.36790,139236
6.37602,136714
6.38415,144132
6.39227,142046
6.40038,149046
6.40852,146289
6.41663,146546
6.42477,149469
6.43288,150669
6.44100,152098
6.44913,156079
6.45725,150679
6.46538,158346
6.47350,156989
6.48162,156528
6.48975,164909
6.49787,165572
6.50600,164298
6.51412,172745
6.52223,170676
6.53037,156242
6.53848,147989
6.54660,139763
6.55473,125654
6.56285,123483
6.57098,120634
6.57910,111820
6.58722,110467
6.59535,107769
6.60347,108316
6.61160,114063
6.61972,105806
6.62783,113788
6.63597,102755
6.64408,112087
6.65222,104937
6.66033,106231
6.66845,105960
6.67658,100373
6.68470,101908
6.69282,105310
6.70095,100443
6.70907,95838
6.71720,102986
6.72532,98043
6.73343,99490
6.74157,102331
6.74968,97692
6.75782,91108
6.76593,92221
6.77405,94803
6.78218,92574
6.79030,97708
6.79842,90997
6.80655,91119
6.81467,92418
6.82280,93937
6.83092,94012
6.83903,89587
6.84717,91409
6.85528,88215
6.86342,81556
6.87153,74216
6.87965,72461
6.88778,71452
6.89590,71921
6.90403,66307
6.91215,63395
6.92027,66367
6.92840,64280
6.93652,60419
6.94463,58819
6.95277,60407
6.96088,56792
6.96902,57942
6.97713,60463
6.98525,61259
6.99338,60543
7.00150,60131
7.00963,58329
7.01775,59415
7.02587,59785
7.03400,57422
7.04212,67428
7.05025,55568
7.05837,53730
7.06648,56146
7.07462,57816
7.08273,60379
7.09085,59718
7.09898,56261
7.10710,57770
7.11523,57349
7.12335,58444
7.13147,55035
7.13960,58426
7.14772,51908
7.15585,53526
7.16397,54627
7.17208,58290
7.18022,59967
7.18833,58641
7.19645,59224
7.20458,68422
7.21270,59306
7.22083,58616
7.22895,56777
7.23707,58394
7.24520,60665
7.25332,56015
7.26145,59096
7.26957,52864
7.27768,50143
7.28582,59412
7.29393,56718
7.30207,55378
7.31018,51837
7.31830,52820
7.32643,58285
7.33455,52754
7.34267,52878
7.35080,53176
7.35892,56534
7.36705,56512
7.37517,50458
7.38328,57683
7.39142,54730
7.39953,54000
7.40767,52954
7.41578,53702
7.42390,59347
7.43203,63565
7.44015,66531
7.44827,74459
7.45640,74541
7.46452,79328
7.47265,72530
7.48077,66905
7.48888,61695
7.49702,59731
7.50513,57857
7.51327,56075
7.52138,57515
7.52950,58496
7.53763,54495
7.54575,54890
7.55388,54949
7.56200,55761
7.57012,59091
7.57825,53604
7.58637,52306
7.59448,50863
7.60262,56898
7.61073,53671
7.61887,52737
7.62698,55505
7.63510,52701
7.64323,52320
7.65135,54816
7.65948,48460
7.66760,51905
7.67572,52502
7.68385,52264
7.69197,52283
7.70010,50770
7.70822,53253
7.71633,49864
7.72447,53389
7.73258,48339
7.74070,56628
7.74883,55319
7.75695,50501
7.76508,48875
7.77320,52588
7.78132,52139
7.78945,48546
7.79757,48559
7.80570,51199
7.81382,55405
7.82193,54587
7.83007,57111
7.83818,50684
7.84630,50445
7.85443,48465
7.86255,47988
7.87068,46706
7.87880,48823
7.88692,49212
7.89505,47030
7.90317,46691
7.91130,50734
7.91942,47440
7.92753,48846
7.93567,48666
7.94378,48060
7.95192,43011
7.96003,46420
7.96815,53760
7.97628,55365
7.98440,57344
7.99252,59085
8.00065,54415
8.00877,55067
8.01690,51321
8.02502,52672
8.03313,51952
8.04127,54905
8.04938,46145
8.05752,51061
8.06563,46512
8.07375,50567
8.08188,50429
8.09000,50736
8.09813,50064
8.10625,53468
8.11437,52004
8.12250,53448
8.13062,49844
8.13873,49399
8.14687,50671
8.15498,52074
8.16312,57357
8.17123,54436
8.17935,57063
8.18748,59387
8.19560,60226
8.20373,56033
8.21185,55727
8.21997,56215
8.22810,50449
8.23622,58632
8.24433,53615
8.25247,54539
8.26058,49773
8.26872,52336
8.27683,52771
8.28495,51930
8.29308,51969
8.30120,51342
8.30933,54841
8.31745,55586
8.32557,52983
8.33370,59806
8.34182,55419
8.34995,62332
8.35807,69607
8.36618,67331
8.37432,58687
8.38243,61461
8.39055,55401
8.39868,50444
8.40680,50049
8.41493,53060
8.42305,53935
8.43117,49678
8.43930,50617
8.44742,49768
8.45555,54403
8.46367,50994
8.47178,52718
8.47992,50855
8.48803,52820
8.49615,51696
8.50428,59204
8.51240,56237
8.52053,56967
8.52865,55766
8.53677,60765
8.54490,55059
8.55302,55660
8.56115,56412
8.56927,54069
8.57738,52098
8.58552,52646
8.59363,52537
8.60177,52944
8.60988,51150
8.61800,53308
8.62613,49573
8.63425,52633
8.64237,53131
8.65050,51478
8.65862,55961
8.66675,50469
8.67487,53054
8.68298,48939
8.69112,48934
8.69923,50079
8.70737,46205
8.71548,49908
8.72360,52172
8.73173,45132
8.73985,49977
8.74798,48441
8.75610,45138
8.76422,52137
8.77235,57399
8.78047,92470
8.78858,158974
8.79672,267586
8.80483,393297
8.81297,476839
8.82108,469456
8.82920,430597
8.83733,378275
8.84545,321748
8.85358,287837
8.86170,253455
8.86982,223336
8.87795,208332
8.88607,189092
8.89420,177148
8.90232,171037
8.91043,164252
8.91857,155591
8.92668,141261
8.93480,142295
8.94293,132879
8.95105,129937
8.95918,121292
8.96730,126145
8.97542,120939
8.98355,120664
8.99167,117911
8.99980,118461
9.00792,107699
9.01603,105745
9.02417,103957
9.03228,106842
9.04040,100224
9.04853,92708
9.05665,101358
9.06478,97340
9.07290,99784
9.08102,96695
9.08915,97966
9.09727,95089
9.10540,96734
9.11352,93237
9.12163,95099
9.12977,94399
9.13788,94862
9.14602,90767
9.15413,92109
9.16225,93933
9.17038,89043
9.17850,93622
9.18662,93542
9.19475,91812
9.20287,89490
9.21100,86388
9.21912,80740
9.22723,86551
9.23537,82393
9.24348,86293
9.25162,87487
9.25973,82619
9.26785,84714
9.27598,79604
9.28410,76554
9.29222,74238
9.30035,72791
9.30847,74790
9.31660,73555
9.32472,69255
9.33283,75742
9.34097,71950
9.34908,74136
9.35722,69359
9.36533,76017
9.37345,64859
9.38158,72376
9.38970,72070
9.39783,68338
9.40595,68420
9.41407,67778
9.42220,66368
9.43032,68629
9.43843,67531
9.44657,65137
9.45468,69501
9.46282,67125
9.47093,67144
9.47905,69315
9.48718,69234
9.49530,66161
9.50343,62975
9.51155,63758
9.51967,63295
9.52780,64204
9.53592,71879
9.54405,68326
9.55217,70273
9.56028,69488
9.56842,64382
9.57653,60248
9.58465,47725
9.59278,50856
9.60090,50796
9.60903,51734
9.61715,51617
9.62527,47271
9.63340,46300
9.64152,45131
9.64965,50734
9.65777,44892
9.66588,46261
9.67402,46687
9.68213,45396
9.69025,47579
9.69838,41871
9.70650,43374
9.71463,43808
9.72275,41431
9.73087,38677
9.73900,43161
9.74712,42618
9.75525,40072
9.76337,40856
9.77148,41722
9.77962,44453
9.78773,39395
9.79587,40946
9.80398,40632
9.81210,46316
9.82023,44281
9.82835,42441
9.83647,45737
9.84460,48786
9.85272,46162
9.86085,49079
9.86897,44912
9.87708,45557
9.88522,44857
9.89333,40936
9.90147,41164
9.90958,40596
9.91770,44197
9.92583,41802
9.93395,42681
9.94208,42444
9.95020,40748
9.95832,41519
9.96645,43080
9.97457,39848
9.98268,44033
9.99082,50534
9.99893,47909
10.00707,52813
10.01518,49755
10.02330,54654
10.03143,58951
10.03955,60265
10.04768,63679
10.05580,64635
10.06392,65731
10.07205,58029
10.08017,58965
10.08828,56985
10.09642,54767
10.10453,53456
10.11267,50638
10.12078,45993
10.12890,47406
10.13703,49277
10.14515,43990
10.15328,42955
10.16140,44233
10.16952,47907
10.17765,45870
10.18577,47833
10.19390,44587
10.20202,41822
10.21013,44438
10.21827,46363
10.22638,46728
10.23450,45310
10.24263,53096
10.25075,51895
10.25888,53400
10.26700,53950
10.27512,49574
10.28325,55715
10.29137,51281
10.29950,56940
10.30762,58110
10.31573,65039
10.32387,76313
10.33198,75357
10.34010,83282
10.34823,76014
10.35635,63338
10.36448,63145
10.37260,59820
10.38072,58948
10.38885,54514
10.39697,56483
10.40510,56206
10.41322,55041
10.42133,54445
10.42947,53201
10.43758,49934
10.44572,55107
10.45383,55641
10.46195,51170
10.47008,54439
10.47820,47628
10.48632,48822
10.49445,46436
10.50257,47103
10.51070,50152
10.51882,48643
10.52693,44587
10.53507,48302
10.54318,46703
10.55132,47355
10.55943,52481
10.56755,47176
10.57568,48447
10.58380,47991
10.59193,43624
10.60005,48383
10.60817,44640
10.61630,48609
10.62442,50341
10.63253,46020
10.64067,48974
10.64878,45713
10.65692,45990
10.66503,45588
10.67315,46478
10.68128,46430
10.68940,46508
10.69753,47944
10.70565,50105
10.71377,48893
10.72190,46943
10.73002,48272
10.73813,46703
10.74627,44343
10.75438,43990
10.76252,46911
10.77063,50676
10.77875,52139
10.78688,49879
10.79500,47713
10.80313,47127
10.81125,45159
10.81937,45735
10.82750,46392
10.83562,42268
10.84375,47463
10.85187,40917
10.85998,46669
10.86812,43072
10.87623,42826
10.88435,42710
10.89248,42319
10.90060,40979
10.90873,42354
10.91685,39599
10.92497,43511
10.93310,37494
10.94122,41196
10.94935,51198
10.95747,46691
10.96558,39638
10.97372,43221
10.98183,47557
10.98997,41526
10.99808,42128
11.00620,42863
11.01433,39582
11.02245,41291
11.03057,40061
11.03870,35576
11.04682,38581
11.05495,42730
11.06307,43823
11.07118,36637
11.07932,42221
11.08743,35373
11.09557,38743
11.10368,36227
11.11180,40231
11.11993,37139
11.12805,36951
11.13617,42850
11.14430,36982
11.15242,39812
11.16055,40558
11.16867,39348
11.17678,38866
11.18492,45682
11.19303,51456
11.20117,51045
11.20928,64018
11.21740,61936
11.22553,63085
11.23365,55584
11.24178,56042
11.24990,47946
11.25802,45718
11.26615,35928
11.27427,40652
11.28238,38212
11.29052,37611
11.29863,36851
11.30677,42851
11.31488,37045
11.32300,34795
11.33113,42595
11.33925,39260
11.34738,40799
11.35550,40138
11.36362,38841
11.37175,36708
11.37987,40899
11.38798,38075
11.39612,36005
11.40423,40672
11.41237,37738
11.42048,39095
11.42860,36954
11.43673,38002
11.44485,36813
11.45298,35655
11.46110,37783
11.46922,34768
11.47735,39106
11.48547,37369
11.49360,39701
11.50172,36773
11.50983,39935
11.51797,39039
11.52608,38055
11.53420,37612
11.54233,38210
11.55045,36929
11.55858,33950
11.56670,38074
11.57482,40187
11.58295,37010
11.59107,34782
11.59920,39015
11.60732,33689
11.61543,33082
11.62357,37353
11.63168,40743
11.63982,35627
11.64793,37801
11.65605,36678
11.66418,33421
11.67230,33527
11.68042,34922
11.68855,36960
11.69667,40173
11.70480,34196
11.71292,40945
11.72103,44211
11.72917,43752
11.73728,39907
11.74542,41467
11.75353,39437
11.76165,38163
11.76978,38853
11.77790,47992
11.78602,38485
11.79415,40668
11.80227,41363
11.81040,45277
11.81852,39824
11.82663,36422
11.83477,38162
11.84288,39735
11.85102,38027
11.85913,42864
11.86725,40257
11.87538,42829
11.88350,41769
11.89163,36794
11.89975,39319
11.90787,38173
11.91600,34838
11.92412,40471
11.93223,37222
11.94037,38579
11.94848,40396
11.95662,39647
11.96473,32273
11.97285,35648
11.98098,35933
11.98910,39229
11.99723,38509
12.00535,44019
12.01347,36472
12.02160,35348
12.02972,40199
12.03785,35015
12.04597,35523
12.05408,39046
12.06222,35611
12.07033,34834
12.07845,33576
12.08658,36466
12.09470,34476
12.10283,34109
12.11095,34286
12.11907,36527
12.12720,37605
12.13532,36714
12.14345,34459
12.15157,37161
12.15968,43104
12.16782,37877
12.17593,44103
12.18405,43164
12.19218,42282
12.20030,37896
12.20843,45643
12.21655,45204
12.22467,46891
12.23280,44052
12.24092,49454
12.24905,43133
12.25717,45341
12.26528,45272
12.27342,44411
12.28153,41777
12.28967,42375
12.29778,47011
12.30590,43703
12.31403,43589
12.32215,41193
12.33027,39990
12.33840,39450
12.34652,38259
12.35465,39040
12.36277,38506
12.37088,42076
12.37902,42912
12.38713,43109
12.39527,42534
12.40338,41788
12.41150,44162
12.41963,42400
12.42775,38778
12.43588,40238
12.44400,43471
12.45212,48004
12.46025,48149
12.46837,49880
12.47648,49269
12.48462,46027
12.49273,50515
12.50087,41557
12.50898,44059
12.51710,44076
12.52523,41154
12.53335,42689
12.54148,40072
12.54960,41405
12.55772,40110
12.56585,40421
12.57397,40664
12.58208,41244
12.59022,41111
12.59833,40531
12.60647,39504
12.61458,40234
12.62270,35852
12.63083,37894
12.63895,38424
12.64708,41238
12.65520,38786
12.66332,37117
12.67145,39614
12.67957,41763
12.68770,38620
12.69582,39866
12.70393,38304
12.71207,36248
12.72018,38715
12.72830,41430
12.73643,44802
12.74455,39150
12.75268,43054
12.76080,45469
12.76892,42352
12.77705,42312
12.78517,45160
12.79330,43249
12.80142,38720
12.80953,35461
12.81767,39707
12.82578,35032
12.83390,35955
12.84203,35129
12.85015,34499
12.85828,35229
12.86640,35257
12.87452,34635
12.88265,33108
12.89077,33078
12.89890,37731
12.90702,33481
12.91513,33023
12.92327,31098
12.93138,33104
12.93952,34341
12.94763,34713
12.95575,33311
12.96388,32110
12.97200,34834
12.98012,35214
12.98825,32246
12.99637,35647
13.00450,34466
13.01262,33732
13.02073,31646
13.02887,30814
13.03698,35009
13.04512,32291
13.05323,34065
13.06135,33844
13.06948,33426
13.07760,29403
13.08573,27824
13.09385,36925
13.10197,33744
13.11010,31243
13.11822,32370
13.12633,38756
13.13447,33436
13.14258,32295
13.15072,32109
13.15883,32116
13.16695,31213
13.17508,34415
13.18320,35370
13.19133,35405
13.19945,35452
13.20757,41374
13.21570,39547
13.22382,40839
13.23193,42017
13.24007,42106
13.24818,36573
13.25632,43297
13.26443,32769
13.27255,33882
13.28068,35891
13.28880,34835
13.29693,34328
13.30505,31303
13.31317,33780
13.32130,34558
13.32942,31967
13.33755,31778
13.34567,31219
13.35378,28467
13.36192,31332
13.37003,30766
13.37815,34049
13.38628,39794
13.39440,32336
13.40253,30240
13.41065,30089
13.41877,32790
13.42690,33047
13.43502,31273
13.44315,30531
13.45127,30183
13.45938,31842
13.46752,34088
13.47563,29843
13.48377,32178
13.49188,32998
13.50000,35677
13.50813,32650
13.51625,32089
13.52437,28649
13.53250,30558
13.54062,28304
13.54875,28932
13.55687,29698
13.56498,31018
13.57312,31813
13.58123,33398
13.58937,30479
13.59748,38519
13.60560,30470
13.61373,30158
13.62185,32755
13.62997,32005
13.63810,33735
13.64622,32105
13.65435,31664
13.66247,28221
13.67058,30857
13.67872,33781
13.68683,30527
13.69497,30485
13.70308,26469
13.71120,33731
13.71933,33020
13.72745,30349
13.73558,29862
13.74370,30951
13.75182,30802
13.75995,33582
13.76807,26338
13.77618,32094
13.78432,31701
13.79243,32230
13.80057,31427
13.80868,30929
13.81680,31408
13.82493,31979
13.83305,31110
13.84118,35102
13.84930,34483
13.85742,34585
13.86555,33234
13.87367,31336
13.88178,31009
13.88992,28618
13.89803,32721
13.90617,32458
13.91428,32977
13.92240,34159
13.93053,33304
13.93865,37401
13.94678,35653
13.95490,35665
13.96302,34822
13.97115,33026
13.97927,34794
13.98740,33073
13.99552,33944
14.00363,32963
14.01177,31992
14.01988,34167
14.02800,35242
14.03613,36523
14.04425,34284
14.05238,33841
14.06050,35714
14.06862,36112
14.07675,33708
14.08487,33834
14.09300,43529
14.10112,42215
14.10923,34594
14.11737,33085
14.12548,36714
14.13362,37556
14.14173,34201
14.14985,32166
14.15798,35578
14.16610,37933
14.17422,38217
14.18235,38421
14.19047,46766
14.19860,65250
14.20672,84489
14.21483,118415
14.22297,148656
14.23108,171648
14.23922,176338
14.24733,158015
14.25545,131275
14.26358,122983
14.27170,105875
14.27982,95910
14.28795,96198
14.29607,81714
14.30420,79014
14.31232,73246
14.32043,68401
14.32857,62539
14.33668,66582
14.34482,63843
14.35293,62703
14.36105,54802
14.36918,49518
14.37730,48235
14.38543,41879
14.39355,40225
14.40167,42357
14.40980,41486
14.41792,41757
14.42603,35803
14.43417,38625
14.44228,32599
14.45042,38146
14.45853,35531
14.46665,36573
14.47478,33774
14.48290,32103
14.49103,31661
14.49915,31475
14.50727,34549
14.51540,36646
14.52352,30806
14.53165,33335
14.53977,37796
14.54788,31048
14.55602,34743
14.56413,34731
14.57225,34116
14.58038,31352
14.58850,33065
14.59663,34185
14.60475,32752
14.61287,29276
14.62100,31485
14.62912,34078
14.63725,30099
14.64537,31299
14.65348,35763
14.66162,31376
14.66973,31753
14.67785,28663
14.68598,30560
14.69410,33682
14.70223,32029
14.71035,32757
14.71847,30292
14.72660,33309
14.73472,29605
14.74285,32489
14.75097,34361
14.75908,30577
14.76722,27493
14.77533,32334
14.78347,34490
14.79158,30337
14.79970,30802
14.80783,29240
14.81595,30267
14.82407,40095
14.83220,44428
14.84032,45976
14.84845,58183
14.85657,60486
14.86468,59490
14.87282,59403
14.88093,54209
14.88907,58285
14.89718,59022
14.90530,55437
14.91343,53271
14.92155,51987
14.92968,49892
14.93780,54254
14.94592,50767
14.95405,52697
14.96217,47739
14.97028,49414
14.97842,50685
14.98653,47015
14.99467,45164
15.00278,48407
15.01090,46509
15.01903,48310
15.02715,47941
15.03528,44767
15.04340,40071
15.05152,46394
15.05965,48257
15.06777,46143
15.07588,43315
15.08402,41251
15.09213,43659
15.10027,41717
15.10838,42984
15.11650,40294
15.12463,42823
15.13275,38876
15.14088,39309
15.14900,39302
15.15712,36565
15.16525,43214
15.17337,33588
15.18150,33724
15.18962,33281
15.19773,32607
15.20587,35755
15.21398,34056
15.22210,32330
15.23023,31801
15.23835,32336
15.24648,38633
15.25460,35625
15.26272,31988
15.27085,36330
15.27897,33020
15.28710,30511
15.29522,31649
15.30333,35538
15.31147,31025
15.31958,30881
15.32772,31811
15.33583,27547
15.34395,27855
15.35208,32112
15.36020,30436
15.36832,31060
15.37645,30553
15.38457,28553
15.39270,27597
15.40082,28677
15.40893,25018
15.41707,27340
15.42518,30903
15.43332,28541
15.44143,27329
15.44955,27741
15.45768,28630
15.46580,29612
15.47392,28850
15.48205,28591
15.49017,29976
15.49830,33844
15.50642,31365
15.51453,34072
15.52267,37170
15.53078,33480
15.53892,32053
15.54703,31208
15.55515,35350
15.56328,29719
15.57140,30784
15.57953,31852
15.58765,27440
15.59577,27782
15.60390,29572
15.61202,28165
15.62013,32075
15.62827,33037
15.63638,24975
15.64452,30854
15.65263,30192
15.66075,35690
15.66888,27087
15.67700,29090
15.68513,31120
15.69325,31531
15.70137,27073
15.70950,32302
15.71762,31492
15.72573,31071
15.73387,27724
15.74198,28146
15.75012,33867
15.75823,29590
15.76635,29157
15.77448,31666
15.78260,34081
15.79073,29409
15.79885,30776
15.80697,30409
15.81510,38231
15.82322,32784
15.83135,31059
15.83947,34664
15.84758,29960
15.85572,30359
15.86383,32578
15.87195,30126
15.88008,28084
15.88820,32400
15.89633,31919
15.90445,28254
15.91257,27570
15.92070,29562
15.92882,33445
15.93695,32809
15.94507,30832
15.95318,29959
15.96132,32488
15.96943,29881
15.97757,32007
15.98568,30402
15.99380,28387
16.00193,39117
16.01005,32808
16.01817,36506
16.02630,39067
16.03442,41246
16.04255,46589
16.05067,45574
16.05878,43663
16.06692,39831
16.07503,39279
16.08317,35973
16.09128,36066
16.09940,34365
16.10753,34978
16.11565,31851
16.12377,32572
16.13190,40266
16.14002,31889
16.14815,31957
16.15627,31824
16.16438,34479
16.17252,30996
16.18063,30746
16.18877,29249
16.19688,31364
16.20500,33186
16.21313,31713
16.22125,33355
16.22938,33182
16.23750,30332
16.24562,32242
16.25375,27471
16.26187,31662
16.26998,31547
16.27812,32414
16.28623,30520
16.29437,30821
16.30248,33698
16.31060,32762
16.31873,34369
16.32685,30102
16.33498,31988
16.34310,27860
16.35122,27991
16.35935,32075
16.36747,32279
16.37560,30112
16.38372,30175
16.39183,31928
16.39997,32499
16.40808,28909
16.41620,29675
16.42433,28904
16.43245,28586
16.44058,31018
16.44870,31931
16.45682,29739
16.46495,36157
16.47307,32075
16.48120,35729
16.48932,31758
16.49743,33604
16.50557,36322
16.51368,41649
16.52180,37165
16.52993,34546
16.53805,34193
16.54618,33995
16.55430,33872
16.56242,32413
16.57055,30673
16.57867,33646
16.58680,33921
16.59492,35159
16.60303,36976
16.61117,28580
16.61928,31277
16.62742,33103
16.63553,36740
16.64365,34242
16.65178,31419
16.65990,29280
16.66802,29847
16.67615,27955
16.68427,29132
16.69240,28088
16.70052,30226
16.70863,32495
16.71677,29442
16.72488,28223
16.73302,32445
16.74113,25938
16.74925,27279
16.75738,28072
16.76550,29501
16.77362,24700
16.78175,31187
16.78987,30064
16.79800,27725
16.80612,29021
16.81423,26836
16.82237,26790
16.83048,32426
16.83862,26192
16.84673,27058
16.85485,25197
16.86298,30072
16.87110,25441
16.87923,25237
16.88735,26260
16.89547,26671
16.90360,26507
16.91172,26141
16.91983,25930
16.92797,25584
16.93608,29588
16.94422,29258
16.95233,26804
16.96045,27664
16.96858,25382
16.97670,26624
16.98483,25334
16.99295,27181
17.00107,25399
17.00920,25392
17.01732,24795
17.02545,28581
17.03357,25333
17.04168,28335
17.04982,24984
17.05793,25497
17.06605,27936
17.07418,29287
17.08230,25715
17.09043,23972
17.09855,26801
17.10667,26694
17.11480,29212
17.12292,29061
17.13105,28672
17.13917,28330
17.14728,26481
17.15542,26635
17.16353,27740
17.17165,25759
17.17978,27775
17.18790,26157
17.19603,30844
17.20415,25634
17.21227,27377
17.22040,26447
17.22852,27615
17.23665,25316
17.24477,26447
17.25288,26137
17.26102,28853
17.26913,21450
17.27727,27879
17.28538,25782
17.29350,26872
17.30163,25799
17.30975,28286
17.31787,23375
17.32600,29265
17.33412,24632
17.34225,26973
17.35037,28975
17.35848,30466
17.36662,33928
17.37473,33948
17.38287,42770
17.39098,35292
17.39910,38639
17.40723,35328
17.41535,37298
17.42348,34184
17.43160,33422
17.43972,29999
17.44785,30816
17.45597,28809
17.46408,33188
17.47222,31215
17.48033,30093
17.48847,29359
17.49658,29689
17.50470,27907
17.51283,29595
17.52095,27241
17.52908,29634
17.53720,33104
17.54532,29634
17.55345,35164
17.56157,28816
17.56968,34515
17.57782,28654
17.58593,28983
17.59407,27882
17.60218,29058
17.61030,31644
17.61843,28719
17.62655,27439
17.63468,28685
17.64280,31153
17.65092,28829
17.65905,27268
17.66717,27987
17.67530,30894
17.68342,36139
17.69153,34444
17.69967,35225
17.70778,37066
17.71590,34555
17.72403,35974
17.73215,37738
17.74028,35899
17.74840,37257
17.75652,37359
17.76465,36332
17.77277,35010
17.78090,32223
17.78902,30300
17.79713,32424
17.80527,34747
17.81338,34622
17.82152,33352
17.82963,33544
17.83775,29512
17.84588,29336
17.85400,31584
17.86212,31159
17.87025,34122
17.87837,29816
17.88650,36877
17.89462,29453
17.90273,28439
17.91087,33693
17.91898,29712
17.92712,29971
17.93523,27289
17.94335,27075
17.95148,26991
17.95960,29409
17.96772,32597
17.97585,29216
17.98397,26992
17.99210,25479
18.00022,27325
18.00833,29357
18.01647,28707
18.02458,24982
18.03272,27915
18.04083,32400
18.04895,31466
18.05708,31853
18.06520,31961
18.07333,30490
18.08145,32260
18.08957,35976
18.09770,37010
18.10582,40233
18.11393,40355
18.12207,42395
18.13018,42772
18.13832,40711
18.14643,41242
18.15455,39155
18.16268,39373
18.17080,37798
18.17893,35237
18.18705,39280
18.19517,35443
18.20330,33453
18.21142,36538
18.21953,35136
18.22767,37935
18.23578,35112
18.24392,37252
18.25203,31964
18.26015,37205
18.26828,36745
18.27640,33129
18.28453,35117
18.29265,35471
18.30077,31886
18.30890,31573
18.31702,29781
18.32515,32818
18.33327,29427
18.34138,29896
18.34952,28345
18.35763,27816
18.36575,30804
18.37388,28120
18.38200,27203
18.39013,29118
18.39825,28129
18.40637,28987
18.41450,27746
18.42262,27790
18.43075,27230
18.43887,31348
18.44698,30716
18.45512,27200
18.46323,26499
18.47137,27500
18.47948,26653
18.48760,27926
18.49573,29985
18.50385,24912
18.51197,28216
18.52010,28519
18.52822,28706
18.53635,27514
18.54447,26420
18.55258,27448
18.56072,27911
18.56883,28323
18.57697,25907
18.58508,29570
18.59320,30332
18.60133,29636
18.60945,26855
18.61757,32477
18.62570,27297
18.63382,30778
18.64195,30644
18.65007,26544
18.65818,24853
18.66632,27341
18.67443,28994
18.68257,27395
18.69068,26514
18.69880,26344
18.70693,29506
18.71505,25213
18.72318,28386
18.73130,25810
18.73942,24554
18.74755,23437
18.75567,24062
18.76378,23079
18.77192,24569
18.78003,24431
18.78817,24980
18.79628,24069
18.80440,23354
18.81253,27508
18.82065,31296
18.82878,27942
18.83690,26343
18.84502,25188
18.85315,29649
18.86127,26252
18.86940,25312
18.87752,25009
18.88563,24884
18.89377,28500
18.90188,28142
18.91000,26731
18.91813,25751
18.92625,29262
18.93438,26807
18.94250,27234
18.95062,25465
18.95875,26930
18.96687,25670
18.97500,24782
18.98312,26535
18.99123,27619
18.99937,27073
19.00748,27338
19.01560,25477
19.02373,28497
19.03185,28322
19.03998,27381
19.04810,24588
19.05622,27267
19.06435,29003
19.07247,24491
19.08060,30598
19.08872,28882
19.09683,29622
19.10497,33558
19.11308,35923
19.12122,39622
19.12933,43259
19.13745,39900
19.14558,45543
19.15370,43902
19.16182,44155
19.16995,38337
19.17807,41564
19.18620,38919
19.19432,39668
19.20243,38384
19.21057,37850
19.21868,34223
19.22682,34594
19.23493,30823
19.24305,29925
19.25118,29754
19.25930,30916
19.26742,32128
19.27555,35459
19.28367,36241
19.29180,35458
19.29992,38546
19.30803,35653
19.31617,37934
19.32428,39551
19.33242,36680
19.34053,38356
19.34865,30230
19.35678,31140
19.36490,32396
19.37303,33554
19.38115,28445
19.38927,32684
19.39740,32028
19.40552,34188
19.41363,30641
19.42177,37411
19.42988,33387
19.43802,33867
19.44613,32213
19.45425,31196
19.46238,30237
19.47050,32243
19.47863,34079
19.48675,33065
19.49487,36083
19.50300,43231
19.51112,70021
19.51925,78957
19.52737,87893
19.53548,98560
19.54362,89674
19.55173,75948
19.55985,56029
19.56798,44702
19.57610,39549
19.58423,32623
19.59235,31816
19.60047,34377
19.60860,33185
19.61672,28073
19.62485,31195
19.63297,43081
19.64108,49277
19.64922,79181
19.65733,131030
19.66547,204482
19.67358,278150
19.68170,347285
19.68983,350937
19.69795,318724
19.70607,267857
19.71420,200121
19.72232,143743
19.73045,104509
19.73857,90545
19.74668,75580
19.75482,65842
19.76293,59413
19.77107,52967
19.77918,51287
19.78730,44473
19.79543,40563
19.80355,41968
19.81167,38428
19.81980,37501
19.82792,39243
19.83605,37181
19.84417,35239
19.85228,37855
19.86042,36716
19.86853,40490
19.87667,43495
19.88478,57789
19.89290,84074
19.90103,128058
19.90915,175185
19.91728,230063
19.92540,278774
19.93352,310098
19.94165,323471
19.94977,306785
19.95788,316190
19.96602,308999
19.97413,298617
19.98227,291989
19.99038,278029
19.99850,286368
20.00663,265537
20.01475,266773
20.02288,251895
20.03100,245379
20.03912,233829
20.04725,223391
20.05537,195950
20.06348,172765
20.07162,133551
20.07973,114730
20.08787,105996
20.09598,101730
20.10410,93886
20.11223,88182
20.12035,87940
20.12848,86478
20.13660,84405
20.14472,84884
20.15285,84590
20.16097,80847
20.16910,78437
20.17722,83427
20.18533,87245
20.19347,88153
20.20158,80148
20.20970,79716
20.21783,76834
20.22595,83029
20.23408,83162
20.24220,85413
20.25032,93926
20.25845,113739
20.26657,158919
20.27470,220688
20.28282,311614
20.29093,377992
20.29907,401703
20.30718,397977
20.31532,349569
20.32343,281000
20.33155,214347
20.33968,171311
20.34780,137149
20.35592,110336
20.36405,90081
20.37217,85487
20.38030,77872
20.38842,72055
20.39653,69273
20.40467,62856
20.41278,67242
20.42092,75368
20.42903,79243
20.43715,100388
20.44528,119747
20.45340,125621
20.46152,136111
20.46965,130786
20.47777,125826
20.48590,106543
20.49402,88933
20.50213,76684
20.51027,75543
20.51838,66632
20.52652,62742
20.53463,55543
20.54275,51683
20.55088,54894
20.55900,54767
20.56713,53295
20.57525,46540
20.58337,47906
20.59150,45893
20.59962,48405
20.60773,44336
20.61587,47540
20.62398,46333
20.63212,49433
20.64023,47278
20.64835,46313
20.65648,43540
20.66460,42439
20.67273,41072
20.68085,45649
20.68897,44873
20.69710,43213
20.70522,42948
20.71335,44531
20.72147,47688
20.72958,43440
20.73772,39587
20.74583,42680
20.75395,44599
20.76208,41641
20.77020,41984
20.77833,40113
20.78645,41771
20.79457,44009
20.80270,39294
20.81082,40757
20.81895,43447
20.82707,43937
20.83518,45489
20.84332,48347
20.85143,44754
20.85955,44461
20.86768,40297
20.87580,43634
20.88393,44456
20.89205,42301
20.90017,39725
20.90830,39235
20.91642,39826
20.92455,36898
20.93267,40901
20.94078,37205
20.94892,37701
20.95703,35151
20.96517,38794
20.97328,36978
20.98140,35670
20.98953,42394
20.99765,41135
21.00577,34917
21.01390,32950
21.02202,44186
21.03015,36634
21.03827,36705
21.04638,42002
21.05452,36354
21.06263,34145
21.07077,35346
21.07888,36067
21.08700,36606
21.09513,35944
21.10325,37196
21.11137,35445
21.11950,34215
21.12762,34291
21.13575,33126
21.14387,32656
21.15198,38572
21.16012,35659
21.16823,39928
21.17637,37607
21.18448,42419
21.19260,42644
21.20073,40029
21.20885,40589
21.21698,34064
21.22510,36606
21.23322,40952
21.24135,42886
21.24947,40941
21.25758,39387
21.26572,40873
21.27383,39475
21.28197,38798
21.29008,39754
21.29820,36372
21.30633,41694
21.31445,43737
21.32258,41966
21.33070,39525
21.33882,37891
21.34695,34319
21.35507,35997
21.36320,39545
21.37132,37515
21.37943,38748
21.38757,35091
21.39568,31186
21.40380,34013
21.41193,41082
21.42005,39476
21.42818,39180
21.43630,39214
21.44442,40230
21.45255,38160
21.46067,43095
21.46880,35554
21.47692,34025
21.48503,35808
21.49317,35173
21.50128,41369
21.50940,32776
21.51753,34704
21.52565,37844
21.53378,35876
21.54190,35110
21.55002,35753
21.55815,33968
21.56627,30818
21.57440,33610
21.58252,36557
21.59063,34236
21.59877,38065
21.60688,43138
21.61502,37262
21.62313,46285
21.63125,54410
21.63938,68724
21.64750,90346
21.65562,104684
21.66375,106265
21.67187,96033
21.68000,77902
21.68812,63451
21.69623,58503
21.70437,51096
21.71248,43212
21.72062,38400
21.72873,36797
21.73685,40374
21.74498,36875
21.75310,36397
21.76123,35665
21.76935,35667
21.77747,39459
21.78560,38450
21.79372,37483
21.80183,36828
21.80997,32710
21.81808,40756
21.82622,50844
21.83433,63303
21.84245,76258
21.85058,89431
21.85870,90247
21.86683,84617
21.87495,74088
21.88307,61613
21.89120,52069
21.89932,44201
21.90743,36513
21.91557,37323
21.92368,35339
21.93182,36138
21.93993,37342
21.94805,36981
21.95618,35288
21.96430,33468
21.97243,34091
21.98055,36151
21.98867,34319
21.99680,32123
22.00492,35127
22.01305,32553
22.02117,32286
22.02928,29439
22.03742,30076
22.04553,30073
22.05365,32761
22.06178,30818
22.06990,30753
22.07803,32341
22.08615,31540
22.09427,37755
22.10240,32712
22.11052,32848
22.11865,33398
22.12677,35699
22.13488,38027
22.14302,36339
22.15113,36013
22.15927,35637
22.16738,33059
22.17550,33130
22.18363,39113
22.19175,34268
22.19987,30861
22.20800,36079
22.21612,36454
22.22425,36061
22.23237,36884
22.24048,45054
22.24862,44100
22.25673,45703
22.26487,34811
22.27298,37416
22.28110,32812
22.28923,36804
22.29735,32552
22.30547,33356
22.31360,30798
22.32172,31430
22.32985,37643
22.33797,36616
22.34608,39165
22.35422,38799
22.36233,39075
22.37047,38924
22.37858,44161
22.38670,42540
22.39483,41568
22.40295,44213
22.41108,43627
22.41920,37782
22.42732,37174
22.43545,39842
22.44357,41181
22.45168,41363
22.45982,39392
22.46793,33299
22.47607,39045
22.48418,32930
22.49230,30742
22.50043,27711
22.50855,31028
22.51668,29541
22.52480,29971
22.53292,35279
22.54105,29230
22.54917,29247
22.55728,30529
22.56542,31468
22.57353,28734
22.58167,34076
22.58978,30011
22.59790,29016
22.60603,29866
22.61415,30398
22.62228,29714
22.63040,25983
22.63852,26706
22.64665,26325
22.65477,31595
22.66290,27172
22.67102,26785
22.67913,27331
22.68727,29815
22.69538,25867
22.70350,28121
22.71163,31771
22.71975,31305
22.72788,30817
22.73600,30689
22.74412,29026
22.75225,25861
22.76037,28213
22.76850,31464
22.77662,25031
22.78473,32486
22.79287,28841
22.80098,26638
22.80912,25913
22.81723,26384
22.82535,25912
22.83348,28534
22.84160,32603
22.84972,28454
22.85785,29526
22.86597,31081
22.87410,30628
22.88222,34851
22.89033,34333
22.89847,32611
22.90658,39090
22.91472,44033
22.92283,47965
22.93095,59212
22.93908,72369
22.94720,83659
22.95532,85728
22.96345,87703
22.97157,87535
22.97970,81990
22.98782,85621
22.99593,70872
23.00407,70581
23.01218,59260
23.02032,61610
23.02843,49773
23.03655,41385
23.04468,39168
23.05280,39535
23.06093,34830
23.06905,38497
23.07717,33795
23.08530,36826
23.09342,32157
23.10153,33159
23.10967,32865
23.11778,31426
23.12592,26609
23.13403,27044
23.14215,28047
23.15028,28526
23.15840,30635
23.16653,25006
23.17465,26867
23.18277,28752
23.19090,30090
23.19902,30263
23.20715,32252
23.21527,34311
23.22338,30311
23.23152,27782
23.23963,23634
23.24775,28458
23.25588,27396
23.26400,32840
23.27213,28924
23.28025,30385
23.28837,26257
23.29650,30612
23.30462,26787
23.31275,30190
23.32087,30642
23.32898,29740
23.33712,29192
23.34523,25598
23.35335,25490
23.36148,27002
23.36960,27668
23.37773,28076
23.38585,31292
23.39397,30301
23.40210,31978
23.41022,32580
23.41835,25798
23.42647,29079
23.43458,28808
23.44272,31363
23.45083,26745
23.45897,26818
23.46708,27059
23.47520,29804
23.48333,28128
23.49145,30502
23.49957,26544
23.50770,28150
23.51582,26498
23.52395,27442
23.53207,26413
23.54018,26802
23.54832,27067
23.55643,28348
23.56457,29193
23.57268,27722
23.58080,31658
23.58893,28290
23.59705,29468
23.60517,33025
23.61330,33135
23.62142,34192
23.62955,34210
23.63767,32595
23.64578,38332
23.65392,41253
23.66203,42674
23.67017,50308
23.67828,56403
23.68640,67801
23.69453,70139
23.70265,70884
23.71078,71428
23.71890,66012
23.72702,60822
23.73515,59801
23.74327,63406
23.75138,108127
23.75952,238593
23.76763,612982
23.77577,1488414
23.78388,2860680
23.79200,4170363
23.80013,5103693
23.80825,5036827
23.81638,4216826
23.82450,3325944
23.83262,2363004
23.84075,1605023
23.84887,1130163
23.85700,821895
23.86512,640211
23.87323,524860
23.88137,444032
23.88948,373290
23.89760,334848
23.90573,293763
23.91385,265670
23.92198,237043
23.93010,222366
23.93822,211398
23.94635,203170
23.95447,190003
23.96260,175990
23.97072,167118
23.97883,154264
23.98697,149833
23.99508,138145
24.00320,136041
24.01133,137657
24.01945,127575
24.02758,126814
24.03570,119526
24.04382,119321
24.05195,112887
24.06007,111594
24.06820,106820
24.07632,112175
24.08443,108594
24.09257,99051
24.10068,100006
24.10882,95265
24.11693,90449
24.12505,100470
24.13318,88811
24.14130,94116
24.14942,107448
24.15755,105036
24.16567,102498
24.17380,92811
24.18192,93397
24.19003,84328
24.19817,86869
24.20628,83462
24.21442,86689
24.22253,87676
24.23065,97552
24.23878,97109
24.24690,91699
24.25503,86110
24.26315,83352
24.27127,82562
24.27940,75325
24.28752,75655
24.29563,70624
24.30377,71082
24.31188,69001
24.32002,68741
24.32813,63774
24.33625,64000
24.34438,60374
24.35250,60902
24.36063,62231
24.36875,56481
24.37687,57020
24.38500,67452
24.39312,63628
24.40123,82248
24.40937,84141
24.41748,97171
24.42562,99374
24.43373,85224
24.44185,82171
24.44998,63524
24.45810,61147
24.46623,58509
24.47435,52575
24.48247,58224
24.49060,55103
24.49872,56695
24.50685,70706
24.51497,71657
24.52308,77071
24.53122,89082
24.53933,83008
24.54745,73376
24.55558,76754
24.56370,67445
24.57183,64660
24.57995,59367
24.58807,60816
24.59620,58794
24.60432,59116
24.61245,59468
24.62057,59100
24.62868,63102
24.63682,61807
24.64493,64040
24.65305,60825
24.66118,61462
24.66930,63768
24.67743,64643
24.68555,61607
24.69367,60221
24.70180,56842
24.70992,52660
24.71805,50627
24.72617,48830
24.73428,51086
24.74242,54889
24.75053,45327
24.75867,42537
24.76678,44843
24.77490,46464
24.78303,48928
24.79115,45050
24.79927,42461
24.80740,46366
24.81552,37565
24.82365,45946
24.83177,43135
24.83988,45520
24.84802,42086
24.85613,44674
24.86427,42084
24.87238,43212
24.88050,43546
24.88863,45096
24.89675,42484
24.90488,46782
24.91300,45416
24.92112,48086
24.92925,45329
24.93737,47965
24.94548,43967
24.95362,41649
24.96173,43362
24.96987,40154
24.97798,41151
24.98610,41277
24.99423,38269
25.00235,41116
25.01048,41724
25.01860,41197
25.02672,37279
25.03485,38525
25.04297,37556
25.05110,37546
25.05922,43271
25.06733,35164
25.07547,39467
25.08358,39413
25.09170,40830
25.09983,42105
25.10795,39209
25.11608,41589
25.12420,46590
25.13232,56603
25.14045,65775
25.14857,83538
25.15670,95930
25.16482,108456
25.17293,113595
25.18107,104601
25.18918,95837
25.19730,81815
25.20543,70524
25.21355,64936
25.22168,58650
25.22980,55513
25.23792,46084
25.24605,44124
25.25417,46703
25.26230,47228
25.27042,46688
25.27853,46976
25.28667,45040
25.29478,48706
25.30292,49741
25.31103,51818
25.31915,59635
25.32728,60269
25.33540,54479
25.34352,57351
25.35165,52468
25.35977,49044
25.36790,42958
25.37602,41563
25.38413,41486
25.39227,39463
25.40038,37003
25.40852,37757
25.41663,38107
25.42475,32739
25.43288,37284
25.44100,34888
25.44912,36474
25.45725,36196
25.46537,36095
25.47350,37409
25.48162,44994
25.48973,45143
25.49787,46168
25.50598,44918
25.51412,44326
25.52223,38794
25.53035,38172
25.53848,35284
25.54660,37897
25.55473,37208
25.56285,42094
25.57097,35683
25.57910,36366
25.58722,32561
25.59533,34605
25.60347,31594
25.61158,33829
25.61972,33614
25.62783,33576
25.63595,36300
25.64408,34740
25.65220,40352
25.66033,36847
25.66845,34330
25.67657,35509
25.68470,35934
25.69282,34706
25.70095,36077
25.70907,36913
25.71718,38994
25.72532,34454
25.73343,38248
25.74155,38147
25.74968,36968
25.75780,38217
25.76593,36738
25.77405,42503
25.78217,39219
25.79030,34274
25.79842,39268
25.80655,37680
25.81467,39652
25.82278,37003
25.83092,39114
25.83903,44013
25.84715,38921
25.85528,37230
25.86340,41823
25.87153,37010
25.87965,39259
25.88777,36245
25.89590,36567
25.90402,36918
25.91215,35953
25.92027,34990
25.92838,35395
25.93652,36941
25.94463,36806
25.95277,36046
25.96088,34538
25.96900,35977
25.97713,34091
25.98525,37192
25.99337,34664
26.00150,32053
26.00962,39781
26.01775,31472
26.02587,35924
26.03398,32552
26.04212,34218
26.05023,40378
26.05837,32050
26.06648,32702
26.07460,33972
26.08273,33181
26.09085,33817
26.09898,35878
26.10710,37371
26.11522,34085
26.12335,40181
26.13147,41282
26.13958,44213
26.14772,51363
26.15583,49359
26.16397,54104
26.17208,47658
26.18020,47687
26.18833,50140
26.19645,43396
26.20458,41266
26.21270,42285
26.22082,41325
26.22895,37147
26.23707,35533
26.24518,35743
26.25332,34882
26.26143,34049
26.26957,33307
26.27768,34695
26.28580,37499
26.29393,38596
26.30205,38628
26.31018,33015
26.31830,28918
26.32642,30019
26.33455,34319
26.34267,31688
26.35080,34174
26.35892,34596
26.36703,33098
26.37517,35201
26.38328,40456
26.39140,44772
26.39953,50169
26.40765,53062
26.41578,55044
26.42390,59982
26.43202,59832
26.44015,57341
26.44827,50919
26.45640,45802
26.46452,44494
26.47263,36488
26.48077,37634
26.48888,39548
26.49700,39386
26.50513,36750
26.51325,34533
26.52138,32413
26.52950,35939
26.53762,30327
26.54575,34408
26.55387,33416
26.56200,33832
26.57012,30224
26.57823,33212
26.58637,30513
26.59448,32936
26.60262,31418
26.61073,36217
26.61885,30198
26.62698,32040
26.63510,34387
26.64322,33340
26.65135,36309
26.65947,33522
26.66760,34655
26.67572,31700
26.68383,33983
26.69197,31663
26.70008,32112
26.70822,34138
26.71633,36456
26.72445,37476
26.73258,35144
26.74070,34470
26.74883,38131
26.75695,36620
26.76507,35225
26.77320,34676
26.78132,37802
26.78943,35247
26.79757,36802
26.80568,35968
26.81382,36865
26.82193,38348
26.83005,38332
26.83818,40470
26.84630,40870
26.85443,43796
26.86255,40040
26.87067,40177
26.87880,44602
26.88692,44609
26.89503,42989
26.90317,41376
26.91128,37419
26.91942,36237
26.92753,38790
26.93565,40268
26.94378,38293
26.95190,45669
26.96003,48357
26.96815,67591
26.97627,106515
26.98440,199103
26.99252,387769
27.00065,738826
27.00877,1328857
27.01688,2249138
27.02502,2900176
27.03313,3184440
27.04125,2940992
27.04938,2430734
27.05750,1865523
27.06563,1394415
27.07375,987476
27.08187,721334
27.09000,559001
27.09812,463004
27.10625,375252
27.11437,337111
27.12248,282197
27.13062,264429
27.13873,231104
27.14687,214080
27.15498,187295
27.16310,180805
27.17123,169061
27.17935,169094
27.18747,158852
27.19560,147478
27.20372,141161
27.21185,137135
27.21997,138754
27.22808,130791
27.23622,125048
27.24433,115664
27.25247,114062
27.26058,105051
27.26870,103891
27.27683,96011
27.28495,93773
27.29307,89484
27.30120,93300
27.30932,90647
27.31745,88459
27.32557,83156
27.33368,76955
27.34182,78721
27.34993,78826
27.35807,78781
27.36618,73591
27.37430,74967
27.38243,72631
27.39055,74538
27.39868,77241
27.40680,72484
27.41492,72890
27.42305,70014
27.43117,70414
27.43928,69641
27.44742,72888
27.45553,67226
27.46367,61926
27.47178,67400
27.47990,60783
27.48803,56344
27.49615,57523
27.50428,58936
27.51240,57309
27.52052,59530
27.52865,60304
27.53677,60747
27.54488,63578
27.55302,63852
27.56113,63442
27.56927,61518
27.57738,56950
27.58550,57826
27.59363,57114
27.60175,60378
27.60988,54615
27.61800,55816
27.62612,58841
27.63425,60023
27.64237,54391
27.65050,54046
27.65862,54285
27.66673,53837
27.67487,53352
27.68298,52417
27.69110,47212
27.69923,50587
27.70735,50422
27.71548,50398
27.72360,49491
27.73172,45759
27.73985,46389
27.74797,47858
27.75610,47013
27.76422,44878
27.77233,46400
27.78047,45818
27.78858,46876
27.79672,47788
27.80483,51178
27.81295,44208
27.82108,46805
27.82920,48548
27.83732,44392
27.84545,45286
27.85357,45579
27.86170,49619
27.86982,49329
27.87793,51055
27.88607,43938
27.89418,45752
27.90232,43336
27.91043,45948
27.91855,48014
27.92668,43211
27.93480,43111
27.94292,45980
27.95105,43153
27.95917,43299
27.96730,41112
27.97542,41875
27.98353,50074
27.99167,42085
27.99978,45109
28.00792,40000
28.01603,43578
28.02415,39177
28.03228,41585
28.04040,41658
28.04853,44477
28.05665,42751
28.06477,42038
28.07290,43420
28.08102,43694
28.08913,41167
28.09727,43293
28.10538,42862
28.11352,41383
28.12163,36948
28.12975,36999
28.13788,38780
28.14600,38302
28.15413,41462
28.16225,38179
28.17037,40289
28.17850,37539
28.18662,39747
28.19475,39845
28.20287,44130
28.21098,43418
28.21912,47865
28.22723,48666
28.23535,49458
28.24348,53535
28.25160,44493
28.25973,40474
28.26785,40348
28.27597,44380
28.28410,45973
28.29222,51485
28.30035,52382
28.30847,71664
28.31658,87924
28.32472,124552
28.33283,186187
28.34095,256172
28.34908,326963
28.35720,414725
28.36533,474506
28.37345,532684
28.38157,559987
28.38970,549579
28.39782,535423
28.40595,491136
28.41407,425472
28.42218,388606
28.43032,331613
28.43843,281348
28.44657,256301
28.45468,222667
28.46280,192563
28.47093,168706
28.47905,157232
28.48717,147292
28.49530,129685
28.50342,115792
28.51155,113120
28.51967,112632
28.52778,102196
28.53592,108096
28.54403,103380
28.55217,86132
28.56028,88809
28.56840,89807
28.57653,88303
28.58465,81268
28.59278,78455
28.60090,78197
28.60902,77907
28.61715,75751
28.62527,76038
28.63338,74414
28.64152,77872
28.64963,73948
28.65777,77834
28.66588,83760
28.67400,84983
28.68213,83526
28.69025,76522
28.69838,69131
28.70650,71068
28.71462,66371
28.72275,68361
28.73087,63148
28.73898,60739
28.74712,59629
28.75523,60989
28.76337,61990
28.77148,72531
28.77960,72707
28.78773,76599
28.79585,76480
28.80398,70104
28.81210,68375
28.82022,63105
28.82835,56994
28.83647,55303
28.84460,51378
28.85272,53480
28.86083,55235
28.86897,55507
28.87708,49445
28.88520,47883
28.89333,49357
28.90145,48581
28.90958,52488
28.91770,56154
28.92582,50265
28.93395,54461
28.94207,53092
28.95020,52015
28.95832,55771
28.96643,54749
28.97457,56693
28.98268,55369
28.99080,59650
28.99893,47708
29.00705,51187
29.01518,52519
29.02330,48007
29.03142,47775
29.03955,49250
29.04767,51755
29.05580,52966
29.06392,48843
29.07203,47177
29.08017,44742
29.08828,47651
29.09642,44125
29.10453,46338
29.11265,43349
29.12078,47440
29.12890,51860
29.13702,51065
29.14515,51753
29.15327,52333
29.16140,49589
29.16952,48380
29.17763,49233
29.18577,49533
29.19388,52618
29.20202,42611
29.21013,46434
29.21825,50488
29.22638,44701
29.23450,45349
29.24263,45830
29.25075,44756
29.25887,46717
29.26700,47524
29.27512,43039
29.28323,50700
29.29137,44860
29.29948,50253
29.30762,46734
29.31573,42423
29.32385,45721
29.33198,43535
29.34010,48874
29.34823,46245
29.35635,51599
29.36447,44391
29.37260,45135
29.38072,44737
29.38883,43119
29.39697,41315
29.40508,46128
29.41322,43089
29.42133,41138
29.42945,45598
29.43758,43829
29.44570,43781
29.45383,42522
29.46195,45907
29.47007,42457
29.47820,44122
29.48632,46649
29.49445,53463
29.50257,46941
29.51068,53817
29.51882,57911
29.52693,54599
29.53505,51348
29.54318,47209
29.55130,48389
29.55943,45112
29.56755,42176
29.57567,45715
29.58380,41948
29.59192,40333
29.60005,43155
29.60817,43004
29.61628,37099
29.62442,40854
29.63253,39382
29.64067,39712
29.64878,46735
29.65690,38650
29.66503,39809
29.67315,40702
29.68127,39690
29.68940,36661
29.69752,40707
29.70565,38183
29.71377,44661
29.72188,38636
29.73002,35019
29.73813,37403
29.74627,39819
29.75438,45011
29.76250,45267
29.77063,42815
29.77875,37676
29.78687,39965
29.79500,36283
29.80312,40676
29.81125,41521
29.81937,38757
29.82748,38623
29.83562,35199
29.84373,39333
29.85187,39391
29.85998,41790
29.86810,38082
29.87623,41888
29.88435,47790
29.89248,53244
29.90060,61964
29.90872,67655
29.91685,70816
29.92497,71344
29.93308,66058
29.94122,60445
29.94933,58774
29.95747,62020
29.96558,70869
29.97370,84065
29.98183,100560
29.98995,110679
29.99808,135382
30.00620,155019
30.01432,173080
30.02245,184414
30.03057,196893
30.03868,209870
30.04682,201155
30.05493,205406
30.06307,199834
30.07118,183798
30.07930,170625
30.08743,160458
30.09555,164937
30.10368,159062
30.11180,141736
30.11992,120362
30.12805,112034
30.13617,107627
30.14430,104927
30.15242,90911
30.16053,90698
30.16867,82878
30.17678,82913
30.18490,80283
30.19303,75065
30.20115,65474
30.20928,69662
30.21740,67924
30.22552,72916
30.23365,62864
30.24177,59712
30.24990,59005
30.25802,53328
30.26613,55878
30.27427,49673
30.28238,55875
30.29052,50984
30.29863,51741
30.30675,52425
30.31488,49840
30.32300,55063
30.33112,51733
30.33925,48089
30.34737,50461
30.35550,53659
30.36362,51603
30.37173,48546
30.37987,48908
30.38798,53555
30.39612,47718
30.40423,44744
30.41235,45775
30.42048,48160
30.42860,48069
30.43673,49208
30.44485,52701
30.45297,43602
30.46110,42595
30.46922,46814
30.47733,42161
30.48547,46866
30.49358,47649
30.50172,43010
30.50983,46688
30.51795,46282
30.52608,43585
30.53420,42587
30.54233,40840
30.55045,46116
30.55857,43551
30.56670,40252
30.57482,39178
30.58293,44077
30.59107,39602
30.59918,38334
30.60732,38581
30.61543,36073
30.62355,41622
30.63168,38127
30.63980,39735
30.64793,40326
30.65605,41142
30.66417,37746
30.67230,36867
30.68042,38658
30.68855,36409
30.69667,39934
30.70478,38525
30.71292,39084
30.72103,41830
30.72915,36253
30.73728,40943
30.74540,35300
30.75353,44098
30.76165,46331
30.76977,44762
30.77790,38732
30.78602,38886
30.79415,39645
30.80227,44927
30.81038,46594
30.81852,45620
30.82663,47122
30.83475,44816
30.84288,49081
30.85100,43425
30.85913,38376
30.86725,44023
30.87537,38950
30.88350,37942
30.89162,36353
30.89975,39524
30.90787,36279
30.91598,40922
30.92412,38886
30.93223,37772
30.94037,38801
30.94848,41505
30.95660,36565
30.96473,40117
30.97285,37987
30.98097,35191
30.98910,37150
30.99722,41319
31.00535,38059
31.01347,39403
31.02158,47109
31.02972,44257
31.03783,44280
31.04597,46238
31.05408,49003
31.06220,46206
31.07033,46027
31.07845,46096
31.08658,47181
31.09470,50216
31.10282,53774
31.11095,61673
31.11907,62010
31.12718,63373
31.13532,55657
31.14343,54323
31.15157,50008
31.15968,42610
31.16780,42650
31.17593,43848
31.18405,45495
31.19218,43570
31.20030,46760
31.20842,55051
31.21655,55203
31.22467,57339
31.23278,61928
31.24092,58094
31.24903,54835
31.25717,50646
31.26528,46329
31.27340,44528
31.28153,41442
31.28965,42785
31.29778,46584
31.30590,46857
31.31402,39662
31.32215,38225
31.33027,36397
31.33840,34841
31.34652,37378
31.35463,38439
31.36277,39674
31.37088,38293
31.37900,36748
31.38713,35536
31.39525,36818
31.40338,35451
31.41150,39486
31.41962,39320
31.42775,38310
31.43587,43531
31.44400,39467
31.45212,43242
31.46023,41266
31.46837,44491
31.47648,38991
31.48462,36569
31.49273,34642
31.50085,37699
31.50898,36642
31.51710,36855
31.52522,35443
31.53335,34955
31.54147,32637
31.54960,38489
31.55772,37155
31.56583,36134
31.57397,38754
31.58208,38746
31.59022,33630
31.59833,36119
31.60645,34045
31.61458,34862
31.62270,34650
31.63082,33941
31.63895,41728
31.64707,36724
31.65520,40666
31.66332,37712
31.67143,38101
31.67957,34548
31.68768,35779
31.69582,41832
31.70393,33789
31.71205,39095
31.72018,38850
31.72830,35951
31.73643,37808
31.74455,34013
31.75267,36970
31.76080,41175
31.76892,31321
31.77703,39356
31.78517,38185
31.79328,40424
31.80142,38470
31.80953,37806
31.81765,41324
31.82578,40230
31.83390,41631
31.84203,45014
31.85015,44246
31.85827,42332
31.86640,45128
31.87452,50191
31.88263,47046
31.89077,51809
31.89888,48200
31.90702,51409
31.91513,50361
31.92325,59413
31.93138,63518
31.93950,76086
31.94763,83389
31.95575,91525
31.96387,101387
31.97200,106966
31.98012,111799
31.98825,116693
31.99637,108245
32.00448,104244
32.01262,109777
32.02073,95909
32.02885,94548
32.03698,86281
32.04510,76431
32.05323,77183
32.06135,76547
32.06947,69070
32.07760,64110
32.08572,63889
32.09385,64739
32.10197,67416
32.11008,60572
32.11822,63050
32.12633,60037
32.13447,51738
32.14258,52649
32.15070,46633
32.15883,51370
32.16695,49953
32.17507,47669
32.18320,50179
32.19132,44852
32.19945,45278
32.20757,47095
32.21568,45301
32.22382,45515
32.23193,44116
32.24007,44841
32.24818,43887
32.25630,47410
32.26443,42909
32.27255,41596
32.28067,39947
32.28880,41683
32.29692,43458
32.30505,44414
32.31317,43756
32.32128,41810
32.32942,41456
32.33753,41682
32.34567,41426
32.35378,44817
32.36190,44761
32.37003,42520
32.37815,38726
32.38628,41168
32.39440,41520
32.40252,40770
32.41065,39656
32.41877,43546
32.42688,42494
32.43502,35353
32.44313,37310
32.45127,38250
32.45938,41540
32.46750,36682
32.47563,39961
32.48375,36463
32.49188,39704
32.50000,41247
32.50812,39875
32.51625,36720
32.52437,39997
32.53250,41041
32.54062,39220
32.54873,39289
32.55687,38559
32.56498,38449
32.57310,41846
32.58123,37794
32.58935,40014
32.59748,41985
32.60560,39500
32.61372,38250
32.62185,35680
32.62997,33978
32.63810,37580
32.64622,38800
32.65433,39401
32.66247,42645
32.67058,49007
32.67870,48343
32.68683,50768
32.69495,47439
32.70308,55259
32.71120,49563
32.71932,48310
32.72745,45684
32.73557,39379
32.74370,39420
32.75182,45252
32.75993,39800
32.76807,40919
32.77618,37120
32.78432,36785
32.79243,40155
32.80055,37058
32.80868,32858
32.81680,38118
32.82492,35379
32.83305,39738
32.84117,41941
32.84930,36694
32.85742,35183
32.86553,34781
32.87367,38085
32.88178,38219
32.88992,43744
32.89803,33414
32.90615,33730
32.91428,41316
32.92240,36612
32.93052,33885
32.93865,37120
32.94677,37814
32.95490,38672
32.96302,35052
32.97113,36933
32.97927,37029
32.98738,32050
32.99552,35720
33.00363,37862
33.01175,38067
33.01988,34413
33.02800,36240
33.03613,34174
33.04425,41473
33.05237,35818
33.06050,39666
33.06862,36490
33.07673,36702
33.08487,39179
33.09298,40768
33.10112,44858
33.10923,42772
33.11735,49974
33.12548,50847
33.13360,55492
33.14173,56408
33.14985,52137
33.15797,47117
33.16610,42083
33.17422,42498
33.18235,42700
33.19047,38741
33.19858,36745
33.20672,38823
33.21483,39075
33.22295,39076
33.23108,43866
33.23920,36922
33.24733,41589
33.25545,44982
33.26357,37880
33.27170,37858
33.27982,39452
33.28795,37237
33.29607,40545
33.30418,37175
33.31232,37114
33.32043,38746
33.32855,36420
33.33668,39322
33.34480,41298
33.35293,35630
33.36105,35368
33.36917,34861
33.37730,36237
33.38542,37275
33.39355,35049
33.40167,40476
33.40978,36756
33.41792,35654
33.42603,37638
33.43417,36174
33.44228,39911
33.45040,37343
33.45853,35010
33.46665,37790
33.47477,38676
33.48290,39776
33.49102,36437
33.49915,36983
33.50727,42568
33.51538,41992
33.52352,38462
33.53163,39531
33.53977,38104
33.54788,38072
33.55600,37629
33.56413,39255
33.57225,39277
33.58038,37862
33.58850,35683
33.59662,36776
33.60475,42125
33.61287,35088
33.62098,35393
33.62912,36544
33.63723,41224
33.64537,38431
33.65348,39219
33.66160,39059
33.66973,39971
33.67785,39601
33.68598,37553
33.69410,36187
33.70222,37386
33.71035,36703
33.71847,37240
33.72658,36664
33.73472,37190
33.74283,40555
33.75097,35629
33.75908,39299
33.76720,37741
33.77533,36204
33.78345,36965
33.79158,35857
33.79970,37136
33.80782,36380
33.81595,34279
33.82407,36199
33.83220,33621
33.84032,39731
33.84843,40139
33.85657,36070
33.86468,41843
33.87280,39248
33.88093,41193
33.88905,40594
33.89718,38663
33.90530,38134
33.91342,40154
33.92155,42896
33.92967,36346
33.93780,36934
33.94592,40757
33.95403,40567
33.96217,40106
33.97028,36771
33.97842,38852
33.98653,37250
33.99465,38797
34.00278,41840
34.01090,39731
34.01902,39554
34.02715,37027
34.03527,40073
34.04340,36952
34.05152,39765
34.05963,41132
34.06777,39901
34.07588,36358
34.08402,35306
34.09213,37980
34.10025,37900
34.10838,37622
34.11650,36812
34.12462,38714
34.13275,41212
34.14087,41620
34.14900,38231
34.15712,38049
34.16523,37173
34.17337,40855
34.18148,34967
34.18962,36967
34.19773,40314
34.20585,38033
34.21398,37385
34.22210,37217
34.23023,35653
34.23835,36810
34.24647,35198
34.25460,37120
34.26272,36022
34.27083,39631
34.27897,41663
34.28708,34255
34.29522,39097
34.30333,35606
34.31145,34328
34.31958,39309
34.32770,38974
34.33583,37082
34.34395,35504
34.35207,37819
34.36020,35360
34.36832,38524
34.37643,38561
34.38457,41088
34.39268,43123
34.40082,35254
34.40893,36097
34.41705,37782
34.42518,39200
34.43330,36623
34.44143,36597
34.44955,42251
34.45767,39319
34.46580,37037
34.47392,40039
34.48205,38650
34.49017,35253
34.49828,35767
34.50642,38517
34.51453,41000
34.52265,42448
34.53078,47072
34.53890,56571
34.54703,63366
34.55515,77220
34.56327,76985
34.57140,74208
34.57952,80849
34.58765,75864
34.59577,72287
34.60388,63673
34.61202,63715
34.62013,59688
34.62827,56915
34.63638,53106
34.64450,52428
34.65263,49113
34.66075,49967
34.66887,47265
34.67700,52338
34.68512,45439
34.69325,47757
34.70137,44411
34.70948,46681
34.71762,41848
34.72573,44753
34.73387,45368
34.74198,46875
34.75010,42286
34.75823,44333
34.76635,42835
34.77447,42700
34.78260,39925
34.79072,38541
34.79885,44349
34.80697,43174
34.81508,43162
34.82322,45304
34.83133,46656
34.83947,41814
34.84758,42780
34.85570,43308
34.86383,44780
34.87195,42361
34.88008,40420
34.88820,42773
34.89632,45189
34.90445,43753
34.91257,45288
34.92068,45342
34.92882,42653
34.93693,45545
34.94507,47750
34.95318,44337
34.96130,45599
34.96943,54719
34.97755,56263
34.98568,61736
34.99380,63056
35.00192,55955
35.01005,54520
35.01817,48034
35.02630,46389
35.03442,43841
35.04253,45665
35.05067,42710
35.05878,48824
35.06690,46128
35.07503,44536
35.08315,44635
35.09128,41896
35.09940,44061
35.10752,45847
35.11565,42820
35.12377,42677
35.13190,39304
35.14002,41748
35.14813,45308
35.15627,46450
35.16438,46438
35.17250,46805
35.18063,45343
35.18875,41982
35.19688,45930
35.20500,47241
35.21312,42929
35.22125,41998
35.22937,45970
35.23750,38443
35.24562,48779
35.25373,47488
35.26187,44307
35.26998,44060
35.27812,49790
35.28623,47732
35.29435,50844
35.30248,46499
35.31060,47351
35.31872,43613
35.32685,46205
35.33497,45448
35.34310,41508
35.35122,42732
35.35933,42055
35.36747,42675
35.37558,43119
35.38372,42375
35.39183,42975
35.39995,45130
35.40808,40173
35.41620,38583
35.42432,42993
35.43245,40491
35.44057,46321
35.44870,48713
35.45682,44305
35.46493,48671
35.47307,48112
35.48118,51372
35.48932,50160
35.49743,46312
35.50555,42571
35.51368,49664
35.52180,48924
35.52993,44663
35.53805,48390
35.54617,35086
35.55430,41672
35.56242,47991
35.57053,44338
35.57867,48210
35.58678,47423
35.59492,43331
35.60303,46357
35.61115,47217
35.61928,41753
35.62740,43838
35.63553,45303
35.64365,44217
35.65177,48479
35.65990,42508
35.66802,43048
35.67615,47360
35.68427,46551
35.69238,51536
35.70052,49289
35.70863,44710
35.71675,49422
35.72488,46634
35.73300,45306
35.74113,45156
35.74925,46427
35.75737,43255
35.76550,45133
35.77362,42754
35.78175,44777
35.78987,42131
35.79798,44581
35.80612,46342
35.81423,43898
35.82237,46665
35.83048,44337
35.83860,44436
35.84673,43334
35.85485,46947
35.86297,43237
35.87110,44142
35.87922,45038
35.88735,45547
35.89547,44916
35.90358,41851
35.91172,42203
35.91983,44898
35.92797,43968
35.93608,43736
35.94420,45688
35.95233,43486
35.96045,42930
35.96857,47303
35.97670,48634
35.98482,45088
35.99295,44223
36.00107,45599
36.00918,41720
36.01732,47671
36.02543,52147
36.03357,54402
36.04168,49900
36.04980,52998
36.05793,50543
36.06605,51458
36.07418,48862
36.08230,50748
36.09042,48370
36.09855,45513
36.10667,46551
36.11478,44080
36.12292,48067
36.13103,44688
36.13917,45600
36.14728,47123
36.15540,49759
36.16353,45089
36.17165,45435
36.17978,48892
36.18790,48037
36.19602,46363
36.20415,42461
36.21227,48691
36.22038,47044
36.22852,48926
36.23663,40387
36.24477,47022
36.25288,44877
36.26100,48530
36.26913,46944
36.27725,49831
36.28538,44368
36.29350,44912
36.30162,48177
36.30975,49328
36.31787,52595
36.32600,58847
36.33412,56713
36.34223,50101
36.35037,57806
36.35848,48661
36.36660,47772
36.37473,51076
36.38285,48852
36.39098,49385
36.39910,49181
36.40722,50881
36.41535,50016
36.42347,49241
36.43160,48350
36.43972,48134
36.44783,45591
36.45597,46182
36.46408,45657
36.47220,45988
36.48033,46166
36.48845,53444
36.49658,46664
36.50470,45210
36.51282,42997
36.52095,44709
36.52907,43051
36.53720,43052
36.54532,46315
36.55343,49441
36.56157,48760
36.56968,47849
36.57782,47850
36.58593,46942
36.59405,44953
36.60218,47327
36.61030,47019
36.61842,49635
36.62655,50156
36.63467,50066
36.64280,51679
36.65092,48857
36.65903,51310
36.66717,47435
36.67528,49730
36.68342,53748
36.69153,52533
36.69965,53592
36.70778,53248
36.71590,49861
36.72403,50186
36.73215,57531
36.74027,55291
36.74840,58318
36.75652,55172
36.76463,56178
36.77277,60569
36.78088,64642
36.78902,68290
36.79713,65710
36.80525,69621
36.81338,74901
36.82150,72750
36.82963,71262
36.83775,72658
36.84587,73821
36.85400,70075
36.86212,66865
36.87025,63696
36.87837,61532
36.88648,67215
36.89462,60862
36.90273,56387
36.91085,58628
36.91898,54508
36.92710,56412
36.93523,51378
36.94335,52000
36.95147,51888
36.95960,51106
36.96772,52149
36.97585,49927
36.98397,47587
36.99208,50999
37.00022,53274
37.00833,48444
37.01645,48370
37.02458,47483
37.03270,50876
37.04083,50900
37.04895,50985
37.05707,50501
37.06520,52768
37.07332,49069
37.08145,48393
37.08957,51543
37.09768,52233
37.10582,52262
37.11393,54127
37.12207,52113
37.13018,50858
37.13830,51278
37.14643,48983
37.15455,54354
37.16267,50966
37.17080,53396
37.17892,52725
37.18705,55925
37.19517,53667
37.20328,57954
37.21142,57044
37.21953,57510
37.22767,53332
37.23578,54227
37.24390,55027
37.25203,50297
37.26015,61394
37.26827,56238
37.27640,53152
37.28452,53003
37.29265,55702
37.30077,58588
37.30888,55620
37.31702,54810
37.32513,54576
37.33327,53314
37.34138,58577
37.34950,64154
37.35763,71329
37.36575,73068
37.37388,75017
37.38200,75395
37.39012,76138
37.39825,68858
37.40637,64169
37.41448,70202
37.42262,64235
37.43073,68528
37.43887,66376
37.44698,67882
37.45510,63572
37.46323,61684
37.47135,63521
37.47948,63250
37.48760,67950
