C:\MassHunter\GCMS\1\data\JTB-E02\BACandBLUE\JTB-E18-011-08.D Tue Jun 18 11:34:26 2019
Start of data points
2.09518	94902
2.10330	89717
2.11143	86338
2.11955	96098
2.12768	85597
2.13580	86159
2.14392	85573
2.15205	82975
2.16017	81246
2.16830	80286
2.17642	79532
2.18453	80082
2.19267	74955
2.20078	73424
2.20892	73787
2.21703	72073
2.22515	69094
2.23328	69283
2.24140	65445
2.24952	67670
2.25765	72335
2.26577	76016
2.27390	382637
2.28202	1668158
2.29013	1590766
2.29827	682851
2.30638	415285
2.31452	334658
2.32263	297613
2.33075	252017
2.33888	244216
2.34700	222552
2.35512	199354
2.36325	189149
2.37137	180497
2.37950	168818
2.38762	171095
2.39573	158042
2.40387	156938
2.41198	149800
2.42012	151807
2.42823	172923
2.43635	160175
2.44448	138751
2.45260	144724
2.46073	137130
2.46885	138644
2.47697	132738
2.48510	128650
2.49322	149392
2.50133	160170
2.50947	143088
2.51758	132495
2.52572	131121
2.53383	126227
2.54195	129225
2.55008	129213
2.55820	156306
2.56633	262044
2.57445	260054
2.58257	188300
2.59070	171714
2.59882	160829
2.60695	249203
2.61507	736316
2.62318	873231
2.63132	507536
2.63943	325147
2.64755	254255
2.65568	216438
2.66380	191547
2.67193	170143
2.68005	159193
2.68817	155055
2.69630	145755
2.70442	137755
2.71255	133920
2.72067	128258
2.72878	134598
2.73692	128837
2.74503	130726
2.75315	122422
2.76128	119357
2.76940	119856
2.77753	164826
2.78565	582473
2.79377	1221132
2.80190	954519
2.81002	536828
2.81815	415070
2.82627	376355
2.83438	325283
2.84252	262921
2.85063	231767
2.85877	208550
2.86688	191233
2.87500	183333
2.88313	174923
2.89125	159013
2.89937	156121
2.90750	148340
2.91562	142597
2.92375	145999
2.93187	135132
2.93998	134775
2.94812	134540
2.95623	126194
2.96437	132929
2.97248	140640
2.98060	133453
2.98873	140630
2.99685	135878
3.00497	142683
3.01310	145323
3.02122	137155
3.02935	124298
3.03747	126158
3.04558	122683
3.05372	118434
3.06183	116925
3.06997	117721
3.07808	146806
3.08620	594565
3.09433	2348139
3.10245	3973708
3.11058	4619190
3.11870	4699054
3.12682	3221284
3.13495	1968943
3.14307	1424648
3.15118	1109185
3.15932	898670
3.16743	751542
3.17557	715206
3.18368	751169
3.19180	1136032
3.19993	1856957
3.20805	1771522
3.21618	1234233
3.22430	936336
3.23242	782697
3.24055	675569
3.24867	581132
3.25680	511579
3.26492	457064
3.27303	412840
3.28117	400961
3.28928	593856
3.29740	1846043
3.30553	5335179
3.31365	9037982
3.32178	9091897
3.32990	6469189
3.33802	3967232
3.34615	2620241
3.35427	1984970
3.36240	1577513
3.37052	1279935
3.37863	1119654
3.38677	970936
3.39488	868462
3.40300	801954
3.41113	730008
3.41925	679936
3.42738	637892
3.43550	624362
3.44362	612897
3.45175	584163
3.45987	556667
3.46800	577416
3.47612	588602
3.48423	579416
3.49237	545653
3.50048	507730
3.50862	471174
3.51673	463080
3.52485	466959
3.53298	483553
3.54110	502803
3.54922	488448
3.55735	476593
3.56547	450930
3.57360	492062
3.58172	559233
3.58983	556248
3.59797	484231
3.60608	442801
3.61422	440567
3.62233	436538
3.63045	433947
3.63858	430694
3.64670	419140
3.65483	427176
3.66295	707290
3.67107	3069783
3.67920	1.001465E+07
3.68732	1.580118E+07
3.69543	1.359122E+07
3.70357	8246647
3.71168	5377070
3.71982	4206734
3.72793	3482410
3.73605	2975200
3.74418	2631851
3.75230	2330649
3.76043	2092558
3.76855	1933054
3.77667	1758450
3.78480	1644693
3.79292	1528295
3.80103	1488580
3.80917	1712784
3.81728	2317446
3.82542	2656212
3.83353	2263506
3.84165	1787684
3.84978	1503456
3.85790	1354819
3.86603	1240446
3.87415	1152462
3.88227	1067073
3.89040	1026461
3.89852	990112
3.90665	938594
3.91477	922545
3.92288	1008206
3.93102	1157376
3.93913	1214661
3.94725	1301306
3.95538	2475997
3.96350	6057439
3.97163	9989609
3.97975	9564088
3.98787	6190651
3.99600	4160780
4.00412	7427327
4.01225	1.8241E+07
4.02037	2.944092E+07
4.02848	2.85207E+07
4.03662	1.727242E+07
4.04473	8226639
4.05285	4364845
4.06098	2890618
4.06910	2236069
4.07723	1822501
4.08535	1571756
4.09347	1401369
4.10160	1280218
4.10972	1152769
4.11785	1063050
4.12597	1013889
4.13408	973150
4.14222	1017594
4.15033	1095320
4.15847	1116655
4.16658	1025573
4.17470	922972
4.18283	859983
4.19095	817765
4.19907	765816
4.20720	851231
4.21532	1840722
4.22345	5573070
4.23157	1.223812E+07
4.23968	1.702643E+07
4.24782	1.652682E+07
4.25593	1.114375E+07
4.26407	6545928
4.27218	4384135
4.28030	3212832
4.28843	2492214
4.29655	2024978
4.30468	1739832
4.31280	1507332
4.32092	1342560
4.32905	1206418
4.33717	1120324
4.34528	1041405
4.35342	1026157
4.36153	1041887
4.36967	1116383
4.37778	1106622
4.38590	1002181
4.39403	889245
4.40215	812167
4.41028	758276
4.41840	714810
4.42652	706543
4.43465	681513
4.44277	649870
4.45088	641212
4.45902	624865
4.46713	614297
4.47527	618905
4.48338	580592
4.49150	566025
4.49963	564849
4.50775	539649
4.51588	533469
4.52400	542682
4.53212	522547
4.54025	532378
4.54837	532062
4.55650	534260
4.56462	522793
4.57273	496213
4.58087	484796
4.58898	468695
4.59710	472327
4.60523	453060
4.61335	455673
4.62148	479501
4.62960	579422
4.63772	845026
4.64585	1089179
4.65397	1114766
4.66210	914626
4.67022	725724
4.67833	608569
4.68647	581276
4.69458	557172
4.70272	496793
4.71083	455824
4.71895	429161
4.72708	426199
4.73520	408854
4.74332	405309
4.75145	393264
4.75957	384655
4.76770	381141
4.77582	377659
4.78393	386034
4.79207	429720
4.80018	542518
4.80832	710953
4.81643	767344
4.82455	687275
4.83268	577323
4.84080	539013
4.84892	526738
4.85705	551231
4.86517	511668
4.87330	477237
4.88142	443710
4.88953	415043
4.89767	411905
4.90578	395770
4.91392	384507
4.92203	366573
4.93015	416738
4.93828	666286
4.94640	1466439
4.95453	3055777
4.96265	4791205
4.97077	5486729
4.97890	4760277
4.98702	3382781
4.99513	2214299
5.00327	1528976
5.01138	1179061
5.01952	987332
5.02763	908351
5.03575	901975
5.04388	965182
5.05200	969650
5.06013	878642
5.06825	782383
5.07637	708558
5.08450	671706
5.09262	632398
5.10075	587306
5.10887	589534
5.11698	578784
5.12512	546727
5.13323	543999
5.14135	525747
5.14948	534188
5.15760	594341
5.16573	678390
5.17385	737345
5.18197	729597
5.19010	656727
5.19822	627955
5.20635	654033
5.21447	671166
5.22258	671252
5.23072	638988
5.23883	586968
5.24695	568650
5.25508	535915
5.26320	491962
5.27133	455064
5.27945	422130
5.28757	414041
5.29570	420569
5.30382	403189
5.31195	394760
5.32007	394214
5.32818	407033
5.33632	426876
5.34443	439444
5.35257	443382
5.36068	425460
5.36880	399794
5.37693	400031
5.38505	408131
5.39317	422150
5.40130	456527
5.40942	459117
5.41755	436563
5.42567	413326
5.43378	373838
5.44192	379884
5.45003	390030
5.45817	416614
5.46628	431122
5.47440	415414
5.48253	392670
5.49065	356362
5.49877	353663
5.50690	344862
5.51502	358068
5.52315	343922
5.53127	348286
5.53938	330552
5.54752	340660
5.55563	383087
5.56377	508626
5.57188	709275
5.58000	843448
5.58813	834341
5.59625	694473
5.60438	534299
5.61250	426345
5.62062	389865
5.62875	361416
5.63687	379273
5.64498	375021
5.65312	365297
5.66123	347062
5.66937	342771
5.67748	338722
5.68560	352971
5.69373	367449
5.70185	381913
5.70998	374581
5.71810	358780
5.72622	331131
5.73435	320184
5.74247	310828
5.75060	306956
5.75872	297932
5.76683	296648
5.77497	295169
5.78308	288541
5.79120	291242
5.79933	288099
5.80745	282462
5.81558	285945
5.82370	277947
5.83182	284351
5.83995	284167
5.84807	286784
5.85620	278248
5.86432	281586
5.87243	271897
5.88057	277379
5.88868	277775
5.89680	282078
5.90493	276402
5.91305	252123
5.92118	234844
5.92930	235574
5.93742	236853
5.94555	230864
5.95367	235029
5.96180	255713
5.96992	291696
5.97803	342391
5.98617	406108
5.99428	438192
6.00242	430028
6.01053	371741
6.01865	305051
6.02678	276398
6.03490	252539
6.04302	230491
6.05115	222840
6.05927	210896
6.06740	203844
6.07552	204750
6.08363	194070
6.09177	190409
6.09988	200357
6.10802	191008
6.11613	201397
6.12425	230572
6.13238	305019
6.14050	438969
6.14863	587182
6.15675	629771
6.16487	531139
6.17300	423531
6.18112	350591
6.18923	300872
6.19737	281072
6.20548	263705
6.21362	261763
6.22173	255820
6.22985	261778
6.23798	255499
6.24610	266916
6.25423	276498
6.26235	296261
6.27047	318961
6.27860	314915
6.28672	281290
6.29483	264115
6.30297	254087
6.31108	254773
6.31922	245430
6.32733	269315
6.33545	287500
6.34358	315428
6.35170	323380
6.35983	292157
6.36795	278897
6.37607	268135
6.38420	262148
6.39232	253581
6.40045	253732
6.40857	258563
6.41668	240097
6.42482	246021
6.43293	249612
6.44105	247791
6.44918	247262
6.45730	250505
6.46543	243350
6.47355	254617
6.48167	256751
6.48980	247955
6.49792	239891
6.50605	253054
6.51417	255669
6.52228	255410
6.53042	254292
6.53853	266072
6.54665	261193
6.55478	270871
6.56290	306276
6.57103	425944
6.57915	598738
6.58727	741299
6.59540	701376
6.60352	571971
6.61165	429607
6.61977	358016
6.62788	320752
6.63602	310385
6.64413	327635
6.65227	487291
6.66038	971003
6.66850	1806600
6.67663	2496684
6.68475	2427461
6.69287	1782133
6.70100	1112998
6.70912	752185
6.71725	576081
6.72537	504456
6.73348	427024
6.74162	386288
6.74973	350587
6.75787	323696
6.76598	296229
6.77410	283688
6.78223	270905
6.79035	252321
6.79848	244318
6.80660	231220
6.81472	222950
6.82285	219641
6.83097	213452
6.83908	214493
6.84722	231926
6.85533	256873
6.86347	285370
6.87158	311443
6.87970	298133
6.88783	251898
6.89595	202207
6.90408	169720
6.91220	147499
6.92032	136370
6.92845	133859
6.93657	132159
6.94470	130257
6.95282	119407
6.96093	138903
6.96907	143969
6.97718	152407
6.98530	168587
6.99343	170340
7.00155	156741
7.00968	146267
7.01780	140511
7.02592	134967
7.03405	134538
7.04217	142958
7.05030	153607
7.05842	194182
7.06653	210777
7.07467	234160
7.08278	230311
7.09090	203380
7.09903	180310
7.10715	150315
7.11528	133826
7.12340	123820
7.13152	123860
7.13965	133427
7.14777	189579
7.15590	283323
7.16402	368713
7.17213	431152
7.18027	392627
7.18838	299562
7.19652	258257
7.20463	308556
7.21275	633321
7.22088	1257079
7.22900	2028869
7.23712	2257618
7.24525	1889785
7.25337	1189452
7.26150	667206
7.26962	424925
7.27773	302243
7.28587	227990
7.29398	174797
7.30212	147764
7.31023	148844
7.31835	140591
7.32648	150889
7.33460	158722
7.34272	159779
7.35085	143961
7.35897	144180
7.36710	131008
7.37522	140063
7.38333	133476
7.39147	132914
7.39958	134382
7.40772	134819
7.41583	126067
7.42395	124715
7.43208	121182
7.44020	121941
7.44833	111552
7.45645	124025
7.46457	124063
7.47270	123311
7.48082	116253
7.48893	116276
7.49707	108683
7.50518	115749
7.51332	138599
7.52143	198985
7.52955	390232
7.53768	791603
7.54580	1468214
7.55393	2310865
7.56205	2983105
7.57017	3236285
7.57830	2918855
7.58642	2213740
7.59455	1477049
7.60267	858696
7.61078	500620
7.61892	313790
7.62703	221717
7.63515	173089
7.64328	155239
7.65140	138351
7.65953	129596
7.66765	121439
7.67577	112744
7.68390	105739
7.69202	106764
7.70015	109333
7.70827	109443
7.71638	115732
7.72452	120536
7.73263	113685
7.74075	116703
7.74888	117196
7.75700	115429
7.76513	119717
7.77325	121893
7.78137	123775
7.78950	128558
7.79762	134685
7.80575	152292
7.81387	161826
7.82198	157707
7.83012	150073
7.83823	129950
7.84637	124348
7.85448	131747
7.86260	132658
7.87073	147896
7.87885	178519
7.88697	206333
7.89510	214934
7.90322	202635
7.91135	176150
7.91947	149825
7.92758	142228
7.93572	149977
7.94383	166198
7.95197	186238
7.96008	186416
7.96820	155211
7.97633	136546
7.98445	118443
7.99258	111408
8.00070	98355
8.00882	95061
8.01695	88817
8.02507	95039
8.03318	92833
8.04132	89744
8.04943	91584
8.05757	91664
8.06568	89303
8.07380	93363
8.08193	93068
8.09005	83357
8.09818	85822
8.10630	84233
8.11442	82753
8.12255	87609
8.13067	91247
8.13878	103108
8.14692	118476
8.15503	129869
8.16317	138135
8.17128	128579
8.17940	110531
8.18753	102170
8.19565	90285
8.20378	89698
8.21190	82077
8.22002	89168
8.22815	85195
8.23627	82210
8.24440	87308
8.25252	80539
8.26063	87319
8.26877	77856
8.27688	81859
8.28500	76071
8.29313	81422
8.30125	89076
8.30938	86142
8.31750	95867
8.32562	100833
8.33375	102842
8.34187	100438
8.35000	88082
8.35812	91180
8.36623	87194
8.37437	81332
8.38248	89952
8.39060	88030
8.39873	84174
8.40685	86137
8.41498	75969
8.42310	73611
8.43122	72223
8.43935	75404
8.44747	69271
8.45560	72678
8.46372	71549
8.47183	77158
8.47997	68475
8.48808	74248
8.49622	74505
8.50433	74026
8.51245	73664
8.52058	97939
8.52870	159841
8.53682	267496
8.54495	414204
8.55307	461078
8.56120	412128
8.56932	305349
8.57743	192343
8.58557	141952
8.59368	124233
8.60182	121125
8.60993	128992
8.61805	123533
8.62618	121783
8.63430	105655
8.64243	102686
8.65055	86914
8.65867	83364
8.66680	80166
8.67492	81044
8.68303	79704
8.69117	81297
8.69928	81842
8.70742	86633
8.71553	85759
8.72365	80205
8.73178	78168
8.73990	81731
8.74803	102375
8.75615	193516
8.76427	429632
8.77240	869424
8.78052	1493452
8.78863	1923458
8.79677	1949637
8.80488	1536981
8.81302	985910
8.82113	586342
8.82925	376419
8.83738	292508
8.84550	262865
8.85363	255972
8.86175	244820
8.86987	229497
8.87800	226017
8.88612	207698
8.89425	206143
8.90237	196350
8.91048	193839
8.91862	192968
8.92673	191265
8.93485	200933
8.94298	228840
8.95110	228580
8.95923	218785
8.96735	210827
8.97547	211230
8.98360	218160
8.99172	221161
8.99985	217106
9.00797	201969
9.01608	181254
9.02422	175852
9.03233	158681
9.04047	157109
9.04858	152046
9.05670	143196
9.06483	147352
9.07295	142201
9.08107	144354
9.08920	150388
9.09732	170185
9.10545	197118
9.11357	231068
9.12168	267062
9.12982	261285
9.13793	239088
9.14607	201566
9.15418	167752
9.16230	152706
9.17043	144916
9.17855	145865
9.18667	138531
9.19480	129809
9.20292	132141
9.21105	133403
9.21917	134931
9.22728	129647
9.23542	134228
9.24353	131848
9.25167	134165
9.25978	132627
9.26790	126174
9.27603	128776
9.28415	123736
9.29228	123322
9.30040	116497
9.30852	118592
9.31665	116653
9.32477	111486
9.33288	116952
9.34102	112781
9.34913	112860
9.35727	108331
9.36538	107782
9.37350	113591
9.38163	109688
9.38975	113131
9.39788	107566
9.40600	126306
9.41412	152983
9.42225	196284
9.43037	251195
9.43850	301408
9.44662	333989
9.45473	316790
9.46287	272680
9.47098	214526
9.47910	169951
9.48723	139524
9.49535	121171
9.50348	124685
9.51160	135298
9.51972	163873
9.52785	173496
9.53597	181721
9.54410	175873
9.55222	158296
9.56033	132440
9.56847	109358
9.57658	97679
9.58470	100387
9.59283	92548
9.60095	93342
9.60908	88066
9.61720	83204
9.62532	73910
9.63345	75257
9.64157	72160
9.64970	74397
9.65782	70472
9.66593	73024
9.67407	73761
9.68218	72771
9.69032	71240
9.69843	71689
9.70655	68573
9.71468	63226
9.72280	63744
9.73092	63028
9.73905	60059
9.74717	66858
9.75530	62095
9.76342	58371
9.77153	58508
9.77967	59241
9.78778	59137
9.79592	61062
9.80403	58031
9.81215	59754
9.82028	59461
9.82840	57741
9.83652	57719
9.84465	59100
9.85277	62509
9.86090	63941
9.86902	68216
9.87713	66569
9.88527	69212
9.89338	67852
9.90152	69381
9.90963	62530
9.91775	66699
9.92588	79367
9.93400	106458
9.94213	139095
9.95025	189180
9.95837	242656
9.96650	260280
9.97462	239354
9.98273	197639
9.99087	162857
9.99898	128082
10.00712	113715
10.01523	104993
10.02335	97821
10.03148	90692
10.03960	85714
10.04773	86734
10.05585	82854
10.06397	78732
10.07210	86702
10.08022	80465
10.08835	82926
10.09647	85236
10.10458	81112
10.11272	77287
10.12083	74796
10.12895	78240
10.13708	75930
10.14520	71124
10.15333	70639
10.16145	74950
10.16957	68212
10.17770	68564
10.18582	64914
10.19395	73955
10.20207	64698
10.21018	67776
10.21832	64977
10.22643	68738
10.23455	73498
10.24268	79171
10.25080	92781
10.25893	128310
10.26705	247880
10.27517	532455
10.28330	1183328
10.29142	2066593
10.29955	3150982
10.30767	4388461
10.31578	6190722
10.32392	8805239
10.33203	1.151214E+07
10.34017	1.27127E+07
10.34828	1.178107E+07
10.35640	9252813
10.36453	7287159
10.37265	6031931
10.38077	5131000
10.38890	4033247
10.39702	2854068
10.40515	1836812
10.41327	1176801
10.42138	820440
10.42952	647356
10.43763	585853
10.44577	556506
10.45388	534450
10.46200	494964
10.47013	455441
10.47825	395402
10.48638	358775
10.49450	335097
10.50262	305317
10.51075	279976
10.51887	257956
10.52698	251688
10.53512	241444
10.54323	234676
10.55137	234318
10.55948	217365
10.56760	210886
10.57573	208346
10.58385	200253
10.59198	191794
10.60010	185926
10.60822	185324
10.61635	176757
10.62447	166311
10.63258	166875
10.64072	163052
10.64883	155292
10.65697	152996
10.66508	143733
10.67320	151445
10.68133	150044
10.68945	160660
10.69758	166553
10.70570	175895
10.71382	167642
10.72195	164731
10.73007	154222
10.73820	151046
10.74632	141741
10.75443	139499
10.76257	123862
10.77068	132894
10.77880	127794
10.78693	125470
10.79505	129977
10.80318	135812
10.81130	137469
10.81942	147960
10.82755	146294
10.83567	135495
10.84380	123556
10.85192	115760
10.86003	112294
10.86817	102062
10.87628	98846
10.88440	97348
10.89253	99674
10.90065	100414
10.90878	103107
10.91690	98703
10.92502	95299
10.93315	96614
10.94127	93217
10.94940	94949
10.95752	93970
10.96563	89945
10.97377	93343
10.98188	98108
10.99002	106856
10.99813	106334
11.00625	116296
11.01438	123863
11.02250	121154
11.03062	116448
11.03875	104901
11.04687	101946
11.05500	93355
11.06312	97195
11.07123	98878
11.07937	105333
11.08748	120723
11.09562	122845
11.10373	124254
11.11185	124297
11.11998	113731
11.12810	104559
11.13623	93861
11.14435	91787
11.15247	88256
11.16060	86295
11.16872	84754
11.17683	90863
11.18497	90695
11.19308	88613
11.20122	93083
11.20933	87527
11.21745	82048
11.22558	73426
11.23370	75059
11.24183	72572
11.24995	67620
11.25807	66279
11.26620	60470
11.27432	62322
11.28245	62369
11.29057	74006
11.29868	110425
11.30682	206413
11.31493	452800
11.32305	930185
11.33118	1663598
11.33930	2478417
11.34743	2981677
11.35555	3009597
11.36367	2568554
11.37180	1834785
11.37992	1171887
11.38805	760654
11.39617	509136
11.40428	417397
11.41242	354162
11.42053	300004
11.42865	244511
11.43678	209921
11.44490	167996
11.45303	145716
11.46115	124736
11.46927	118562
11.47740	118924
11.48552	124739
11.49365	146254
11.50177	153809
11.50988	163898
11.51802	151079
11.52613	137055
11.53427	124973
11.54238	121546
11.55050	116447
11.55863	119561
11.56675	115833
11.57487	115437
11.58300	117945
11.59112	115891
11.59925	128648
11.60737	153205
11.61548	180935
11.62362	189241
11.63173	187788
11.63987	162822
11.64798	131716
11.65610	116175
11.66423	105882
11.67235	105042
11.68047	106014
11.68860	109136
11.69672	118119
11.70485	125120
11.71297	128099
11.72108	130209
11.72922	112093
11.73733	105599
11.74547	94162
11.75358	90487
11.76170	78671
11.76983	84363
11.77795	79272
11.78608	72945
11.79420	74628
11.80232	72299
11.81045	68548
11.81857	71771
11.82668	70850
11.83482	71287
11.84293	69892
11.85107	73038
11.85918	68476
11.86730	66664
11.87543	65724
11.88355	63771
11.89168	62155
11.89980	61525
11.90792	64563
11.91605	63944
11.92417	75114
11.93230	80622
11.94042	76912
11.94853	72873
11.95667	67815
11.96478	69971
11.97290	86439
11.98103	129540
11.98915	246462
11.99728	431601
12.00540	653460
12.01352	863555
12.02165	799565
12.02977	669070
12.03790	481697
12.04602	325653
12.05413	225692
12.06227	177929
12.07038	174823
12.07850	154702
12.08663	158676
12.09475	169603
12.10288	189195
12.11100	246984
12.11912	329484
12.12725	456088
12.13537	576900
12.14350	631819
12.15162	595073
12.15973	477528
12.16787	334942
12.17598	225905
12.18412	189496
12.19223	162777
12.20035	148568
12.20848	152332
12.21660	147411
12.22472	138750
12.23285	133146
12.24097	124770
12.24910	124543
12.25722	126820
12.26533	117126
12.27347	115996
12.28158	117631
12.28972	105020
12.29783	100074
12.30595	99485
12.31408	90500
12.32220	87589
12.33033	88330
12.33845	86794
12.34657	82873
12.35470	88646
12.36282	91160
12.37093	90369
12.37907	85686
12.38718	96958
12.39532	108492
12.40343	118609
12.41155	154367
12.41968	172216
12.42780	191605
12.43593	188308
12.44405	158464
12.45217	151958
12.46030	135491
12.46842	121004
12.47653	113739
12.48467	113755
12.49278	103038
12.50092	101897
12.50903	97794
12.51715	90493
12.52528	84729
12.53340	90080
12.54153	95596
12.54965	107256
12.55777	120749
12.56590	135202
12.57402	133850
12.58215	128879
12.59027	113974
12.59838	96613
12.60652	98337
12.61463	94304
12.62275	90313
12.63088	91483
12.63900	84205
12.64713	79029
12.65525	79679
12.66337	72559
12.67150	75909
12.67962	75525
12.68775	63208
12.69587	63240
12.70398	64460
12.71212	65584
12.72023	66842
12.72835	71738
12.73648	76080
12.74460	81276
12.75273	79049
12.76085	73851
12.76897	68645
12.77710	65421
12.78522	60685
12.79335	59289
12.80147	56055
12.80958	58192
12.81772	55434
12.82583	56530
12.83397	55973
12.84208	54117
12.85020	54858
12.85833	57585
12.86645	53630
12.87457	50195
12.88270	50052
12.89082	51573
12.89895	48531
12.90707	52963
12.91518	52852
12.92332	53103
12.93143	53828
12.93957	53290
12.94768	64551
12.95580	87446
12.96393	148750
12.97205	240126
12.98018	349745
12.98830	400774
12.99642	366428
13.00455	286327
13.01267	201114
13.02078	144463
13.02892	111906
13.03703	96288
13.04517	82776
13.05328	79670
13.06140	72686
13.06953	72893
13.07765	67710
13.08578	68931
13.09390	65572
13.10202	64480
13.11015	62444
13.11827	61030
13.12638	59826
13.13452	54296
13.14263	60878
13.15077	58865
13.15888	59906
13.16700	63520
13.17513	62548
13.18325	66971
13.19138	67780
13.19950	69318
13.20762	73601
13.21575	72950
13.22387	73866
13.23200	75578
13.24012	73974
13.24823	68089
13.25637	63612
13.26448	65032
13.27260	60790
13.28073	59581
13.28885	59766
13.29698	54015
13.30510	56960
13.31322	51160
13.32135	52226
13.32947	51886
13.33760	54795
13.34572	52855
13.35383	50430
13.36197	53214
13.37008	55800
13.37822	51767
13.38633	49819
13.39445	55543
13.40258	53507
13.41070	49535
13.41882	49759
13.42695	49214
13.43507	50941
13.44320	52775
13.45132	51518
13.45943	59595
13.46757	61744
13.47568	62217
13.48382	61476
13.49193	58231
13.50005	55695
13.50818	54984
13.51630	54761
13.52442	54466
13.53255	59187
13.54067	53678
13.54880	56959
13.55692	51143
13.56503	62567
13.57317	60740
13.58128	65473
13.58942	68094
13.59753	74966
13.60565	72889
13.61378	77593
13.62190	73553
13.63003	74644
13.63815	69757
13.64627	61946
13.65440	57466
13.66252	58522
13.67063	52461
13.67877	48906
13.68688	46362
13.69502	50126
13.70313	46059
13.71125	48329
13.71938	52086
13.72750	53656
13.73563	92201
13.74375	192744
13.75187	433921
13.76000	940208
13.76812	1601161
13.77625	2349939
13.78437	2527111
13.79248	2354075
13.80062	1857741
13.80873	1326021
13.81685	1000523
13.82498	862486
13.83310	834614
13.84123	844235
13.84935	789477
13.85747	668933
13.86560	540491
13.87372	433441
13.88185	325194
13.88997	268781
13.89808	226682
13.90622	202520
13.91433	183939
13.92245	179637
13.93058	179792
13.93870	170498
13.94683	166532
13.95495	178705
13.96307	195174
13.97120	245525
13.97932	263182
13.98745	275933
13.99557	265006
14.00368	242128
14.01182	200572
14.01993	182726
14.02807	153142
14.03618	144851
14.04430	132731
14.05243	126706
14.06055	131216
14.06867	128880
14.07680	125764
14.08492	130758
14.09305	121302
14.10117	121597
14.10928	119866
14.11742	118717
14.12553	123499
14.13367	131029
14.14178	158579
14.14990	186754
14.15803	204264
14.16615	215469
14.17427	224469
14.18240	274373
14.19052	371481
14.19865	505820
14.20677	626634
14.21488	671029
14.22302	604545
14.23113	492335
14.23927	391692
14.24738	331336
14.25550	296217
14.26363	266136
14.27175	242538
14.27988	213962
14.28800	194025
14.29612	175517
14.30425	166111
14.31237	148438
14.32048	138773
14.32862	149482
14.33673	140066
14.34487	130354
14.35298	119357
14.36110	110312
14.36923	99656
14.37735	89580
14.38548	82018
14.39360	81637
14.40172	82405
14.40985	87596
14.41797	87870
14.42610	93674
14.43422	94487
14.44233	88426
14.45047	86832
14.45858	86734
14.46670	95397
14.47483	94844
14.48295	92383
14.49108	95896
14.49920	94649
14.50732	97153
14.51545	99411
14.52357	102686
14.53170	105966
14.53982	102541
14.54793	93075
14.55607	86227
14.56418	80950
14.57230	72690
14.58043	71381
14.58855	68343
14.59668	72339
14.60480	60732
14.61292	61290
14.62105	60413
14.62917	60333
14.63730	60667
14.64542	60872
14.65353	60903
14.66167	57669
14.66978	59483
14.67792	56440
14.68603	62476
14.69415	57916
14.70228	61678
14.71040	58749
14.71852	62639
14.72665	62528
14.73477	73279
14.74290	72974
14.75102	76521
14.75913	75155
14.76727	75176
14.77538	80119
14.78352	95200
14.79163	153356
14.79975	341801
14.80788	850465
14.81600	1880080
14.82413	3327327
14.83225	4624690
14.84037	5189275
14.84850	4649221
14.85662	3505652
14.86473	2244067
14.87287	1336837
14.88098	843983
14.88912	572807
14.89723	440748
14.90535	380917
14.91348	326970
14.92160	300225
14.92973	271559
14.93785	258336
14.94597	227347
14.95410	214571
14.96222	208806
14.97033	194761
14.97847	178843
14.98658	172398
14.99472	159436
15.00283	154806
15.01095	150691
15.01908	142737
15.02720	147220
15.03533	142918
15.04345	137608
15.05157	137171
15.05970	128380
15.06782	126126
15.07595	115976
15.08407	111560
15.09218	105935
15.10032	103877
15.10843	102062
15.11655	103893
15.12468	106241
15.13280	111866
15.14093	115782
15.14905	119941
15.15717	123781
15.16530	105113
15.17342	93179
15.18155	84277
15.18967	79884
15.19778	75828
15.20592	74529
15.21403	67519
15.22215	69292
15.23028	71735
15.23840	69396
15.24653	66474
15.25465	65810
15.26277	63011
15.27090	64073
15.27902	66161
15.28715	60266
15.29527	58467
15.30338	54177
15.31152	52819
15.31963	57801
15.32777	56834
15.33588	54950
15.34400	51401
15.35213	52207
15.36025	54487
15.36837	56615
15.37650	56746
15.38462	58590
15.39275	56660
15.40087	57583
15.40898	53486
15.41712	53975
15.42523	59695
15.43337	59903
15.44148	53840
15.44960	55262
15.45773	62046
15.46585	84993
15.47398	130787
15.48210	202628
15.49022	310919
15.49835	435337
15.50647	526628
15.51458	549058
15.52272	500912
15.53083	428763
15.53897	346510
15.54708	298575
15.55520	238196
15.56333	203124
15.57145	165615
15.57958	126674
15.58770	100060
15.59582	85057
15.60395	78528
15.61207	75174
15.62020	69504
15.62832	69940
15.63643	63928
15.64457	63741
15.65268	60205
15.66080	64389
15.66893	62102
15.67705	58559
15.68518	58025
15.69330	53149
15.70142	56074
15.70955	54903
15.71767	56147
15.72580	53910
15.73392	57014
15.74203	60325
15.75017	63907
15.75828	80468
15.76640	122681
15.77453	189072
15.78265	266083
15.79078	327690
15.79890	344697
15.80702	294477
15.81515	230665
15.82327	170219
15.83140	135335
15.83952	109255
15.84763	99144
15.85577	87098
15.86388	84444
15.87202	80427
15.88013	88517
15.88825	81253
15.89638	75952
15.90450	79345
15.91262	76373
15.92075	74800
15.92887	71347
15.93700	74265
15.94512	77659
15.95323	93878
15.96137	116448
15.96948	146498
15.97762	171318
15.98573	188611
15.99385	171034
16.00198	145239
16.01010	126065
16.01822	124806
16.02635	114483
16.03447	109276
16.04260	100777
16.05072	102305
16.05883	91046
16.06697	83183
16.07508	78683
16.08322	76929
16.09133	74597
16.09945	74073
16.10758	67489
16.11570	70183
16.12383	75176
16.13195	77578
16.14007	81479
16.14820	85209
16.15632	84918
16.16443	87229
16.17257	79974
16.18068	74588
16.18882	74135
16.19693	68212
16.20505	67621
16.21318	67613
16.22130	67035
16.22943	67756
16.23755	66041
16.24567	63787
16.25380	59615
16.26192	63781
16.27005	63074
16.27817	66094
16.28628	75955
16.29442	83472
16.30253	86338
16.31065	96376
16.31878	92371
16.32690	88742
16.33503	80867
16.34315	84863
16.35127	100419
16.35940	126092
16.36752	169685
16.37565	205164
16.38377	212656
16.39188	205074
16.40002	180709
16.40813	144602
16.41625	111865
16.42438	96042
16.43250	90427
16.44063	89619
16.44875	122311
16.45687	203148
16.46500	374188
16.47312	645047
16.48125	918775
16.48937	1022531
16.49748	939173
16.50562	732555
16.51373	488998
16.52187	317171
16.52998	220668
16.53810	168803
16.54623	142027
16.55435	130242
16.56247	113737
16.57060	114254
16.57872	105917
16.58685	112159
16.59497	116551
16.60308	121620
16.61122	136065
16.61933	138059
16.62747	131537
16.63558	124894
16.64370	114784
16.65183	105842
16.65995	94013
16.66808	88879
16.67620	83745
16.68432	78212
16.69245	77600
16.70057	78312
16.70868	78611
16.71682	73376
16.72493	70550
16.73307	73992
16.74118	69730
16.74930	69991
16.75743	72656
16.76555	76372
16.77368	75115
16.78180	77363
16.78992	80154
16.79805	68241
16.80617	67347
16.81428	63773
16.82242	64626
16.83053	55950
16.83867	59567
16.84678	59935
16.85490	64146
16.86303	61579
16.87115	55521
16.87928	59617
16.88740	55236
16.89552	57081
16.90365	53834
16.91177	55395
16.91990	59421
16.92802	57456
16.93613	60678
16.94427	61966
16.95238	57836
16.96050	59028
16.96863	53884
16.97675	55594
16.98488	64752
16.99300	59627
17.00112	58222
17.00925	60295
17.01737	62912
17.02550	58119
17.03362	63692
17.04173	61840
17.04987	70075
17.05798	65353
17.06610	66182
17.07423	64698
17.08235	65935
17.09048	62951
17.09860	58081
17.10672	65215
17.11485	63836
17.12297	64517
17.13110	65233
17.13922	76334
17.14733	69315
17.15547	73761
17.16358	64672
17.17172	61624
17.17983	60512
17.18795	61350
17.19608	61905
17.20420	54785
17.21232	55990
17.22045	52249
17.22857	55960
17.23670	53116
17.24482	52458
17.25293	52280
17.26107	57905
17.26918	56626
17.27732	53733
17.28543	50687
17.29355	55132
17.30168	55093
17.30980	54928
17.31793	64153
17.32605	72895
17.33417	77189
17.34230	83855
17.35042	91152
17.35853	94546
17.36667	94624
17.37478	90206
17.38292	85360
17.39103	82958
17.39915	82062
17.40728	86573
17.41540	85052
17.42353	81680
17.43165	90187
17.43977	88577
17.44790	84066
17.45602	79198
17.46413	68908
17.47227	69766
17.48038	67072
17.48852	62955
17.49663	60474
17.50475	57048
17.51288	62151
17.52100	61147
17.52913	59826
17.53725	61778
17.54537	64945
17.55350	63441
17.56162	75898
17.56975	104996
17.57787	159825
17.58598	254409
17.59412	377042
17.60223	494719
17.61035	578995
17.61848	570274
17.62660	479895
17.63473	358906
17.64285	279826
17.65097	238167
17.65910	239184
17.66722	249606
17.67535	244370
17.68347	236655
17.69158	204345
17.69972	167051
17.70783	147633
17.71597	129831
17.72408	119668
17.73220	111118
17.74033	112413
17.74845	112647
17.75657	107882
17.76470	106450
17.77282	100044
17.78095	95365
17.78907	94595
17.79718	106727
17.80532	132062
17.81343	190051
17.82157	249219
17.82968	305815
17.83780	325682
17.84593	295176
17.85405	272452
17.86217	224170
17.87030	196726
17.87842	162343
17.88655	141409
17.89467	122753
17.90278	105828
17.91092	94603
17.91903	89264
17.92717	80600
17.93528	81733
17.94340	77822
17.95153	76797
17.95965	71424
17.96778	66896
17.97590	67477
17.98402	66083
17.99215	65801
18.00027	68641
18.00838	73293
18.01652	81808
18.02463	99768
18.03277	109542
18.04088	127607
18.04900	141416
18.05713	181350
18.06525	267674
18.07338	465142
18.08150	779877
18.08962	1183142
18.09775	1422286
18.10587	1450567
18.11398	1289975
18.12212	1016171
18.13023	739736
18.13837	550361
18.14648	465788
18.15460	375184
18.16273	317118
18.17085	278286
18.17898	257463
18.18710	236948
18.19522	209900
18.20335	198477
18.21147	190184
18.21960	170527
18.22772	159643
18.23583	151865
18.24397	147591
18.25208	134998
18.26020	126641
18.26833	114945
18.27645	108339
18.28458	100214
18.29270	93799
18.30082	81205
18.30895	71352
18.31707	72047
18.32520	65769
18.33332	63080
18.34143	62382
18.34957	65924
18.35768	61606
18.36582	64891
18.37393	64204
18.38205	62584
18.39018	64050
18.39830	68402
18.40642	72283
18.41455	80095
18.42267	98207
18.43080	118169
18.43892	135726
18.44703	171739
18.45517	189848
18.46328	207014
18.47142	234666
18.47953	247158
18.48765	241472
18.49578	214148
18.50390	187001
18.51202	154818
18.52015	115742
18.52827	106498
18.53640	92238
18.54452	80290
18.55263	76840
18.56077	74119
18.56888	72328
18.57702	72829
18.58513	71031
18.59325	74608
18.60138	85669
18.60950	93525
18.61763	101866
18.62575	107825
18.63387	108636
18.64200	102965
18.65012	100640
18.65823	92154
18.66637	79451
18.67448	72183
18.68262	66429
18.69073	65559
18.69885	60989
18.70698	73595
18.71510	72526
18.72323	89685
18.73135	113587
18.73947	133019
18.74760	143636
18.75572	145617
18.76385	156453
18.77197	154189
18.78008	157252
18.78822	166016
18.79633	163176
18.80445	170519
18.81258	163493
18.82070	173655
18.82883	168192
18.83695	167611
18.84507	175320
18.85320	168158
18.86132	178591
18.86945	183106
18.87757	188377
18.88568	199550
18.89382	189592
18.90193	188393
18.91005	187056
18.91818	184674
18.92630	185823
18.93443	191191
18.94255	183651
18.95067	186326
18.95880	190097
18.96692	191040
18.97505	198902
18.98317	187652
18.99128	183102
18.99942	177747
19.00753	172996
19.01567	172839
19.02378	163749
19.03190	166026
19.04003	162990
19.04815	158254
19.05627	162800
19.06440	172333
19.07252	180652
19.08065	228115
19.08877	303431
19.09688	395786
19.10502	462233
19.11313	519710
19.12127	479675
19.12938	404452
19.13750	322271
19.14563	266566
19.15375	221327
19.16188	209149
19.17000	182323
19.17812	176170
19.18625	172297
19.19437	162270
19.20248	168600
19.21062	163077
19.21873	160193
19.22687	149124
19.23498	139021
19.24310	149934
19.25123	134373
19.25935	142663
19.26748	137471
19.27560	142396
19.28372	149677
19.29185	145841
19.29997	148979
19.30808	150666
19.31622	152039
19.32433	146696
19.33247	146528
19.34058	146779
19.34870	156523
19.35683	163112
19.36495	189067
19.37308	204100
19.38120	215047
19.38932	204046
19.39745	201192
19.40557	174593
19.41370	156361
19.42182	149388
19.42993	143410
19.43807	135595
19.44618	130506
19.45430	131026
19.46243	133861
19.47055	138224
19.47868	152182
19.48680	187539
19.49492	246337
19.50305	341699
19.51117	405891
19.51930	441220
19.52742	414238
19.53553	344835
19.54367	271695
19.55178	217486
19.55990	178862
19.56803	156414
19.57615	142943
19.58428	128053
19.59240	124062
19.60052	117476
19.60865	114512
19.61677	117258
19.62490	120942
19.63302	131645
19.64113	154706
19.64927	205961
19.65738	290166
19.66552	394191
19.67363	463122
19.68175	497122
19.68988	491050
19.69800	445434
19.70612	399438
19.71425	339300
19.72237	296071
19.73050	255071
19.73862	228624
19.74673	218289
19.75487	199398
19.76298	186338
19.77112	178745
19.77923	193550
19.78735	216831
19.79548	249881
19.80360	251472
19.81173	261068
19.81985	233785
19.82797	204256
19.83610	183726
19.84422	165905
19.85233	168403
19.86047	225979
19.86858	401603
19.87672	781051
19.88483	1451371
19.89295	2240716
19.90108	2988759
19.90920	3082606
19.91733	2837113
19.92545	2290242
19.93357	1660435
19.94170	1139663
19.94982	833116
19.95793	655089
19.96607	549503
19.97418	482411
19.98232	423109
19.99043	411402
19.99855	381225
20.00668	363445
20.01480	354027
20.02293	335346
20.03105	309068
20.03917	303046
20.04730	283958
20.05542	281868
20.06355	302418
20.07167	342973
20.07978	371083
20.08792	412786
20.09603	414140
20.10415	385673
20.11228	335535
20.12040	278340
20.12853	235023
20.13665	207101
20.14477	234853
20.15290	327517
20.16102	519391
20.16915	829998
20.17727	1306338
20.18538	1830278
20.19352	2210167
20.20163	2426823
20.20977	2199891
20.21788	1884801
20.22600	1451476
20.23413	1099073
20.24225	909066
20.25037	905853
20.25850	1070508
20.26662	1351038
20.27475	1583694
20.28287	1695823
20.29098	1612654
20.29912	1365227
20.30723	1079281
20.31537	782030
20.32348	543522
20.33160	381125
20.33973	262089
20.34785	209286
20.35597	170234
20.36410	146169
20.37222	132108
20.38035	128959
20.38847	121647
20.39658	111524
20.40472	112684
20.41283	115276
20.42097	121970
20.42908	128427
20.43720	145836
20.44533	153209
20.45345	161276
20.46158	176464
20.46970	175231
20.47782	175430
20.48595	166230
20.49407	152833
20.50218	134690
20.51032	121303
20.51843	112045
20.52657	98202
20.53468	97010
20.54280	95081
20.55093	99676
20.55905	96492
20.56718	93557
20.57530	96049
20.58342	90443
20.59155	84342
20.59967	84191
20.60778	85323
20.61592	86173
20.62403	87803
20.63217	85629
20.64028	93209
20.64840	94247
20.65653	96718
20.66465	98248
20.67278	94857
20.68090	94410
20.68902	90582
20.69715	81075
20.70527	82509
20.71340	71960
20.72152	75214
20.72963	76700
20.73777	71601
20.74588	78365
20.75400	82345
20.76213	85813
20.77025	91274
20.77838	107139
20.78650	140636
20.79462	196949
20.80275	307811
20.81087	446842
20.81900	562497
20.82712	581206
20.83523	511544
20.84337	393632
20.85148	276423
20.85962	185960
20.86773	132910
20.87585	110712
20.88398	102656
20.89210	103466
20.90022	102483
20.90835	118159
20.91647	135510
20.92460	156068
20.93272	172927
20.94083	176123
20.94897	170174
20.95708	166132
20.96522	145480
20.97333	128304
20.98145	105091
20.98958	96235
20.99770	84865
21.00583	85609
21.01395	85268
21.02207	86262
21.03020	88457
21.03832	88529
21.04643	91225
21.05457	87903
21.06268	81049
21.07082	87463
21.07893	84866
21.08705	85117
21.09518	84233
21.10330	81758
21.11143	74725
21.11955	77483
21.12767	83360
21.13580	98860
21.14392	132980
21.15203	174110
21.16017	201224
21.16828	219289
21.17642	223982
21.18453	199692
21.19265	163677
21.20078	137455
21.20890	117675
21.21703	101217
21.22515	91858
21.23327	88405
21.24140	82977
21.24952	87499
21.25765	88117
21.26577	85690
21.27388	84271
21.28202	80095
21.29013	77071
21.29825	81837
21.30638	76445
21.31450	73472
21.32263	71910
21.33075	76014
21.33887	72988
21.34700	71895
21.35512	72719
21.36325	72558
21.37137	77559
21.37948	81525
21.38762	87099
21.39573	105406
21.40385	114414
21.41198	126754
21.42010	124579
21.42823	120551
21.43635	106521
21.44447	100970
21.45260	89183
21.46072	84986
21.46885	82816
21.47697	84726
21.48508	80054
21.49322	83914
21.50133	78994
21.50947	78584
21.51758	70087
21.52570	69645
21.53383	76933
21.54195	76476
21.55007	76386
21.55820	70691
21.56632	78972
21.57445	79252
21.58257	79931
21.59068	81798
21.59882	89962
21.60693	95381
21.61507	93906
21.62318	103821
21.63130	117172
21.63943	130715
21.64755	139352
21.65568	137859
21.66380	145481
21.67192	134658
21.68005	131799
21.68817	132941
21.69628	119260
21.70442	107071
21.71253	97322
21.72067	83000
21.72878	78061
21.73690	73910
21.74503	77125
21.75315	75758
21.76128	77251
21.76940	80785
21.77752	85225
21.78565	90889
21.79377	92224
21.80188	98611
21.81002	100543
21.81813	108142
21.82627	109164
21.83438	121078
21.84250	121564
21.85063	126705
21.85875	118004
21.86688	106030
21.87500	92462
21.88312	95476
21.89125	85545
21.89937	80185
21.90750	83611
21.91562	80152
21.92373	75791
21.93187	75293
21.93998	68633
21.94810	65698
21.95623	68270
21.96435	69388
21.97248	63749
21.98060	64521
21.98872	60630
21.99685	62702
22.00497	59475
22.01310	62952
22.02122	69274
22.02933	69183
22.03747	66857
22.04558	72370
22.05372	70638
22.06183	71836
22.06995	69914
22.07808	65376
22.08620	68058
22.09432	65064
22.10245	66945
22.11057	61886
22.11870	63336
22.12682	60206
22.13493	64118
22.14307	68258
22.15118	63149
22.15932	66756
22.16743	66263
22.17555	64365
22.18368	63511
22.19180	60166
22.19992	66510
22.20805	63557
22.21617	62088
22.22430	70794
22.23242	67866
22.24053	70949
22.24867	72246
22.25678	69590
22.26492	70412
22.27303	72426
22.28115	76331
22.28928	79347
22.29740	81039
22.30553	82433
22.31365	82133
22.32177	81187
22.32990	79295
22.33802	76154
22.34613	70746
22.35427	76288
22.36238	68341
22.37052	68308
22.37863	72950
22.38675	78946
22.39488	101468
22.40300	119171
22.41113	153425
22.41925	182346
22.42737	191157
22.43550	195525
22.44362	166561
22.45173	132812
22.45987	108490
22.46798	88894
22.47612	91090
22.48423	96505
22.49235	107082
22.50048	114960
22.50860	131458
22.51673	138369
22.52485	155861
22.53297	134800
22.54110	131716
22.54922	118439
22.55735	102342
22.56547	90824
22.57358	85580
22.58172	82447
22.58983	74752
22.59795	66325
22.60608	65966
22.61420	69204
22.62233	65662
22.63045	67422
22.63857	62900
22.64670	66302
22.65482	69906
22.66295	71042
22.67107	69748
22.67918	71922
22.68732	73368
22.69543	77729
22.70357	94428
22.71168	94847
22.71980	99505
22.72793	98737
22.73605	97000
22.74417	88049
22.75230	81273
22.76042	75907
22.76855	72684
22.77667	77026
22.78478	82135
22.79292	86814
22.80103	101231
22.80917	110590
22.81728	112194
22.82540	112036
22.83353	99336
22.84165	102004
22.84977	94433
22.85790	95131
22.86602	106202
22.87415	119200
22.88227	149744
22.89038	169931
22.89852	187828
22.90663	191679
22.91477	193124
22.92288	189663
22.93100	186419
22.93913	175251
22.94725	170400
22.95538	148055
22.96350	130193
22.97162	120350
22.97975	112743
22.98787	104068
22.99598	101228
23.00412	93933
23.01223	91161
23.02037	84255
23.02848	82239
23.03660	79959
23.04473	76698
23.05285	78674
23.06098	78088
23.06910	84414
23.07722	79437
23.08535	81717
23.09347	80565
23.10160	73032
23.10972	68920
23.11783	62175
23.12597	65873
23.13408	63218
23.14220	64285
23.15033	61958
23.15845	60350
23.16658	58320
23.17470	64762
23.18282	66773
23.19095	66564
23.19907	67041
23.20720	71050
23.21532	69057
23.22343	72914
23.23157	68870
23.23968	69413
23.24780	77921
23.25593	79302
23.26405	83722
23.27218	89469
23.28030	82451
23.28842	83634
23.29655	83114
23.30467	78810
23.31280	72708
23.32092	74957
23.32903	83831
23.33717	99629
23.34528	120999
23.35342	138901
23.36153	175101
23.36965	199570
23.37778	215407
23.38590	227759
23.39402	225301
23.40215	226158
23.41027	224989
23.41840	225854
23.42652	230112
23.43463	219361
23.44277	214674
23.45088	200503
23.45902	205812
23.46713	192228
23.47525	186303
23.48338	167935
23.49150	158509
23.49963	157063
23.50775	150247
23.51587	145850
23.52400	131372
23.53212	130937
23.54023	137718
23.54837	128105
23.55648	148036
23.56462	151343
23.57273	174601
23.58085	209181
23.58898	252671
23.59710	302808
23.60523	334274
23.61335	326955
23.62147	305727
23.62960	257097
23.63772	207306
23.64583	183188
23.65397	178730
23.66208	176478
23.67022	180654
23.67833	175373
23.68645	157127
23.69458	144739
23.70270	126205
23.71083	115214
23.71895	106152
23.72707	100943
23.73520	108178
23.74332	139653
23.75145	247010
23.75957	529130
23.76768	1192364
23.77582	2343457
23.78393	3745211
23.79205	4716855
23.80018	4908825
23.80830	4343961
23.81643	3603445
23.82455	2677937
23.83267	2038893
23.84080	1485278
23.84892	1150861
23.85705	897159
23.86517	734264
23.87328	629337
23.88142	528962
23.88953	476852
23.89765	433658
23.90578	409734
23.91390	389808
23.92203	359274
23.93015	326836
23.93827	303330
23.94640	291878
23.95452	268929
23.96265	238648
23.97077	237516
23.97888	226036
23.98702	223951
23.99513	226354
24.00327	254292
24.01138	333324
24.01950	490531
24.02763	706269
24.03575	896672
24.04387	989521
24.05200	865607
24.06012	676949
24.06825	487987
24.07637	352363
24.08448	265970
24.09262	221389
24.10073	192478
24.10887	174666
24.11698	168428
24.12510	173088
24.13323	176917
24.14135	188551
24.14948	196489
24.15760	201370
24.16572	191558
24.17385	190326
24.18197	182897
24.19008	186518
24.19822	185567
24.20633	190704
24.21447	185036
24.22258	177432
24.23070	164212
24.23883	153606
24.24695	139626
24.25508	126816
24.26320	128983
24.27132	120392
24.27945	111521
24.28757	110816
24.29568	113258
24.30382	109164
24.31193	117399
24.32007	114872
24.32818	117298
24.33630	115284
24.34443	112322
24.35255	116362
24.36068	111731
24.36880	112762
24.37692	129791
24.38505	159239
24.39317	199568
24.40130	245589
24.40942	259747
24.41753	242640
24.42567	194141
24.43378	149117
24.44190	133389
24.45003	120369
24.45815	112620
24.46628	116271
24.47440	117370
24.48252	137800
24.49065	138117
24.49877	143248
24.50690	155060
24.51502	147868
24.52313	147511
24.53127	148842
24.53938	156926
24.54752	161816
24.55563	174373
24.56375	169113
24.57188	164739
24.58000	153310
24.58812	132034
24.59625	124114
24.60437	111081
24.61250	107074
24.62062	97162
24.62873	100862
24.63687	94887
24.64498	90831
24.65312	98471
24.66123	96288
24.66935	98222
24.67748	110654
24.68560	110699
24.69372	122044
24.70185	123414
24.70997	122280
24.71810	119770
24.72622	127027
24.73433	127662
24.74247	125193
24.75058	122291
24.75872	122110
24.76683	128241
24.77495	132857
24.78308	132183
24.79120	144472
24.79933	136766
24.80745	147593
24.81557	140216
24.82370	148970
24.83182	161294
24.83993	175641
24.84807	200277
24.85618	247988
24.86432	306734
24.87243	389936
24.88055	492219
24.88868	581475
24.89680	610389
24.90493	584851
24.91305	483047
24.92117	373641
24.92930	278081
24.93742	213490
24.94553	164718
24.95367	154467
24.96178	137219
24.96992	131619
24.97803	127779
24.98615	123581
24.99428	118920
25.00240	123501
25.01053	121294
25.01865	117516
25.02677	116549
25.03490	116754
25.04302	117910
25.05115	116120
25.05927	113325
25.06738	117083
25.07552	119870
25.08363	114020
25.09175	133535
25.09988	177107
25.10800	302216
25.11613	589765
25.12425	1116314
25.13237	1913924
25.14050	2794506
25.14862	3355313
25.15675	3313069
25.16487	2716013
25.17298	1945046
25.18112	1247481
25.18923	719352
25.19737	421679
25.20548	284881
25.21360	205706
25.22173	175481
25.22985	168680
25.23797	170768
25.24610	182481
25.25422	213351
25.26235	232835
25.27047	260394
25.27858	256461
25.28672	241860
25.29483	220581
25.30297	186998
25.31108	158037
25.31920	151503
25.32733	142081
25.33545	130921
25.34358	127206
25.35170	125409
25.35982	115996
25.36795	109416
25.37607	108557
25.38418	105613
25.39232	100648
25.40043	99109
25.40857	92597
25.41668	98027
25.42480	98718
25.43293	97415
25.44105	101753
25.44918	94599
25.45730	97812
25.46542	108262
25.47355	107949
25.48167	104539
25.48978	104903
25.49792	102628
25.50603	102754
25.51417	97817
25.52228	93902
25.53040	90115
25.53853	83129
25.54665	90539
25.55478	80990
25.56290	86194
25.57102	85135
25.57915	82754
25.58727	81454
25.59540	84025
25.60352	79825
25.61163	82187
25.61977	81288
25.62788	80938
25.63600	81902
25.64413	78664
25.65225	80310
25.66038	82235
25.66850	82693
25.67662	84209
25.68475	85753
25.69287	90505
25.70100	91178
25.70912	97934
25.71723	87011
25.72537	81475
25.73348	80200
25.74160	72029
25.74973	72749
25.75785	76905
25.76598	72276
25.77410	76035
25.78222	79372
25.79035	77007
25.79847	80705
25.80660	81573
25.81472	82617
25.82283	85796
25.83097	90864
25.83908	106357
25.84722	111316
25.85533	115603
25.86345	112525
25.87158	107518
25.87970	96542
25.88782	90900
25.89595	82926
25.90407	83894
25.91220	79663
25.92032	82417
25.92843	91131
25.93657	96750
25.94468	98824
25.95282	104934
25.96093	109293
25.96905	111671
25.97718	108151
25.98530	107766
25.99343	114535
26.00155	102875
26.00967	104837
26.01780	104176
26.02592	104868
26.03403	102609
26.04217	109965
26.05028	107428
26.05842	108172
26.06653	110376
26.07465	123651
26.08278	116918
26.09090	115419
26.09903	114006
26.10715	120971
26.11527	115606
26.12340	118273
26.13152	123494
26.13963	123191
26.14777	137794
26.15588	135772
26.16402	132687
26.17213	132603
26.18025	122300
26.18838	120372
26.19650	118282
26.20463	107248
26.21275	107565
26.22087	100584
26.22900	103490
26.23712	104578
26.24525	104813
26.25337	101041
26.26148	97110
26.26962	98019
26.27773	94971
26.28585	97481
26.29398	87165
26.30210	87206
26.31023	87954
26.31835	93610
26.32647	86773
26.33460	92390
26.34272	99591
26.35085	122538
26.35897	173557
26.36708	270769
26.37522	410432
26.38333	623432
26.39147	854238
26.39958	1056057
26.40770	1096282
26.41583	1022555
26.42395	842288
26.43207	641917
26.44020	453715
26.44832	304792
26.45645	212533
26.46457	158806
26.47268	131274
26.48082	111386
26.48893	104472
26.49707	96360
26.50518	93660
26.51330	87296
26.52143	86088
26.52955	85159
26.53767	81969
26.54580	83783
26.55392	82765
26.56205	88388
26.57017	82348
26.57828	81499
26.58642	79554
26.59453	88615
26.60267	82132
26.61078	79342
26.61890	78961
26.62703	79262
26.63515	73910
26.64328	79998
26.65140	73572
26.65952	82365
26.66765	85087
26.67577	91000
26.68388	84648
26.69202	87537
26.70013	83841
26.70827	85239
26.71638	75042
26.72450	78112
26.73263	76839
26.74075	75305
26.74888	77233
26.75700	80844
26.76512	77774
26.77325	75168
26.78137	80337
26.78948	82610
26.79762	83072
26.80573	82024
26.81387	90154
26.82198	79823
26.83010	82931
26.83823	76979
26.84635	75489
26.85448	77079
26.86260	80815
26.87072	73247
26.87885	74523
26.88697	77463
26.89510	79452
26.90322	74462
26.91133	76919
26.91947	71595
26.92758	72306
26.93570	72367
26.94383	72450
26.95195	79271
26.96008	83166
26.96820	110305
26.97632	156654
26.98445	252742
26.99257	443807
27.00070	700213
27.00882	1089022
27.01693	1505122
27.02507	1855219
27.03318	2020062
27.04132	1888223
27.04943	1610950
27.05755	1276640
27.06568	985932
27.07380	784423
27.08192	636520
27.09005	502629
27.09817	429330
27.10630	394148
27.11442	337028
27.12253	304491
27.13067	281252
27.13878	263985
27.14692	239283
27.15503	240292
27.16315	230291
27.17128	232111
27.17940	236041
27.18752	239067
27.19565	232174
27.20377	216274
27.21190	203157
27.22002	197080
27.22813	190686
27.23627	180787
27.24438	176443
27.25252	163824
27.26063	158809
27.26875	151030
27.27688	143830
27.28500	142094
27.29313	136862
27.30125	132566
27.30937	129951
27.31750	131262
27.32562	130330
27.33373	130862
27.34187	127733
27.34998	127754
27.35812	120589
27.36623	121738
27.37435	121131
27.38248	119596
27.39060	115285
27.39873	111525
27.40685	113970
27.41497	116006
27.42310	107838
27.43122	112289
27.43935	114620
27.44747	105078
27.45558	102121
27.46372	101195
27.47183	97752
27.47995	94010
27.48808	90638
27.49620	92924
27.50433	94186
27.51245	95660
27.52057	95106
27.52870	94831
27.53682	93793
27.54495	92171
27.55307	93585
27.56118	91434
27.56932	95756
27.57743	94997
27.58555	108274
27.59368	117227
27.60180	128671
27.60993	133502
27.61805	126586
27.62617	117729
27.63430	115684
27.64242	102358
27.65055	95007
27.65867	94781
27.66678	95592
27.67492	92397
27.68303	102423
27.69117	100919
27.69928	100109
27.70740	94237
27.71553	96229
27.72365	85415
27.73177	78402
27.73990	81058
27.74802	80829
27.75615	75658
27.76427	78877
27.77238	78124
27.78052	80804
27.78863	80850
27.79677	81009
27.80488	82579
27.81300	88407
27.82113	83370
27.82925	87696
27.83737	86103
27.84550	78701
27.85362	77214
27.86175	75964
27.86987	76365
27.87798	75127
27.88612	77212
27.89423	71816
27.90237	74528
27.91048	76994
27.91860	69133
27.92673	74889
27.93485	72778
27.94298	73463
27.95110	74011
27.95922	73830
27.96735	77653
27.97547	71611
27.98358	74727
27.99172	70890
27.99983	74278
28.00797	81413
28.01608	91098
28.02420	100011
28.03233	109623
28.04045	129217
28.04858	141770
28.05670	147595
28.06482	141461
28.07295	125004
28.08107	110611
28.08920	96904
28.09732	94029
28.10543	88000
28.11357	78926
28.12168	79719
28.12980	80376
28.13793	70036
28.14605	68114
28.15418	72947
28.16230	72490
28.17042	73127
28.17855	77146
28.18667	81396
28.19480	96662
28.20292	106525
28.21103	109942
28.21917	114428
28.22728	112859
28.23540	110760
28.24353	101320
28.25165	95711
28.25978	91546
28.26790	77609
28.27602	84763
28.28415	80178
28.29227	87902
28.30040	97372
28.30852	109596
28.31663	137996
28.32477	170334
28.33288	208556
28.34102	255217
28.34913	304994
28.35725	342175
28.36538	378959
28.37350	406977
28.38162	435929
28.38975	427590
28.39787	427697
28.40600	409147
28.41412	396423
28.42223	363819
28.43037	309891
28.43848	283113
28.44662	270358
28.45473	246342
28.46285	224527
28.47098	216101
28.47910	201865
28.48723	193693
28.49535	182746
28.50347	176681
28.51160	170637
28.51972	163039
28.52783	147315
28.53597	147724
28.54408	129137
28.55222	127290
28.56033	127362
28.56845	119250
28.57658	112193
28.58470	111455
28.59283	105970
28.60095	110588
28.60907	110880
28.61720	112474
28.62532	117388
28.63343	118596
28.64157	121032
28.64968	118426
28.65782	121859
28.66593	117549
28.67405	119829
28.68218	114793
28.69030	107744
28.69843	105242
28.70655	100416
28.71467	95057
28.72280	94507
28.73092	95638
28.73905	92178
28.74717	103335
28.75528	113809
28.76342	129092
28.77153	145362
28.77965	157225
28.78778	149804
28.79590	138022
28.80403	127311
28.81215	120055
28.82027	112286
28.82840	101808
28.83652	99106
28.84465	92797
28.85277	88755
28.86088	88120
28.86902	87883
28.87713	91306
28.88527	96188
28.89338	94352
28.90150	92374
28.90963	102791
28.91775	100270
28.92587	100414
28.93400	106170
28.94212	98210
28.95025	99542
28.95837	99935
28.96648	96913
28.97462	94281
28.98273	90810
28.99087	89994
28.99898	89032
29.00710	81941
29.01523	86221
29.02335	80530
29.03147	80305
29.03960	83104
29.04772	77210
29.05585	81665
29.06397	78434
29.07208	77779
29.08022	79011
29.08833	88053
29.09647	79789
29.10458	83214
29.11270	79455
29.12083	77438
29.12895	75600
29.13708	74030
29.14520	71663
29.15332	74121
29.16145	78378
29.16957	82008
29.17768	75804
29.18582	79291
29.19393	86237
29.20207	103838
29.21018	120424
29.21830	130229
29.22643	156449
29.23455	194071
29.24268	287361
29.25080	425821
29.25892	583155
29.26705	702288
29.27517	727756
29.28328	634525
29.29142	489713
29.29953	337644
29.30767	222842
29.31578	138751
29.32390	110282
29.33203	89099
29.34015	78893
29.34828	82392
29.35640	77300
29.36452	81539
29.37265	85855
29.38077	78601
29.38890	79409
29.39702	80860
29.40513	80090
29.41327	79373
29.42138	85041
29.42950	80217
29.43763	80610
29.44575	78620
29.45388	81605
29.46200	72321
29.47012	72668
29.47825	83015
29.48637	85408
29.49450	80870
29.50262	86144
29.51073	87439
29.51887	86250
29.52698	85683
29.53512	83134
29.54323	80860
29.55135	72350
29.55948	72287
29.56760	70563
29.57572	68367
29.58385	65890
29.59197	67236
29.60010	70283
29.60822	70396
29.61633	67867
29.62447	71784
29.63258	66296
29.64072	68775
29.64883	68202
29.65695	71853
29.66508	71865
29.67320	68328
29.68132	74213
29.68945	71681
29.69757	78702
29.70570	75488
29.71382	75451
29.72193	72761
29.73007	74796
29.73818	71907
29.74632	75663
29.75443	75032
29.76255	72470
29.77068	72737
29.77880	63827
29.78693	64839
29.79505	65208
29.80317	66138
29.81130	65338
29.81942	64151
29.82753	64828
29.83567	63808
29.84378	70529
29.85192	64727
29.86003	69638
29.86815	63961
29.87628	70464
29.88440	78481
29.89253	86672
29.90065	93965
29.90877	99862
29.91690	94506
29.92502	90010
29.93315	86929
29.94127	85434
29.94938	88077
29.95752	95391
29.96563	106498
29.97375	123982
29.98188	135086
29.99000	158204
29.99813	178847
30.00625	189922
30.01437	211906
30.02250	221209
30.03062	212955
30.03875	210757
30.04687	201863
30.05498	211096
30.06312	211587
30.07123	203960
30.07935	192523
30.08748	194455
30.09560	186233
30.10373	176938
30.11185	175435
30.11997	160123
30.12810	157720
30.13622	149487
30.14435	145285
30.15247	138681
30.16058	137706
30.16872	133128
30.17683	131055
30.18497	129883
30.19308	141184
30.20120	138093
30.20933	133161
30.21745	127939
30.22557	129116
30.23370	118093
30.24182	103118
30.24995	103542
30.25807	94376
30.26618	95291
30.27432	89530
30.28243	90227
30.29057	91360
30.29868	86303
30.30680	84722
30.31493	89651
30.32305	92219
30.33117	80411
30.33930	79689
30.34742	84169
30.35555	86586
30.36367	89805
30.37178	85570
30.37992	85629
30.38803	82311
30.39617	80722
30.40428	82852
30.41240	73388
30.42053	73889
30.42865	74669
30.43678	78003
30.44490	78775
30.45302	72510
30.46115	74987
30.46927	72096
30.47738	75116
30.48552	75717
30.49363	75080
30.50177	76197
30.50988	75222
30.51800	76402
30.52613	72711
30.53425	75883
30.54238	69502
30.55050	73108
30.55862	71017
30.56675	73539
30.57487	74687
30.58300	74973
30.59112	76180
30.59923	71245
30.60737	75664
30.61548	72947
30.62360	76136
30.63173	74264
30.63985	66842
30.64798	76881
30.65610	76303
30.66422	74353
30.67235	71674
30.68047	69539
30.68860	64905
30.69672	73970
30.70483	68973
30.71297	62544
30.72108	69075
30.72922	62171
30.73733	66605
30.74545	69370
30.75358	70475
30.76170	68890
30.76982	71828
30.77795	78163
30.78607	81481
30.79420	94169
30.80232	105184
30.81043	114275
30.81857	113354
30.82668	104616
30.83482	101781
30.84293	94738
30.85105	94281
30.85918	97404
30.86730	99075
30.87542	103177
30.88355	105424
30.89167	111096
30.89980	113440
30.90792	108331
30.91603	100753
30.92417	101003
30.93228	97921
30.94042	95504
30.94853	99514
30.95665	95007
30.96478	96965
30.97290	101190
30.98103	94301
30.98915	95250
30.99727	97019
31.00540	95292
31.01352	101576
31.02163	93899
31.02977	103550
31.03788	100609
31.04602	107052
31.05413	107728
31.06225	101768
31.07038	108441
31.07850	109715
31.08663	122654
31.09475	137280
31.10287	147487
31.11100	149163
31.11912	143913
31.12723	125137
31.13537	123256
31.14348	116113
31.15162	113908
31.15973	108835
31.16785	107440
31.17598	119923
31.18410	131823
31.19223	138989
31.20035	172039
31.20847	195998
31.21660	223788
31.22472	243932
31.23285	246638
31.24097	231199
31.24908	191677
31.25722	160127
31.26533	131881
31.27345	114913
31.28158	106744
31.28970	98212
31.29783	103092
31.30595	94410
31.31407	96241
31.32220	95669
31.33032	91629
31.33845	95874
31.34657	92920
31.35468	92594
31.36282	95383
31.37093	96575
31.37907	88403
31.38718	94732
31.39530	95277
31.40343	87858
31.41155	98966
31.41967	92622
31.42780	87145
31.43592	86548
31.44405	91006
31.45217	87098
31.46028	85678
31.46842	86590
31.47653	88724
31.48467	91217
31.49278	90614
31.50090	95068
31.50903	94361
31.51715	94939
31.52527	95127
31.53340	97224
31.54152	100632
31.54965	96056
31.55777	97296
31.56588	87955
31.57402	86943
31.58213	81485
31.59027	83089
31.59838	83959
31.60650	79012
31.61463	85428
31.62275	84659
31.63088	78593
31.63900	78558
31.64712	88205
31.65525	86154
31.66337	88519
31.67148	91004
31.67962	88457
31.68773	89252
31.69587	88110
31.70398	88950
31.71210	82273
31.72023	81594
31.72835	82146
31.73648	79394
31.74460	80154
31.75272	76792
31.76085	76906
31.76897	79302
31.77710	76259
31.78522	77984
31.79333	77205
31.80147	84170
31.80958	83490
31.81770	79236
31.82583	79356
31.83395	76401
31.84208	80767
31.85020	76919
31.85832	79762
31.86645	83211
31.87457	83933
31.88270	88102
31.89082	88613
31.89893	89562
31.90707	106805
31.91518	113811
31.92330	117475
31.93143	133313
31.93955	141197
31.94768	156668
31.95580	165195
31.96392	177784
31.97205	183442
31.98017	182230
31.98830	198357
31.99642	186651
32.00453	181873
32.01267	181757
32.02078	176538
32.02892	166168
32.03703	161699
32.04515	152515
32.05328	153458
32.06140	144561
32.06952	138371
32.07765	139401
32.08577	131708
32.09390	123750
32.10202	125629
32.11013	115875
32.11827	108742
32.12638	108659
32.13452	104530
32.14263	97801
32.15075	99100
32.15888	100309
32.16700	98603
32.17512	96665
32.18325	93806
32.19137	94598
32.19950	96764
32.20762	91775
32.21573	94017
32.22387	90423
32.23198	92381
32.24012	93236
32.24823	91813
32.25635	93035
32.26448	95248
32.27260	92813
32.28073	93352
32.28885	86529
32.29697	87273
32.30510	87778
32.31322	86327
32.32133	85209
32.32947	82279
32.33758	86054
32.34572	84351
32.35383	85734
32.36195	84414
32.37008	91070
32.37820	84694
32.38633	85202
32.39445	86282
32.40257	87142
32.41070	85847
32.41882	83196
32.42695	89224
32.43507	85067
32.44318	83610
32.45132	80220
32.45943	82969
32.46755	82234
32.47568	80178
32.48380	78547
32.49193	80423
32.50005	74944
32.50817	80729
32.51630	79556
32.52442	82150
32.53255	80657
32.54067	79540
32.54878	81090
32.55692	77871
32.56503	83007
32.57315	81200
32.58128	79046
32.58940	79452
32.59753	72723
32.60565	74092
32.61377	75848
32.62190	79995
32.63002	75441
32.63815	85421
32.64627	89086
32.65438	101574
32.66252	110657
32.67063	125248
32.67877	118490
32.68688	124236
32.69500	111017
32.70313	101567
32.71125	94717
32.71937	95307
32.72750	90186
32.73562	89075
32.74375	81300
32.75187	87281
32.75998	86911
32.76812	77716
32.77623	80744
32.78437	81323
32.79248	74476
32.80060	75748
32.80873	78093
32.81685	78305
32.82498	82036
32.83310	82555
32.84122	79101
32.84935	82927
32.85747	82707
32.86558	82878
32.87372	84803
32.88183	93009
32.88997	95257
32.89808	96937
32.90620	100260
32.91433	102751
32.92245	103271
32.93058	99237
32.93870	91095
32.94682	87733
32.95495	84221
32.96307	85437
32.97118	79611
32.97932	92764
32.98743	91797
32.99557	99675
33.00368	104614
33.01180	108730
33.01993	101335
33.02805	93680
33.03618	92553
33.04430	89952
33.05242	87723
33.06055	93287
33.06867	93396
33.07680	97445
33.08492	105655
33.09303	117536
33.10117	126323
33.10928	131544
33.11740	138498
33.12553	128899
33.13365	126911
33.14178	111757
33.14990	103144
33.15802	100508
33.16615	95797
33.17427	91687
33.18240	86866
33.19052	86168
33.19863	89604
33.20677	87388
33.21488	92819
33.22302	88216
33.23113	91555
33.23925	90507
33.24738	85732
33.25550	88242
33.26362	96460
33.27175	85792
33.27987	92286
33.28800	88531
33.29612	84626
33.30423	87081
33.31237	87313
33.32048	86127
33.32862	86844
33.33673	90985
33.34485	89918
33.35298	94843
33.36110	91330
33.36922	87538
33.37735	85514
33.38547	85581
33.39360	86363
33.40172	85069
33.40983	78455
33.41797	79907
33.42608	83050
33.43422	83228
33.44233	80790
33.45045	77238
33.45858	76095
33.46670	79468
33.47483	78212
33.48295	82254
33.49107	80608
33.49920	83195
33.50732	82876
33.51543	82065
33.52357	79826
33.53168	86205
33.53982	83163
33.54793	90077
33.55605	92200
33.56418	93077
33.57230	91500
33.58043	91903
33.58855	83743
33.59667	81476
33.60480	82466
33.61292	82644
33.62103	84511
33.62917	87009
33.63728	84950
33.64542	90454
33.65353	92731
33.66165	89563
33.66978	91045
33.67790	91603
33.68603	86149
33.69415	82710
33.70227	84350
33.71040	78362
33.71852	83974
33.72665	82598
33.73477	75369
33.74288	80632
33.75102	84550
33.75913	81086
33.76725	76306
33.77538	74348
33.78350	79217
33.79163	80550
33.79975	77751
33.80787	77116
33.81600	79362
33.82412	74138
33.83225	83034
33.84037	79609
33.84848	83723
33.85662	85615
33.86473	87018
33.87287	85089
33.88098	83017
33.88910	88787
33.89723	84617
33.90535	89455
33.91347	89889
33.92160	89674
33.92972	90377
33.93785	88735
33.94597	95965
33.95408	88361
33.96222	89094
33.97033	91161
33.97847	86805
33.98658	87051
33.99470	83891
34.00283	89950
34.01095	86854
34.01907	85518
34.02720	92537
34.03532	86862
34.04345	85462
34.05157	89062
34.05968	90512
34.06782	87980
34.07593	87279
34.08407	92562
34.09218	88909
34.10030	89380
34.10843	84668
34.11655	90035
34.12468	88599
34.13280	90469
34.14092	85781
34.14905	86302
34.15717	86656
34.16528	90389
34.17342	88571
34.18153	89173
34.18967	88960
34.19778	89379
34.20590	91439
34.21403	93773
34.22215	82613
34.23028	89905
34.23840	90260
34.24652	84662
34.25465	88824
34.26277	93909
34.27090	90476
34.27902	85538
34.28713	85614
34.29527	86888
34.30338	87179
34.31150	89648
34.31963	91949
34.32775	92518
34.33588	92583
34.34400	87612
34.35212	91266
34.36025	92553
34.36837	90904
34.37650	89509
34.38462	93842
34.39273	91731
34.40087	94431
34.40898	95012
34.41710	91734
34.42523	85571
34.43335	92732
34.44148	92185
34.44960	92238
34.45772	89293
34.46585	90806
34.47397	97651
34.48210	92906
34.49022	94737
34.49833	104247
34.50647	106516
34.51458	115456
34.52272	135126
34.53083	155002
34.53895	175993
34.54708	193931
34.55520	204165
34.56332	213745
34.57145	208192
34.57957	195798
34.58770	186739
34.59582	175336
34.60393	157266
34.61207	147114
34.62018	146125
34.62832	132957
34.63643	128106
34.64455	127667
34.65268	119517
34.66080	120693
34.66892	117405
34.67705	113851
34.68517	107008
34.69330	109535
34.70142	107909
34.70953	105185
34.71767	108657
34.72578	106006
34.73392	103664
34.74203	104353
34.75015	110333
34.75828	109926
34.76640	107079
34.77453	105155
34.78265	107263
34.79077	105310
34.79890	104698
34.80702	110566
34.81513	110460
34.82327	106890
34.83138	111308
34.83952	116400
34.84763	107713
34.85575	106679
34.86388	103953
34.87200	101073
34.88013	103569
34.88825	93679
34.89637	101466
34.90450	105837
34.91262	106021
34.92075	106736
34.92887	111083
34.93698	113351
34.94512	112764
34.95323	122811
34.96135	126658
34.96948	128891
34.97760	122013
34.98573	124797
34.99385	124111
35.00197	133552
35.01010	119202
35.01822	121199
35.02635	127274
35.03447	115055
35.04258	112387
35.05072	117588
35.05883	111658
35.06695	111096
35.07508	107635
35.08320	107586
35.09133	105134
35.09945	111100
35.10757	101935
35.11570	99468
35.12382	98582
35.13195	101405
35.14007	101707
35.14818	111250
35.15632	106623
35.16443	104585
35.17257	108165
35.18068	103458
35.18880	98268
35.19693	101398
35.20505	99997
35.21317	99018
35.22130	96149
35.22942	97059
35.23755	102119
35.24567	97256
35.25378	97645
35.26192	103760
35.27003	99105
35.27817	103553
35.28628	101216
35.29440	105555
35.30253	106933
35.31065	97185
35.31878	95205
35.32690	102593
35.33502	101657
35.34315	98635
35.35127	102073
35.35938	100390
35.36752	94922
35.37563	95291
35.38377	98486
35.39188	102441
35.40000	112370
35.40813	118536
35.41625	121438
35.42438	127392
35.43250	132605
35.44062	140393
35.44875	127338
35.45687	132116
35.46498	124864
35.47312	115235
35.48123	112527
35.48937	115246
35.49748	112224
35.50560	111267
35.51373	108654
35.52185	108501
35.52998	105369
35.53810	104601
35.54622	102926
35.55435	102676
35.56247	104089
35.57060	105960
35.57872	98943
35.58683	103681
35.59497	101272
35.60308	99480
35.61120	96993
35.61933	96424
35.62745	96096
35.63558	105019
35.64370	99648
35.65182	108070
35.65995	102745
35.66807	102175
35.67620	108527
35.68432	110957
35.69243	106563
35.70057	111275
35.70868	102410
35.71680	105347
35.72493	103326
35.73305	105376
35.74118	111658
35.74930	117726
35.75742	125983
35.76555	126098
35.77367	120244
35.78180	117291
35.78992	123459
35.79803	116671
35.80617	115790
35.81428	105552
35.82242	108071
35.83053	110405
35.83865	109535
35.84678	108146
35.85490	117456
35.86302	112928
35.87115	113759
35.87927	110308
35.88740	113739
35.89552	108335
35.90363	113222
35.91177	110160
35.91988	118343
35.92802	111657
35.93613	114686
35.94425	113676
35.95238	117254
35.96050	112211
35.96863	116491
35.97675	120228
35.98487	113440
35.99300	114278
36.00112	112959
36.00923	119475
36.01737	130088
36.02548	121320
36.03362	125543
36.04173	120925
36.04985	120359
36.05798	117689
36.06610	120505
36.07423	113087
36.08235	117756
36.09047	117375
36.09860	115147
36.10672	111911
36.11485	116094
36.12297	117578
36.13108	114315
36.13922	121686
36.14733	115451
36.15545	121356
36.16358	123190
36.17170	118239
36.17983	118327
36.18795	107967
36.19607	110772
36.20420	105862
36.21232	102305
36.22045	104955
36.22857	104236
36.23668	105776
36.24482	103031
36.25293	105082
36.26105	105840
36.26918	107382
36.27730	113300
36.28543	116030
36.29355	121868
36.30167	128838
36.30980	141488
36.31792	152703
36.32605	150567
36.33417	153628
36.34228	139518
36.35042	139163
36.35853	134963
36.36667	128956
36.37478	128205
36.38290	133399
36.39103	132523
36.39915	122300
36.40727	122174
36.41540	129489
36.42352	128739
36.43165	122565
36.43977	121136
36.44788	125945
36.45602	127329
36.46413	125761
36.47227	128555
36.48038	125223
36.48850	129619
36.49663	128156
36.50475	125259
36.51287	120513
36.52100	124028
36.52912	124004
36.53725	123256
36.54537	125584
36.55348	122637
36.56162	126255
36.56973	126702
36.57787	119777
36.58598	121933
36.59410	117155
36.60223	127432
36.61035	118988
36.61848	121687
36.62660	120307
36.63472	125647
36.64285	123414
36.65097	129903
36.65908	128856
36.66722	129839
36.67533	121445
36.68347	128989
36.69158	119811
36.69970	124194
36.70783	126731
36.71595	120303
36.72408	121668
36.73220	122965
36.74032	120530
36.74845	116771
36.75657	119807
36.76470	118285
36.77282	114269
36.78093	114845
36.78907	119758
36.79718	122402
36.80530	120655
36.81343	119556
36.82155	119049
36.82968	117613
36.83780	118493
36.84592	119611
36.85405	117402
36.86217	114044
36.87030	117407
36.87842	114523
36.88653	119191
36.89467	121453
36.90278	118630
36.91090	116405
36.91903	113346
36.92715	116309
36.93528	120311
36.94340	120542
36.95152	135301
36.95965	135370
36.96777	136443
36.97590	136665
36.98402	132409
36.99213	124177
37.00027	125842
37.00838	124845
37.01652	122057
37.02463	123047
37.03275	120903
37.04088	124320
37.04900	128799
37.05712	124321
37.06525	124913
37.07337	128056
37.08150	127077
37.08962	131207
37.09773	137520
37.10587	127956
37.11398	126625
37.12212	135566
37.13023	128442
37.13835	123681
37.14648	121231
37.15460	120850
37.16273	126435
37.17085	119062
37.17897	131344
37.18710	125619
37.19522	129269
37.20333	135117
37.21147	132101
37.21958	130884
37.22772	129585
37.23583	132279
37.24395	124645
37.25208	132209
37.26020	127123
37.26833	126810
37.27645	127141
37.28457	126359
37.29270	132735
37.30082	133450
37.30893	134304
37.31707	142627
37.32518	159438
37.33332	169005
37.34143	185905
37.34955	205415
37.35768	212068
37.36580	208662
37.37393	209632
37.38205	197977
37.39017	186210
37.39830	186720
37.40642	185644
37.41455	169453
37.42267	170471
37.43078	172312
37.43892	162786
37.44703	170192
37.45515	162486
37.46328	166203
37.47140	153746
37.47953	156038
37.48765	156269
