C:\MassHunter\GCMS\1\data\JTB-E02\BACandBLUE\JTB-E18-013-10.D Thu Jun 20 10:41:27 2019
Start of data points
2.09515,59427
2.10327,58919
2.11140,61125
2.11952,56282
2.12765,59394
2.13577,57635
2.14388,63116
2.15202,58016
2.16013,58228
2.16827,51350
2.17638,55842
2.18450,58060
2.19263,52675
2.20075,50973
2.20887,54540
2.21700,54179
2.22512,48025
2.23325,49475
2.24137,51811
2.24948,50968
2.25762,53268
2.26573,62091
2.27387,370124
2.28198,1484446
2.29010,1282181
2.29823,513121
2.30635,308630
2.31447,238178
2.32260,215858
2.33072,187326
2.33885,170304
2.34697,151635
2.35508,142274
2.36322,138997
2.37133,125036
2.37947,120401
2.38758,117670
2.39570,118038
2.40383,110192
2.41195,106688
2.42008,110520
2.42820,104998
2.43632,103961
2.44445,98835
2.45257,103308
2.46068,104195
2.46882,97905
2.47693,90263
2.48507,94115
2.49318,106945
2.50130,139047
2.50943,119420
2.51755,104475
2.52568,105643
2.53380,102113
2.54192,94575
2.55005,101164
2.55817,121277
2.56628,207236
2.57442,204312
2.58253,149119
2.59067,129358
2.59878,123768
2.60690,227140
2.61503,902981
2.62315,1281523
2.63128,775910
2.63940,438430
2.64752,316998
2.65565,238938
2.66377,199445
2.67190,172006
2.68002,152457
2.68813,143618
2.69627,129698
2.70438,120811
2.71250,111998
2.72063,109748
2.72875,104141
2.73688,108584
2.74500,100285
2.75312,96774
2.76125,101168
2.76937,93623
2.77750,97390
2.78562,150539
2.79373,268645
2.80187,247098
2.80998,173457
2.81812,156444
2.82623,163547
2.83435,153051
2.84248,136444
2.85060,125707
2.85872,114528
2.86685,105649
2.87497,103550
2.88310,97657
2.89122,98022
2.89933,96028
2.90747,88739
2.91558,90574
2.92372,94696
2.93183,89862
2.93995,86721
2.94808,85605
2.95620,86655
2.96432,94886
2.97245,104042
2.98057,104460
2.98870,96520
2.99682,92839
3.00493,94653
3.01307,98752
3.02118,89809
3.02932,87009
3.03743,89702
3.04555,83741
3.05368,81287
3.06180,79426
3.06993,90073
3.07805,102439
3.08617,390142
3.09430,1979985
3.10242,4264953
3.11053,5233646
3.11867,6029953
3.12678,4898326
3.13492,3201416
3.14303,2299982
3.15115,1760765
3.15928,1363460
3.16740,1107760
3.17553,962509
3.18365,818798
3.19177,839936
3.19990,1099691
3.20802,1210208
3.21615,977043
3.22427,791978
3.23238,673218
3.24052,585607
3.24863,507270
3.25675,455205
3.26488,417376
3.27300,383273
3.28113,358193
3.28925,388429
3.29737,730920
3.30550,2205408
3.31362,4870560
3.32175,6470744
3.32987,5628692
3.33798,3923052
3.34612,2631636
3.35423,1952188
3.36235,1527643
3.37048,1212602
3.37860,1044324
3.38673,898126
3.39485,805900
3.40297,725088
3.41110,647246
3.41922,604503
3.42735,558579
3.43547,545095
3.44358,518492
3.45172,498661
3.45983,467692
3.46797,455569
3.47608,471931
3.48420,487234
3.49233,477911
3.50045,418786
3.50857,409372
3.51670,381229
3.52482,374206
3.53295,361591
3.54107,366862
3.54918,366761
3.55732,362795
3.56543,347822
3.57357,348759
3.58168,383516
3.58980,421169
3.59793,393773
3.60605,361832
3.61418,346526
3.62230,330640
3.63042,341905
3.63855,349617
3.64667,343572
3.65478,332049
3.66292,334689
3.67103,603361
3.67917,2037877
3.68728,4763455
3.69540,5902215
3.70353,4590583
3.71165,3207826
3.71978,2488823
3.72790,2059715
3.73602,1764732
3.74415,1566504
3.75227,1374901
3.76038,1241689
3.76852,1140989
3.77663,1041720
3.78477,972113
3.79288,905442
3.80100,864712
3.80913,918958
3.81725,1268725
3.82538,1840254
3.83350,1956321
3.84162,1597702
3.84975,1289881
3.85787,1109112
3.86600,990902
3.87412,898923
3.88223,831147
3.89037,782014
3.89848,728995
3.90660,664458
3.91473,648869
3.92285,653699
3.93098,703137
3.93910,755823
3.94722,789764
3.95535,1252014
3.96347,3464599
3.97160,7616756
3.97972,9935491
3.98783,8021758
3.99597,4978506
4.00408,5208833
4.01220,1.302106E+07
4.02033,2.746763E+07
4.02845,3.51838E+07
4.03658,2.915574E+07
4.04470,1.620657E+07
4.05282,8203317
4.06095,4822004
4.06907,3409249
4.07720,2600491
4.08532,2112381
4.09343,1782558
4.10157,1532771
4.10968,1351614
4.11782,1228502
4.12593,1130573
4.13405,1053152
4.14218,991181
4.15030,1007063
4.15842,1030701
4.16655,995533
4.17467,898968
4.18280,849820
4.19092,823040
4.19903,766138
4.20717,727001
4.21528,906826
4.22342,2226278
4.23153,6180482
4.23965,1.150851E+07
4.24778,1.401068E+07
4.25590,1.185605E+07
4.26403,7676029
4.27215,4816261
4.28027,3321660
4.28840,2481364
4.29652,1949123
4.30463,1610628
4.31277,1398761
4.32088,1226808
4.32902,1118874
4.33713,1016782
4.34525,950462
4.35338,890978
4.36150,850046
4.36963,826555
4.37775,818484
4.38587,781597
4.39400,725879
4.40212,668364
4.41023,642401
4.41837,609726
4.42648,583890
4.43462,567959
4.44273,549147
4.45085,532478
4.45898,510975
4.46710,497265
4.47523,491980
4.48335,478443
4.49147,470340
4.49960,465248
4.50772,449727
4.51585,454931
4.52397,431669
4.53208,434091
4.54022,422705
4.54833,416844
4.55645,407057
4.56458,408337
4.57270,398824
4.58083,386862
4.58895,377058
4.59707,369572
4.60520,356707
4.61332,359738
4.62145,356721
4.62957,360595
4.63768,416713
4.64582,497728
4.65393,568628
4.66207,557127
4.67018,491340
4.67830,417891
4.68643,400827
4.69455,391919
4.70267,376173
4.71080,352055
4.71892,337752
4.72705,323998
4.73517,322963
4.74328,316343
4.75142,310131
4.75953,307334
4.76767,305453
4.77578,300927
4.78390,297579
4.79203,306335
4.80015,372454
4.80827,569587
4.81640,844069
4.82452,974573
4.83265,850099
4.84077,730104
4.84888,636240
4.85702,583989
4.86513,552381
4.87327,518529
4.88138,472731
4.88950,439440
4.89763,409456
4.90575,403113
4.91388,377682
4.92200,375212
4.93012,378465
4.93825,380823
4.94637,546857
4.95448,1125782
4.96262,2389347
4.97073,3995546
4.97887,4948093
4.98698,4624738
4.99510,3489174
5.00323,2419643
5.01135,1661108
5.01948,1226864
5.02760,987783
5.03572,861355
5.04385,783922
5.05197,805169
5.06008,768498
5.06822,723909
5.07633,652160
5.08447,609366
5.09258,573343
5.10070,546272
5.10883,514076
5.11695,500492
5.12508,467899
5.13320,463208
5.14132,439869
5.14945,436763
5.15757,434169
5.16570,440851
5.17382,479636
5.18193,487458
5.19007,489932
5.19818,445377
5.20630,428205
5.21443,433951
5.22255,456196
5.23068,443116
5.23880,427377
5.24692,414021
5.25505,414136
5.26317,392507
5.27130,367937
5.27942,344409
5.28753,328920
5.29567,328848
5.30378,319301
5.31192,318014
5.32003,316083
5.32815,311308
5.33628,315806
5.34440,335206
5.35252,356132
5.36065,348944
5.36877,331933
5.37690,318137
5.38502,307892
5.39313,309871
5.40127,304422
5.40938,313949
5.41752,311608
5.42563,295707
5.43375,295896
5.44188,296705
5.45000,285279
5.45813,282310
5.46625,286454
5.47437,285653
5.48250,280447
5.49062,263412
5.49873,263973
5.50687,260530
5.51498,269549
5.52312,272471
5.53123,263946
5.53935,268890
5.54748,262119
5.55560,255326
5.56373,262823
5.57185,283346
5.57997,302897
5.58810,322249
5.59622,320504
5.60433,297710
5.61247,272319
5.62058,265557
5.62872,256127
5.63683,269966
5.64495,272050
5.65308,285758
5.66120,299828
5.66933,282875
5.67745,266702
5.68557,276286
5.69370,293951
5.70182,313115
5.70995,319626
5.71807,302013
5.72618,273028
5.73432,258104
5.74243,243300
5.75055,245592
5.75868,231258
5.76680,224382
5.77493,230217
5.78305,231382
5.79117,220836
5.79930,222930
5.80742,213006
5.81555,219822
5.82367,212689
5.83178,214669
5.83992,211092
5.84803,213125
5.85615,224700
5.86428,222842
5.87240,216968
5.88053,215692
5.88865,214157
5.89677,210860
5.90490,206191
5.91302,183586
5.92115,171128
5.92927,156245
5.93738,157603
5.94552,158339
5.95363,162502
5.96177,171996
5.96988,194506
5.97800,222538
5.98613,248644
5.99425,292594
6.00237,313864
6.01050,296469
6.01862,268801
6.02675,230919
6.03487,215116
6.04298,203638
6.05112,181829
6.05923,179254
6.06737,166395
6.07548,175009
6.08360,157429
6.09173,159135
6.09985,159439
6.10798,164261
6.11610,155070
6.12422,162648
6.13235,164149
6.14047,196143
6.14858,239558
6.15672,299052
6.16483,329722
6.17297,307164
6.18108,278305
6.18920,245141
6.19733,228095
6.20545,210174
6.21358,210035
6.22170,203913
6.22982,206143
6.23795,197060
6.24607,197855
6.25418,191752
6.26232,193967
6.27043,193175
6.27857,201097
6.28668,204541
6.29480,200655
6.30293,193313
6.31105,193257
6.31918,197751
6.32730,201150
6.33542,218194
6.34355,258107
6.35167,316369
6.35980,330122
6.36792,300552
6.37603,272393
6.38417,246104
6.39228,230406
6.40040,225955
6.40853,216560
6.41665,212388
6.42478,215744
6.43290,217032
6.44102,208209
6.44915,200621
6.45727,204393
6.46540,206723
6.47352,208559
6.48163,208612
6.48977,203854
6.49788,212157
6.50602,206172
6.51413,210054
6.52225,209664
6.53038,207470
6.53850,213776
6.54662,212045
6.55475,214561
6.56287,209902
6.57100,212859
6.57912,223175
6.58723,237293
6.59537,258428
6.60348,252231
6.61162,246338
6.61973,229808
6.62785,216512
6.63598,188722
6.64410,187425
6.65222,178531
6.66035,182579
6.66847,233098
6.67660,340451
6.68472,468251
6.69283,533719
6.70097,494019
6.70908,393827
6.71722,296658
6.72533,236113
6.73345,208811
6.74158,190192
6.74970,183832
6.75783,176784
6.76595,174418
6.77407,160993
6.78220,157491
6.79032,153641
6.79843,146343
6.80657,144661
6.81468,145664
6.82282,139590
6.83093,137636
6.83905,136611
6.84718,139061
6.85530,136018
6.86343,131545
6.87155,138194
6.87967,146912
6.88780,171004
6.89592,167258
6.90403,145555
6.91217,122639
6.92028,106604
6.92842,99733
6.93653,91070
6.94465,95497
6.95278,94507
6.96090,98640
6.96903,99111
6.97715,104969
6.98527,120538
6.99340,125809
7.00152,129193
7.00965,118719
7.01777,109671
7.02588,92414
7.03402,90246
7.04213,92420
7.05025,88010
7.05838,84129
7.06650,87668
7.07463,85744
7.08275,88683
7.09087,91371
7.09900,90464
7.10712,92989
7.11525,89574
7.12337,88292
7.13148,81277
7.13962,83758
7.14773,90496
7.15587,113350
7.16398,168978
7.17210,243836
7.18023,304924
7.18835,407802
7.19647,713284
7.20460,1247244
7.21272,1785146
7.22085,1821557
7.22897,1435601
7.23708,853659
7.24522,460789
7.25333,245099
7.26147,161747
7.26958,135670
7.27770,124086
7.28583,121481
7.29395,123957
7.30207,114468
7.31020,116029
7.31832,108884
7.32645,108503
7.33457,108090
7.34268,110188
7.35082,110627
7.35893,112278
7.36707,121258
7.37518,117210
7.38330,111412
7.39143,113712
7.39955,105325
7.40768,101240
7.41580,108565
7.42392,109745
7.43205,121339
7.44017,118513
7.44828,116512
7.45642,117227
7.46453,107164
7.47267,103963
7.48078,98002
7.48890,98573
7.49703,96008
7.50515,93236
7.51328,95300
7.52140,91551
7.52952,90228
7.53765,88936
7.54577,89869
7.55390,96094
7.56202,116868
7.57013,158578
7.57827,222541
7.58638,294140
7.59450,353243
7.60263,368685
7.61075,326416
7.61888,252975
7.62700,190333
7.63512,150903
7.64325,114266
7.65137,101748
7.65950,92935
7.66762,87713
7.67573,91554
7.68387,88937
7.69198,86317
7.70010,77868
7.70823,84276
7.71635,79419
7.72448,82026
7.73260,82662
7.74072,84812
7.74885,85358
7.75697,86207
7.76510,88806
7.77322,88023
7.78133,78776
7.78947,90441
7.79758,91711
7.80572,87803
7.81383,90984
7.82195,99302
7.83008,97261
7.83820,99519
7.84632,89778
7.85445,84689
7.86257,75403
7.87070,77311
7.87882,73623
7.88693,74926
7.89507,80148
7.90318,88239
7.91132,97178
7.91943,94624
7.92755,90412
7.93568,88922
7.94380,95287
7.95193,102924
7.96005,124832
7.96817,119491
7.97630,117270
7.98442,102318
7.99253,92522
8.00067,84377
8.00878,80267
8.01692,74213
8.02503,72432
8.03315,74623
8.04128,71500
8.04940,71802
8.05753,69138
8.06565,64350
8.07377,67723
8.08190,69217
8.09002,71805
8.09813,67175
8.10627,65924
8.11438,67747
8.12252,69444
8.13063,70120
8.13875,66551
8.14688,74070
8.15500,81958
8.16313,96182
8.17125,94100
8.17937,89488
8.18750,85362
8.19562,81394
8.20375,72117
8.21187,71070
8.21998,69665
8.22812,70069
8.23623,69987
8.24435,70388
8.25248,68979
8.26060,68782
8.26873,67234
8.27685,68456
8.28497,60536
8.29310,61100
8.30122,59156
8.30935,63494
8.31747,63606
8.32558,64631
8.33372,64415
8.34183,70606
8.34995,73426
8.35808,75079
8.36620,75395
8.37433,78365
8.38245,70438
8.39057,67060
8.39870,67983
8.40682,69573
8.41495,65246
8.42307,66365
8.43118,62278
8.43932,61579
8.44743,60412
8.45557,62995
8.46368,61746
8.47180,60964
8.47993,57759
8.48805,59004
8.49617,58751
8.50430,62065
8.51242,71210
8.52055,104048
8.52867,190676
8.53678,317341
8.54492,421007
8.55303,436811
8.56117,343678
8.56928,223587
8.57740,145631
8.58553,108550
8.59365,95595
8.60178,95387
8.60990,101736
8.61802,116431
8.62615,127673
8.63427,131648
8.64238,126263
8.65052,107526
8.65863,93975
8.66677,88038
8.67488,76850
8.68300,73505
8.69113,73244
8.69925,71008
8.70738,70388
8.71550,78076
8.72362,74947
8.73175,67989
8.73987,67207
8.74798,70214
8.75612,70720
8.76423,79782
8.77237,141822
8.78048,310987
8.78860,632805
8.79673,1103464
8.80485,1499069
8.81298,1542891
8.82110,1241076
8.82922,881409
8.83735,563922
8.84547,400109
8.85360,333408
8.86172,275288
8.86983,253455
8.87797,222195
8.88608,206989
8.89420,185281
8.90233,176321
8.91045,163829
8.91858,158831
8.92670,160327
8.93482,163772
8.94295,176730
8.95107,176313
8.95920,173456
8.96732,160444
8.97543,144429
8.98357,135800
8.99168,141140
8.99982,135092
9.00793,132856
9.01605,138016
9.02418,136830
9.03230,127122
9.04042,121686
9.04855,115248
9.05667,111699
9.06480,112257
9.07292,113514
9.08103,107961
9.08917,105733
9.09728,109404
9.10542,107784
9.11353,110462
9.12165,118223
9.12978,124084
9.13790,132801
9.14602,123579
9.15415,123741
9.16227,116075
9.17040,104140
9.17852,107751
9.18663,95376
9.19477,99879
9.20288,98823
9.21102,102069
9.21913,99372
9.22725,101669
9.23538,96385
9.24350,95402
9.25163,98662
9.25975,91359
9.26787,89739
9.27600,92734
9.28412,94351
9.29223,91019
9.30037,88680
9.30848,90671
9.31662,90967
9.32473,81074
9.33285,85585
9.34098,83893
9.34910,84739
9.35723,79811
9.36535,80003
9.37347,78359
9.38160,79342
9.38972,82054
9.39783,82098
9.40597,84697
9.41408,81910
9.42222,76231
9.43033,87217
9.43845,92460
9.44658,97421
9.45470,109252
9.46283,116822
9.47095,111364
9.47907,103805
9.48720,102732
9.49532,91409
9.50345,85029
9.51157,85139
9.51968,97054
9.52782,103111
9.53593,118404
9.54405,130276
9.55218,126815
9.56030,116858
9.56843,101457
9.57655,87772
9.58467,75687
9.59280,71634
9.60092,68839
9.60905,70593
9.61717,66818
9.62528,64492
9.63342,69699
9.64153,56690
9.64967,60384
9.65778,55220
9.66590,58249
9.67403,54175
9.68215,52072
9.69027,57987
9.69840,57109
9.70652,58131
9.71465,55182
9.72277,56210
9.73088,57245
9.73902,55467
9.74713,57157
9.75527,54182
9.76338,49601
9.77150,51600
9.77963,51252
9.78775,48884
9.79588,48485
9.80400,50474
9.81212,48952
9.82025,48714
9.82837,43057
9.83648,47388
9.84462,47370
9.85273,48812
9.86087,51186
9.86898,53116
9.87710,58616
9.88523,54007
9.89335,55580
9.90148,50929
9.90960,50377
9.91772,51450
9.92585,49644
9.93397,57647
9.94208,77778
9.95022,115958
9.95833,169776
9.96647,207500
9.97458,234954
9.98270,225990
9.99083,196928
9.99895,154726
10.00708,127699
10.01520,117715
10.02332,103566
10.03145,103860
10.03957,90759
10.04770,86124
10.05582,84499
10.06393,84656
10.07207,72237
10.08018,74939
10.08830,72890
10.09643,71471
10.10455,73465
10.11268,70013
10.12080,63587
10.12892,65483
10.13705,66232
10.14517,66291
10.15330,62030
10.16142,62832
10.16953,59968
10.17767,59518
10.18578,55706
10.19390,60356
10.20203,56755
10.21015,59467
10.21828,58571
10.22640,54730
10.23452,60824
10.24265,59998
10.25077,65132
10.25890,82584
10.26702,133089
10.27513,283460
10.28327,634108
10.29138,1225481
10.29952,1947909
10.30763,2912575
10.31575,4257111
10.32388,6355884
10.33200,8969569
10.34012,1.0956E+07
10.34825,1.073887E+07
10.35637,8401907
10.36450,5571583
10.37262,3558131
10.38073,2537913
10.38887,1988861
10.39698,1554105
10.40512,1220807
10.41323,945634
10.42135,741022
10.42948,631980
10.43760,548756
10.44573,492425
10.45385,453319
10.46197,422884
10.47010,388441
10.47822,348163
10.48633,326776
10.49447,312439
10.50258,280063
10.51072,267294
10.51883,254648
10.52695,250295
10.53508,237959
10.54320,228770
10.55133,225584
10.55945,226052
10.56757,213232
10.57570,199405
10.58382,198497
10.59193,188194
10.60007,188249
10.60818,174983
10.61632,173271
10.62443,161323
10.63255,155635
10.64068,148878
10.64880,148969
10.65693,151486
10.66505,137315
10.67317,131952
10.68130,129277
10.68942,127717
10.69755,124276
10.70567,133337
10.71378,128409
10.72192,130163
10.73003,121134
10.73815,120472
10.74628,115793
10.75440,113736
10.76253,115160
10.77065,113927
10.77877,112508
10.78690,110148
10.79502,105241
10.80315,104381
10.81127,103709
10.81938,99881
10.82752,101837
10.83563,97063
10.84377,94472
10.85188,98322
10.86000,89895
10.86813,86355
10.87625,89496
10.88437,85702
10.89250,83828
10.90062,81595
10.90875,81504
10.91687,83623
10.92498,83360
10.93312,78640
10.94123,79178
10.94937,78490
10.95748,74185
10.96560,77069
10.97373,73695
10.98185,77038
10.98997,76400
10.99810,80230
11.00622,79535
11.01435,79449
11.02247,76487
11.03058,73794
11.03872,75572
11.04683,71071
11.05497,70226
11.06308,68476
11.07120,66541
11.07933,68125
11.08745,70570
11.09558,70959
11.10370,70206
11.11182,73713
11.11995,65015
11.12807,66515
11.13618,62446
11.14432,61410
11.15243,57381
11.16057,57115
11.16868,59663
11.17680,61545
11.18493,63455
11.19305,63321
11.20118,66850
11.20930,63707
11.21742,64602
11.22555,64044
11.23367,60185
11.24178,58796
11.24992,52440
11.25803,46755
11.26617,48416
11.27428,45517
11.28240,45193
11.29053,49024
11.29865,46053
11.30678,48448
11.31490,51686
11.32302,61003
11.33115,75715
11.33927,109039
11.34740,166312
11.35552,217918
11.36363,257757
11.37177,275529
11.37988,243510
11.38800,197373
11.39613,152312
11.40425,126716
11.41238,115881
11.42050,92609
11.42862,87599
11.43675,79110
11.44487,66967
11.45300,64590
11.46112,61622
11.46923,55689
11.47737,53659
11.48548,56457
11.49362,67555
11.50173,74077
11.50985,95541
11.51798,100017
11.52610,100662
11.53422,98469
11.54235,97835
11.55047,91068
11.55860,80322
11.56672,72706
11.57483,68377
11.58297,63596
11.59108,64031
11.59922,67499
11.60733,88954
11.61545,109349
11.62358,129178
11.63170,139689
11.63982,133238
11.64795,115194
11.65607,93639
11.66420,78636
11.67232,71151
11.68043,62822
11.68857,64494
11.69668,65259
11.70482,63443
11.71293,66331
11.72105,72499
11.72918,72455
11.73730,67808
11.74543,64126
11.75355,65149
11.76167,56912
11.76980,57531
11.77792,51792
11.78603,50974
11.79417,51975
11.80228,51519
11.81042,54450
11.81853,49543
11.82665,53454
11.83478,52315
11.84290,48137
11.85103,50391
11.85915,53079
11.86727,51644
11.87540,48725
11.88352,47724
11.89165,45172
11.89977,44047
11.90788,45942
11.91602,47184
11.92413,52220
11.93225,54002
11.94038,63832
11.94850,60797
11.95663,62204
11.96475,55103
11.97287,52739
11.98100,70190
11.98912,113207
11.99725,224728
12.00537,417487
12.01348,614398
12.02162,741964
12.02973,718942
12.03785,601737
12.04598,435959
12.05410,305228
12.06223,227153
12.07035,184899
12.07847,163298
12.08660,150787
12.09472,143639
12.10285,135802
12.11097,128102
12.11908,118289
12.12722,115920
12.13533,120014
12.14347,122350
12.15158,108399
12.15970,111552
12.16783,109533
12.17595,109587
12.18407,104385
12.19220,102607
12.20032,93326
12.20845,89107
12.21657,86727
12.22468,84601
12.23282,85094
12.24093,84308
12.24907,78644
12.25718,80951
12.26530,78411
12.27343,70978
12.28155,75768
12.28967,73674
12.29780,70265
12.30592,68411
12.31405,69488
12.32217,69078
12.33028,73306
12.33842,69296
12.34653,66575
12.35467,69677
12.36278,61559
12.37090,63940
12.37903,65222
12.38715,65365
12.39528,63435
12.40340,70714
12.41152,88073
12.41965,100757
12.42777,115173
12.43588,124591
12.44402,119206
12.45213,105649
12.46027,93787
12.46838,95169
12.47650,82623
12.48463,78751
12.49275,70415
12.50088,73362
12.50900,71272
12.51712,72173
12.52525,79332
12.53337,137007
12.54150,290998
12.54962,647794
12.55773,1242650
12.56587,1820040
12.57398,2092182
12.58210,1920519
12.59023,1433901
12.59835,919932
12.60648,539755
12.61460,348690
12.62272,245647
12.63085,208467
12.63897,177690
12.64710,156756
12.65522,141879
12.66333,129367
12.67147,118461
12.67958,112050
12.68770,100646
12.69583,90630
12.70395,89344
12.71208,85829
12.72020,78804
12.72832,79382
12.73645,84075
12.74457,87031
12.75270,87340
12.76082,79362
12.76893,87245
12.77707,80130
12.78518,70276
12.79332,66519
12.80143,65972
12.80955,59872
12.81768,58494
12.82580,57584
12.83392,58297
12.84205,55240
12.85017,54334
12.85830,51959
12.86642,54050
12.87453,50740
12.88267,53352
12.89078,50332
12.89892,49748
12.90703,46285
12.91515,47421
12.92328,46868
12.93140,47720
12.93953,48648
12.94765,55236
12.95577,69734
12.96390,109285
12.97202,181299
12.98013,277665
12.98827,354129
12.99638,363239
13.00452,321025
13.01263,235740
13.02075,170144
13.02888,125339
13.03700,100227
13.04513,88733
13.05325,79914
13.06137,71157
13.06950,70540
13.07762,68990
13.08573,62726
13.09387,60386
13.10198,57298
13.11012,60749
13.11823,59481
13.12635,56055
13.13448,53687
13.14260,51956
13.15073,51201
13.15885,53233
13.16697,44941
13.17510,52109
13.18322,50898
13.19135,51656
13.19947,48881
13.20758,58316
13.21572,50739
13.22383,52911
13.23195,53574
13.24008,54876
13.24820,55093
13.25633,50618
13.26445,52792
13.27257,44710
13.28070,48198
13.28882,45216
13.29695,42060
13.30507,45477
13.31318,42145
13.32132,43570
13.32943,45752
13.33757,38130
13.34568,43324
13.35380,41266
13.36193,46608
13.37005,42918
13.37817,38808
13.38630,39502
13.39442,37974
13.40255,41322
13.41067,38216
13.41878,39531
13.42692,38826
13.43503,36964
13.44317,37392
13.45128,36291
13.45940,38503
13.46753,41792
13.47565,41090
13.48377,41338
13.49190,38902
13.50002,41598
13.50815,43149
13.51627,41783
13.52438,43639
13.53252,44243
13.54063,42057
13.54877,42077
13.55688,38119
13.56500,35126
13.57313,34770
13.58125,38929
13.58938,41234
13.59750,38514
13.60562,42562
13.61375,49316
13.62187,50722
13.62998,54159
13.63812,50517
13.64623,47263
13.65437,39933
13.66248,42384
13.67060,40724
13.67873,38134
13.68685,37083
13.69498,38722
13.70310,37783
13.71122,36925
13.71935,35732
13.72747,38170
13.73558,48839
13.74372,84250
13.75183,187141
13.75997,488186
13.76808,1037362
13.77620,1696799
13.78433,2385754
13.79245,2777781
13.80058,2439796
13.80870,1869657
13.81682,1294487
13.82495,822697
13.83307,602981
13.84120,509625
13.84932,465416
13.85743,436032
13.86557,390763
13.87368,369561
13.88180,319192
13.88993,286362
13.89805,251706
13.90618,235202
13.91430,221949
13.92242,203831
13.93055,195186
13.93867,193894
13.94680,186444
13.95492,185227
13.96303,192063
13.97117,216605
13.97928,256968
13.98742,289721
13.99553,310119
14.00365,331833
14.01178,280201
14.01990,222795
14.02802,190171
14.03615,173459
14.04427,161783
14.05240,155467
14.06052,144338
14.06863,150961
14.07677,140639
14.08488,136300
14.09302,137211
14.10113,137123
14.10925,138842
14.11738,122723
14.12550,135760
14.13362,129176
14.14175,149343
14.14987,159134
14.15800,192660
14.16612,193675
14.17423,201307
14.18237,198495
14.19048,211723
14.19862,248367
14.20673,318793
14.21485,386737
14.22298,419683
14.23110,398228
14.23923,338476
14.24735,283349
14.25547,236337
14.26360,215672
14.27172,197164
14.27983,175333
14.28797,158526
14.29608,140103
14.30422,131864
14.31233,124038
14.32045,112284
14.32858,111899
14.33670,112427
14.34483,105760
14.35295,103189
14.36107,99334
14.36920,92955
14.37732,91510
14.38545,77645
14.39357,74314
14.40168,72881
14.40982,73053
14.41793,79573
14.42605,77678
14.43418,79429
14.44230,78829
14.45043,77558
14.45855,71478
14.46667,60545
14.47480,65556
14.48292,60419
14.49105,58717
14.49917,59354
14.50728,70812
14.51542,68714
14.52353,80386
14.53165,83008
14.53978,83548
14.54790,79962
14.55603,68023
14.56415,64397
14.57227,59996
14.58040,56864
14.58852,56221
14.59665,52879
14.60477,50243
14.61288,48851
14.62102,48725
14.62913,49511
14.63727,47625
14.64538,47024
14.65350,47168
14.66163,47079
14.66975,46127
14.67787,49119
14.68600,45554
14.69412,45899
14.70225,49745
14.71037,41722
14.71848,48840
14.72662,50387
14.73473,48801
14.74287,45572
14.75098,49366
14.75910,51313
14.76723,53423
14.77535,50903
14.78347,60448
14.79160,71235
14.79972,116683
14.80785,251849
14.81597,632638
14.82408,1389952
14.83222,2416226
14.84033,3208781
14.84847,3505904
14.85658,3170848
14.86470,2358904
14.87283,1548754
14.88095,967345
14.88908,642590
14.89720,471615
14.90532,386115
14.91345,320248
14.92157,266513
14.92968,235085
14.93782,218229
14.94593,203837
14.95407,187644
14.96218,182590
14.97030,196593
14.97843,196861
14.98655,191744
14.99468,180957
15.00280,169732
15.01092,145415
15.01905,138641
15.02717,124897
15.03530,115715
15.04342,114620
15.05153,103032
15.05967,103595
15.06778,100474
15.07590,97166
15.08403,89900
15.09215,93419
15.10028,87882
15.10840,85144
15.11652,78557
15.12465,81072
15.13277,87657
15.14090,91754
15.14902,91406
15.15713,99825
15.16527,92928
15.17338,86814
15.18150,73836
15.18963,72271
15.19775,61293
15.20588,55918
15.21400,52203
15.22212,53552
15.23025,51765
15.23837,51732
15.24650,48880
15.25462,52556
15.26273,49453
15.27087,46553
15.27898,46114
15.28712,49421
15.29523,48649
15.30335,43296
15.31148,46894
15.31960,44663
15.32772,48594
15.33585,42974
15.34397,39236
15.35210,44607
15.36022,44534
15.36833,45531
15.37647,45757
15.38458,43592
15.39272,49051
15.40083,52371
15.40895,51963
15.41708,60362
15.42520,67975
15.43333,66292
15.44145,59298
15.44957,56618
15.45770,48035
15.46582,47553
15.47393,45038
15.48207,44456
15.49018,47879
15.49832,59755
15.50643,71306
15.51455,78809
15.52268,87213
15.53080,94912
15.53893,96909
15.54705,106131
15.55517,104014
15.56330,110187
15.57142,110837
15.57953,101511
15.58767,82758
15.59578,72380
15.60392,58264
15.61203,53289
15.62015,48602
15.62828,45353
15.63640,44187
15.64453,42559
15.65265,44836
15.66077,39511
15.66890,40598
15.67702,40043
15.68515,42803
15.69327,40885
15.70138,39274
15.70952,39647
15.71763,39787
15.72575,39159
15.73388,38054
15.74200,40913
15.75013,41496
15.75825,50140
15.76637,64950
15.77450,99777
15.78262,151800
15.79075,223331
15.79887,267001
15.80698,265218
15.81512,239281
15.82323,187509
15.83135,142373
15.83948,99681
15.84760,86843
15.85573,76342
15.86385,68409
15.87197,68870
15.88010,59530
15.88822,61229
15.89635,58428
15.90447,60722
15.91258,55850
15.92072,53140
15.92883,56326
15.93697,54170
15.94508,57022
15.95320,59689
15.96133,78073
15.96945,103707
15.97757,129226
15.98570,151838
15.99382,167116
16.00195,159282
16.01007,132054
16.01818,112728
16.02632,101419
16.03443,90348
16.04257,86705
16.05068,82980
16.05880,78051
16.06693,70579
16.07505,65257
16.08318,64341
16.09130,59351
16.09942,58740
16.10755,53192
16.11567,51742
16.12378,55356
16.13192,50688
16.14003,56601
16.14817,57211
16.15628,51676
16.16440,55358
16.17253,54149
16.18065,52992
16.18878,50393
16.19690,47342
16.20502,48232
16.21315,51719
16.22127,51267
16.22940,49291
16.23752,49996
16.24563,47327
16.25377,47822
16.26188,48729
16.27000,46418
16.27813,45855
16.28625,47243
16.29438,48619
16.30250,46342
16.31062,45425
16.31875,51611
16.32687,50504
16.33500,50733
16.34312,51999
16.35123,66546
16.35937,86212
16.36748,119063
16.37560,163017
16.38373,211690
16.39185,237016
16.39998,217746
16.40810,172287
16.41622,141645
16.42435,109595
16.43247,91209
16.44060,80860
16.44872,77323
16.45683,110862
16.46497,173355
16.47308,306692
16.48122,498032
16.48933,704733
16.49745,786389
16.50558,722578
16.51370,565852
16.52182,385402
16.52995,262245
16.53807,193655
16.54620,145702
16.55432,126238
16.56243,110901
16.57057,102348
16.57868,96146
16.58682,90941
16.59493,98957
16.60305,98288
16.61118,96199
16.61930,100057
16.62742,106706
16.63555,108177
16.64367,100217
16.65180,90841
16.65992,82498
16.66803,75174
16.67617,70133
16.68428,67137
16.69242,66335
16.70053,61971
16.70865,63636
16.71678,64426
16.72490,56735
16.73303,56379
16.74115,53118
16.74927,55149
16.75740,53381
16.76552,57210
16.77363,58236
16.78177,62818
16.78988,57589
16.79802,57034
16.80613,52188
16.81425,52048
16.82238,46272
16.83050,49361
16.83863,48298
16.84675,43025
16.85487,42709
16.86300,45814
16.87112,46054
16.87925,50299
16.88737,43688
16.89548,44949
16.90362,46130
16.91173,39992
16.91985,41377
16.92798,41690
16.93610,42681
16.94423,40847
16.95235,42720
16.96047,44715
16.96860,41520
16.97672,40007
16.98485,36793
16.99297,41522
17.00108,39163
17.00922,41946
17.01733,38700
17.02545,38601
17.03358,44034
17.04170,42303
17.04983,49195
17.05795,48048
17.06607,52852
17.07420,50753
17.08232,46554
17.09045,49054
17.09857,49975
17.10668,54028
17.11482,59497
17.12293,66927
17.13107,73684
17.13918,78793
17.14730,76691
17.15543,79431
17.16355,65899
17.17167,55549
17.17980,53577
17.18792,48481
17.19605,44133
17.20417,44010
17.21228,38372
17.22042,38573
17.22853,40123
17.23667,38663
17.24478,44057
17.25290,42873
17.26103,46162
17.26915,43649
17.27728,39306
17.28540,40073
17.29352,42842
17.30165,42391
17.30977,44513
17.31788,41062
17.32602,50533
17.33413,53349
17.34227,63393
17.35038,69846
17.35850,76664
17.36663,88358
17.37475,85618
17.38288,91042
17.39100,74373
17.39912,72006
17.40725,65530
17.41537,61352
17.42348,59273
17.43162,55128
17.43973,51683
17.44787,55559
17.45598,48420
17.46410,50130
17.47223,53540
17.48035,48887
17.48848,47900
17.49660,44919
17.50472,45720
17.51285,46346
17.52097,45016
17.52910,43823
17.53722,44734
17.54533,46765
17.55347,49804
17.56158,49697
17.56970,59725
17.57783,83352
17.58595,130790
17.59408,201219
17.60220,306735
17.61032,413344
17.61845,484176
17.62657,494188
17.63470,431807
17.64282,340860
17.65093,268929
17.65907,241714
17.66718,237944
17.67530,242483
17.68343,240440
17.69155,221239
17.69968,191343
17.70780,155481
17.71592,123138
17.72405,106717
17.73217,94329
17.74030,89050
17.74842,75647
17.75653,74554
17.76467,71676
17.77278,70702
17.78092,72562
17.78903,72124
17.79715,84520
17.80528,119286
17.81340,216706
17.82152,373832
17.82965,565097
17.83777,735899
17.84590,786298
17.85402,704259
17.86213,576309
17.87027,427250
17.87838,310150
17.88652,247032
17.89463,195889
17.90275,171253
17.91088,136229
17.91900,131471
17.92713,115547
17.93525,105166
17.94337,98662
17.95150,96244
17.95962,93013
17.96773,85499
17.97587,82307
17.98398,80880
17.99212,77834
18.00023,81161
18.00835,79472
18.01648,75003
18.02460,79860
18.03273,86844
18.04085,94053
18.04897,100628
18.05710,112303
18.06522,142589
18.07333,216840
18.08147,415557
18.08958,693660
18.09772,1029686
18.10583,1284773
18.11395,1356947
18.12208,1197518
18.13020,985025
18.13833,758089
18.14645,601392
18.15457,504344
18.16270,435702
18.17082,385378
18.17895,339399
18.18707,310495
18.19518,281205
18.20332,265993
18.21143,235336
18.21955,230176
18.22768,205853
18.23580,203251
18.24393,193770
18.25205,176842
18.26017,163074
18.26830,151775
18.27642,137037
18.28455,123908
18.29267,109195
18.30078,100855
18.30892,100157
18.31703,129496
18.32517,193667
18.33328,265157
18.34140,294252
18.34953,318582
18.35765,340598
18.36577,344846
18.37390,357286
18.38202,352660
18.39015,369323
18.39827,393589
18.40638,450618
18.41452,535554
18.42263,620601
18.43077,687559
18.43888,708649
18.44700,670729
18.45513,606790
18.46325,545754
18.47137,535863
18.47950,532403
18.48762,551187
18.49575,551318
18.50387,521150
18.51198,489243
18.52012,429400
18.52823,384395
18.53637,366799
18.54448,344925
18.55260,324930
18.56073,324495
18.56885,311119
18.57698,308058
18.58510,309462
18.59322,300628
18.60135,295668
18.60947,286734
18.61758,286011
18.62572,286663
18.63383,284735
18.64197,284841
18.65008,275048
18.65820,268765
18.66633,262293
18.67445,259533
18.68258,261298
18.69070,244748
18.69882,243959
18.70695,249130
18.71507,255953
18.72320,251554
18.73132,246652
18.73943,231938
18.74757,244042
18.75568,227519
18.76380,224891
18.77193,221606
18.78005,221912
18.78818,219523
18.79630,218908
18.80442,219160
18.81255,206041
18.82067,213016
18.82880,209682
18.83692,206977
18.84503,201356
18.85317,201215
18.86128,205009
18.86940,196597
18.87753,198629
18.88565,198086
18.89378,196523
18.90190,185313
18.91002,193316
18.91815,192039
18.92627,188568
18.93440,188079
18.94252,186477
18.95063,199041
18.95877,192886
18.96688,202598
18.97502,199747
18.98313,193605
18.99125,194782
18.99938,185013
19.00750,176402
19.01562,176195
19.02375,172066
19.03187,170329
19.04000,163850
19.04812,167048
19.05623,156405
19.06437,169572
19.07248,169764
19.08062,183657
19.08873,200217
19.09685,260228
19.10498,327152
19.11310,365882
19.12122,384665
19.12935,360504
19.13747,306312
19.14560,260549
19.15372,222152
19.16183,198748
19.16997,187807
19.17808,171099
19.18622,166661
19.19433,164230
19.20245,155907
19.21058,152858
19.21870,149912
19.22683,142687
19.23495,148252
19.24307,147200
19.25120,139547
19.25932,140136
19.26743,138543
19.27557,134795
19.28368,136583
19.29182,134146
19.29993,140928
19.30805,140128
19.31618,144790
19.32430,133948
19.33243,135796
19.34055,137332
19.34867,133842
19.35680,144429
19.36492,158170
19.37305,177285
19.38117,189237
19.38928,196534
19.39742,190503
19.40553,179471
19.41365,156579
19.42178,147725
19.42990,137058
19.43803,126998
19.44615,125506
19.45427,123514
19.46240,125904
19.47052,117976
19.47865,126614
19.48677,136091
19.49488,158122
19.50302,195533
19.51113,237352
19.51925,270944
19.52738,273673
19.53550,240835
19.54363,208865
19.55175,160553
19.55987,135999
19.56800,122360
19.57612,123242
19.58425,112466
19.59237,106888
19.60048,103936
19.60862,101439
19.61673,102408
19.62487,104706
19.63298,107361
19.64110,110429
19.64923,128858
19.65735,156903
19.66547,195547
19.67360,245782
19.68172,276827
19.68985,298532
19.69797,288630
19.70608,259023
19.71422,234037
19.72233,206872
19.73047,181429
19.73858,170842
19.74670,152929
19.75483,143033
19.76295,141782
19.77108,126961
19.77920,120501
19.78732,119838
19.79545,119926
19.80357,119833
19.81168,120159
19.81982,121119
19.82793,119351
19.83607,111504
19.84418,110051
19.85230,116150
19.86043,130056
19.86855,216593
19.87668,433785
19.88480,909038
19.89292,1727734
19.90105,2566137
19.90917,3306548
19.91728,3671197
19.92542,3391571
19.93353,2730428
19.94167,2032620
19.94978,1427737
19.95790,1100480
19.96603,900159
19.97415,761907
19.98228,681949
19.99040,636582
19.99852,579294
20.00665,538947
20.01477,528583
20.02290,501453
20.03102,472663
20.03913,422360
20.04727,382987
20.05538,335688
20.06350,301521
20.07163,247820
20.07975,216526
20.08788,188720
20.09600,172751
20.10412,171072
20.11225,152465
20.12037,142933
20.12850,136759
20.13662,136673
20.14473,125562
20.15287,117837
20.16098,124207
20.16910,130814
20.17723,132257
20.18535,145106
20.19348,162124
20.20160,171253
20.20972,182227
20.21785,171335
20.22597,157130
20.23410,150270
20.24222,136183
20.25033,133639
20.25847,152492
20.26658,179999
20.27472,231243
20.28283,274436
20.29095,321592
20.29908,332161
20.30720,304512
20.31532,263873
20.32345,225055
20.33157,183886
20.33970,154979
20.34782,131943
20.35593,114939
20.36407,108595
20.37218,97559
20.38032,90257
20.38843,85631
20.39655,80340
20.40468,80842
20.41280,73774
20.42093,76967
20.42905,82315
20.43717,92952
20.44530,103209
20.45342,102291
20.46153,112688
20.46967,117087
20.47778,123125
20.48592,120257
20.49403,117344
20.50215,110432
20.51028,95307
20.51840,87013
20.52653,85188
20.53465,74460
20.54277,76976
20.55090,76652
20.55902,82122
20.56713,76158
20.57527,73688
20.58338,76235
20.59152,77854
20.59963,70484
20.60775,69844
20.61588,71725
20.62400,66248
20.63213,66454
20.64025,69280
20.64837,66644
20.65650,65704
20.66462,65166
20.67275,65968
20.68087,64124
20.68898,65540
20.69712,66211
20.70523,63151
20.71335,66952
20.72148,62771
20.72960,62721
20.73773,59279
20.74585,58292
20.75397,64771
20.76210,64455
20.77022,62021
20.77835,67079
20.78647,70848
20.79458,81349
20.80272,104346
20.81083,134520
20.81897,171800
20.82708,189769
20.83520,195451
20.84333,183118
20.85145,147266
20.85957,115884
20.86770,93093
20.87582,73215
20.88395,67505
20.89207,68460
20.90018,61219
20.90832,62728
20.91643,64076
20.92457,66657
20.93268,62578
20.94080,64132
20.94893,63384
20.95705,65960
20.96517,68944
20.97330,60042
20.98142,59960
20.98955,59669
20.99767,60200
21.00578,57309
21.01392,53137
21.02203,55761
21.03017,54565
21.03828,59938
21.04640,59307
21.05453,61536
21.06265,61019
21.07078,62835
21.07890,64867
21.08702,64920
21.09515,64734
21.10327,67478
21.11138,60871
21.11952,62411
21.12763,63593
21.13577,58705
21.14388,66150
21.15200,69148
21.16013,78807
21.16825,89698
21.17638,92132
21.18450,93836
21.19262,83342
21.20075,76686
21.20887,66588
21.21700,66027
21.22512,60779
21.23323,62628
21.24137,60999
21.24948,63468
21.25760,58567
21.26573,58728
21.27385,58955
21.28198,55230
21.29010,53455
21.29822,60623
21.30635,55218
21.31447,52042
21.32260,57180
21.33072,57528
21.33883,63675
21.34697,54322
21.35508,59421
21.36320,53554
21.37133,59012
21.37945,60896
21.38758,57840
21.39570,64959
21.40382,74734
21.41195,78412
21.42007,83796
21.42820,87985
21.43632,82296
21.44443,76515
21.45257,67669
21.46068,64554
21.46882,61154
21.47693,60975
21.48505,58997
21.49318,60612
21.50130,55746
21.50942,59258
21.51755,61059
21.52567,55319
21.53380,56049
21.54192,56725
21.55003,57339
21.55817,53173
21.56628,56369
21.57442,57001
21.58253,51767
21.59065,61621
21.59878,63105
21.60690,65744
21.61503,66911
21.62315,69411
21.63127,80589
21.63940,77037
21.64752,90950
21.65563,95804
21.66377,92567
21.67188,87631
21.68002,89696
21.68813,85209
21.69625,82875
21.70438,79237
21.71250,71596
21.72063,67415
21.72875,63958
21.73687,60248
21.74500,59442
21.75312,51962
21.76123,56949
21.76937,58652
21.77748,58686
21.78562,63851
21.79373,60298
21.80185,64293
21.80998,65872
21.81810,70569
21.82623,75884
21.83435,78845
21.84247,83885
21.85060,80939
21.85872,77566
21.86685,80225
21.87497,71920
21.88308,66742
21.89122,63890
21.89933,58749
21.90745,54255
21.91558,56118
21.92370,57207
21.93183,50699
21.93995,57159
21.94807,56516
21.95620,54137
21.96432,48250
21.97245,45400
21.98057,55469
21.98868,44901
21.99682,44790
22.00493,47277
22.01305,47016
22.02118,52944
22.02930,49719
22.03743,51945
22.04555,51273
22.05367,51824
22.06180,51904
22.06992,49568
22.07805,45107
22.08617,42977
22.09428,51236
22.10242,46954
22.11053,49993
22.11867,51254
22.12678,49416
22.13490,48487
22.14303,55166
22.15115,48238
22.15927,51925
22.16740,52248
22.17552,48111
22.18365,47203
22.19177,49686
22.19988,46780
22.20802,47759
22.21613,46052
22.22427,50900
22.23238,54577
22.24050,53430
22.24863,54224
22.25675,49667
22.26488,50395
22.27300,49952
22.28112,49038
22.28925,49746
22.29737,51218
22.30548,52995
22.31362,56576
22.32173,56422
22.32987,58694
22.33798,55620
22.34610,53701
22.35423,51493
22.36235,57277
22.37048,55535
22.37860,53321
22.38672,52820
22.39485,59858
22.40297,67495
22.41108,78308
22.41922,92824
22.42733,106899
22.43547,110519
22.44358,108726
22.45170,97160
22.45983,86395
22.46795,69914
22.47608,68479
22.48420,62530
22.49232,71943
22.50045,76199
22.50857,76081
22.51670,77747
22.52482,73978
22.53293,77232
22.54107,79433
22.54918,68798
22.55730,66967
22.56543,66772
22.57355,59103
22.58168,59228
22.58980,59207
22.59792,53557
22.60605,51255
22.61417,57906
22.62230,53592
22.63042,50550
22.63853,50225
22.64667,49385
22.65478,49896
22.66292,51136
22.67103,49625
22.67915,51624
22.68728,47385
22.69540,51299
22.70352,54063
22.71165,58809
22.71977,58970
22.72790,60783
22.73602,60199
22.74413,62910
22.75227,59958
22.76038,51890
22.76852,55725
22.77663,52797
22.78475,54249
22.79288,55059
22.80100,60240
22.80912,71398
22.81725,79448
22.82537,78709
22.83350,78133
22.84162,71459
22.84973,68002
22.85787,62947
22.86598,62307
22.87412,61460
22.88223,64661
22.89035,68299
22.89848,72422
22.90660,84878
22.91473,92793
22.92285,109600
22.93097,122745
22.93910,133130
22.94722,138437
22.95533,130517
22.96347,117082
22.97158,108768
22.97972,99664
22.98783,103452
22.99595,94365
23.00408,91557
23.01220,91076
23.02033,89438
23.02845,81910
23.03657,81622
23.04470,79623
23.05282,78329
23.06093,75607
23.06907,76241
23.07718,78435
23.08532,80910
23.09343,77856
23.10155,77337
23.10968,79308
23.11780,72974
23.12593,70703
23.13405,72879
23.14217,70560
23.15030,76277
23.15842,66584
23.16655,76494
23.17467,75892
23.18278,80418
23.19092,73162
23.19903,78548
23.20715,69965
23.21528,68743
23.22340,67858
23.23153,64413
23.23965,65276
23.24777,68334
23.25590,69036
23.26402,70478
23.27215,73124
23.28027,74049
23.28838,75644
23.29652,68985
23.30463,65576
23.31277,67558
23.32088,71071
23.32900,69765
23.33713,74906
23.34525,83290
23.35337,107423
23.36150,147877
23.36962,201567
23.37775,295340
23.38587,404124
23.39398,533522
23.40212,648103
23.41023,759777
23.41837,822069
23.42648,867848
23.43460,895546
23.44273,896260
23.45085,841775
23.45897,817878
23.46710,764212
23.47522,708808
23.48335,650026
23.49147,607571
23.49958,562771
23.50772,506971
23.51583,483960
23.52397,435317
23.53208,403493
23.54020,367173
23.54833,348318
23.55645,312026
23.56458,301971
23.57270,287809
23.58082,286477
23.58895,281918
23.59707,288503
23.60518,295263
23.61332,300243
23.62143,302421
23.62957,278051
23.63768,244444
23.64580,226515
23.65393,221336
23.66205,219654
23.67018,226391
23.67830,228022
23.68642,218145
23.69455,203020
23.70267,186915
23.71080,172972
23.71892,153854
23.72703,136475
23.73517,137102
23.74328,133366
23.75140,155473
23.75953,191932
23.76765,304424
23.77578,533261
23.78390,890445
23.79202,1306798
23.80015,1646508
23.80827,1782540
23.81640,1638637
23.82452,1396771
23.83263,1116750
23.84077,889560
23.84888,717576
23.85700,570594
23.86513,492057
23.87325,412107
23.88138,367078
23.88950,323026
23.89762,289000
23.90575,271455
23.91387,266697
23.92200,248030
23.93012,225330
23.93823,218651
23.94637,207716
23.95448,188739
23.96262,177584
23.97073,169707
23.97885,169946
23.98698,155973
23.99510,158297
24.00322,177615
24.01135,233303
24.01947,353639
24.02760,559250
24.03572,788851
24.04383,957138
24.05197,917406
24.06008,784169
24.06822,552529
24.07633,381183
24.08445,258476
24.09258,193046
24.10070,158468
24.10883,140239
24.11695,126926
24.12507,122069
24.13320,127336
24.14132,117655
24.14943,120712
24.15757,125180
24.16568,122865
24.17382,116428
24.18193,114209
24.19005,118388
24.19818,111984
24.20630,112978
24.21443,110592
24.22255,106913
24.23067,108598
24.23880,102003
24.24692,97883
24.25503,96366
24.26317,88701
24.27128,87126
24.27942,84353
24.28753,87954
24.29565,83638
24.30378,80694
24.31190,80810
24.32003,85570
24.32815,81768
24.33627,85464
24.34440,81891
24.35252,78488
24.36065,78861
24.36877,81359
24.37688,84659
24.38502,103225
24.39313,117154
24.40125,137285
24.40938,153015
24.41750,155152
24.42563,153640
24.43375,151807
24.44187,152725
24.45000,145996
24.45812,155026
24.46625,154067
24.47437,166253
24.48248,169191
24.49062,179329
24.49873,185975
24.50685,196832
24.51498,201242
24.52310,198288
24.53123,193762
24.53935,185236
24.54747,181246
24.55560,186088
24.56372,184014
24.57185,183546
24.57997,174026
24.58808,169957
24.59622,168658
24.60433,165601
24.61247,155539
24.62058,171035
24.62870,162743
24.63683,161615
24.64495,162874
24.65307,171786
24.66120,166157
24.66932,176207
24.67745,170534
24.68557,175330
24.69368,177655
24.70182,178934
24.70993,175884
24.71807,172433
24.72618,172833
24.73430,183296
24.74243,181952
24.75055,181678
24.75868,177897
24.76680,174939
24.77492,177598
24.78305,177604
24.79117,173081
24.79928,178014
24.80742,178859
24.81553,172838
24.82367,171403
24.83178,164017
24.83990,178294
24.84803,192807
24.85615,229040
24.86428,254341
24.87240,308228
24.88052,394480
24.88865,470107
24.89677,541675
24.90488,551608
24.91302,494518
24.92113,411227
24.92927,322935
24.93738,252344
24.94550,207147
24.95363,177271
24.96175,159701
24.96988,148109
24.97800,140594
24.98612,142923
24.99425,134615
25.00237,125786
25.01050,112227
25.01862,98986
25.02673,92222
25.03487,83790
25.04298,84937
25.05110,80436
25.05923,86798
25.06735,76796
25.07548,80078
25.08360,84939
25.09172,84891
25.09985,98831
25.10797,141487
25.11610,264200
25.12422,519950
25.13233,943521
25.14047,1537810
25.14858,1987821
25.15672,2210953
25.16483,2026458
25.17295,1561762
25.18108,1065695
25.18920,646798
25.19732,360670
25.20545,216320
25.21357,148511
25.22170,127088
25.22982,108123
25.23793,103468
25.24607,111558
25.25418,121451
25.26232,139274
25.27043,153028
25.27855,162894
25.28668,167182
25.29480,146679
25.30292,125560
25.31105,114408
25.31917,95721
25.32730,92559
25.33542,86096
25.34353,74811
25.35167,74717
25.35978,74327
25.36792,69563
25.37603,65232
25.38415,65846
25.39228,65175
25.40040,62866
25.40853,65839
25.41665,72324
25.42477,88370
25.43290,121223
25.44102,152152
25.44913,190176
25.45727,207314
25.46538,234864
25.47352,235582
25.48163,235004
25.48975,251182
25.49788,252819
25.50600,259340
25.51413,252869
25.52225,250576
25.53037,262519
25.53850,258102
25.54662,257187
25.55473,251636
25.56287,245567
25.57098,254559
25.57912,253234
25.58723,256321
25.59535,255290
25.60348,248493
25.61160,252049
25.61973,252851
25.62785,264272
25.63597,287371
25.64410,300017
25.65222,295305
25.66035,293667
25.66847,274180
25.67658,262670
25.68472,255651
25.69283,234261
25.70095,217213
25.70908,222627
25.71720,223729
25.72533,210857
25.73345,216434
25.74157,208886
25.74970,195445
25.75782,207457
25.76595,203297
25.77407,205141
25.78218,201597
25.79032,208479
25.79843,199920
25.80657,201439
25.81468,198083
25.82280,206200
25.83093,203848
25.83905,205589
25.84717,215108
25.85530,219191
25.86342,215010
25.87155,217484
25.87967,197896
25.88778,184583
25.89592,177258
25.90403,171208
25.91217,161240
25.92028,157459
25.92840,167164
25.93653,160947
25.94465,159031
25.95278,155351
25.96090,146559
25.96902,147784
25.97715,147136
25.98527,142491
25.99338,145746
26.00152,141073
26.00963,137111
26.01777,136620
26.02588,137122
26.03400,136574
26.04213,131784
26.05025,129853
26.05838,124096
26.06650,131895
26.07462,128217
26.08275,125943
26.09087,118671
26.09898,119905
26.10712,120361
26.11523,115616
26.12337,126085
26.13148,124335
26.13960,121439
26.14773,113591
26.15585,122491
26.16398,120174
26.17210,119547
26.18022,117558
26.18835,114167
26.19647,113370
26.20460,109179
26.21272,110324
26.22083,102660
26.22897,102826
26.23708,103927
26.24520,97655
26.25333,96918
26.26145,95702
26.26958,101893
26.27770,98056
26.28582,93374
26.29395,87131
26.30207,90541
26.31020,92709
26.31832,86267
26.32643,85069
26.33457,79748
26.34268,83771
26.35080,81073
26.35893,81949
26.36705,85178
26.37518,86627
26.38330,90588
26.39142,97752
26.39955,102255
26.40767,105980
26.41580,103779
26.42392,98785
26.43203,97983
26.44017,93435
26.44828,87572
26.45642,79287
26.46453,79660
26.47265,81227
26.48078,80306
26.48890,82696
26.49702,77150
26.50515,75263
26.51327,71992
26.52140,75469
26.52952,69600
26.53763,71959
26.54577,64148
26.55388,66300
26.56202,63195
26.57013,64414
26.57825,67370
26.58638,65198
26.59450,60270
26.60263,66118
26.61075,64652
26.61887,60654
26.62700,65901
26.63512,65080
26.64323,64977
26.65137,61489
26.65948,64246
26.66762,68897
26.67573,69780
26.68385,76663
26.69198,72893
26.70010,61533
26.70823,69349
26.71635,61189
26.72447,58820
26.73260,59218
26.74072,56342
26.74883,55166
26.75697,59152
26.76508,59250
26.77322,53130
26.78133,61138
26.78945,57169
26.79758,58591
26.80570,60650
26.81383,59868
26.82195,61384
26.83007,61793
26.83820,62189
26.84632,58097
26.85445,56907
26.86257,56173
26.87068,56074
26.87882,58206
26.88693,53844
26.89505,52030
26.90318,49250
26.91130,54867
26.91943,52640
26.92755,50499
26.93567,50396
26.94380,53095
26.95192,55545
26.96005,53533
26.96817,59998
26.97628,67568
26.98442,82805
26.99253,109008
27.00067,159677
27.00878,220948
27.01690,293674
27.02503,359537
27.03315,398268
27.04127,406979
27.04940,388915
27.05752,345579
27.06565,311877
27.07377,261166
27.08188,217301
27.09002,189178
27.09813,169005
27.10627,147304
27.11438,140018
27.12250,134561
27.13063,130773
27.13875,120305
27.14687,113454
27.15500,111774
27.16312,110677
27.17125,105968
27.17937,107412
27.18748,104563
27.19562,100006
27.20373,100007
27.21187,96492
27.21998,93356
27.22810,95972
27.23623,91308
27.24435,87271
27.25248,89913
27.26060,87538
27.26872,80820
27.27685,80823
27.28497,77162
27.29308,74541
27.30122,67951
27.30933,72298
27.31747,63892
27.32558,62568
27.33370,67731
27.34183,67839
27.34995,68047
27.35808,64885
27.36620,63952
27.37432,63419
27.38245,65552
27.39057,63350
27.39868,61627
27.40682,63439
27.41493,60348
27.42307,58423
27.43118,56856
27.43930,55255
27.44743,54726
27.45555,55615
27.46368,57712
27.47180,56159
27.47992,54418
27.48805,55605
27.49617,56014
27.50430,52767
27.51242,56617
27.52053,55303
27.52867,56999
27.53678,58254
27.54490,58226
27.55303,57734
27.56115,57218
27.56928,56708
27.57740,60659
27.58552,72329
27.59365,63484
27.60177,74728
27.60990,80107
27.61802,77514
27.62613,66671
27.63427,60168
27.64238,56355
27.65052,55964
27.65863,52593
27.66675,56898
27.67488,51668
27.68300,55628
27.69112,51979
27.69925,49497
27.70737,49051
27.71550,51161
27.72362,52002
27.73173,52308
27.73987,48330
27.74798,46317
27.75612,47802
27.76423,46134
27.77235,52318
27.78048,51463
27.78860,49533
27.79672,50577
27.80485,55101
27.81297,52778
27.82110,55485
27.82922,53087
27.83733,57605
27.84547,51526
27.85358,50271
27.86172,54311
27.86983,48908
27.87795,49382
27.88608,47762
27.89420,50390
27.90233,45569
27.91045,44048
27.91857,46015
27.92670,44854
27.93482,44136
27.94293,47181
27.95107,42725
27.95918,42215
27.96732,46637
27.97543,48960
27.98355,43721
27.99168,46150
27.99980,47855
28.00793,47465
28.01605,47891
28.02417,48417
28.03230,50219
28.04042,49401
28.04855,52104
28.05667,50845
28.06478,50536
28.07292,52545
28.08103,52764
28.08915,50838
28.09728,55929
28.10540,57155
28.11353,51209
28.12165,50607
28.12977,52314
28.13790,47041
28.14602,43449
28.15415,44958
28.16227,46214
28.17038,46030
28.17852,48016
28.18663,47579
28.19475,55739
28.20288,63853
28.21100,73700
28.21913,81400
28.22725,75337
28.23537,76199
28.24350,72899
28.25162,64639
28.25975,61605
28.26787,53367
28.27598,51256
28.28412,54688
28.29223,51615
28.30037,46691
28.30848,53187
28.31660,59147
28.32473,71968
28.33285,77570
28.34097,87066
28.34910,94440
28.35722,110368
28.36535,123532
28.37347,125948
28.38158,145572
28.38972,145623
28.39783,159241
28.40597,148988
28.41408,156981
28.42220,149682
28.43033,139397
28.43845,134809
28.44658,119459
28.45470,118901
28.46282,111488
28.47095,103561
28.47907,96655
28.48718,92476
28.49532,91694
28.50343,88450
28.51157,76674
28.51968,77341
28.52780,79004
28.53593,81973
28.54405,76594
28.55218,68255
28.56030,66787
28.56842,64787
28.57655,70179
28.58467,62808
28.59278,67344
28.60092,64518
28.60903,64547
28.61717,59075
28.62528,65988
28.63340,64316
28.64153,62394
28.64965,65334
28.65778,64265
28.66590,68041
28.67402,71404
28.68215,69698
28.69027,61680
28.69840,62923
28.70652,61585
28.71463,57216
28.72277,57980
28.73088,59457
28.73900,59703
28.74713,55343
28.75525,63577
28.76338,72974
28.77150,79889
28.77962,80558
28.78775,78400
28.79587,69478
28.80400,71014
28.81212,66526
28.82023,67780
28.82837,64198
28.83648,59634
28.84460,60041
28.85273,58388
28.86085,57878
28.86898,57960
28.87710,57966
28.88522,59310
28.89335,57933
28.90147,65014
28.90960,68322
28.91772,68409
28.92583,61901
28.93397,59495
28.94208,52579
28.95022,56389
28.95833,56783
28.96645,57213
28.97458,56643
28.98270,60808
28.99082,53879
28.99895,53148
29.00707,51691
29.01520,52470
29.02332,47922
29.03143,47811
29.03957,49631
29.04768,48222
29.05582,51966
29.06393,50203
29.07205,45927
29.08018,51829
29.08830,50396
29.09643,50918
29.10455,54755
29.11267,52033
29.12080,48946
29.12892,46464
29.13703,47504
29.14517,50714
29.15328,51802
29.16142,44320
29.16953,51298
29.17765,50959
29.18578,55575
29.19390,60363
29.20203,69468
29.21015,79439
29.21827,91936
29.22640,89772
29.23452,87315
29.24263,94811
29.25077,91523
29.25888,99428
29.26702,110853
29.27513,117641
29.28325,117611
29.29138,99615
29.29950,92848
29.30763,75544
29.31575,62584
29.32387,53444
29.33200,54905
29.34012,46735
29.34825,50249
29.35637,45069
29.36448,46040
29.37262,43535
29.38073,48666
29.38885,56639
29.39698,65645
29.40510,86506
29.41323,125163
29.42135,173271
29.42947,223316
29.43760,248270
29.44572,237259
29.45385,194778
29.46197,152241
29.47008,115505
29.47822,87236
29.48633,77828
29.49447,72248
29.50258,69646
29.51070,61005
29.51883,67118
29.52695,63823
29.53507,61420
29.54320,56778
29.55132,57922
29.55945,53511
29.56757,55521
29.57568,51518
29.58382,54462
29.59193,53900
29.60007,56873
29.60818,49721
29.61630,49390
29.62443,50529
29.63255,56173
29.64067,50741
29.64880,49685
29.65692,44958
29.66505,49252
29.67317,48047
29.68128,50671
29.68942,52234
29.69753,53829
29.70567,54474
29.71378,50629
29.72190,56253
29.73003,52222
29.73815,46810
29.74628,46603
29.75440,49159
29.76252,46055
29.77065,47678
29.77877,45254
29.78688,45619
29.79502,45786
29.80313,43053
29.81127,43663
29.81938,43534
29.82750,43907
29.83563,44778
29.84375,43099
29.85188,42185
29.86000,47107
29.86812,49128
29.87625,58891
29.88437,61131
29.89248,72890
29.90062,89165
29.90873,85282
29.91687,82243
29.92498,76372
29.93310,66671
29.94123,58411
29.94935,57241
29.95748,58000
29.96560,56963
29.97372,61615
29.98185,63004
29.98997,67704
29.99810,73207
30.00622,81657
30.01433,84701
30.02247,92700
30.03058,95085
30.03870,94607
30.04683,90985
30.05495,95225
30.06308,106971
30.07120,104723
30.07932,99242
30.08745,96839
30.09557,96099
30.10370,94319
30.11182,87434
30.11993,91872
30.12807,90665
30.13618,83858
30.14432,87606
30.15243,81977
30.16055,76735
30.16868,73749
30.17680,72197
30.18492,72135
30.19305,72402
30.20117,72075
30.20930,71491
30.21742,67625
30.22553,66276
30.23367,64850
30.24178,62265
30.24992,58248
30.25803,61378
30.26615,55939
30.27428,51870
30.28240,61750
30.29052,58138
30.29865,53319
30.30677,54363
30.31490,51208
30.32302,52784
30.33113,51549
30.33927,56243
30.34738,53229
30.35552,54282
30.36363,50469
30.37175,54493
30.37988,53442
30.38800,52274
30.39613,52181
30.40425,47628
30.41237,49354
30.42050,46332
30.42862,46470
30.43673,50112
30.44487,45609
30.45298,48061
30.46112,43115
30.46923,45418
30.47735,48791
30.48548,48746
30.49360,47549
30.50173,49592
30.50985,44507
30.51797,49348
30.52610,45385
30.53422,46083
30.54235,50637
30.55047,46092
30.55858,46871
30.56672,46907
30.57483,48376
30.58295,45374
30.59108,43599
30.59920,45387
30.60733,43908
30.61545,44362
30.62357,45174
30.63170,43198
30.63982,51654
30.64795,55851
30.65607,62241
30.66418,64949
30.67232,68088
30.68043,73574
30.68855,77103
30.69668,78892
30.70480,79116
30.71293,80901
30.72105,81818
30.72917,84942
30.73730,78644
30.74542,86008
30.75355,84882
30.76167,90607
30.76978,97127
30.77792,105279
30.78603,118595
30.79417,146916
30.80228,181817
30.81040,201716
30.81853,216347
30.82665,200879
30.83477,179763
30.84290,150142
30.85102,128195
30.85915,114386
30.86727,104569
30.87538,100042
30.88352,93828
30.89163,103280
30.89977,94818
30.90788,93530
30.91600,92857
30.92413,92733
30.93225,95323
30.94037,94610
30.94850,90253
30.95662,93125
30.96475,84889
30.97287,86342
30.98098,89630
30.98912,87453
30.99723,86401
31.00537,88906
31.01348,87982
31.02160,81169
31.02973,88986
31.03785,89404
31.04598,87432
31.05410,89169
31.06222,91931
31.07035,85963
31.07847,89737
31.08658,93754
31.09472,99118
31.10283,103497
31.11097,112494
31.11908,103773
31.12720,99511
31.13533,88508
31.14345,90677
31.15158,85489
31.15970,91622
31.16782,84554
31.17595,89159
31.18407,91276
31.19220,99891
31.20032,116731
31.20843,141802
31.21657,164713
31.22468,186630
31.23280,189822
31.24093,190448
31.24905,166788
31.25718,135826
31.26530,113943
31.27342,97507
31.28155,85145
31.28967,74155
31.29780,71223
31.30592,70459
31.31403,73682
31.32217,70694
31.33028,73408
31.33842,73582
31.34653,72046
31.35465,76741
31.36278,71723
31.37090,75397
31.37902,77047
31.38715,73190
31.39527,71985
31.40340,69577
31.41152,75050
31.41963,72845
31.42777,68166
31.43588,64029
31.44402,61880
31.45213,64047
31.46025,64850
31.46838,60437
31.47650,63322
31.48462,56244
31.49275,53238
31.50087,59356
31.50900,65408
31.51712,60405
31.52523,64728
31.53337,61087
31.54148,60551
31.54962,58367
31.55773,58884
31.56585,62429
31.57398,54856
31.58210,58379
31.59023,59323
31.59835,54918
31.60647,58260
31.61460,55329
31.62272,53037
31.63083,57551
31.63897,54150
31.64708,56435
31.65522,62382
31.66333,63382
31.67145,59071
31.67958,59141
31.68770,61292
31.69583,58568
31.70395,57405
31.71207,56159
31.72020,54675
31.72832,52804
31.73643,58152
31.74457,49557
31.75268,54780
31.76082,52853
31.76893,46763
31.77705,50890
31.78518,53725
31.79330,59120
31.80143,57522
31.80955,56318
31.81767,55388
31.82580,54405
31.83392,54348
31.84205,52662
31.85017,55586
31.85828,56190
31.86642,55161
31.87453,61830
31.88265,61219
31.89078,64666
31.89890,63902
31.90703,66576
31.91515,72736
31.92327,74786
31.93140,78759
31.93952,83624
31.94765,89567
31.95577,87805
31.96388,94831
31.97202,92607
31.98013,98533
31.98827,97568
31.99638,96837
32.00450,103698
32.01263,96574
32.02075,97863
32.02887,92239
32.03700,87273
32.04512,87969
32.05325,92658
32.06137,82200
32.06948,83466
32.07762,84552
32.08573,79977
32.09387,75818
32.10198,76464
32.11010,71385
32.11823,68391
32.12635,63923
32.13447,68170
32.14260,61562
32.15072,69468
32.15885,64349
32.16697,60542
32.17508,61469
32.18322,56718
32.19133,57993
32.19947,54897
32.20758,62385
32.21570,57451
32.22383,59313
32.23195,57728
32.24008,57313
32.24820,56593
32.25632,60606
32.26445,60541
32.27257,61605
32.28068,60379
32.28882,57446
32.29693,58216
32.30507,53776
32.31318,52436
32.32130,53587
32.32943,52966
32.33755,52195
32.34568,55826
32.35380,52496
32.36192,56769
32.37005,53036
32.37817,53361
32.38630,53355
32.39442,53561
32.40253,57169
32.41067,47878
32.41878,53973
32.42690,54900
32.43503,50328
32.44315,46666
32.45128,50482
32.45940,43900
32.46752,48327
32.47565,49524
32.48377,52517
32.49190,49584
32.50002,50520
32.50813,50905
32.51627,48740
32.52438,53596
32.53250,48460
32.54063,46560
32.54875,49536
32.55688,50839
32.56500,50600
32.57312,51619
32.58125,51479
32.58937,50248
32.59750,52504
32.60562,49523
32.61373,51964
32.62187,46847
32.62998,45582
32.63812,50204
32.64623,52915
32.65435,54863
32.66248,61232
32.67060,65084
32.67872,64665
32.68685,67721
32.69497,64380
32.70310,58918
32.71122,57157
32.71933,56134
32.72747,52561
32.73558,52391
32.74372,51082
32.75183,50228
32.75995,49516
32.76808,49155
32.77620,51500
32.78432,43513
32.79245,48771
32.80057,48111
32.80870,48477
32.81682,47860
32.82493,49371
32.83307,46031
32.84118,50824
32.84932,48051
32.85743,46278
32.86555,51548
32.87368,46822
32.88180,48854
32.88993,51176
32.89805,47989
32.90617,48935
32.91430,48966
32.92242,51024
32.93053,49405
32.93867,46193
32.94678,46585
32.95492,48898
32.96303,52178
32.97115,51447
32.97928,56970
32.98740,56906
32.99553,67307
33.00365,68961
33.01177,71845
33.01990,69847
33.02802,65334
33.03615,66027
33.04427,57770
33.05238,55991
33.06052,55896
33.06863,58272
33.07675,57629
33.08488,62253
33.09300,65956
33.10113,67479
33.10925,69057
33.11737,71415
33.12550,70401
33.13362,71478
33.14175,69018
33.14987,64003
33.15798,58978
33.16612,56953
33.17423,55136
33.18235,54837
33.19048,54325
33.19860,51234
33.20673,51821
33.21485,52735
33.22297,50641
33.23110,50176
33.23922,51493
33.24735,46837
33.25547,51312
33.26358,49809
33.27172,46523
33.27983,46684
33.28797,44755
33.29608,45144
33.30420,45776
33.31233,49569
33.32045,45834
33.32857,45943
33.33670,46154
33.34482,47995
33.35295,54018
33.36107,53538
33.36918,57784
33.37732,59179
33.38543,51899
33.39357,50632
33.40168,47436
33.40980,47472
33.41793,43636
33.42605,50113
33.43418,44452
33.44230,49804
33.45042,45275
33.45855,44104
33.46667,47268
33.47478,49654
33.48292,45731
33.49103,51534
33.49917,45690
33.50728,52264
33.51540,51176
33.52353,51903
33.53165,53975
33.53978,53149
33.54790,54373
33.55602,60019
33.56415,60657
33.57227,61748
33.58038,57991
33.58852,54714
33.59663,48850
33.60477,51546
33.61288,46180
33.62100,47966
33.62913,51079
33.63725,53251
33.64538,48380
33.65350,53753
33.66162,53377
33.66975,51245
33.67787,56227
33.68600,50218
33.69412,51308
33.70223,47508
33.71037,47039
33.71848,44383
33.72660,48680
33.73473,47047
33.74285,49182
33.75098,43915
33.75910,49944
33.76722,48767
33.77535,44507
33.78347,48408
33.79160,51138
33.79972,44023
33.80783,50354
33.81597,46986
33.82408,47884
33.83220,47262
33.84033,45172
33.84845,55871
33.85658,46362
33.86470,51505
33.87282,54121
33.88095,48191
33.88907,52020
33.89720,47853
33.90532,49063
33.91343,49694
33.92157,50953
33.92968,49299
33.93782,49221
33.94593,48550
33.95405,45717
33.96218,48757
33.97030,43685
33.97842,46331
33.98655,45656
33.99467,48891
34.00280,47579
34.01092,46511
34.01903,45325
34.02717,48665
34.03528,47025
34.04342,54101
34.05153,50022
34.05965,47685
34.06778,46508
34.07590,50318
34.08403,48513
34.09215,46852
34.10027,51092
34.10840,49635
34.11652,51275
34.12463,48229
34.13277,46473
34.14088,52168
34.14902,47441
34.15713,49209
34.16525,48468
34.17338,53051
34.18150,52975
34.18963,48449
34.19775,50113
34.20587,49542
34.21400,50006
34.22212,51471
34.23023,47156
34.23837,47250
34.24648,50054
34.25462,49682
34.26273,47253
34.27085,49237
34.27898,53251
34.28710,49535
34.29523,49060
34.30335,51969
34.31147,50933
34.31960,51189
34.32772,51669
34.33585,48995
34.34397,50407
34.35208,51797
34.36022,49472
34.36833,52303
34.37645,50903
34.38458,49392
34.39270,50223
34.40083,52893
34.40895,49579
34.41707,49176
34.42520,48014
34.43332,49605
34.44145,44856
34.44957,44568
34.45768,48259
34.46582,45113
34.47393,49545
34.48207,46853
34.49018,48879
34.49830,53297
34.50643,54031
34.51455,60347
34.52267,63517
34.53080,75428
34.53892,78107
34.54705,86594
34.55517,92069
34.56328,98021
34.57142,95606
34.57953,88327
34.58767,86489
34.59578,84884
34.60390,79613
34.61203,75205
34.62015,69870
34.62827,67179
34.63640,66661
34.64452,70106
34.65265,61458
34.66077,60822
34.66888,62825
34.67702,68586
34.68513,56513
34.69327,57591
34.70138,60171
34.70950,62197
34.71763,59454
34.72575,55628
34.73388,58715
34.74200,57988
34.75012,59216
34.75825,54493
34.76637,54697
34.77448,51270
34.78262,53508
34.79073,55069
34.79887,55682
34.80698,56243
34.81510,56701
34.82323,58242
34.83135,60005
34.83948,57819
34.84760,56689
34.85572,60896
34.86385,63316
34.87197,56496
34.88010,60124
34.88822,54207
34.89633,59622
34.90447,58931
34.91258,54611
34.92070,58975
34.92883,57681
34.93695,56450
34.94508,64868
34.95320,65075
34.96132,64857
34.96945,67704
34.97757,65311
34.98570,64265
34.99382,66838
35.00193,64157
35.01007,58454
35.01818,54255
35.02630,61332
35.03443,55357
35.04255,58440
35.05068,57222
35.05880,58734
35.06692,57254
35.07505,55269
35.08317,52591
35.09130,53526
35.09942,53850
35.10753,51849
35.11567,50008
35.12378,54765
35.13192,55797
35.14003,53915
35.14815,56532
35.15628,54065
35.16440,59006
35.17252,56671
35.18065,57378
35.18877,57045
35.19690,53992
35.20502,55536
35.21313,54386
35.22127,54648
35.22938,53321
35.23752,52304
35.24563,52100
35.25375,54584
35.26188,52061
35.27000,54871
35.27812,53071
35.28625,53465
35.29437,55251
35.30250,54752
35.31062,55961
35.31873,54253
35.32687,51796
35.33498,49285
35.34312,52739
35.35123,51817
35.35935,52341
35.36748,50384
35.37560,52792
35.38373,51755
35.39185,51115
35.39997,51378
35.40810,52885
35.41622,53208
35.42433,56469
35.43247,53790
35.44058,58063
35.44872,57873
35.45683,58499
35.46495,56436
35.47308,57104
35.48120,61421
35.48933,55886
35.49745,58474
35.50557,57151
35.51370,57292
35.52182,53813
35.52995,51964
35.53807,53456
35.54618,54717
35.55432,55630
35.56243,51700
35.57055,53922
35.57868,54207
35.58680,54560
35.59493,55432
35.60305,54304
35.61117,48446
35.61930,58204
35.62742,55180
35.63555,51650
35.64367,53240
35.65178,55238
35.65992,59355
35.66803,59187
35.67615,57799
35.68428,59482
35.69240,56499
35.70053,62856
35.70865,55784
35.71677,57976
35.72490,60351
35.73302,58152
35.74115,57169
35.74927,60028
35.75738,60599
35.76552,64120
35.77363,64189
35.78177,62751
35.78988,63020
35.79800,61646
35.80613,56412
35.81425,53345
35.82237,56755
35.83050,56571
35.83862,55116
35.84675,57449
35.85487,53552
35.86298,54590
35.87112,55453
35.87923,56851
35.88737,50474
35.89548,57242
35.90360,57171
35.91173,58997
35.91985,52925
35.92798,52728
35.93610,54377
35.94422,58276
35.95235,54513
35.96047,51132
35.96858,55261
35.97672,52833
35.98483,56115
35.99297,55993
36.00108,50424
36.00920,55935
36.01733,57737
36.02545,55249
36.03358,57501
36.04170,58596
36.04982,61467
36.05795,56457
36.06607,60986
36.07418,55001
36.08232,50610
36.09043,59045
36.09857,59992
36.10668,58238
36.11480,52052
36.12293,56876
36.13105,60606
36.13918,59159
36.14730,55524
36.15542,62652
36.16355,60300
36.17167,58495
36.17980,57409
36.18792,61289
36.19603,61428
36.20417,66208
36.21228,61284
36.22040,68543
36.22853,68479
36.23665,72227
36.24478,73853
36.25290,79950
36.26102,73118
36.26915,71864
36.27727,76119
36.28540,82220
36.29352,83932
36.30163,88712
36.30977,91142
36.31788,94220
36.32600,93694
36.33413,90168
36.34225,83493
36.35038,85683
36.35850,81677
36.36662,80595
36.37475,89821
36.38287,86570
36.39100,85525
36.39912,79109
36.40723,80444
36.41537,83022
36.42348,83726
36.43162,82038
36.43973,78059
36.44785,75755
36.45598,79536
36.46410,79425
36.47222,76804
36.48035,75532
36.48847,80310
36.49660,77502
36.50472,71581
36.51283,76360
36.52097,76520
36.52908,74340
36.53722,77725
36.54533,71700
36.55345,74943
36.56158,74739
36.56970,70575
36.57783,77612
36.58595,72752
36.59407,74385
36.60220,75171
36.61032,71784
36.61843,73630
36.62657,78106
36.63468,70695
36.64282,73101
36.65093,71222
36.65905,76048
36.66718,70474
36.67530,73152
36.68343,68214
36.69155,75015
36.69967,73424
36.70780,71581
36.71592,73787
36.72405,73210
36.73217,68484
36.74028,73750
36.74842,72274
36.75653,73029
36.76465,66544
36.77278,77871
36.78090,69272
36.78903,68942
36.79715,73272
36.80527,69888
36.81340,68242
36.82152,64688
36.82965,68447
36.83777,64278
36.84588,69108
36.85402,64814
36.86213,63851
36.87025,72227
36.87838,68924
36.88650,65691
36.89463,70599
36.90275,66333
36.91087,68478
36.91900,68932
36.92712,68742
36.93525,68194
36.94337,76195
36.95148,80331
36.95962,81397
36.96773,78987
36.97587,83283
36.98398,89696
36.99210,75899
37.00023,75304
37.00835,74234
37.01647,71307
37.02460,71127
37.03272,71421
37.04085,70144
37.04897,65508
37.05708,67147
37.06522,64745
37.07333,68834
37.08147,69478
37.08958,69256
37.09770,68598
37.10583,69771
37.11395,70100
37.12207,73585
37.13020,70716
37.13832,68028
37.14645,66526
37.15457,70069
37.16268,65389
37.17082,69288
37.17893,68088
37.18707,67287
37.19518,73108
37.20330,64118
37.21143,65754
37.21955,69006
37.22768,65539
37.23580,68268
37.24392,67473
37.25205,65083
37.26017,67542
37.26828,65637
37.27642,67674
37.28453,67774
37.29267,65286
37.30078,74471
37.30890,67020
37.31703,73104
37.32515,76731
37.33328,86502
37.34140,95331
37.34952,97570
37.35765,99262
37.36577,101013
37.37390,105892
37.38202,98869
37.39013,99770
37.39827,92322
37.40638,95514
37.41450,91188
37.42263,85987
37.43075,84514
37.43888,84771
37.44700,83770
37.45512,84780
37.46325,80819
37.47137,82909
37.47950,80228
37.48762,77760
