C:\MassHunter\GCMS\1\data\JTB-E02\BACandBLUE\JTB-E18-022-07.D Thu Jul 11 09:30:54 2019
Start of data points
2.09530,52946
2.10343,56223
2.11155,57559
2.11967,54200
2.12780,58403
2.13592,53268
2.14405,55762
2.15217,55515
2.16028,52016
2.16842,51176
2.17653,49404
2.18465,45963
2.19278,51307
2.20090,53972
2.20903,49611
2.21715,48999
2.22527,46601
2.23340,55362
2.24152,50513
2.24965,45919
2.25777,51787
2.26588,53920
2.27402,169711
2.28213,710089
2.29027,845536
2.29838,417958
2.30650,236397
2.31463,194941
2.32275,165615
2.33087,150539
2.33900,141987
2.34712,132474
2.35525,122360
2.36337,113018
2.37148,112181
2.37962,109168
2.38773,108153
2.39587,99772
2.40398,110079
2.41210,98030
2.42023,97201
2.42835,100703
2.43648,98807
2.44460,92808
2.45272,94620
2.46085,97520
2.46897,92862
2.47708,90622
2.48522,93107
2.49333,94036
2.50147,106435
2.50958,95947
2.51770,94576
2.52583,94535
2.53395,88107
2.54208,88011
2.55020,90573
2.55832,101754
2.56645,130944
2.57457,132567
2.58270,108110
2.59082,98747
2.59893,99442
2.60707,191590
2.61518,714243
2.62330,988620
2.63143,591602
2.63955,348743
2.64768,250644
2.65580,193646
2.66392,166680
2.67205,149281
2.68017,142861
2.68830,129264
2.69642,124088
2.70453,110574
2.71267,107538
2.72078,115987
2.72890,106155
2.73703,102936
2.74515,106245
2.75328,104810
2.76140,95522
2.76952,92463
2.77765,97477
2.78577,140988
2.79390,237489
2.80202,206432
2.81013,150136
2.81827,135784
2.82638,140379
2.83452,126944
2.84263,112212
2.85075,109033
2.85888,101063
2.86700,99747
2.87512,98012
2.88325,95389
2.89137,95129
2.89950,89335
2.90762,91332
2.91573,88881
2.92387,88047
2.93198,89701
2.94012,81660
2.94823,79408
2.95635,84218
2.96448,97859
2.97260,113331
2.98072,107415
2.98885,94655
2.99697,93957
3.00510,88639
3.01322,95547
3.02133,90732
3.02947,86134
3.03758,81539
3.04572,81860
3.05383,80614
3.06195,81167
3.07008,84547
3.07820,89866
3.08633,250456
3.09445,1088894
3.10257,2352658
3.11070,3538721
3.11882,4356494
3.12693,3297854
3.13507,2000818
3.14318,1390674
3.15132,1083242
3.15943,869351
3.16755,728546
3.17568,639491
3.18380,609074
3.19193,782530
3.20005,1336575
3.20817,1469038
3.21630,1038315
3.22442,760654
3.23255,623381
3.24067,545324
3.24878,468003
3.25692,424239
3.26503,383880
3.27315,346067
3.28128,322371
3.28940,348154
3.29753,610651
3.30565,1635162
3.31377,3250048
3.32190,3996203
3.33002,3146156
3.33815,2062289
3.34627,1413653
3.35438,1074666
3.36252,886696
3.37063,766210
3.37875,682768
3.38688,617798
3.39500,565851
3.40313,511023
3.41125,479535
3.41937,450505
3.42750,436342
3.43562,415519
3.44375,414050
3.45187,394762
3.45998,378360
3.46812,371023
3.47623,360324
3.48437,356820
3.49248,346073
3.50060,337749
3.50873,317882
3.51685,312899
3.52497,305763
3.53310,302558
3.54122,313587
3.54935,312017
3.55747,306773
3.56558,312563
3.57372,346384
3.58183,442664
3.58997,468629
3.59808,400640
3.60620,343011
3.61433,322843
3.62245,313077
3.63058,318774
3.63870,299868
3.64682,283124
3.65495,273060
3.66307,301687
3.67118,656005
3.67932,2256291
3.68743,4614674
3.69557,4809175
3.70368,3039351
3.71180,1851885
3.71993,1345986
3.72805,1096818
3.73618,947184
3.74430,842584
3.75242,765047
3.76055,690170
3.76867,648389
3.77678,621662
3.78492,586229
3.79303,564130
3.80117,553770
3.80928,685820
3.81740,1251029
3.82553,1837132
3.83365,1721789
3.84178,1220720
3.84990,903374
3.85802,748987
3.86615,656512
3.87427,604354
3.88240,567425
3.89052,530020
3.89863,500788
3.90677,477710
3.91488,459364
3.92300,479624
3.93113,601920
3.93925,693336
3.94738,690555
3.95550,875380
3.96362,1870640
3.97175,3614354
3.97987,4246678
3.98800,3232978
3.99612,2195938
4.00423,3382430
4.01237,9595989
4.02048,1.934576E+07
4.02860,2.270918E+07
4.03673,1.683728E+07
4.04485,9231572
4.05298,5066049
4.06110,3376827
4.06922,2516656
4.07735,2019420
4.08547,1658656
4.09360,1412221
4.10172,1243317
4.10983,1104582
4.11797,990553
4.12608,906313
4.13422,832319
4.14233,827104
4.15045,861166
4.15858,904439
4.16670,885311
4.17482,785504
4.18295,706465
4.19107,651822
4.19920,612038
4.20732,608503
4.21543,1030960
4.22357,3254733
4.23168,8798814
4.23982,1.499246E+07
4.24793,1.75257E+07
4.25605,1.471287E+07
4.26418,9262958
4.27230,5749337
4.28043,4098245
4.28855,3139728
4.29667,2537318
4.30480,2093756
4.31292,1801078
4.32103,1567855
4.32917,1416475
4.33728,1284366
4.34542,1171756
4.35353,1110696
4.36165,1075952
4.36978,1027475
4.37790,970798
4.38603,901016
4.39415,854204
4.40227,806502
4.41040,756069
4.41852,717579
4.42663,697600
4.43477,659391
4.44288,633473
4.45102,625355
4.45913,585220
4.46725,570678
4.47538,552605
4.48350,543331
4.49163,524835
4.49975,517526
4.50787,508921
4.51600,476738
4.52412,475285
4.53225,457689
4.54037,442521
4.54848,449729
4.55662,435816
4.56473,422226
4.57285,414190
4.58098,418762
4.58910,402614
4.59723,396162
4.60535,380039
4.61347,381859
4.62160,377805
4.62972,403529
4.63785,476777
4.64597,617385
4.65408,712772
4.66222,667402
4.67033,536906
4.67847,448193
4.68658,406165
4.69470,390792
4.70283,372099
4.71095,352198
4.71907,334787
4.72720,323440
4.73532,318958
4.74345,314742
4.75157,307096
4.75968,305802
4.76782,298436
4.77593,294010
4.78407,291030
4.79218,292717
4.80030,323638
4.80843,390140
4.81655,459385
4.82467,459943
4.83280,407784
4.84092,374959
4.84905,371436
4.85717,380888
4.86528,364962
4.87342,349813
4.88153,332133
4.88967,318752
4.89778,298070
4.90590,286971
4.91403,276548
4.92215,274525
4.93028,285562
4.93840,360340
4.94652,645616
4.95465,1377946
4.96277,2545041
4.97088,3440229
4.97902,3435784
4.98713,2697885
4.99527,1833652
5.00338,1245110
5.01150,916927
5.01963,759162
5.02775,687249
5.03588,784025
5.04400,1038906
5.05212,1308342
5.06025,1293449
5.06837,1048495
5.07650,830451
5.08462,700823
5.09273,643599
5.10087,589125
5.10898,549476
5.11710,503937
5.12523,495331
5.13335,461143
5.14148,455289
5.14960,448880
5.15772,434854
5.16585,451997
5.17397,479307
5.18210,474655
5.19022,457125
5.19833,424260
5.20647,414097
5.21458,425557
5.22270,434140
5.23083,422867
5.23895,416635
5.24708,404122
5.25520,387055
5.26332,366871
5.27145,341659
5.27957,324397
5.28770,305910
5.29582,308427
5.30393,297749
5.31207,291973
5.32018,287555
5.32832,279097
5.33643,288753
5.34455,307466
5.35268,309035
5.36080,304495
5.36892,296982
5.37705,275749
5.38517,272656
5.39330,277305
5.40142,273885
5.40953,269186
5.41767,267168
5.42578,263393
5.43392,260241
5.44203,262745
5.45015,267028
5.45828,282176
5.46640,266764
5.47452,265773
5.48265,250986
5.49077,248867
5.49890,242343
5.50702,239089
5.51513,234226
5.52327,240088
5.53138,242696
5.53952,232381
5.54763,223254
5.55575,227809
5.56388,223928
5.57200,241219
5.58013,245968
5.58825,255248
5.59637,247863
5.60450,235640
5.61262,232905
5.62073,227152
5.62887,219131
5.63698,236709
5.64512,238614
5.65323,250030
5.66135,244707
5.66948,237958
5.67760,235276
5.68573,247675
5.69385,281967
5.70197,319221
5.71010,310402
5.71822,292768
5.72635,264086
5.73447,236695
5.74258,225808
5.75072,214832
5.75883,220832
5.76695,205596
5.77508,213574
5.78320,207208
5.79133,199452
5.79945,210435
5.80757,203890
5.81570,198920
5.82382,197704
5.83195,198110
5.84007,196365
5.84818,195326
5.85632,197585
5.86443,191439
5.87255,185649
5.88068,184108
5.88880,180295
5.89693,187571
5.90505,187571
5.91317,160051
5.92130,141583
5.92942,140477
5.93755,136333
5.94567,137709
5.95378,148866
5.96192,168631
5.97003,189042
5.97817,212818
5.98628,249975
5.99440,291212
6.00253,300613
6.01065,297722
6.01877,250918
6.02690,216404
6.03502,180987
6.04315,171827
6.05127,154095
6.05938,144716
6.06752,146944
6.07563,147415
6.08377,137331
6.09188,139926
6.10000,134279
6.10813,136035
6.11625,130454
6.12438,135665
6.13250,159850
6.14062,234493
6.14875,350309
6.15687,450369
6.16498,471180
6.17312,378742
6.18123,285166
6.18937,230230
6.19748,202453
6.20560,193909
6.21373,182548
6.22185,182446
6.22998,171692
6.23810,181916
6.24622,174193
6.25435,176992
6.26247,172474
6.27058,170572
6.27872,178936
6.28683,175632
6.29497,178294
6.30308,173717
6.31120,174909
6.31933,168493
6.32745,177433
6.33558,176013
6.34370,179921
6.35182,179950
6.35995,184967
6.36807,184669
6.37620,173535
6.38432,182710
6.39243,184361
6.40057,179525
6.40868,173151
6.41680,173022
6.42493,175096
6.43305,178247
6.44118,182076
6.44930,173799
6.45742,182260
6.46555,176608
6.47367,175556
6.48180,179052
6.48992,178455
6.49803,183788
6.50617,183071
6.51428,177543
6.52240,182527
6.53053,187103
6.53865,190882
6.54678,188756
6.55490,178239
6.56302,182934
6.57115,187839
6.57927,195387
6.58740,204020
6.59552,202354
6.60363,204441
6.61177,198173
6.61988,190301
6.62802,189334
6.63613,194057
6.64425,191304
6.65238,196721
6.66050,206128
6.66862,226123
6.67675,267150
6.68487,296458
6.69300,283667
6.70112,246240
6.70923,227099
6.71737,222057
6.72548,205347
6.73362,210696
6.74173,205922
6.74985,209581
6.75798,208586
6.76610,181184
6.77423,166268
6.78235,158225
6.79047,156019
6.79860,155847
6.80672,150681
6.81483,145244
6.82297,136128
6.83108,135759
6.83922,132966
6.84733,131074
6.85545,142405
6.86358,158475
6.87170,171711
6.87983,176257
6.88795,164312
6.89607,133026
6.90420,112770
6.91232,98100
6.92043,92005
6.92857,86669
6.93668,81804
6.94482,83016
6.95293,78937
6.96105,78103
6.96918,83024
6.97730,94481
6.98543,104707
6.99355,111559
7.00167,109745
7.00980,100113
7.01792,91826
7.02605,86952
7.03417,86435
7.04228,81207
7.05042,80926
7.05853,78778
7.06665,75380
7.07478,72751
7.08290,71221
7.09103,70863
7.09915,69112
7.10727,70451
7.11540,69581
7.12352,68514
7.13165,68627
7.13977,74519
7.14788,78032
7.15602,93622
7.16413,129550
7.17227,160614
7.18038,156898
7.18850,152736
7.19663,122068
7.20475,106895
7.21287,104496
7.22100,145595
7.22912,325196
7.23725,752698
7.24537,1281200
7.25348,1593090
7.26162,1436977
7.26973,985974
7.27787,603874
7.28598,401020
7.29410,302807
7.30223,225613
7.31035,162689
7.31847,123289
7.32660,113898
7.33472,106913
7.34285,107326
7.35097,98545
7.35908,95392
7.36722,85653
7.37533,86128
7.38347,86825
7.39158,88277
7.39970,90484
7.40783,90198
7.41595,91765
7.42408,83609
7.43220,83288
7.44032,76421
7.44845,81343
7.45657,76424
7.46468,80264
7.47282,78477
7.48093,76675
7.48907,70085
7.49718,67905
7.50530,68828
7.51343,72171
7.52155,70365
7.52968,81747
7.53780,101678
7.54592,136153
7.55405,159235
7.56217,194633
7.57028,204662
7.57842,193524
7.58653,161699
7.59467,131124
7.60278,112076
7.61090,92846
7.61903,87299
7.62715,80612
7.63528,76191
7.64340,70966
7.65152,71105
7.65965,70142
7.66777,64466
7.67590,64883
7.68402,65215
7.69213,65988
7.70027,65247
7.70838,61895
7.71650,66678
7.72463,65911
7.73275,62778
7.74088,68318
7.74900,68407
7.75712,61225
7.76525,66328
7.77337,67296
7.78150,63891
7.78962,65242
7.79773,65829
7.80587,71466
7.81398,74111
7.82212,74063
7.83023,72940
7.83835,68750
7.84648,61312
7.85460,67442
7.86272,67335
7.87085,64870
7.87897,65622
7.88710,74263
7.89522,74824
7.90333,77456
7.91147,68267
7.91958,65702
7.92772,73378
7.93583,85053
7.94395,91632
7.95208,107445
7.96020,120638
7.96833,118912
7.97645,101559
7.98457,87257
7.99270,81736
8.00082,74675
8.00893,62801
8.01707,61027
8.02518,59319
8.03332,61981
8.04143,60216
8.04955,57571
8.05768,62412
8.06580,61377
8.07393,58424
8.08205,57177
8.09017,53792
8.09830,51141
8.10642,54416
8.11453,54519
8.12267,50656
8.13078,56936
8.13892,64876
8.14703,69674
8.15515,80084
8.16328,89368
8.17140,92576
8.17953,84113
8.18765,73191
8.19577,62031
8.20390,60198
8.21202,57086
8.22015,58586
8.22827,57018
8.23638,59480
8.24452,57259
8.25263,54914
8.26075,54716
8.26888,52121
8.27700,51888
8.28513,49920
8.29325,54641
8.30137,54425
8.30950,51811
8.31762,53758
8.32575,58597
8.33387,62461
8.34198,62929
8.35012,54629
8.35823,54183
8.36635,50978
8.37448,48962
8.38260,50432
8.39073,53231
8.39885,47820
8.40697,51040
8.41510,47232
8.42322,49233
8.43135,50159
8.43947,43715
8.44758,49990
8.45572,48140
8.46383,47208
8.47197,49025
8.48008,48864
8.48820,43705
8.49633,45014
8.50445,43326
8.51257,47270
8.52070,48180
8.52882,56194
8.53695,81730
8.54507,123614
8.55318,204835
8.56132,260984
8.56943,270520
8.57757,225248
8.58568,160103
8.59380,108473
8.60193,83760
8.61005,72252
8.61818,70128
8.62630,70578
8.63442,68079
8.64255,63231
8.65067,58711
8.65878,59083
8.66692,53853
8.67503,55243
8.68317,54780
8.69128,58765
8.69940,53494
8.70753,56054
8.71565,53615
8.72378,56862
8.73190,60238
8.74002,58911
8.74815,87419
8.75627,178541
8.76438,438438
8.77252,883683
8.78063,1440118
8.78877,1809653
8.79688,1750034
8.80500,1316573
8.81313,829935
8.82125,495983
8.82938,321431
8.83750,237620
8.84562,213775
8.85375,215975
8.86187,209939
8.87000,199290
8.87812,190306
8.88623,170759
8.89437,161236
8.90248,155546
8.91060,142934
8.91873,135856
8.92685,135091
8.93498,133937
8.94310,132216
8.95122,147052
8.95935,155053
8.96747,142532
8.97560,148752
8.98372,132934
8.99183,124451
8.99997,118143
9.00808,112426
9.01622,108795
9.02433,100536
9.03245,102026
9.04058,95192
9.04870,94124
9.05682,92187
9.06495,90659
9.07307,94755
9.08120,85005
9.08932,91164
9.09743,90084
9.10557,92232
9.11368,93316
9.12182,99063
9.12993,103065
9.13805,100532
9.14618,95513
9.15430,96638
9.16242,86450
9.17055,90779
9.17867,84212
9.18680,79963
9.19492,85755
9.20303,79334
9.21117,75305
9.21928,77494
9.22742,76335
9.23553,77734
9.24365,75589
9.25178,74657
9.25990,75468
9.26803,74525
9.27615,72463
9.28427,68544
9.29240,73774
9.30052,67613
9.30863,70583
9.31677,60894
9.32488,74186
9.33302,66278
9.34113,72022
9.34925,73176
9.35738,71573
9.36550,68264
9.37363,69579
9.38175,68189
9.38987,65745
9.39800,69222
9.40612,71446
9.41423,74176
9.42237,75711
9.43048,83152
9.43862,86224
9.44673,97490
9.45485,96215
9.46298,89388
9.47110,79836
9.47923,82918
9.48735,68805
9.49547,66318
9.50360,62993
9.51172,68847
9.51985,70021
9.52797,72089
9.53608,73555
9.54422,76970
9.55233,70555
9.56045,67900
9.56858,53148
9.57670,51739
9.58483,53291
9.59295,59092
9.60107,57131
9.60920,56656
9.61732,54114
9.62545,49059
9.63357,43010
9.64168,42398
9.64982,46340
9.65793,44087
9.66607,44875
9.67418,38333
9.68230,39245
9.69043,39685
9.69855,40897
9.70667,43682
9.71480,38488
9.72292,35671
9.73105,43876
9.73917,40117
9.74728,37111
9.75542,38508
9.76353,39284
9.77167,36474
9.77978,37306
9.78790,35304
9.79603,35731
9.80415,35814
9.81227,34616
9.82040,40505
9.82852,38869
9.83665,37005
9.84477,37721
9.85288,35679
9.86102,39684
9.86913,37793
9.87727,39221
9.88538,41909
9.89350,42849
9.90163,43371
9.90975,40505
9.91788,41239
9.92600,43339
9.93412,48519
9.94225,64366
9.95037,91198
9.95848,112069
9.96662,127577
9.97473,135843
9.98287,111886
9.99098,93443
9.99910,76466
10.00723,68304
10.01535,63324
10.02348,55397
10.03160,51468
10.03972,54191
10.04785,46982
10.05597,45585
10.06410,44777
10.07222,43765
10.08033,44433
10.08847,49251
10.09658,45556
10.10470,47864
10.11283,48140
10.12095,48556
10.12908,47882
10.13720,44985
10.14532,44163
10.15345,46779
10.16157,43420
10.16970,45720
10.17782,44939
10.18593,44597
10.19407,41233
10.20218,41074
10.21030,43155
10.21843,40223
10.22655,47861
10.23468,43544
10.24280,47758
10.25092,48058
10.25905,52651
10.26717,75758
10.27530,145076
10.28342,341457
10.29153,760459
10.29967,1361752
10.30778,2058971
10.31592,2928213
10.32403,4217667
10.33215,6115564
10.34028,8060770
10.34840,9027486
10.35652,7956239
10.36465,5447751
10.37277,3106098
10.38090,1638655
10.38902,933693
10.39713,660769
10.40527,500108
10.41338,384177
10.42152,313046
10.42963,278505
10.43775,245919
10.44588,225979
10.45400,209901
10.46213,192569
10.47025,179988
10.47837,169394
10.48650,160852
10.49462,161363
10.50273,152606
10.51087,138822
10.51898,128771
10.52712,129599
10.53523,121054
10.54335,118963
10.55148,115618
10.55960,115411
10.56773,113246
10.57585,113093
10.58397,108434
10.59210,107639
10.60022,110921
10.60833,103012
10.61647,98579
10.62458,89346
10.63272,90534
10.64083,86100
10.64895,81079
10.65708,81978
10.66520,83238
10.67333,80655
10.68145,78257
10.68957,79809
10.69770,79646
10.70582,75208
10.71395,71394
10.72207,74262
10.73018,75296
10.73832,75376
10.74643,75789
10.75455,76127
10.76268,72319
10.77080,72341
10.77893,71631
10.78705,63784
10.79517,66166
10.80330,62860
10.81142,67458
10.81955,60509
10.82767,61731
10.83578,63240
10.84392,59450
10.85203,57063
10.86015,58217
10.86828,56260
10.87640,53573
10.88453,51549
10.89265,60413
10.90077,51889
10.90890,55334
10.91702,53956
10.92515,51346
10.93327,53328
10.94138,47279
10.94952,49554
10.95763,49151
10.96577,51445
10.97388,51882
10.98200,47857
10.99013,50209
10.99825,53489
11.00637,47291
11.01450,46470
11.02262,50831
11.03075,48763
11.03887,50074
11.04698,46945
11.05512,49261
11.06323,47825
11.07137,43180
11.07948,47996
11.08760,50451
11.09573,48420
11.10385,49284
11.11198,44248
11.12010,43751
11.12822,46403
11.13635,40868
11.14447,42272
11.15258,37750
11.16072,36492
11.16883,42512
11.17697,36241
11.18508,40479
11.19320,39607
11.20133,44321
11.20945,42574
11.21758,43687
11.22570,39515
11.23382,38678
11.24195,37501
11.25007,38892
11.25818,36963
11.26632,34304
11.27443,36515
11.28257,35423
11.29068,37258
11.29880,38100
11.30693,44125
11.31505,50596
11.32318,73894
11.33130,102401
11.33942,144004
11.34755,175825
11.35567,200657
11.36380,191656
11.37192,166513
11.38003,125800
11.38817,95876
11.39628,73493
11.40440,69192
11.41253,59300
11.42065,58113
11.42878,55166
11.43690,54968
11.44502,55790
11.45315,53348
11.46127,48092
11.46940,51733
11.47752,55457
11.48563,67380
11.49377,89832
11.50188,104133
11.51002,124798
11.51813,127635
11.52625,115528
11.53438,98949
11.54250,83287
11.55062,75492
11.55875,71694
11.56687,63207
11.57500,61933
11.58312,57490
11.59123,56213
11.59937,63471
11.60748,74171
11.61562,97558
11.62373,120095
11.63185,126540
11.63998,115957
11.64810,98826
11.65622,78777
11.66435,64247
11.67247,53690
11.68060,54667
11.68872,49572
11.69683,48955
11.70497,55163
11.71308,48863
11.72122,49512
11.72933,49690
11.73745,44243
11.74558,50249
11.75370,43759
11.76183,41550
11.76995,41146
11.77807,39928
11.78620,43531
11.79432,41043
11.80243,44133
11.81057,42736
11.81868,43804
11.82682,41815
11.83493,41820
11.84305,41287
11.85118,45484
11.85930,46242
11.86743,47871
11.87555,49595
11.88367,48082
11.89180,45928
11.89992,38071
11.90803,42230
11.91617,41380
11.92428,43365
11.93242,43447
11.94053,42698
11.94865,45398
11.95678,42391
11.96490,39834
11.97303,39579
11.98115,39235
11.98927,45204
11.99740,58567
12.00552,83259
12.01365,109362
12.02177,129889
12.02988,122950
12.03802,107703
12.04613,84888
12.05425,69664
12.06238,57634
12.07050,51452
12.07863,50407
12.08675,49489
12.09487,45224
12.10300,47303
12.11112,49549
12.11925,47315
12.12737,47427
12.13548,48245
12.14362,47568
12.15173,50593
12.15987,47140
12.16798,42373
12.17610,47370
12.18423,40577
12.19235,38182
12.20047,37992
12.20860,38745
12.21672,41588
12.22485,39256
12.23297,40001
12.24108,40844
12.24922,36074
12.25733,38987
12.26547,38369
12.27358,36909
12.28170,38745
12.28983,37473
12.29795,35214
12.30608,35948
12.31420,35346
12.32232,40397
12.33045,36369
12.33857,37015
12.34668,35409
12.35482,36087
12.36293,39323
12.37107,33758
12.37918,36286
12.38730,36224
12.39543,34273
12.40355,37565
12.41168,41783
12.41980,51482
12.42792,57065
12.43605,65277
12.44417,62426
12.45228,62372
12.46042,58852
12.46853,49367
12.47667,49657
12.48478,48510
12.49290,42921
12.50103,36996
12.50915,39454
12.51728,39606
12.52540,41053
12.53352,47347
12.54165,52762
12.54977,66755
12.55790,87145
12.56602,111031
12.57413,131318
12.58227,132491
12.59038,118612
12.59850,91069
12.60663,72848
12.61475,57082
12.62288,51199
12.63100,47387
12.63912,43939
12.64725,45128
12.65537,40482
12.66350,41847
12.67162,42117
12.67973,40207
12.68787,37791
12.69598,37985
12.70410,40276
12.71223,35146
12.72035,36399
12.72848,46382
12.73660,44943
12.74472,49085
12.75285,49721
12.76097,48537
12.76910,41414
12.77722,39642
12.78533,41377
12.79347,32845
12.80158,33038
12.80972,33093
12.81783,32824
12.82595,32658
12.83408,32112
12.84220,32592
12.85032,32143
12.85845,31493
12.86657,31068
12.87470,31678
12.88282,30339
12.89093,30140
12.89907,32250
12.90718,29693
12.91532,27351
12.92343,29627
12.93155,30301
12.93968,29534
12.94780,32677
12.95593,32982
12.96405,34883
12.97217,43932
12.98030,53623
12.98842,61518
12.99653,67472
13.00467,60148
13.01278,54325
13.02092,44767
13.02903,40171
13.03715,38344
13.04528,36976
13.05340,36026
13.06153,34067
13.06965,35967
13.07777,33165
13.08590,37423
13.09402,37639
13.10213,36540
13.11027,33045
13.11838,30883
13.12652,33099
13.13463,32224
13.14275,30516
13.15088,31622
13.15900,30978
13.16713,33388
13.17525,31464
13.18337,34716
13.19150,36267
13.19962,38971
13.20775,38647
13.21587,38388
13.22398,42858
13.23212,40697
13.24023,37573
13.24835,39333
13.25648,37710
13.26460,33749
13.27273,35022
13.28085,33697
13.28897,30085
13.29710,30780
13.30522,31131
13.31335,26982
13.32147,31892
13.32958,28496
13.33772,29617
13.34583,32056
13.35397,32588
13.36208,34194
13.37020,28529
13.37833,28450
13.38645,27508
13.39457,32329
13.40270,29216
13.41082,29651
13.41895,29073
13.42707,30799
13.43518,26841
13.44332,26857
13.45143,31006
13.45957,29100
13.46768,28289
13.47580,27666
13.48393,29212
13.49205,31176
13.50017,27597
13.50830,30844
13.51642,28596
13.52455,31714
13.53267,32894
13.54078,31184
13.54892,32527
13.55703,29239
13.56517,27718
13.57328,31029
13.58140,31236
13.58953,33854
13.59765,40999
13.60578,51882
13.61390,81373
13.62202,115951
13.63015,149781
13.63827,160129
13.64638,136617
13.65452,109033
13.66263,79209
13.67077,53600
13.67888,46531
13.68700,43432
13.69513,36812
13.70325,37180
13.71138,37124
13.71950,36859
13.72762,37080
13.73575,43197
13.74387,69234
13.75198,139109
13.76012,294367
13.76823,607955
13.77637,1001351
13.78448,1346710
13.79260,1469987
13.80073,1307257
13.80885,1000932
13.81698,676724
13.82510,491444
13.83322,398969
13.84135,365859
13.84947,339686
13.85760,312053
13.86572,267218
13.87383,220816
13.88197,182707
13.89008,155025
13.89820,143937
13.90633,134403
13.91445,134189
13.92258,117496
13.93070,108041
13.93882,100406
13.94695,101585
13.95507,97246
13.96320,96612
13.97132,89738
13.97943,99294
13.98757,100410
13.99568,94742
14.00382,92829
14.01193,87502
14.02005,90347
14.02818,79631
14.03630,77606
14.04442,71000
14.05255,72223
14.06067,72891
14.06880,75236
14.07692,70008
14.08503,73733
14.09317,65604
14.10128,66748
14.10942,63032
14.11753,61065
14.12565,62628
14.13378,61664
14.14190,64957
14.15002,68369
14.15815,70186
14.16627,77872
14.17440,96604
14.18252,137902
14.19063,188061
14.19877,231222
14.20688,260814
14.21502,242769
14.22313,209693
14.23125,178984
14.23938,157578
14.24750,139370
14.25563,130642
14.26375,121844
14.27187,115348
14.28000,103849
14.28812,96383
14.29623,83275
14.30437,79520
14.31248,72561
14.32062,71297
14.32873,68335
14.33685,66848
14.34498,62852
14.35310,60416
14.36123,56454
14.36935,48343
14.37747,50868
14.38560,49459
14.39372,63443
14.40185,93144
14.40997,168769
14.41808,281683
14.42622,421268
14.43433,476360
14.44245,445562
14.45058,338364
14.45870,230970
14.46683,153779
14.47495,117779
14.48307,95548
14.49120,79840
14.49932,74692
14.50745,69764
14.51557,69149
14.52368,68359
14.53182,65593
14.53993,60736
14.54805,61397
14.55618,56395
14.56430,48769
14.57243,50026
14.58055,52067
14.58867,46456
14.59680,45491
14.60492,47084
14.61305,47732
14.62117,43564
14.62928,41638
14.63742,47113
14.64553,43442
14.65367,41603
14.66178,39158
14.66990,36783
14.67803,37784
14.68615,36626
14.69427,38263
14.70240,39170
14.71052,40471
14.71865,42473
14.72677,38851
14.73488,41405
14.74302,39528
14.75113,42746
14.75927,41416
14.76738,37224
14.77550,41920
14.78363,46037
14.79175,60371
14.79987,111504
14.80800,247256
14.81612,597197
14.82425,1195294
14.83237,1896883
14.84048,2353336
14.84862,2325199
14.85673,1904185
14.86487,1347792
14.87298,827842
14.88110,507254
14.88923,360566
14.89735,261504
14.90548,210223
14.91360,186717
14.92172,164489
14.92985,146454
14.93797,128173
14.94608,118214
14.95422,111013
14.96233,107348
14.97047,101666
14.97858,97372
14.98670,93513
14.99483,98439
15.00295,84725
15.01108,86797
15.01920,83855
15.02732,79576
15.03545,74058
15.04357,76361
15.05170,71250
15.05982,65432
15.06793,64225
15.07607,62681
15.08418,61127
15.09230,63415
15.10043,60772
15.10855,57879
15.11668,58003
15.12480,56595
15.13292,58091
15.14105,74061
15.14917,72381
15.15730,72284
15.16542,70279
15.17353,64539
15.18167,58136
15.18978,52127
15.19790,46550
15.20603,51452
15.21415,44441
15.22228,43251
15.23040,41734
15.23852,39942
15.24665,39151
15.25477,42328
15.26290,40939
15.27102,40288
15.27913,35977
15.28727,36123
15.29538,39883
15.30352,37772
15.31163,35368
15.31975,35302
15.32788,37878
15.33600,35850
15.34412,35453
15.35225,33456
15.36037,35785
15.36850,36487
15.37662,36366
15.38473,38768
15.39287,36137
15.40098,34284
15.40912,35149
15.41723,36714
15.42535,34960
15.43348,34301
15.44160,34628
15.44973,34032
15.45785,32261
15.46597,36392
15.47410,37117
15.48222,43065
15.49033,50622
15.49847,58178
15.50658,64913
15.51472,64678
15.52283,66219
15.53095,64376
15.53908,60497
15.54720,56195
15.55533,51370
15.56345,53589
15.57157,47441
15.57970,48896
15.58782,38715
15.59593,38780
15.60407,38192
15.61218,39270
15.62032,40074
15.62843,35640
15.63655,34714
15.64468,36422
15.65280,32161
15.66093,33899
15.66905,35092
15.67717,32857
15.68530,29201
15.69342,32559
15.70155,33213
15.70967,30559
15.71778,31348
15.72592,31836
15.73403,30617
15.74215,33777
15.75028,38416
15.75840,46280
15.76653,72203
15.77465,113346
15.78277,163398
15.79090,232783
15.79902,277084
15.80715,247689
15.81527,206530
15.82338,155463
15.83152,114659
15.83963,83001
15.84777,73527
15.85588,62229
15.86400,60627
15.87213,55835
15.88025,49778
15.88837,49499
15.89650,45556
15.90462,46032
15.91275,47626
15.92087,42250
15.92898,44476
15.93712,42020
15.94523,43948
15.95337,52520
15.96148,51226
15.96960,65446
15.97773,76255
15.98585,83902
15.99397,87067
16.00210,81198
16.01022,77810
16.01835,70854
16.02647,66626
16.03458,66841
16.04272,65782
16.05083,60891
16.05897,57010
16.06708,48557
16.07520,48404
16.08333,44423
16.09145,42493
16.09958,42966
16.10770,41119
16.11582,41756
16.12395,37657
16.13207,39101
16.14018,44248
16.14832,44319
16.15643,41919
16.16457,43869
16.17268,42518
16.18080,43003
16.18893,39826
16.19705,39864
16.20518,37848
16.21330,40468
16.22142,43103
16.22955,41210
16.23767,39686
16.24578,37426
16.25392,37697
16.26203,34638
16.27017,34642
16.27828,37093
16.28640,37349
16.29453,35504
16.30265,39093
16.31078,40845
16.31890,38796
16.32702,36451
16.33515,42204
16.34327,43860
16.35140,42619
16.35952,48915
16.36763,56409
16.37577,66841
16.38388,73409
16.39200,78246
16.40013,76418
16.40825,62257
16.41638,54550
16.42450,46769
16.43262,42844
16.44075,45858
16.44887,51073
16.45700,77802
16.46512,123403
16.47323,202275
16.48137,295222
16.48948,360492
16.49762,365534
16.50573,307221
16.51385,225523
16.52198,155835
16.53010,111722
16.53822,80094
16.54635,68166
16.55447,63817
16.56260,60520
16.57072,57595
16.57883,53995
16.58697,60707
16.59508,59414
16.60322,58265
16.61133,66486
16.61945,73137
16.62758,74909
16.63570,71814
16.64382,66117
16.65195,55343
16.66007,49025
16.66820,50371
16.67632,44397
16.68443,44462
16.69257,44143
16.70068,46801
16.70882,43169
16.71693,42557
16.72505,42630
16.73318,42743
16.74130,39216
16.74943,42076
16.75755,42593
16.76567,42043
16.77380,44432
16.78192,45855
16.79003,41435
16.79817,39830
16.80628,37100
16.81442,36595
16.82253,33038
16.83065,35383
16.83878,38366
16.84690,34904
16.85503,34677
16.86315,34739
16.87127,33851
16.87940,32882
16.88752,35921
16.89565,30517
16.90377,33682
16.91188,34193
16.92002,32743
16.92813,29934
16.93625,32248
16.94438,34407
16.95250,32659
16.96063,31557
16.96875,31095
16.97687,31759
16.98500,32576
16.99312,37730
17.00125,33406
17.00937,33085
17.01748,33628
17.02562,33085
17.03373,34845
17.04185,37411
17.04998,40858
17.05810,45229
17.06623,43880
17.07435,46344
17.08247,45274
17.09060,39873
17.09872,37856
17.10685,40824
17.11497,39979
17.12308,37701
17.13122,41367
17.13933,40049
17.14747,37336
17.15558,36428
17.16370,38295
17.17183,34323
17.17995,35597
17.18807,37042
17.19620,34539
17.20432,32716
17.21245,35488
17.22057,32631
17.22868,33215
17.23682,32757
17.24493,34371
17.25307,33532
17.26118,33031
17.26930,36634
17.27743,34504
17.28555,31560
17.29367,31704
17.30180,31397
17.30992,34647
17.31805,35161
17.32617,37128
17.33428,40321
17.34242,45859
17.35053,52694
17.35867,52291
17.36678,53030
17.37490,49920
17.38303,45493
17.39115,41300
17.39928,41246
17.40740,43504
17.41552,44562
17.42365,42795
17.43177,41582
17.43988,39536
17.44802,42834
17.45613,43177
17.46427,40052
17.47238,41767
17.48050,39295
17.48863,39883
17.49675,35202
17.50488,32831
17.51300,32044
17.52112,34493
17.52925,35654
17.53737,37499
17.54550,37562
17.55362,43311
17.56173,51428
17.56987,75908
17.57798,132788
17.58610,239659
17.59423,407085
17.60235,621654
17.61048,847253
17.61860,956709
17.62672,887836
17.63485,715177
17.64297,503893
17.65110,356319
17.65922,257478
17.66733,201567
17.67547,171825
17.68358,147914
17.69172,126075
17.69983,117641
17.70795,103116
17.71608,96377
17.72420,89959
17.73232,76092
17.74045,77920
17.74857,74499
17.75670,66283
17.76482,65213
17.77293,63149
17.78107,63706
17.78918,68028
17.79732,76992
17.80543,108180
17.81355,173301
17.82168,254649
17.82980,334396
17.83792,398390
17.84605,388138
17.85417,313029
17.86230,245716
17.87042,178369
17.87853,144599
17.88667,119429
17.89478,99538
17.90292,88554
17.91103,85948
17.91915,77206
17.92728,75449
17.93540,67420
17.94353,63448
17.95165,62814
17.95977,59006
17.96790,58620
17.97602,59305
17.98413,53500
17.99227,53622
18.00038,53549
18.00852,59614
18.01663,58110
18.02475,62550
18.03288,71932
18.04100,77256
18.04913,93264
18.05725,137936
18.06537,276194
18.07350,630181
18.08162,1211882
18.08973,2068896
18.09787,2630966
18.10598,2852169
18.11412,2542519
18.12223,1947441
18.13035,1337245
18.13848,932620
18.14660,672205
18.15473,525844
18.16285,452354
18.17097,389505
18.17910,353425
18.18722,308835
18.19535,276429
18.20347,262456
18.21158,239863
18.21972,219292
18.22783,201308
18.23595,188704
18.24408,174611
18.25220,169290
18.26033,165806
18.26845,144245
18.27657,129243
18.28470,108379
18.29282,94091
18.30095,72589
18.30907,65451
18.31718,63568
18.32532,57579
18.33343,57080
18.34157,55780
18.34968,51469
18.35780,50155
18.36593,48345
18.37405,47477
18.38217,53325
18.39030,48787
18.39842,51132
18.40655,51820
18.41467,47792
18.42278,50751
18.43092,53561
18.43903,58190
18.44717,69068
18.45528,92342
18.46340,129359
18.47153,174727
18.47965,232027
18.48777,293477
18.49590,335104
18.50402,352687
18.51215,342983
18.52027,312469
18.52838,289490
18.53652,270948
18.54463,262796
18.55277,252312
18.56088,238164
18.56900,242011
18.57713,240554
18.58525,241227
18.59338,236258
18.60150,230404
18.60962,237663
18.61775,243119
18.62587,238741
18.63398,233665
18.64212,231778
18.65023,223997
18.65837,229252
18.66648,221474
18.67460,225601
18.68273,222817
18.69085,208130
18.69898,210406
18.70710,215151
18.71522,208312
18.72335,199764
18.73147,193147
18.73960,203320
18.74772,193695
18.75583,203199
18.76397,191148
18.77208,191540
18.78020,189214
18.78833,190499
18.79645,185661
18.80458,185062
18.81270,185780
18.82082,183161
18.82895,185855
18.83707,178709
18.84520,175397
18.85332,179986
18.86143,175241
18.86957,175021
18.87768,174174
18.88580,174221
18.89393,163560
18.90205,169713
18.91018,171361
18.91830,169327
18.92642,166575
18.93455,166266
18.94267,169056
18.95080,162679
18.95892,161741
18.96703,165381
18.97517,170839
18.98328,164557
18.99142,157518
18.99953,159997
19.00765,149947
19.01578,151638
19.02390,152734
19.03202,146163
19.04015,145455
19.04827,141462
19.05640,148024
19.06452,146703
19.07263,147936
19.08077,166969
19.08888,189036
19.09702,216894
19.10513,247523
19.11325,259105
19.12138,252563
19.12950,239728
19.13762,207339
19.14575,180335
19.15387,166901
19.16200,160121
19.17012,145109
19.17823,141817
19.18637,141947
19.19448,136903
19.20262,133754
19.21073,130709
19.21885,131872
19.22698,127881
19.23510,128014
19.24323,123014
19.25135,125123
19.25947,126246
19.26760,121708
19.27572,128403
19.28383,133372
19.29197,142388
19.30008,135923
19.30822,137020
19.31633,134556
19.32445,130797
19.33258,129591
19.34070,124958
19.34883,130145
19.35695,145358
19.36507,161099
19.37320,187682
19.38132,201240
19.38945,203522
19.39757,186930
19.40568,164275
19.41382,144062
19.42193,133492
19.43005,125100
19.43818,118497
19.44630,113961
19.45443,113207
19.46255,120034
19.47067,124427
19.47880,141361
19.48692,171712
19.49505,209245
19.50317,221856
19.51128,226224
19.51942,206329
19.52753,169030
19.53565,140642
19.54378,127646
19.55190,113096
19.56003,109457
19.56815,106724
19.57627,103025
19.58440,102742
19.59252,91987
19.60065,90817
19.60877,91096
19.61688,89221
19.62502,91034
19.63313,94615
19.64127,99393
19.64938,119247
19.65750,136716
19.66563,167743
19.67375,180439
19.68187,199442
19.69000,209001
19.69812,203275
19.70625,198472
19.71437,177899
19.72248,172808
19.73062,149285
19.73873,134103
19.74687,124461
19.75498,117096
19.76310,112455
19.77123,114648
19.77935,103382
19.78748,106224
19.79560,104742
19.80372,113568
19.81185,104844
19.81997,107280
19.82808,109980
19.83622,97728
19.84433,99465
19.85247,135891
19.86058,267619
19.86870,617359
19.87683,1418031
19.88495,2835454
19.89308,4727586
19.90120,6409975
19.90932,7459398
19.91745,7001937
19.92557,5594073
19.93368,4038115
19.94182,2693525
19.94993,1804078
19.95807,1283949
19.96618,1024186
19.97430,888536
19.98243,779280
19.99055,710746
19.99868,656098
20.00680,588935
20.01492,561210
20.02305,516454
20.03117,509277
20.03930,443817
20.04742,384365
20.05553,341896
20.06367,282547
20.07178,234198
20.07990,194291
20.08803,176543
20.09615,162198
20.10428,154708
20.11240,149571
20.12052,134701
20.12865,126323
20.13677,122723
20.14490,121527
20.15302,118971
20.16113,115507
20.16927,123745
20.17738,123163
20.18550,139163
20.19363,136681
20.20175,140057
20.20988,137694
20.21800,138253
20.22612,124416
20.23425,125207
20.24237,127930
20.25050,127902
20.25862,143922
20.26673,155213
20.27487,186988
20.28298,195616
20.29112,195048
20.29923,193088
20.30735,176300
20.31548,157021
20.32360,136223
20.33172,125489
20.33985,109948
20.34797,99179
20.35610,90289
20.36422,83177
20.37233,78898
20.38047,78222
20.38858,71806
20.39672,73329
20.40483,73568
20.41295,66497
20.42108,73171
20.42920,73454
20.43733,80225
20.44545,80635
20.45357,83654
20.46170,82274
20.46982,79303
20.47793,74386
20.48607,70712
20.49418,69592
20.50232,65372
20.51043,67646
20.51855,66980
20.52668,67949
20.53480,63898
20.54293,66760
20.55105,72544
20.55917,67989
20.56730,66219
20.57542,66710
20.58353,63086
20.59167,64262
20.59978,64482
20.60792,61260
20.61603,60431
20.62415,60957
20.63228,59178
20.64040,57887
20.64853,64112
20.65665,65226
20.66477,68437
20.67290,67867
20.68102,67555
20.68915,64943
20.69727,63943
20.70538,60674
20.71352,57423
20.72163,58172
20.72975,58613
20.73788,58560
20.74600,56292
20.75413,62139
20.76225,61109
20.77037,68503
20.77850,67632
20.78662,72046
20.79475,96498
20.80287,132022
20.81098,170040
20.81912,207657
20.82723,215441
20.83537,210277
20.84348,176543
20.85160,138722
20.85973,108532
20.86785,91620
20.87597,85634
20.88410,71206
20.89222,67003
20.90035,66615
20.90847,64426
20.91658,67491
20.92472,69395
20.93283,66911
20.94097,67031
20.94908,64771
20.95720,65450
20.96533,63349
20.97345,64611
20.98157,63240
20.98970,58910
20.99782,57841
21.00595,54680
21.01407,57996
21.02218,58768
21.03032,58399
21.03843,60226
21.04657,58670
21.05468,58626
21.06280,55273
21.07093,58317
21.07905,60355
21.08718,56683
21.09530,56223
21.10342,56170
21.11155,60913
21.11967,55138
21.12778,54777
21.13592,56553
21.14403,64346
21.15217,68569
21.16028,73960
21.16840,75032
21.17653,73016
21.18465,71895
21.19278,69593
21.20090,68977
21.20902,64340
21.21715,56922
21.22527,61247
21.23340,56622
21.24152,58618
21.24963,55938
21.25777,55449
21.26588,52225
21.27400,50901
21.28213,52241
21.29025,53706
21.29838,51361
21.30650,50380
21.31462,51471
21.32275,47094
21.33087,48084
21.33900,47363
21.34712,46097
21.35523,46620
21.36337,49394
21.37148,45060
21.37960,54920
21.38773,54554
21.39585,66250
21.40398,79008
21.41210,87802
21.42022,95485
21.42835,86641
21.43647,83140
21.44460,67877
21.45272,62120
21.46083,60902
21.46897,52355
21.47708,48833
21.48522,49321
21.49333,50299
21.50145,48890
21.50958,53197
21.51770,48275
21.52582,45867
21.53395,47793
21.54207,47431
21.55020,45834
21.55832,45600
21.56643,44189
21.57457,46182
21.58268,52526
21.59082,59931
21.59893,63546
21.60705,71077
21.61518,71048
21.62330,66117
21.63142,69663
21.63955,69410
21.64767,72102
21.65580,71213
21.66392,71675
21.67203,70461
21.68017,74615
21.68828,69790
21.69642,70166
21.70453,69533
21.71265,64873
21.72078,59459
21.72890,57912
21.73703,54037
21.74515,51421
21.75327,49434
21.76140,52353
21.76952,49753
21.77763,50156
21.78577,50600
21.79388,50938
21.80202,52111
21.81013,50108
21.81825,54538
21.82638,54411
21.83450,55668
21.84263,62206
21.85075,56125
21.85887,60309
21.86700,53738
21.87512,53335
21.88325,53317
21.89137,48205
21.89948,50464
21.90762,48910
21.91573,47952
21.92385,45083
21.93198,45755
21.94010,45380
21.94823,43115
21.95635,45181
21.96447,40027
21.97260,44363
21.98072,42942
21.98885,43090
21.99697,39795
22.00508,39116
22.01322,42144
22.02133,36528
22.02945,40243
22.03758,43751
22.04570,40750
22.05383,48508
22.06195,54054
22.07007,60118
22.07820,64792
22.08632,65340
22.09445,66959
22.10257,70990
22.11068,67659
22.11882,68378
22.12693,76522
22.13507,75596
22.14318,78175
22.15130,78222
22.15943,76547
22.16755,74120
22.17567,77255
22.18380,78899
22.19192,69933
22.20005,77603
22.20817,77932
22.21628,78772
22.22442,81488
22.23253,79443
22.24067,75034
22.24878,77545
22.25690,77649
22.26503,75205
22.27315,69427
22.28128,67286
22.28940,63316
22.29752,62561
22.30565,62591
22.31377,64905
22.32188,56209
22.33002,59725
22.33813,62458
22.34627,59216
22.35438,56580
22.36250,51970
22.37063,51426
22.37875,49719
22.38688,58967
22.39500,62017
22.40312,76685
22.41125,90004
22.41937,107561
22.42748,115164
22.43562,109347
22.44373,96094
22.45187,88747
22.45998,71960
22.46810,69497
22.47623,64248
22.48435,73433
22.49248,85368
22.50060,92179
22.50872,94813
22.51685,90618
22.52497,79927
22.53310,77219
22.54122,68941
22.54933,61080
22.55747,56058
22.56558,57093
22.57370,57663
22.58183,70417
22.58995,79546
22.59808,93046
22.60620,102180
22.61432,105502
22.62245,112200
22.63057,115628
22.63870,122462
22.64682,129051
22.65493,126978
22.66307,125556
22.67118,135980
22.67930,134332
22.68743,141987
22.69555,144666
22.70368,151503
22.71180,153400
22.71992,156072
22.72805,161171
22.73617,160976
22.74430,154813
22.75242,149613
22.76053,142717
22.76867,140038
22.77678,139798
22.78492,155734
22.79303,165625
22.80115,185752
22.80928,207119
22.81740,213947
22.82552,208050
22.83365,193716
22.84177,174196
22.84990,156064
22.85802,150611
22.86613,144944
22.87427,146208
22.88238,150612
22.89052,161677
22.89863,175032
22.90675,189443
22.91488,231074
22.92300,262653
22.93113,276582
22.93925,277611
22.94737,250285
22.95550,208318
22.96362,183387
22.97173,158742
22.97987,139452
22.98798,137230
22.99612,127636
23.00423,117864
23.01235,118502
23.02048,122598
23.02860,113171
23.03673,112674
23.04485,110469
23.05297,108049
23.06110,110162
23.06922,107283
23.07733,111502
23.08547,101160
23.09358,107309
23.10172,108206
23.10983,102190
23.11795,98126
23.12608,99885
23.13420,95109
23.14233,98545
23.15045,102447
23.15857,99737
23.16670,98121
23.17482,99027
23.18295,92583
23.19107,93411
23.19918,92445
23.20732,90623
23.21543,88871
23.22355,84047
23.23168,88843
23.23980,89744
23.24793,89989
23.25605,96718
23.26417,102010
23.27230,101641
23.28042,95068
23.28855,96892
23.29667,91472
23.30478,89978
23.31292,86853
23.32103,81225
23.32917,95078
23.33728,104668
23.34540,126037
23.35353,159430
23.36165,217653
23.36977,307833
23.37790,426675
23.38602,554418
23.39415,684013
23.40227,805630
23.41038,908375
23.41852,942208
23.42663,978423
23.43477,966508
23.44288,924347
23.45100,891791
23.45913,841550
23.46725,782799
23.47537,707910
23.48350,674990
23.49162,608758
23.49975,556574
23.50787,504316
23.51598,476102
23.52412,444025
23.53223,400932
23.54037,384432
23.54848,383699
23.55660,369670
23.56473,355664
23.57285,350147
23.58098,359751
23.58910,369704
23.59722,376503
23.60535,372732
23.61347,376367
23.62158,350562
23.62972,321929
23.63783,273900
23.64597,252878
23.65408,238057
23.66220,234051
23.67033,230066
23.67845,217781
23.68658,204825
23.69470,186761
23.70282,171099
23.71095,167196
23.71907,151324
23.72718,143748
23.73532,140630
23.74343,142742
23.75157,175694
23.75968,255293
23.76780,418478
23.77593,689604
23.78405,1062791
23.79218,1385627
23.80030,1562472
23.80842,1545721
23.81655,1390560
23.82467,1183865
23.83280,936164
23.84092,752396
23.84903,600360
23.85717,498351
23.86528,426846
23.87340,368093
23.88153,314288
23.88965,301774
23.89778,274739
23.90590,259438
23.91402,247040
23.92215,229460
23.93027,218103
23.93840,204087
23.94652,194422
23.95463,174942
23.96277,171170
23.97088,159005
23.97902,157340
23.98713,139488
23.99525,139168
24.00338,138853
24.01150,143970
24.01962,149451
24.02775,158694
24.03587,163361
24.04400,164609
24.05212,157115
24.06023,134570
24.06837,123725
24.07648,116091
24.08462,103919
24.09273,108503
24.10085,100659
24.10898,104335
24.11710,103292
24.12523,101986
24.13335,93225
24.14147,99807
24.14960,91495
24.15772,97143
24.16583,94614
24.17397,96806
24.18208,97211
24.19022,98626
24.19833,94164
24.20645,94340
24.21458,93064
24.22270,91773
24.23083,84528
24.23895,82240
24.24707,79037
24.25520,80880
24.26332,73688
24.27143,73423
24.27957,74528
24.28768,77085
24.29582,79895
24.30393,101189
24.31205,117626
24.32018,139338
24.32830,153763
24.33643,165134
24.34455,175538
24.35267,180581
24.36080,195472
24.36892,205596
24.37705,226191
24.38517,248620
24.39328,253703
24.40142,244348
24.40953,234255
24.41765,219109
24.42578,213595
24.43390,204550
24.44203,197656
24.45015,201845
24.45827,211457
24.46640,218126
24.47452,234052
24.48265,249705
24.49077,267042
24.49888,262567
24.50702,269643
24.51513,270231
24.52325,263688
24.53138,264875
24.53950,275053
24.54763,271867
24.55575,264004
24.56387,273040
24.57200,268228
24.58012,262009
24.58825,252661
24.59637,239157
24.60448,239960
24.61262,237696
24.62073,238930
24.62887,231474
24.63698,235877
24.64510,235182
24.65323,232049
24.66135,238095
24.66947,232852
24.67760,233365
24.68572,228557
24.69385,225413
24.70197,231218
24.71008,227344
24.71822,219445
24.72633,213590
24.73447,214086
24.74258,219587
24.75070,214708
24.75883,217585
24.76695,219062
24.77508,207503
24.78320,213957
24.79132,206916
24.79945,210613
24.80757,203580
24.81568,213632
24.82382,206425
24.83193,212137
24.84007,235852
24.84818,260249
24.85630,299418
24.86443,362821
24.87255,451464
24.88068,565558
24.88880,652809
24.89692,703091
24.90505,693357
24.91317,613305
24.92128,488011
24.92942,384399
24.93753,301544
24.94567,241291
24.95378,208488
24.96190,191265
24.97003,174384
24.97815,170610
24.98628,163965
24.99440,156607
25.00252,154293
25.01065,138240
25.01877,129335
25.02690,116234
25.03502,102777
25.04313,94550
25.05127,93772
25.05938,90724
25.06750,85054
25.07563,82366
25.08375,86002
25.09188,94483
25.10000,129779
25.10812,216190
25.11625,414021
25.12437,802089
25.13250,1384098
25.14062,2007970
25.14873,2383036
25.15687,2384721
25.16498,2072949
25.17312,1497567
25.18123,987042
25.18935,594101
25.19748,352394
25.20560,223852
25.21372,161994
25.22185,131753
25.22997,112524
25.23810,123594
25.24622,144045
25.25433,172572
25.26247,215436
25.27058,231114
25.27872,245815
25.28683,246349
25.29495,211727
25.30308,173091
25.31120,143020
25.31932,113782
25.32745,94575
25.33557,89039
25.34370,83290
25.35182,77410
25.35993,71421
25.36807,72534
25.37618,67606
25.38432,71616
25.39243,63126
25.40055,64268
25.40868,59809
25.41680,64118
25.42493,72250
25.43305,90373
25.44117,110642
25.44930,144331
25.45742,195050
25.46553,209327
25.47367,228806
25.48178,232944
25.48992,243184
25.49803,254221
25.50615,257345
25.51428,261148
25.52240,256241
25.53053,262763
25.53865,264162
25.54677,271330
25.55490,265908
25.56302,266709
25.57113,269856
25.57927,271086
25.58738,268791
25.59552,262963
25.60363,275221
25.61175,260358
25.61988,250335
25.62800,255864
25.63613,257306
25.64425,251746
25.65237,244252
25.66050,248618
25.66862,241900
25.67675,245893
25.68487,239534
25.69298,237448
25.70112,238485
25.70923,240698
25.71735,225015
25.72548,231324
25.73360,229672
25.74173,228197
25.74985,218897
25.75797,223233
25.76610,211057
25.77422,221473
25.78235,214408
25.79047,214940
25.79858,210595
25.80672,202877
25.81483,208749
25.82297,210011
25.83108,208768
25.83920,207528
25.84733,208526
25.85545,210708
25.86357,208518
25.87170,199438
25.87982,195887
25.88795,193658
25.89607,194405
25.90418,183803
25.91232,186008
25.92043,176589
25.92857,179469
25.93668,175836
25.94480,173741
25.95293,172444
25.96105,170516
25.96917,162577
25.97730,165522
25.98542,162860
25.99355,160664
26.00167,161323
26.00978,163654
26.01792,155641
26.02603,154322
26.03417,150226
26.04228,143384
26.05040,145306
26.05853,144399
26.06665,139918
26.07478,136667
26.08290,143071
26.09102,136663
26.09915,141961
26.10727,144472
26.11538,138755
26.12352,143237
26.13163,135540
26.13977,127711
26.14788,139052
26.15600,134299
26.16413,137469
26.17225,132796
26.18038,135923
26.18850,132252
26.19662,131654
26.20475,121526
26.21287,124681
26.22100,119190
26.22912,112918
26.23723,115715
26.24537,121833
26.25348,116253
26.26160,117149
26.26973,112078
26.27785,113272
26.28598,107048
26.29410,104992
26.30222,108965
26.31035,103801
26.31847,106368
26.32660,101617
26.33472,100426
26.34283,96685
26.35097,96057
26.35908,98002
26.36720,93554
26.37533,102803
26.38345,96015
26.39158,103703
26.39970,96881
26.40782,102699
26.41595,101013
26.42407,98495
26.43220,94980
26.44032,91364
26.44843,90342
26.45657,90487
26.46468,92429
26.47282,91902
26.48093,90700
26.48905,87785
26.49718,89257
26.50530,85686
26.51342,81307
26.52155,81190
26.52967,80233
26.53780,81649
26.54592,78116
26.55403,83520
26.56217,80715
26.57028,73768
26.57842,73970
26.58653,75713
26.59465,77833
26.60278,73910
26.61090,71645
26.61903,70731
26.62715,73885
26.63527,73729
26.64340,69947
26.65152,69146
26.65963,72887
26.66777,74933
26.67588,75948
26.68402,69402
26.69213,72417
26.70025,68686
26.70838,68186
26.71650,65711
26.72463,68613
26.73275,65849
26.74087,62841
26.74900,65009
26.75712,62454
26.76523,61484
26.77337,63355
26.78148,67621
26.78962,70317
26.79773,68632
26.80585,70886
26.81398,75211
26.82210,69241
26.83023,68782
26.83835,62392
26.84647,63238
26.85460,65180
26.86272,63643
26.87085,57868
26.87897,58023
26.88708,58430
26.89522,59157
26.90333,57049
26.91145,56900
26.91958,56103
26.92770,53460
26.93583,58497
26.94395,57996
26.95207,60514
26.96020,56781
26.96832,60324
26.97645,68063
26.98457,81246
26.99268,100415
27.00082,128813
27.00893,158679
27.01705,197772
27.02518,214897
27.03330,220463
27.04143,212756
27.04955,206994
27.05767,198034
27.06580,162758
27.07392,150974
27.08205,134070
27.09017,120457
27.09828,112134
27.10642,100299
27.11453,102445
27.12267,102992
27.13078,98895
27.13890,91154
27.14703,90944
27.15515,82614
27.16327,83143
27.17140,84572
27.17952,79175
27.18765,75605
27.19577,79653
27.20388,80047
27.21202,71305
27.22013,72659
27.22827,70566
27.23638,69995
27.24450,71083
27.25263,74253
27.26075,62101
27.26888,73464
27.27700,60588
27.28512,59551
27.29325,58164
27.30137,57682
27.30948,58363
27.31762,57157
27.32573,54596
27.33387,56873
27.34198,55839
27.35010,52867
27.35823,64299
27.36635,57344
27.37448,55482
27.38260,58497
27.39072,51792
27.39885,55052
27.40697,57519
27.41508,50303
27.42322,49238
27.43133,48944
27.43947,47678
27.44758,52949
27.45570,49249
27.46383,51762
27.47195,48261
27.48008,50759
27.48820,49189
27.49632,50540
27.50445,45791
27.51257,55216
27.52070,53529
27.52882,55239
27.53693,57201
27.54507,53420
27.55318,51241
27.56130,53085
27.56943,53951
27.57755,54701
27.58568,62265
27.59380,67387
27.60192,75527
27.61005,70498
27.61817,72635
27.62630,64548
27.63442,57252
27.64253,51322
27.65067,56740
27.65878,45291
27.66692,49497
27.67503,47610
27.68315,47624
27.69128,48763
27.69940,50841
27.70752,48498
27.71565,47217
27.72377,46770
27.73190,47232
27.74002,45714
27.74813,43905
27.75627,44991
27.76438,45703
27.77252,46632
27.78063,45500
27.78875,48174
27.79688,49074
27.80500,47592
27.81312,47926
27.82125,47274
27.82937,46974
27.83750,46951
27.84562,44326
27.85373,45066
27.86187,42406
27.86998,44479
27.87812,46631
27.88623,43467
27.89435,43126
27.90248,44074
27.91060,42779
27.91873,43926
27.92685,41368
27.93497,42035
27.94310,40076
27.95122,42571
27.95933,41015
27.96747,41160
27.97558,44114
27.98372,43420
27.99183,46055
27.99995,42979
28.00808,46579
28.01620,44248
28.02433,47212
28.03245,49929
28.04057,53434
28.04870,56235
28.05682,58584
28.06493,59394
28.07307,55746
28.08118,50334
28.08932,53746
28.09743,52597
28.10555,49208
28.11368,48600
28.12180,44453
28.12993,44594
28.13805,41593
28.14617,43042
28.15430,41016
28.16242,40013
28.17055,47720
28.17867,47155
28.18678,54816
28.19492,55321
28.20303,67951
28.21115,66603
28.21928,74033
28.22740,69526
28.23553,68045
28.24365,66630
28.25177,64965
28.25990,54157
28.26802,47145
28.27615,47520
28.28427,43051
28.29238,41002
28.30052,45176
28.30863,47168
28.31677,49195
28.32488,54978
28.33300,55400
28.34113,60699
28.34925,62261
28.35737,62328
28.36550,67869
28.37362,69145
28.38175,73322
28.38987,79676
28.39798,74897
28.40612,79714
28.41423,81418
28.42237,78967
28.43048,76564
28.43860,81550
28.44673,72954
28.45485,71389
28.46298,65784
28.47110,62317
28.47922,60569
28.48735,59847
28.49547,56000
28.50358,58114
28.51172,53333
28.51983,57426
28.52797,56128
28.53608,50604
28.54420,51686
28.55233,48395
28.56045,50401
28.56858,48994
28.57670,49290
28.58482,47464
28.59295,48947
28.60107,48167
28.60918,49080
28.61732,50296
28.62543,51010
28.63357,48953
28.64168,51046
28.64980,50618
28.65793,51246
28.66605,53573
28.67418,50933
28.68230,52611
28.69042,47123
28.69855,48070
28.70667,47129
28.71480,47446
28.72292,48576
28.73103,49306
28.73917,56199
28.74728,59848
28.75540,60608
28.76353,62224
28.77165,58330
28.77978,56659
28.78790,50601
28.79602,56708
28.80415,51164
28.81227,51653
28.82040,54452
28.82852,51954
28.83663,49582
28.84477,47087
28.85288,47491
28.86100,47847
28.86913,48469
28.87725,52916
28.88538,54288
28.89350,62580
28.90162,64778
28.90975,62381
28.91787,59980
28.92600,55360
28.93412,50971
28.94223,50235
28.95037,46544
28.95848,51760
28.96662,47907
28.97473,51090
28.98285,46364
28.99098,41274
28.99910,41692
29.00722,42488
29.01535,44737
29.02347,42519
29.03160,44285
29.03972,44935
29.04783,43651
29.05597,40879
29.06408,44296
29.07222,46078
29.08033,46123
29.08845,47835
29.09658,47639
29.10470,44319
29.11283,47241
29.12095,40819
29.12907,40825
29.13720,42219
29.14532,42282
29.15343,42794
29.16157,44083
29.16968,47376
29.17782,49482
29.18593,57186
29.19405,70599
29.20218,77434
29.21030,85290
29.21843,92175
29.22655,94100
29.23467,85153
29.24280,79341
29.25092,69151
29.25903,67648
29.26717,65692
29.27528,68496
29.28342,60673
29.29153,58170
29.29965,52089
29.30778,49049
29.31590,47581
29.32403,42488
29.33215,42550
29.34027,40494
29.34840,40104
29.35652,39081
29.36465,41026
29.37277,39101
29.38088,39783
29.38902,37432
29.39713,43868
29.40525,41023
29.41338,40005
29.42150,36815
29.42963,44281
29.43775,38381
29.44587,41180
29.45400,38164
29.46212,39016
29.47025,43704
29.47837,40761
29.48648,40208
29.49462,40557
29.50273,43292
29.51087,39922
29.51898,44810
29.52710,42779
29.53523,38796
29.54335,39136
29.55147,38698
29.55960,38913
29.56772,38802
29.57585,37464
29.58397,34581
29.59208,35065
29.60022,36388
29.60833,38353
29.61647,39905
29.62458,39042
29.63270,35869
29.64083,38388
29.64895,37828
29.65707,35035
29.66520,36093
29.67332,39369
29.68145,40321
29.68957,42902
29.69768,44815
29.70582,45697
29.71393,41107
29.72207,42748
29.73018,40120
29.73830,40348
29.74643,37398
29.75455,36325
29.76268,40852
29.77080,37671
29.77892,32721
29.78705,39553
29.79517,36018
29.80328,35050
29.81142,31773
29.81953,34015
29.82767,37532
29.83578,36219
29.84390,36054
29.85203,37222
29.86015,37842
29.86828,40455
29.87640,52327
29.88452,54753
29.89265,68926
29.90077,78269
29.90888,81580
29.91702,73654
29.92513,60937
29.93327,52320
29.94138,44418
29.94950,38998
29.95763,43556
29.96575,42140
29.97388,46938
29.98200,45622
29.99012,43783
29.99825,49023
30.00637,53241
30.01450,49831
30.02262,50277
30.03073,54836
30.03887,53435
30.04698,54275
30.05510,54563
30.06323,52785
30.07135,54839
30.07948,57765
30.08760,53780
30.09572,57098
30.10385,50789
30.11197,55428
30.12010,51273
30.12822,50913
30.13633,51436
30.14447,51257
30.15258,49367
30.16072,44732
30.16883,47176
30.17695,47909
30.18508,48019
30.19320,44719
30.20132,44941
30.20945,42890
30.21757,43356
30.22570,41383
30.23382,41474
30.24193,41867
30.25007,40539
30.25818,39188
30.26632,39258
30.27443,41138
30.28255,37983
30.29068,39671
30.29880,37474
30.30692,40963
30.31505,42969
30.32317,42148
30.33130,40065
30.33942,40394
30.34753,39023
30.35567,42882
30.36378,35093
30.37192,37196
30.38003,37094
30.38815,40112
30.39628,42411
30.40440,44452
30.41253,37139
30.42065,36007
30.42877,38461
30.43690,35796
30.44502,34508
30.45313,38109
30.46127,35042
30.46938,34006
30.47752,33287
30.48563,36655
30.49375,36885
30.50188,37871
30.51000,34558
30.51813,36474
30.52625,36401
30.53437,36798
30.54250,38166
30.55062,36969
30.55875,39349
30.56687,38214
30.57498,37782
30.58312,36037
30.59123,35621
30.59935,36158
30.60748,32704
30.61560,38784
30.62373,34711
30.63185,34766
30.63997,36952
30.64810,34939
30.65622,36840
30.66435,33330
30.67247,36232
30.68058,34561
30.68872,35149
30.69683,33714
30.70495,32460
30.71308,38853
30.72120,36487
30.72933,33468
30.73745,35882
30.74557,38005
30.75370,34694
30.76182,37855
30.76995,40234
30.77807,45541
30.78618,58327
30.79432,69538
30.80243,84080
30.81057,90031
30.81868,94121
30.82680,85810
30.83493,71340
30.84305,59169
30.85117,52848
30.85930,46713
30.86742,42549
30.87555,40261
30.88367,39413
30.89178,35461
30.89992,36550
30.90803,38448
30.91617,37182
30.92428,39387
30.93240,37535
30.94053,34686
30.94865,34902
30.95678,34583
30.96490,36655
30.97302,34272
30.98115,36074
30.98927,43139
30.99738,42151
31.00552,40387
31.01363,45658
31.02177,43585
31.02988,52280
31.03800,47454
31.04613,50311
31.05425,51250
31.06238,53403
31.07050,52110
31.07862,57596
31.08675,58726
31.09487,59917
31.10298,69455
31.11112,69418
31.11923,67309
31.12737,69232
31.13548,64539
31.14360,62323
31.15173,62243
31.15985,57670
31.16798,57971
31.17610,68332
31.18422,71158
31.19235,84720
31.20047,101508
31.20860,119015
31.21672,143902
31.22483,163949
31.23297,158238
31.24108,151965
31.24920,121153
31.25733,101481
31.26545,79217
31.27358,71500
31.28170,63769
31.28982,60755
31.29795,58416
31.30607,58594
31.31420,58483
31.32232,57000
31.33043,56895
31.33857,58954
31.34668,59458
31.35480,55355
31.36293,56423
31.37105,56804
31.37918,59009
31.38730,55898
31.39542,60287
31.40355,56271
31.41167,52063
31.41980,54913
31.42792,50584
31.43603,51451
31.44417,49117
31.45228,49128
31.46042,54640
31.46853,50659
31.47665,48303
31.48478,51033
31.49290,51296
31.50102,48216
31.50915,55434
31.51727,49282
31.52540,49293
31.53352,48615
31.54163,52850
31.54977,48482
31.55788,48569
31.56602,48633
31.57413,49926
31.58225,47155
31.59038,47683
31.59850,48566
31.60663,48982
31.61475,46516
31.62287,47940
31.63100,49446
31.63912,50797
31.64723,48117
31.65537,51483
31.66348,48086
31.67162,49894
31.67973,48394
31.68785,54233
31.69598,52812
31.70410,46399
31.71223,47114
31.72035,41843
31.72847,44925
31.73660,40999
31.74472,44128
31.75283,42120
31.76097,47485
31.76908,42633
31.77722,43762
31.78533,46194
31.79345,48736
31.80158,43297
31.80970,46863
31.81783,43728
31.82595,48101
31.83407,42820
31.84220,46349
31.85032,44737
31.85845,45978
31.86657,43265
31.87468,49005
31.88282,50036
31.89093,54606
31.89905,52767
31.90718,52975
31.91530,55956
31.92343,58646
31.93155,58019
31.93967,65936
31.94780,61940
31.95592,58354
31.96405,60232
31.97217,59418
31.98028,59305
31.98842,64294
31.99653,59398
32.00467,59737
32.01278,62330
32.02090,57570
32.02903,57567
32.03715,57393
32.04527,55207
32.05340,55291
32.06152,54265
32.06965,58179
32.07777,52541
32.08588,52308
32.09402,50067
32.10213,50369
32.11027,48001
32.11838,43116
32.12650,46774
32.13463,45132
32.14275,44793
32.15087,47324
32.15900,43514
32.16712,43981
32.17525,45961
32.18337,42311
32.19148,43309
32.19962,45135
32.20773,38093
32.21587,44774
32.22398,45016
32.23210,42250
32.24023,41360
32.24835,45305
32.25648,45125
32.26460,49716
32.27272,49088
32.28085,45067
32.28897,42811
32.29708,42809
32.30522,39455
32.31333,41299
32.32147,42013
32.32958,43056
32.33770,41536
32.34583,37504
32.35395,44394
32.36208,42156
32.37020,43719
32.37832,41748
32.38645,39754
32.39457,41349
32.40268,42878
32.41082,39886
32.41893,41108
32.42707,35734
32.43518,37003
32.44330,35129
32.45143,37418
32.45955,34604
32.46768,40727
32.47580,38477
32.48392,40042
32.49205,38509
32.50017,37785
32.50830,37108
32.51642,37537
32.52453,40204
32.53267,37610
32.54078,39798
32.54890,39794
32.55703,39015
32.56515,37364
32.57328,37040
32.58140,43247
32.58952,41360
32.59765,39512
32.60577,39047
32.61390,38624
32.62202,38773
32.63013,42960
32.63827,43500
32.64638,48162
32.65452,47837
32.66263,46111
32.67075,47076
32.67888,47567
32.68700,41708
32.69512,42917
32.70325,42442
32.71137,38945
32.71950,41775
32.72762,40922
32.73573,42084
32.74387,36379
32.75198,38919
32.76012,34566
32.76823,35094
32.77635,36010
32.78448,34995
32.79260,40655
32.80073,36026
32.80885,40324
32.81697,36987
32.82510,36193
32.83322,34989
32.84133,36999
32.84947,36330
32.85758,37149
32.86572,37254
32.87383,33994
32.88195,37546
32.89008,35911
32.89820,42729
32.90633,45286
32.91445,42956
32.92257,39996
32.93070,38462
32.93882,38760
32.94693,37491
32.95507,39335
32.96318,38310
32.97132,42312
32.97943,44261
32.98755,50324
32.99568,52181
33.00380,54154
33.01193,56836
33.02005,54136
33.02817,50827
33.03630,48215
33.04442,45484
33.05255,47193
33.06067,45880
33.06878,47485
33.07692,47877
33.08503,46959
33.09315,48532
33.10128,51841
33.10940,50804
33.11753,52965
33.12565,52340
33.13377,51416
33.14190,47493
33.15002,48379
33.15815,43882
33.16627,45508
33.17438,45028
33.18252,39784
33.19063,37970
33.19875,40591
33.20688,40239
33.21500,41480
33.22313,39883
33.23125,39741
33.23937,38359
33.24750,38286
33.25562,42135
33.26375,38421
33.27187,37641
33.27998,38651
33.28812,38788
33.29623,39499
33.30437,35585
33.31248,36237
33.32060,38734
33.32873,41254
33.33685,39128
33.34497,41923
33.35310,40815
33.36122,41243
33.36935,40486
33.37747,39956
33.38558,40375
33.39372,41126
33.40183,38225
33.40997,35910
33.41808,39827
33.42620,37215
33.43433,36296
33.44245,34688
33.45058,36273
33.45870,37157
33.46682,35450
33.47495,35778
33.48307,38101
33.49118,38798
33.49932,37272
33.50743,39469
33.51557,35111
33.52368,37034
33.53180,42095
33.53993,44429
33.54805,45747
33.55618,49567
33.56430,45447
33.57242,43870
33.58055,41838
33.58867,41294
33.59678,42681
33.60492,38127
33.61303,36904
33.62117,35590
33.62928,34793
33.63740,39156
33.64553,40999
33.65365,38503
33.66178,42397
33.66990,41917
33.67802,41041
33.68615,39398
33.69427,40940
33.70240,41966
33.71052,36174
33.71863,38154
33.72677,37174
33.73488,38305
33.74300,37080
33.75113,39340
33.75925,40414
33.76738,37666
33.77550,34892
33.78362,37363
33.79175,37281
33.79987,39312
33.80800,38854
33.81612,38297
33.82423,39415
33.83237,37940
33.84048,38056
33.84862,40700
33.85673,39151
33.86485,38283
33.87298,38674
33.88110,38025
33.88922,36892
33.89735,37204
33.90547,42290
33.91360,39882
33.92172,41113
33.92983,42683
33.93797,43207
33.94608,40480
33.95422,42373
33.96233,41963
33.97045,41584
33.97858,44338
33.98670,44697
33.99482,44523
34.00295,46479
34.01107,48447
34.01920,49124
34.02732,52208
34.03543,47782
34.04357,52909
34.05168,44108
34.05982,51808
34.06793,48659
34.07605,50961
34.08418,53223
34.09230,53149
34.10043,52039
34.10855,51672
34.11667,56168
34.12480,53693
34.13292,56397
34.14103,53129
34.14917,55049
34.15728,57640
34.16542,58502
34.17353,51695
34.18165,48988
34.18978,53696
34.19790,53042
34.20603,50622
34.21415,48919
34.22227,50621
34.23040,49633
34.23852,49519
34.24663,46449
34.25477,47942
34.26288,43519
34.27102,52732
34.27913,41850
34.28725,45819
34.29538,45793
34.30350,46971
34.31163,48509
34.31975,45210
34.32787,46137
34.33600,43660
34.34412,46976
34.35225,46861
34.36037,44715
34.36848,48009
34.37662,43232
34.38473,43260
34.39285,44200
34.40098,47803
34.40910,43573
34.41723,43903
34.42535,42381
34.43347,42905
34.44160,42449
34.44972,40703
34.45785,40789
34.46597,40914
34.47408,40682
34.48222,41841
34.49033,42091
34.49847,42303
34.50658,46357
34.51470,52737
34.52283,54948
34.53095,53743
34.53907,55525
34.54720,59811
34.55532,62001
34.56345,56867
34.57157,57865
34.57968,54963
34.58782,53374
34.59593,53058
34.60407,51272
34.61218,51722
34.62030,46757
34.62843,46339
34.63655,46864
34.64467,45004
34.65280,48721
34.66092,47780
34.66905,45482
34.67717,45455
34.68528,47128
34.69342,45148
34.70153,45259
34.70967,49529
34.71778,44159
34.72590,44594
34.73403,45973
34.74215,43717
34.75028,44309
34.75840,46593
34.76652,46506
34.77465,47366
34.78277,43278
34.79088,47296
34.79902,49013
34.80713,45246
34.81527,46407
34.82338,46203
34.83150,50974
34.83963,47496
34.84775,53802
34.85588,48712
34.86400,49452
34.87212,49676
34.88025,52300
34.88837,50107
34.89650,48516
34.90462,50213
34.91273,52067
34.92087,50392
34.92898,50858
34.93710,51267
34.94523,49078
34.95335,51213
34.96148,53516
34.96960,52991
34.97772,53800
34.98585,51859
34.99397,50284
35.00210,47732
35.01022,49734
35.01833,45076
35.02647,46978
35.03458,42144
35.04270,43913
35.05083,40655
35.05895,45477
35.06708,45974
35.07520,44348
35.08332,45269
35.09145,40786
35.09957,44142
35.10770,40616
35.11582,44798
35.12393,42822
35.13207,41564
35.14018,43875
35.14832,41435
35.15643,42828
35.16455,42842
35.17268,47340
35.18080,47729
35.18892,46490
35.19705,41910
35.20517,41731
35.21330,43010
35.22142,40789
35.22953,42075
35.23767,40870
35.24578,43215
35.25392,45710
35.26203,40992
35.27015,44384
35.27828,43570
35.28640,41740
35.29452,42241
35.30265,40901
35.31077,40938
35.31890,43254
35.32702,43124
35.33513,42604
35.34327,37633
35.35138,39035
35.35952,43599
35.36763,42801
35.37575,37799
35.38388,44663
35.39200,43317
35.40013,44353
35.40825,43415
35.41637,45157
35.42450,42194
35.43262,44507
35.44073,42450
35.44887,43387
35.45698,42589
35.46512,44248
35.47323,43842
35.48135,44718
35.48948,43813
35.49760,39731
35.50573,43462
35.51385,42065
35.52197,42852
35.53010,41884
35.53822,43121
35.54635,39541
35.55447,47114
35.56258,43575
35.57072,42117
35.57883,42542
35.58695,39479
35.59508,40152
35.60320,45992
35.61133,43851
35.61945,44346
35.62757,49231
35.63570,44167
35.64382,41451
35.65195,41132
35.66007,42831
35.66818,45353
35.67632,43605
35.68443,43631
35.69255,40817
35.70068,39836
35.70880,43552
35.71693,44684
35.72505,44633
35.73317,43291
35.74130,46032
35.74942,44348
35.75755,47578
35.76567,43888
35.77378,44484
35.78192,44425
35.79003,45589
35.79817,42469
35.80628,43134
35.81440,44407
35.82253,46663
35.83065,40252
35.83877,41018
35.84690,41215
35.85502,41309
35.86315,44354
35.87127,42562
35.87938,45328
35.88752,46046
35.89563,44283
35.90377,40448
35.91188,40525
35.92000,44274
35.92813,40024
35.93625,40862
35.94438,41333
35.95250,44746
35.96062,43641
35.96875,45295
35.97687,45360
35.98498,46533
35.99312,46106
36.00123,48358
36.00937,42319
36.01748,43367
36.02560,44642
36.03373,50650
36.04185,43977
36.04998,49005
36.05810,48256
36.06622,44964
36.07435,41784
36.08247,46455
36.09058,47124
36.09872,43181
36.10683,43852
36.11497,42126
36.12308,45673
36.13120,44056
36.13933,43902
36.14745,45035
36.15558,41953
36.16370,43854
36.17182,43681
36.17995,44944
36.18807,45749
36.19620,43099
36.20432,41620
36.21243,43940
36.22057,43200
36.22868,44343
36.23680,44233
36.24493,42536
36.25305,43689
36.26118,44148
36.26930,45174
36.27742,49282
36.28555,55617
36.29367,56013
36.30180,51903
36.30992,52438
36.31803,54105
36.32617,47524
36.33428,47015
36.34242,48209
36.35053,45542
36.35865,47833
36.36678,42928
36.37490,43402
36.38302,43941
36.39115,45143
36.39927,44215
36.40740,44196
36.41552,44417
36.42363,44305
36.43177,44019
36.43988,47077
36.44802,45409
36.45613,41320
36.46425,46723
36.47238,43569
36.48050,44836
36.48862,42254
36.49675,43132
36.50487,43122
36.51300,45512
36.52112,46027
36.52923,44068
36.53737,41392
36.54548,44950
36.55362,44385
36.56173,41281
36.56985,47626
36.57798,38732
36.58610,46007
36.59423,44861
36.60235,43068
36.61047,44862
36.61860,48067
36.62672,46214
36.63483,45292
36.64297,49360
36.65108,47913
36.65922,50506
36.66733,52308
36.67545,46637
36.68358,45344
36.69170,45918
36.69983,47724
36.70795,49020
36.71607,49733
36.72420,49667
36.73232,52469
36.74043,51429
36.74857,50943
36.75668,53028
36.76482,49529
36.77293,50282
36.78105,54780
36.78918,48560
36.79730,51384
36.80543,51178
36.81355,49138
36.82167,49720
36.82980,49886
36.83792,48726
36.84605,54897
36.85417,47021
36.86228,47657
36.87042,51189
36.87853,46452
36.88665,50633
36.89478,50275
36.90290,46773
36.91103,50416
36.91915,49917
36.92727,49354
36.93540,56954
36.94352,54442
36.95165,63555
36.95977,63632
36.96788,61007
36.97602,64503
36.98413,61229
36.99227,63050
37.00038,57820
37.00850,56111
37.01663,52364
37.02475,51663
37.03287,51272
37.04100,52862
37.04912,52306
37.05725,49128
37.06537,48289
37.07348,49224
37.08162,52461
37.08973,47804
37.09787,48952
37.10598,52287
37.11410,50914
37.12223,46365
37.13035,48788
37.13847,48902
37.14660,50953
37.15472,47830
37.16285,48339
37.17097,48545
37.17908,50236
37.18722,49380
37.19533,47771
37.20347,51149
37.21158,50822
37.21970,48882
37.22783,48354
37.23595,51294
37.24408,47067
37.25220,48282
37.26032,47440
37.26845,49205
37.27657,47564
37.28468,49901
37.29282,52481
37.30093,52467
37.30907,57730
37.31718,60970
37.32530,58912
37.33343,64275
37.34155,64608
37.34968,67483
37.35780,64932
37.36592,66176
37.37405,62924
37.38217,58891
37.39030,57336
37.39842,60061
37.40653,58167
37.41467,59143
37.42278,53260
37.43090,54367
37.43903,55661
37.44715,54109
37.45528,54848
37.46340,58701
37.47152,56645
37.47965,55183
37.48777,53699
