Z:\data\JTB-E02\BACandBLUE\JTB-E02-194-12.D Thu Dec 20 10:58:01 2018
Start of data points
2.09532,87470
2.10345,88101
2.11157,85688
2.11970,82331
2.12782,74905
2.13593,77989
2.14407,78634
2.15218,76628
2.16032,78862
2.16843,81369
2.17655,73972
2.18468,79398
2.19280,73055
2.20092,73161
2.20905,74173
2.21717,71498
2.22530,68936
2.23342,74695
2.24153,67021
2.24967,65598
2.25778,68472
2.26592,132550
2.27403,657826
2.28215,1673183
2.29028,1817112
2.29840,972751
2.30653,602477
2.31465,474443
2.32277,395087
2.33090,339507
2.33902,303245
2.34713,284309
2.35527,263316
2.36338,239769
2.37152,241071
2.37963,230162
2.38775,230396
2.39588,227266
2.40400,217767
2.41213,220855
2.42025,212150
2.42837,215045
2.43650,210723
2.44462,198602
2.45273,192058
2.46087,188482
2.46898,183978
2.47712,178773
2.48523,182214
2.49335,181236
2.50148,186746
2.50960,186746
2.51773,181016
2.52585,177577
2.53397,172463
2.54210,168464
2.55022,167846
2.55835,171156
2.56647,172377
2.57458,170311
2.58272,157609
2.59083,147794
2.59895,148829
2.60708,206711
2.61520,438429
2.62333,622813
2.63145,484512
2.63957,328873
2.64770,253697
2.65582,211905
2.66395,191467
2.67207,172401
2.68018,162151
2.68832,153258
2.69643,155221
2.70457,146294
2.71268,145943
2.72080,139460
2.72893,133148
2.73705,132629
2.74517,138236
2.75330,130314
2.76142,134796
2.76955,138289
2.77767,180985
2.78578,458077
2.79392,942828
2.80203,975903
2.81017,591658
2.81828,400838
2.82640,357635
2.83453,330390
2.84265,271390
2.85077,225181
2.85890,209602
2.86702,190971
2.87515,178954
2.88327,166844
2.89138,159692
2.89952,149523
2.90763,149168
2.91577,142933
2.92388,135321
2.93200,132568
2.94013,132209
2.94825,132181
2.95638,125691
2.96450,135666
2.97262,146115
2.98075,151356
2.98887,144053
2.99698,135099
3.00512,135610
3.01323,141244
3.02137,137162
3.02948,134090
3.03760,124919
3.04573,126663
3.05385,123221
3.06198,118999
3.07010,117301
3.07822,121376
3.08635,170180
3.09447,432463
3.10260,1131520
3.11072,2851590
3.11883,5428266
3.12697,6111306
3.13508,4314332
3.14320,2714418
3.15133,1964026
3.15945,1518439
3.16758,1226163
3.17570,1065239
3.18382,1061591
3.19195,1511985
3.20007,3241181
3.20820,4963204
3.21632,4466316
3.22443,3075763
3.23257,2261685
3.24068,1807445
3.24880,1508242
3.25693,1288031
3.26505,1114669
3.27318,975520
3.28130,858626
3.28942,784062
3.29755,777016
3.30567,1209890
3.31380,2648314
3.32192,4789066
3.33003,5816391
3.33817,5117654
3.34628,3835352
3.35442,2914831
3.36253,2265537
3.37065,1913328
3.37878,1626598
3.38690,1424787
3.39502,1279057
3.40315,1156395
3.41127,1065509
3.41940,973506
3.42752,912412
3.43563,849415
3.44377,820148
3.45188,790630
3.46002,753717
3.46813,724775
3.47625,844751
3.48438,1018891
3.49250,1031486
3.50062,859798
3.50875,675146
3.51687,597280
3.52500,549478
3.53312,533721
3.54123,527689
3.54937,567800
3.55748,582244
3.56562,543331
3.57373,479647
3.58185,428209
3.58998,407902
3.59810,377149
3.60623,363515
3.61435,345610
3.62247,334030
3.63060,346299
3.63872,342248
3.64683,342543
3.65497,343215
3.66308,396100
3.67122,1222923
3.67933,6727589
3.68745,2.054668E+07
3.69558,3.299517E+07
3.70370,3.362426E+07
3.71183,2.467869E+07
3.71995,1.633218E+07
3.72807,1.23053E+07
3.73620,9995842
3.74432,8409716
3.75245,7282883
3.76057,6429879
3.76868,5752958
3.77682,5206068
3.78493,4614079
3.79305,4169858
3.80118,3867027
3.80930,3663717
3.81743,3604061
3.82555,3849203
3.83367,4073822
3.84180,3880004
3.84992,3364745
3.85805,2985141
3.86617,2729871
3.87428,2533332
3.88242,2350500
3.89053,2237829
3.89865,2134427
3.90678,2022158
3.91490,1914438
3.92303,1880012
3.93115,1985004
3.93927,2324181
3.94740,2559723
3.95552,2346805
3.96365,1974499
3.97177,1779515
3.97988,1880593
3.98802,1886142
3.99613,1641505
4.00427,1390133
4.01238,1411044
4.02050,1803661
4.02863,2404909
4.03675,2525773
4.04487,2143120
4.05300,1653411
4.06112,1350785
4.06925,1202807
4.07737,1126868
4.08548,1043856
4.09362,985040
4.10173,956657
4.10987,912018
4.11798,862366
4.12610,831801
4.13423,798791
4.14235,765416
4.15048,761364
4.15860,777409
4.16672,813338
4.17485,808600
4.18297,792814
4.19108,781856
4.19922,765478
4.20733,734865
4.21547,780078
4.22358,1557854
4.23170,4950596
4.23983,1.224504E+07
4.24795,2.131749E+07
4.25608,2.833185E+07
4.26420,3.325994E+07
4.27232,3.677562E+07
4.28045,3.748477E+07
4.28857,3.049101E+07
4.29668,1.597283E+07
4.30482,1.006128E+07
4.31293,7746367
4.32107,6173429
4.32918,5066366
4.33730,4319735
4.34543,3736327
4.35355,3281948
4.36168,2906628
4.36980,2655364
4.37792,2486510
4.38605,2405880
4.39417,2276785
4.40230,2014413
4.41042,1787607
4.41853,1614974
4.42667,1490532
4.43478,1367315
4.44290,1289574
4.45103,1214708
4.45915,1131869
4.46728,1049859
4.47540,964108
4.48352,883203
4.49165,791448
4.49977,739938
4.50790,677345
4.51602,640744
4.52413,624553
4.53227,600605
4.54038,604674
4.54850,615033
4.55663,629434
4.56475,651834
4.57288,678933
4.58100,667545
4.58912,659376
4.59725,633881
4.60537,625557
4.61350,624492
4.62162,594455
4.62973,581216
4.63787,637317
4.64598,842922
4.65412,1265054
4.66223,1671466
4.67035,1675022
4.67848,1331642
4.68660,971238
4.69472,797826
4.70285,717710
4.71097,658831
4.71910,596015
4.72722,554612
4.73533,529046
4.74347,519715
4.75158,494376
4.75972,477647
4.76783,479763
4.77595,467210
4.78408,447761
4.79220,437690
4.80033,432640
4.80845,470041
4.81657,556903
4.82470,670673
4.83282,703496
4.84093,640137
4.84907,586221
4.85718,595859
4.86532,653366
4.87343,699584
4.88155,670694
4.88968,607503
4.89780,517129
4.90593,486514
4.91405,459717
4.92217,432314
4.93030,431097
4.93842,406700
4.94653,405679
4.95467,436218
4.96278,583571
4.97092,1078323
4.97903,1984136
4.98715,2993763
4.99528,3382464
5.00340,3071872
5.01153,2417932
5.01965,1820623
5.02777,1422840
5.03590,1235850
5.04402,1247546
5.05215,1552250
5.06027,1969990
5.06838,2120225
5.07652,1921784
5.08463,1573204
5.09275,1328101
5.10088,1174917
5.10900,1070051
5.11713,960954
5.12525,917604
5.13337,837777
5.14150,767140
5.14962,732158
5.15775,704164
5.16587,717313
5.17398,812192
5.18212,1001999
5.19023,1122903
5.19837,1082677
5.20648,982831
5.21460,900456
5.22273,919163
5.23085,977686
5.23897,965176
5.24710,878184
5.25522,802444
5.26335,792431
5.27147,739556
5.27958,644299
5.28772,539757
5.29583,492183
5.30397,483479
5.31208,447115
5.32020,450101
5.32833,458938
5.33645,434667
5.34457,442176
5.35270,447135
5.36082,465394
5.36895,465352
5.37707,455410
5.38518,424757
5.39332,404628
5.40143,404130
5.40957,399706
5.41768,420191
5.42580,420155
5.43393,425438
5.44205,404822
5.45018,391695
5.45830,391403
5.46642,409680
5.47455,438149
5.48267,443473
5.49078,425761
5.49892,391697
5.50703,373144
5.51517,353328
5.52328,340203
5.53140,336807
5.53953,336930
5.54765,329607
5.55578,333092
5.56390,347392
5.57202,362630
5.58015,450002
5.58827,579077
5.59638,712374
5.60452,716840
5.61263,614687
5.62077,492790
5.62888,411098
5.63700,372000
5.64513,349216
5.65325,343378
5.66138,345065
5.66950,339967
5.67762,324221
5.68575,328014
5.69387,333173
5.70200,363187
5.71012,435829
5.71823,505143
5.72637,529014
5.73448,497369
5.74260,413922
5.75073,359179
5.75885,334146
5.76698,313300
5.77510,303231
5.78322,296920
5.79135,289278
5.79947,282496
5.80760,276345
5.81572,276499
5.82383,272051
5.83197,271371
5.84008,264158
5.84822,273071
5.85633,276214
5.86445,272971
5.87258,266399
5.88070,262544
5.88882,263091
5.89695,252019
5.90507,253028
5.91320,248565
5.92132,228019
5.92943,223967
5.93757,232633
5.94568,240260
5.95382,254541
5.96193,260026
5.97005,299502
5.97818,370074
5.98630,514874
5.99443,654228
6.00255,894477
6.01067,1098061
6.01880,1251451
6.02692,1200706
6.03503,1009389
6.04317,742721
6.05128,553069
6.05942,416311
6.06753,347200
6.07565,303199
6.08378,278785
6.09190,266557
6.10003,254015
6.10815,239231
6.11627,242719
6.12440,223171
6.13252,231453
6.14063,266323
6.14877,417044
6.15688,762591
6.16502,1243455
6.17313,1507314
6.18125,1388999
6.18938,1053477
6.19750,760941
6.20563,601471
6.21375,499208
6.22187,435661
6.23000,397887
6.23812,377509
6.24625,351731
6.25437,344455
6.26248,336181
6.27062,335092
6.27873,331816
6.28685,346614
6.29498,334176
6.30310,316822
6.31123,291382
6.31935,289827
6.32747,276065
6.33560,270698
6.34372,267487
6.35185,270699
6.35997,286391
6.36808,292328
6.37622,277316
6.38433,287095
6.39245,277107
6.40058,283877
6.40870,277424
6.41683,274681
6.42495,271183
6.43307,263275
6.44120,265570
6.44932,257079
6.45745,258787
6.46557,267937
6.47368,270302
6.48182,270418
6.48993,274231
6.49807,275392
6.50618,272834
6.51430,286123
6.52243,269357
6.53055,277300
6.53867,285337
6.54680,278899
6.55492,278680
6.56305,277645
6.57117,268903
6.57928,271298
6.58742,321033
6.59553,407934
6.60367,508885
6.61178,561631
6.61990,507570
6.62803,417693
6.63615,349651
6.64428,324437
6.65240,314576
6.66052,294951
6.66865,283367
6.67677,282819
6.68488,280195
6.69302,236366
6.70113,222646
6.70927,208574
6.71738,197375
6.72550,192632
6.73363,194646
6.74175,185934
6.74988,190848
6.75800,188040
6.76612,188690
6.77425,180517
6.78237,178709
6.79048,184534
6.79862,174185
6.80673,179184
6.81487,170479
6.82298,166099
6.83110,161880
6.83923,165157
6.84735,160245
6.85548,160321
6.86360,156583
6.87172,156324
6.87985,170864
6.88797,201609
6.89610,225423
6.90422,236207
6.91233,212545
6.92047,184272
6.92858,162723
6.93670,142338
6.94483,138789
6.95295,134070
6.96108,126716
6.96920,119202
6.97732,119398
6.98545,130641
6.99357,146147
7.00170,161943
7.00982,169518
7.01793,164310
7.02607,152564
7.03418,147805
7.04232,152772
7.05043,149521
7.05855,145360
7.06668,132846
7.07480,131860
7.08292,134150
7.09105,147168
7.09917,172557
7.10730,179778
7.11542,178433
7.12353,161535
7.13167,146002
7.13978,133615
7.14792,120353
7.15603,119046
7.16415,133598
7.17228,161625
7.18040,206262
7.18852,232986
7.19665,255386
7.20477,314132
7.21290,736002
7.22102,2092249
7.22913,4970051
7.23727,8771792
7.24538,1.141288E+07
7.25352,1.097574E+07
7.26163,7695440
7.26975,4040409
7.27788,1780899
7.28600,743963
7.29413,320833
7.30225,198548
7.31037,171424
7.31850,172046
7.32662,171064
7.33473,177668
7.34287,197147
7.35098,236387
7.35912,280279
7.36723,315961
7.37535,319897
7.38348,294127
7.39160,237867
7.39973,200304
7.40785,176678
7.41597,152635
7.42410,149284
7.43222,153904
7.44033,138145
7.44847,141252
7.45658,134185
7.46472,130923
7.47283,136829
7.48095,137240
7.48908,140074
7.49720,134264
7.50533,131786
7.51345,128447
7.52157,116377
7.52970,116055
7.53782,124051
7.54595,140629
7.55407,211349
7.56218,367165
7.57032,710017
7.57843,1266948
7.58655,1892547
7.59468,2396264
7.60280,2541285
7.61093,2276570
7.61905,1744431
7.62717,1188797
7.63530,761710
7.64342,496339
7.65155,338333
7.65967,255583
7.66778,212020
7.67592,188063
7.68403,164178
7.69217,149973
7.70028,131676
7.70840,125497
7.71653,117896
7.72465,117749
7.73277,112786
7.74090,122982
7.74902,132854
7.75715,140056
7.76527,141135
7.77338,144110
7.78152,152264
7.78963,141573
7.79777,140082
7.80588,138538
7.81400,136800
7.82213,137036
7.83025,159122
7.83837,184168
7.84650,196976
7.85462,173950
7.86275,153931
7.87087,129830
7.87898,123285
7.88712,120997
7.89523,126704
7.90337,148679
7.91148,161741
7.91960,188151
7.92773,191685
7.93585,202243
7.94398,186974
7.95210,174441
7.96022,188159
7.96835,214170
7.97647,228896
7.98458,234003
7.99272,233226
8.00083,206967
8.00897,179782
8.01708,152029
8.02520,130780
8.03333,123133
8.04145,109663
8.04958,108784
8.05770,102687
8.06582,107859
8.07395,100742
8.08207,101760
8.09020,99571
8.09832,96920
8.10643,95953
8.11457,95919
8.12268,95133
8.13080,91706
8.13893,97252
8.14705,101960
8.15518,128151
8.16330,184331
8.17142,266918
8.17955,312064
8.18767,309640
8.19580,275546
8.20392,213037
8.21203,163980
8.22017,141432
8.22828,122871
8.23640,109171
8.24453,108471
8.25265,102901
8.26078,95869
8.26890,93027
8.27702,92932
8.28515,89948
8.29327,89962
8.30140,89207
8.30952,82850
8.31763,85688
8.32577,85098
8.33388,93033
8.34202,95695
8.35013,95719
8.35825,99312
8.36638,100785
8.37450,98477
8.38262,88042
8.39075,89230
8.39887,85644
8.40700,76954
8.41512,76656
8.42323,80867
8.43137,76680
8.43948,80238
8.44762,75874
8.45573,75769
8.46385,73062
8.47198,79599
8.48010,73858
8.48823,77608
8.49635,73359
8.50447,77180
8.51260,73736
8.52072,74007
8.52883,76069
8.53697,80485
8.54508,113975
8.55322,183176
8.56133,251268
8.56945,310708
8.57758,281902
8.58570,223280
8.59383,146787
8.60195,102656
8.61007,91154
8.61820,95209
8.62632,111670
8.63443,137373
8.64257,154363
8.65068,169860
8.65882,167463
8.66693,147893
8.67505,125828
8.68318,105231
8.69130,96843
8.69943,86265
8.70755,84468
8.71567,75952
8.72380,80940
8.73192,76899
8.74005,76185
8.74817,74748
8.75628,76437
8.76442,76155
8.77253,75768
8.78065,83974
8.78878,111757
8.79690,214643
8.80503,446949
8.81315,821907
8.82127,1227078
8.82940,1404841
8.83752,1294107
8.84565,973532
8.85377,680119
8.86188,488470
8.87002,402513
8.87813,351367
8.88625,310363
8.89438,273553
8.90250,254092
8.91063,241772
8.91875,230818
8.92687,228752
8.93500,223203
8.94312,248814
8.95125,326252
8.95937,433085
8.96748,501307
8.97562,512960
8.98373,430476
8.99187,333048
8.99998,276481
9.00810,262861
9.01623,258665
9.02435,258463
9.03247,223322
9.04060,211804
9.04872,186716
9.05685,180594
9.06497,168980
9.07308,161603
9.08122,157211
9.08933,156168
9.09747,154986
9.10558,152018
9.11370,156030
9.12183,172694
9.12995,195089
9.13808,241577
9.14620,272784
9.15432,267863
9.16245,247434
9.17057,220613
9.17868,189559
9.18682,178401
9.19493,167035
9.20307,165137
9.21118,150405
9.21930,137442
9.22743,141286
9.23555,144984
9.24368,132778
9.25180,138423
9.25992,140819
9.26805,154548
9.27617,137644
9.28428,136328
9.29242,132995
9.30053,127763
9.30867,124975
9.31678,121997
9.32490,126314
9.33303,127543
9.34115,120691
9.34928,118193
9.35740,116666
9.36552,114289
9.37365,110429
9.38177,110041
9.38990,109296
9.39802,110713
9.40613,114240
9.41427,117189
9.42238,121013
9.43050,142778
9.43863,161767
9.44675,194830
9.45488,233604
9.46300,273823
9.47112,315745
9.47925,305552
9.48737,274889
9.49550,225682
9.50362,181341
9.51173,152986
9.51987,128656
9.52798,125529
9.53612,127397
9.54423,144352
9.55235,167445
9.56048,159805
9.56860,151543
9.57672,137465
9.58485,123426
9.59297,109077
9.60110,103548
9.60922,95015
9.61733,95123
9.62547,94086
9.63358,87015
9.64172,86162
9.64983,85256
9.65795,78092
9.66608,77439
9.67420,79369
9.68232,80553
9.69045,76586
9.69857,76436
9.70670,75536
9.71482,76526
9.72293,73969
9.73107,74258
9.73918,87257
9.74732,88491
9.75543,88374
9.76355,88299
9.77168,79855
9.77980,72525
9.78793,77230
9.79605,76819
9.80417,72369
9.81230,70688
9.82042,75659
9.82853,72444
9.83667,74700
9.84478,72012
9.85292,74789
9.86103,71021
9.86915,72998
9.87728,70940
9.88540,73871
9.89353,75407
9.90165,70973
9.90977,73475
9.91790,68636
9.92602,65117
9.93413,71577
9.94227,65891
9.95038,71682
9.95852,79933
9.96663,108329
9.97475,146381
9.98288,182343
9.99100,218684
9.99913,227462
10.00725,207649
10.01537,169524
10.02350,136996
10.03162,126121
10.03975,117033
10.04787,119135
10.05598,114009
10.06412,113240
10.07223,120904
10.08035,122138
10.08848,122298
10.09660,124825
10.10473,125915
10.11285,112855
10.12097,112255
10.12910,105587
10.13722,107192
10.14535,102530
10.15347,97593
10.16158,97447
10.16972,102250
10.17783,97680
10.18597,94995
10.19408,96110
10.20220,95177
10.21033,90325
10.21845,86990
10.22657,91842
10.23470,90046
10.24282,90191
10.25095,93466
10.25907,98400
10.26718,112097
10.27532,143001
10.28343,291078
10.29157,740014
10.29968,1879260
10.30780,3916229
10.31593,6786601
10.32405,1.006065E+07
10.33218,1.318643E+07
10.34030,1.712752E+07
10.34842,2.203808E+07
10.35655,2.862736E+07
10.36467,3.634552E+07
10.37278,4.448623E+07
10.38092,5.05157E+07
10.38903,5.043166E+07
10.39717,3.818393E+07
10.40528,1.854108E+07
10.41340,6707225
10.42153,2944311
10.42965,1828477
10.43778,1361487
10.44590,1087004
10.45402,911648
10.46215,835309
10.47027,768689
10.47838,752885
10.48652,721012
10.49463,685728
10.50277,650816
10.51088,567696
10.51900,510855
10.52713,472718
10.53525,453153
10.54338,430827
10.55150,427489
10.55962,403070
10.56775,414106
10.57587,411042
10.58400,403412
10.59212,403539
10.60023,388895
10.60837,379024
10.61648,351611
10.62460,351298
10.63273,327191
10.64085,300787
10.64898,295229
10.65710,275818
10.66522,270818
10.67335,253740
10.68147,252710
10.68960,249456
10.69772,245680
10.70583,240224
10.71397,237535
10.72208,243227
10.73020,238108
10.73833,231317
10.74645,232210
10.75458,232016
10.76270,227450
10.77082,224846
10.77895,212387
10.78707,208015
10.79520,200283
10.80332,196205
10.81143,190549
10.81957,187681
10.82768,185786
10.83582,187643
10.84393,191753
10.85205,189410
10.86018,174463
10.86830,174571
10.87642,163973
10.88455,152161
10.89267,160263
10.90080,150243
10.90892,152853
10.91703,148589
10.92517,144676
10.93328,145817
10.94142,149478
10.94953,141642
10.95765,146800
10.96578,137635
10.97390,134897
10.98203,143984
10.99015,131946
10.99827,136755
11.00640,135868
11.01452,132856
11.02263,139098
11.03077,134419
11.03888,142721
11.04702,130597
11.05513,132169
11.06325,134390
11.07138,125693
11.07950,131092
11.08763,127165
11.09575,130319
11.10387,134814
11.11200,148747
11.12012,150772
11.12823,135434
11.13637,130360
11.14448,126605
11.15262,113262
11.16073,101313
11.16885,95839
11.17698,89797
11.18510,93866
11.19323,93844
11.20135,99891
11.20947,99546
11.21760,103826
11.22572,98356
11.23385,101422
11.24197,94533
11.25008,90096
11.25822,89868
11.26633,88636
11.27445,80446
11.28258,84868
11.29070,77992
11.29883,73720
11.30695,79619
11.31507,77472
11.32320,94473
11.33132,137071
11.33945,243599
11.34757,474352
11.35568,806923
11.36382,1227554
11.37193,1520649
11.38007,1535532
11.38818,1359627
11.39630,1022317
11.40443,721866
11.41255,518839
11.42067,426188
11.42880,363542
11.43692,312968
11.44505,278790
11.45317,236529
11.46128,210260
11.46942,177517
11.47753,167072
11.48567,154451
11.49378,157028
11.50190,167727
11.51003,206840
11.51815,281546
11.52627,345985
11.53440,407439
11.54252,436900
11.55065,414270
11.55877,355065
11.56688,325188
11.57502,268298
11.58313,241523
11.59127,220599
11.59938,214194
11.60750,220607
11.61563,252984
11.62375,363186
11.63188,532910
11.64000,724965
11.64812,807868
11.65625,740304
11.66437,605926
11.67248,433365
11.68062,298542
11.68873,206713
11.69687,164226
11.70498,148119
11.71310,140518
11.72123,138865
11.72935,135585
11.73748,145930
11.74560,159440
11.75372,164897
11.76185,159600
11.76997,147842
11.77808,124500
11.78622,117273
11.79433,111103
11.80247,104642
11.81058,96083
11.81870,95878
11.82683,92859
11.83495,85006
11.84308,85758
11.85120,83234
11.85932,89310
11.86745,81588
11.87557,82637
11.88370,78238
11.89182,79875
11.89993,88158
11.90807,77719
11.91618,72965
11.92430,75099
11.93243,79755
11.94055,82833
11.94868,90983
11.95680,95125
11.96492,94362
11.97305,90794
11.98117,79912
11.98930,75275
11.99742,71455
12.00553,72223
12.01367,62240
12.02178,72488
12.02992,71155
12.03803,66627
12.04615,65605
12.05428,70304
12.06240,69135
12.07052,71165
12.07865,71114
12.08677,75906
12.09490,70371
12.10302,75521
12.11113,78467
12.11927,84331
12.12738,92317
12.13552,112456
12.14363,149352
12.15175,193684
12.15988,242898
12.16800,256018
12.17612,240549
12.18425,205207
12.19237,167174
12.20050,141377
12.20862,134875
12.21673,131759
12.22487,140996
12.23298,132776
12.24112,125812
12.24923,125784
12.25735,119426
12.26548,124316
12.27360,117655
12.28173,115251
12.28985,112158
12.29797,114291
12.30610,108249
12.31422,107015
12.32233,103746
12.33047,105069
12.33858,101091
12.34672,101099
12.35483,97749
12.36295,105633
12.37108,101935
12.37920,98228
12.38733,100728
12.39545,100295
12.40357,104908
12.41170,115316
12.41982,153658
12.42795,240617
12.43607,390921
12.44418,577043
12.45232,703463
12.46043,714626
12.46855,608127
12.47668,461403
12.48480,329163
12.49293,237712
12.50105,181972
12.50917,157481
12.51730,144260
12.52542,133206
12.53355,119170
12.54167,121017
12.54978,136837
12.55792,151658
12.56603,197994
12.57415,262117
12.58228,312723
12.59040,340889
12.59853,318415
12.60665,261585
12.61477,200619
12.62290,160403
12.63102,142890
12.63915,120044
12.64727,116578
12.65538,108606
12.66352,107192
12.67163,104753
12.67977,106783
12.68788,104024
12.69600,104558
12.70413,101883
12.71225,93206
12.72037,96199
12.72850,95761
12.73662,89722
12.74475,94655
12.75287,98561
12.76098,105784
12.76912,111995
12.77723,113481
12.78537,103318
12.79348,95122
12.80160,92074
12.80973,81893
12.81785,78255
12.82597,76512
12.83410,75239
12.84222,69796
12.85035,66266
12.85847,59020
12.86658,59827
12.87472,60118
12.88283,59775
12.89097,61276
12.89908,60773
12.90720,58688
12.91533,58088
12.92345,58144
12.93158,59448
12.93970,54461
12.94782,54625
12.95595,54356
12.96407,57882
12.97218,60038
12.98032,65869
12.98843,70113
12.99657,78572
13.00468,87384
13.01280,85568
13.02093,81084
13.02905,81470
13.03718,65603
13.04530,61851
13.05342,62445
13.06155,62049
13.06967,60433
13.07780,60128
13.08592,62490
13.09403,68349
13.10217,69758
13.11028,74107
13.11840,71552
13.12653,66542
13.13465,66924
13.14278,64975
13.15090,64195
13.15902,61550
13.16715,59569
13.17527,58295
13.18340,65025
13.19152,64373
13.19963,67336
13.20777,74523
13.21588,76778
13.22400,74898
13.23213,76577
13.24025,78743
13.24838,89112
13.25650,83840
13.26462,83004
13.27275,88518
13.28087,98534
13.28900,91640
13.29712,89051
13.30523,83740
13.31337,70925
13.32148,69519
13.32962,61594
13.33773,60451
13.34585,57598
13.35398,58115
13.36210,57226
13.37022,60975
13.37835,57713
13.38647,61120
13.39460,57291
13.40272,56623
13.41083,55887
13.41897,56148
13.42708,58962
13.43522,57084
13.44333,56219
13.45145,53185
13.45958,55490
13.46770,57973
13.47583,54076
13.48395,64638
13.49207,55175
13.50020,58258
13.50832,57500
13.51643,58172
13.52457,60957
13.53268,62904
13.54082,73238
13.54893,82785
13.55705,83013
13.56518,76713
13.57330,72020
13.58143,61477
13.58955,66615
13.59767,64795
13.60580,66980
13.61392,75622
13.62203,95068
13.63017,115475
13.63828,138208
13.64642,155635
13.65453,156487
13.66265,134149
13.67078,109715
13.67890,88325
13.68703,69688
13.69515,62658
13.70327,58215
13.71140,56950
13.71952,51596
13.72765,54526
13.73577,49495
13.74388,52676
13.75202,48672
13.76013,54205
13.76825,68639
13.77638,95791
13.78450,127817
13.79263,174937
13.80075,250917
13.80887,346464
13.81700,436316
13.82512,535336
13.83325,610022
13.84137,688338
13.84948,787716
13.85762,898628
13.86573,969330
13.87387,927902
13.88198,822620
13.89010,651505
13.89823,463015
13.90635,341160
13.91447,249170
13.92260,182599
13.93072,140603
13.93885,122780
13.94697,111283
13.95508,103848
13.96322,96462
13.97133,92391
13.97947,87477
13.98758,82833
13.99570,76804
14.00383,79674
14.01195,78531
14.02007,79239
14.02820,88465
14.03632,90159
14.04445,85163
14.05257,82500
14.06068,77273
14.06882,69697
14.07693,64942
14.08507,64013
14.09318,68804
14.10130,76071
14.10943,69855
14.11755,69312
14.12568,63257
14.13380,62733
14.14192,65258
14.15005,68185
14.15817,65791
14.16628,63378
14.17442,72047
14.18253,68628
14.19067,70027
14.19878,76568
14.20690,87621
14.21503,105682
14.22315,148027
14.23128,207827
14.23940,261631
14.24752,307398
14.25565,313912
14.26377,309026
14.27188,310616
14.28002,295982
14.28813,278405
14.29627,259728
14.30438,219930
14.31250,192920
14.32063,157841
14.32875,142512
14.33688,134312
14.34500,132320
14.35312,129788
14.36125,124303
14.36937,116902
14.37750,117473
14.38562,106279
14.39373,104363
14.40187,92958
14.40998,88612
14.41810,103187
14.42623,132437
14.43435,183895
14.44248,246890
14.45060,278885
14.45872,277896
14.46685,245460
14.47497,193270
14.48310,151511
14.49122,127432
14.49933,119919
14.50747,112140
14.51558,107662
14.52372,103327
14.53183,98203
14.53995,95284
14.54808,92627
14.55620,78001
14.56432,80832
14.57245,79037
14.58057,76883
14.58870,82732
14.59682,70822
14.60493,69875
14.61307,61959
14.62118,63656
14.62932,61471
14.63743,58256
14.64555,61016
14.65368,58212
14.66180,56129
14.66992,53043
14.67805,54342
14.68617,54846
14.69430,56867
14.70242,55719
14.71053,55630
14.71867,55713
14.72678,55914
14.73492,53858
14.74303,58195
14.75115,61797
14.75928,60093
14.76740,62725
14.77553,60641
14.78365,67686
14.79177,67662
14.79990,76590
14.80802,132493
14.81613,361644
14.82427,1049664
14.83238,2803769
14.84052,6121396
14.84863,1.10146E+07
14.85675,1.644756E+07
14.86488,2.085795E+07
14.87300,2.218149E+07
14.88113,1.921374E+07
14.88925,1.342635E+07
14.89737,7526885
14.90550,3887136
14.91362,2346285
14.92175,1673553
14.92987,1357445
14.93798,1190904
14.94612,1064304
14.95423,945214
14.96235,864572
14.97048,781936
14.97860,709187
14.98673,673107
14.99485,632305
15.00297,596757
15.01110,565735
15.01922,549972
15.02735,507420
15.03547,489530
15.04358,450443
15.05172,434373
15.05983,402148
15.06795,386882
15.07608,371722
15.08420,333066
15.09233,330815
15.10045,320082
15.10857,299288
15.11670,291411
15.12482,285025
15.13295,276342
15.14107,296511
15.14918,319174
15.15732,371967
15.16543,440927
15.17357,453978
15.18168,426643
15.18980,362999
15.19793,273944
15.20605,196029
15.21417,155566
15.22230,134943
15.23042,121408
15.23855,115398
15.24667,112560
15.25478,106923
15.26292,102101
15.27103,98986
15.27917,88318
15.28728,97101
15.29540,89127
15.30353,87764
15.31165,85951
15.31977,86520
15.32790,86366
15.33602,88927
15.34415,84045
15.35227,79656
15.36038,77135
15.36852,76922
15.37663,85161
15.38477,83399
15.39288,86175
15.40100,94673
15.40913,101459
15.41725,101577
15.42538,86857
15.43350,87564
15.44162,79603
15.44975,75209
15.45787,77121
15.46598,79637
15.47412,75660
15.48223,80256
15.49037,90002
15.49848,115642
15.50660,157784
15.51473,214613
15.52285,266214
15.53098,314604
15.53910,328947
15.54722,303329
15.55535,262539
15.56347,228510
15.57160,166731
15.57972,140096
15.58783,114634
15.59597,104351
15.60408,91254
15.61220,89869
15.62033,84773
15.62845,84662
15.63658,91917
15.64470,87574
15.65282,85648
15.66095,92887
15.66907,87454
15.67720,82247
15.68532,83068
15.69343,79277
15.70157,76866
15.70968,67064
15.71782,72363
15.72593,63912
15.73405,64517
15.74218,65589
15.75030,63277
15.75842,68979
15.76655,86670
15.77467,141943
15.78280,273907
15.79092,576543
15.79903,1052719
15.80717,1600327
15.81528,1977472
15.82342,1944053
15.83153,1577716
15.83965,1041597
15.84778,665121
15.85590,414658
15.86402,283925
15.87215,226110
15.88027,197106
15.88840,189684
15.89652,166083
15.90463,163035
15.91277,151886
15.92088,129984
15.92902,129594
15.93713,121891
15.94525,126701
15.95338,121560
15.96150,122249
15.96963,114950
15.97775,101984
15.98587,103524
15.99400,99437
16.00212,104323
16.01023,99852
16.01837,118164
16.02648,133293
16.03462,160274
16.04273,172145
16.05085,196552
16.05898,186299
16.06710,166026
16.07523,148645
16.08335,130537
16.09147,105804
16.09960,92529
16.10772,84650
16.11583,81106
16.12397,86366
16.13208,84608
16.14022,85178
16.14833,93767
16.15645,104266
16.16458,118409
16.17270,131177
16.18083,131536
16.18895,126889
16.19707,115971
16.20520,105114
16.21332,96238
16.22145,93276
16.22957,89520
16.23768,94690
16.24582,96330
16.25393,97259
16.26205,93972
16.27018,81046
16.27830,75407
16.28643,75450
16.29455,75725
16.30267,83359
16.31080,90240
16.31892,102061
16.32705,104685
16.33517,116543
16.34328,121124
16.35142,126051
16.35953,129056
16.36767,145657
16.37578,140599
16.38390,130129
16.39203,119929
16.40015,104281
16.40827,97761
16.41640,83806
16.42452,79782
16.43265,82655
16.44077,84986
16.44888,92666
16.45702,110285
16.46513,191503
16.47327,445314
16.48138,1090418
16.48950,2311862
16.49763,3974523
16.50575,5386360
16.51387,5750310
16.52200,5044530
16.53012,3657949
16.53825,2250686
16.54637,1295745
16.55448,732067
16.56262,489805
16.57073,381707
16.57887,320121
16.58698,282973
16.59510,267152
16.60323,254620
16.61135,234701
16.61948,226669
16.62760,203590
16.63572,182560
16.64385,173440
16.65197,154807
16.66008,153357
16.66822,142520
16.67633,144012
16.68447,139303
16.69258,133001
16.70070,131002
16.70883,127108
16.71695,110060
16.72508,109943
16.73320,109976
16.74132,97151
16.74945,95478
16.75757,96265
16.76570,105911
16.77382,125690
16.78193,159968
16.79007,178343
16.79818,185273
16.80630,168260
16.81443,143177
16.82255,106836
16.83068,87809
16.83880,84939
16.84692,75603
16.85505,75411
16.86317,68064
16.87130,72724
16.87942,69679
16.88753,66021
16.89567,63141
16.90378,60953
16.91190,60800
16.92003,63581
16.92815,63217
16.93628,68001
16.94440,66765
16.95252,58320
16.96065,63698
16.96877,61654
16.97690,57377
16.98502,63989
16.99313,60220
17.00127,60591
17.00938,66618
17.01752,68977
17.02563,72281
17.03375,69869
17.04188,71143
17.05000,81645
17.05812,100979
17.06625,120927
17.07437,158800
17.08250,171914
17.09062,172245
17.09873,150781
17.10687,117183
17.11498,101192
17.12312,86564
17.13123,79304
17.13935,79042
17.14748,80113
17.15560,78064
17.16372,80888
17.17185,81655
17.17997,81185
17.18810,80937
17.19622,75461
17.20433,72397
17.21247,70716
17.22058,66873
17.22872,66321
17.23683,62808
17.24495,62911
17.25308,66404
17.26120,65034
17.26933,67797
17.27745,67558
17.28557,64302
17.29370,67168
17.30182,62028
17.30993,63298
17.31807,59122
17.32618,72284
17.33432,77535
17.34243,104953
17.35055,134299
17.35868,175306
17.36680,218547
17.37493,228260
17.38305,238509
17.39117,212326
17.39930,191731
17.40742,176228
17.41555,155854
17.42367,146831
17.43178,155805
17.43992,146618
17.44803,147675
17.45615,140279
17.46428,133752
17.47240,132109
17.48053,114576
17.48865,115964
17.49677,104822
17.50490,100934
17.51302,97270
17.52115,91614
17.52927,94294
17.53738,87446
17.54552,89078
17.55363,90461
17.56175,88624
17.56988,96118
17.57800,138033
17.58613,268439
17.59425,596129
17.60237,1320953
17.61050,2596589
17.61862,3991514
17.62675,5204771
17.63487,5776181
17.64298,5178479
17.65112,4226281
17.65923,2899597
17.66737,1757526
17.67548,1029767
17.68360,635295
17.69173,421178
17.69985,324412
17.70797,268962
17.71610,232312
17.72422,212221
17.73235,198431
17.74047,187413
17.74858,168567
17.75672,160808
17.76483,140632
17.77297,128246
17.78108,126000
17.78920,111713
17.79733,99299
17.80545,100723
17.81358,95738
17.82170,97293
17.82982,88111
17.83795,91598
17.84607,92350
17.85418,96479
17.86232,111045
17.87043,134732
17.87857,156066
17.88668,185139
17.89480,195082
17.90293,192837
17.91105,156114
17.91918,134665
17.92730,105543
17.93542,88256
17.94355,81277
17.95167,67747
17.95978,73457
17.96792,69542
17.97603,68573
17.98417,68968
17.99228,67561
18.00040,67674
18.00853,66346
18.01665,70412
18.02478,78888
18.03290,97914
18.04102,133800
18.04915,195845
18.05727,279763
18.06540,363138
18.07352,519945
18.08163,918976
18.08977,1947169
18.09788,3872391
18.10600,6606622
18.11413,9272674
18.12225,1.056575E+07
18.13038,1.03206E+07
18.13850,8560256
18.14662,6262816
18.15475,4389382
18.16287,3190589
18.17100,2506476
18.17912,2095289
18.18723,1800243
18.19537,1556526
18.20348,1374781
18.21162,1241753
18.21973,1093993
18.22785,1019427
18.23598,920338
18.24410,832495
18.25222,799390
18.26035,728893
18.26847,670433
18.27660,615667
18.28472,550742
18.29283,472158
18.30097,402672
18.30908,316194
18.31722,241441
18.32533,189750
18.33345,163385
18.34158,135729
18.34970,133517
18.35782,131161
18.36595,124684
18.37407,117457
18.38220,114285
18.39032,119944
18.39843,111471
18.40657,105766
18.41468,106120
18.42282,110553
18.43093,113128
18.43905,127199
18.44718,144976
18.45530,167143
18.46343,227485
18.47155,360349
18.47967,621123
18.48780,1033851
18.49592,1512005
18.50403,1904890
18.51217,2054601
18.52028,1840682
18.52842,1435303
18.53653,976626
18.54465,609420
18.55278,378086
18.56090,255441
18.56903,186146
18.57715,148990
18.58527,133236
18.59340,125555
18.60152,115140
18.60963,113762
18.61777,107445
18.62588,120457
18.63402,123316
18.64213,133631
18.65025,133662
18.65838,124575
18.66650,116904
18.67463,102814
18.68275,96965
18.69087,90932
18.69900,80310
18.70712,79580
18.71525,78615
18.72337,79951
18.73148,70251
18.73962,78875
18.74773,77359
18.75585,70709
18.76398,69115
18.77210,75054
18.78023,75982
18.78835,65463
18.79647,67606
18.80460,66563
18.81272,68886
18.82085,69170
18.82897,71069
18.83708,73361
18.84522,69038
18.85333,72826
18.86147,80726
18.86958,89982
18.87770,132031
18.88583,183212
18.89395,233661
18.90207,228188
18.91020,256039
18.91832,265061
18.92645,268777
18.93457,281496
18.94268,297006
18.95082,309515
18.95893,346452
18.96707,375433
18.97518,391700
18.98330,418073
18.99143,425041
18.99955,416478
19.00767,393861
19.01580,352300
19.02392,331421
19.03205,310104
19.04017,288450
19.04828,283599
19.05642,274722
19.06453,278210
19.07267,272021
19.08078,265304
19.08890,271793
19.09703,277130
19.10515,290502
19.11328,312642
19.12140,327568
19.12952,345748
19.13765,352147
19.14577,336043
19.15388,329225
19.16202,308126
19.17013,275378
19.17827,269204
19.18638,263031
19.19450,260712
19.20263,259741
19.21075,249515
19.21888,248666
19.22700,246927
19.23512,245371
19.24325,250102
19.25137,252196
19.25950,249951
19.26762,247498
19.27573,243332
19.28387,239610
19.29198,240533
19.30010,247687
19.30823,269874
19.31635,258538
19.32448,273590
19.33260,272030
19.34072,252852
19.34885,250560
19.35697,249292
19.36510,268182
19.37322,314622
19.38133,394969
19.38947,481335
19.39758,568700
19.40570,606035
19.41383,564803
19.42195,483084
19.43008,396972
19.43820,336130
19.44632,296804
19.45445,278512
19.46257,271556
19.47070,261872
19.47882,248914
19.48693,253837
19.49507,253613
19.50318,262370
19.51132,273852
19.51943,293324
19.52755,332922
19.53568,381253
19.54380,416203
19.55192,437565
19.56005,429653
19.56817,378113
19.57630,336417
19.58442,297130
19.59253,261032
19.60067,248107
19.60878,231032
19.61692,220779
19.62503,215907
19.63315,210847
19.64128,208957
19.64940,223290
19.65752,252992
19.66565,333969
19.67377,473809
19.68190,682375
19.69002,888644
19.69813,1043750
19.70627,1111359
19.71438,1041904
19.72252,888909
19.73063,768502
19.73875,637944
19.74688,547774
19.75500,469812
19.76313,399410
19.77125,364919
19.77937,323026
19.78750,296782
19.79562,298908
19.80373,311878
19.81187,343201
19.81998,372029
19.82812,364602
19.83623,371080
19.84435,344157
19.85248,315882
19.86060,280394
19.86873,250964
19.87685,253702
19.88497,283927
19.89310,379437
19.90122,537795
19.90935,796636
19.91747,1026326
19.92558,1159666
19.93372,1174192
19.94183,1009105
19.94995,792507
19.95808,605021
19.96620,484510
19.97433,415147
19.98245,368168
19.99057,339298
19.99870,319551
20.00682,300196
20.01495,294093
20.02307,271961
20.03118,272009
20.03932,264116
20.04743,266256
20.05555,256939
20.06368,248474
20.07180,234225
20.07993,235960
20.08805,251297
20.09617,269974
20.10430,297567
20.11242,300175
20.12055,304462
20.12867,280171
20.13678,270928
20.14492,248341
20.15303,225956
20.16117,218826
20.16928,240870
20.17740,275674
20.18553,373832
20.19365,482609
20.20177,612810
20.20990,718469
20.21802,771508
20.22615,766056
20.23427,709466
20.24238,584331
20.25052,500297
20.25863,456063
20.26677,472019
20.27488,558816
20.28300,734836
20.29113,977465
20.29925,1201436
20.30738,1346742
20.31550,1396774
20.32362,1247958
20.33175,1035763
20.33987,785491
20.34798,581897
20.35612,430397
20.36423,346077
20.37237,295455
20.38048,243092
20.38860,231988
20.39673,216100
20.40485,200927
20.41298,199200
20.42110,197169
20.42922,191745
20.43735,202181
20.44547,222947
20.45358,247886
20.46172,275373
20.46983,305454
20.47797,319473
20.48608,318715
20.49420,294022
20.50233,265460
20.51045,231823
20.51858,202577
20.52670,191574
20.53482,187443
20.54295,177977
20.55107,188162
20.55920,193344
20.56732,192654
20.57543,191101
20.58357,189869
20.59168,184087
20.59980,177634
20.60793,162765
20.61605,154818
20.62418,153804
20.63230,154986
20.64042,154475
20.64855,154093
20.65667,152975
20.66480,159673
20.67292,164010
20.68103,169931
20.68917,169742
20.69728,169479
20.70540,161624
20.71353,151238
20.72165,147562
20.72978,144232
20.73790,136021
20.74602,140060
20.75415,142903
20.76227,151081
20.77040,159583
20.77852,175793
20.78663,179198
20.79477,203751
20.80288,243815
20.81102,363685
20.81913,584845
20.82725,883075
20.83538,1194996
20.84350,1402385
20.85162,1336440
20.85975,1069722
20.86787,755056
20.87600,482732
20.88412,318164
20.89223,237950
20.90037,187941
20.90848,180614
20.91662,171215
20.92473,172178
20.93285,168070
20.94098,172680
20.94910,180544
20.95723,179568
20.96535,178625
20.97347,180589
20.98160,173815
20.98972,172281
20.99783,155798
21.00597,147221
21.01408,135374
21.02222,136644
21.03033,134040
21.03845,139640
21.04658,139617
21.05470,145282
21.06283,137456
21.07095,139638
21.07907,142637
21.08720,138464
21.09532,139077
21.10345,141023
21.11157,131608
21.11968,133207
21.12782,133881
21.13593,135561
21.14405,141068
21.15218,157937
21.16030,195381
21.16843,249451
21.17655,328540
21.18467,387464
21.19280,400025
21.20092,372969
21.20905,319125
21.21717,263404
21.22528,220616
21.23342,195821
21.24153,176678
21.24965,166072
21.25778,161036
21.26590,145419
21.27403,135733
21.28215,133755
21.29027,126933
21.29840,129032
21.30652,125324
21.31465,123110
21.32277,122782
21.33088,121916
21.33902,120025
21.34713,120241
21.35527,126745
21.36338,118825
21.37150,119214
21.37963,117338
21.38775,128984
21.39587,134815
21.40400,162391
21.41212,207475
21.42025,255128
21.42837,316017
21.43648,359643
21.44462,355633
21.45273,323949
21.46087,277711
21.46898,232965
21.47710,190767
21.48523,180067
21.49335,157783
21.50147,148099
21.50960,151291
21.51772,135327
21.52585,132530
21.53397,122722
21.54208,125216
21.55022,120123
21.55833,114037
21.56647,112742
21.57458,115384
21.58270,125359
21.59083,136026
21.59895,148519
21.60708,169288
21.61520,199950
21.62332,213959
21.63145,201852
21.63957,189796
21.64768,188107
21.65582,208459
21.66393,238306
21.67207,273622
21.68018,317022
21.68830,341225
21.69643,347188
21.70455,350071
21.71268,312191
21.72080,284186
21.72892,237088
21.73705,206676
21.74517,170481
21.75330,150984
21.76142,149297
21.76953,140066
21.77767,128966
21.78578,129307
21.79390,127624
21.80203,123747
21.81015,123709
21.81828,121005
21.82640,116770
21.83452,129373
21.84265,133255
21.85077,165285
21.85890,198821
21.86702,226439
21.87513,249845
21.88327,249580
21.89138,226783
21.89950,194423
21.90763,172094
21.91575,162043
21.92388,148905
21.93200,140556
21.94012,137542
21.94825,126425
21.95637,124111
21.96450,113587
21.97262,114745
21.98073,105945
21.98887,98987
21.99698,90452
22.00512,93258
22.01323,97594
22.02135,85556
22.02948,88657
22.03760,101755
22.04572,106157
22.05385,110365
22.06197,116407
22.07010,115430
22.07822,125174
22.08633,116800
22.09447,104065
22.10258,107074
22.11072,112175
22.11883,100428
22.12695,99305
22.13508,95773
22.14320,98383
22.15133,91494
22.15945,94792
22.16757,89984
22.17570,87965
22.18382,89347
22.19193,89452
22.20007,91762
22.20818,85212
22.21632,89081
22.22443,86739
22.23255,96087
22.24068,97133
22.24880,107279
22.25693,116841
22.26505,121276
22.27317,123702
22.28130,120050
22.28942,121597
22.29753,118018
22.30567,117455
22.31378,127906
22.32192,127752
22.33003,129298
22.33815,119460
22.34628,116178
22.35440,113697
22.36253,114293
22.37065,100821
22.37877,98216
22.38690,101451
22.39502,110847
22.40315,122931
22.41127,164602
22.41938,232658
22.42752,324890
22.43563,420520
22.44375,475728
22.45188,499576
22.46000,437876
22.46813,348564
22.47625,262457
22.48437,208689
22.49250,171211
22.50062,176444
22.50875,189503
22.51687,219466
22.52498,236172
22.53312,236423
22.54123,234992
22.54935,225067
22.55748,191762
22.56560,171678
22.57373,150109
22.58185,138596
22.58997,118149
22.59810,112753
22.60622,108561
22.61435,98813
22.62247,100380
22.63058,92802
22.63872,89643
22.64683,89179
22.65497,89480
22.66308,91043
22.67120,97747
22.67933,100676
22.68745,116710
22.69557,117148
22.70370,139546
22.71182,169614
22.71995,221910
22.72807,286327
22.73618,333790
22.74432,364080
22.75243,334526
22.76057,294635
22.76868,246289
22.77680,199891
22.78493,183796
22.79305,210297
22.80118,253142
22.80930,344314
22.81742,479021
22.82555,611559
22.83367,697400
22.84178,706413
22.84992,639976
22.85803,508492
22.86617,383844
22.87428,301788
22.88240,244454
22.89053,227667
22.89865,214018
22.90678,230913
22.91490,242008
22.92302,271547
22.93115,308311
22.93927,386607
22.94738,462130
22.95552,481316
22.96363,471133
22.97177,428570
22.97988,323433
22.98800,268055
22.99613,200296
23.00425,169462
23.01238,144835
23.02050,130034
23.02862,121575
23.03675,110625
23.04487,100954
23.05300,98261
23.06112,95069
23.06923,96646
23.07737,102339
23.08548,101605
23.09360,99985
23.10173,108656
23.10985,105713
23.11798,105822
23.12610,98752
23.13422,94495
23.14235,85942
23.15047,90045
23.15860,97823
23.16672,96864
23.17483,90952
23.18297,86297
23.19108,91587
23.19922,82457
23.20733,77168
23.21545,76347
23.22358,76358
23.23170,78948
23.23982,75104
23.24795,73864
23.25607,83961
23.26420,95724
23.27232,129473
23.28043,150704
23.28857,166254
23.29668,170773
23.30482,159028
23.31293,142582
23.32105,121206
23.32918,105018
23.33730,101190
23.34542,111223
23.35355,131732
23.36167,174756
23.36980,217891
23.37792,281086
23.38603,320545
23.39417,348126
23.40228,344847
23.41042,298916
23.41853,258214
23.42665,214761
23.43478,186495
23.44290,164648
23.45103,158097
23.45915,143141
23.46727,135208
23.47540,137922
23.48352,128062
23.49163,123700
23.49977,116901
23.50788,114851
23.51602,105306
23.52413,103447
23.53225,107242
23.54038,100539
23.54850,102334
23.55663,102924
23.56475,105196
23.57287,111977
23.58100,121054
23.58912,139240
23.59723,167191
23.60537,204961
23.61348,229131
23.62162,257844
23.62973,254991
23.63785,237545
23.64598,200321
23.65410,164551
23.66223,138703
23.67035,124466
23.67847,122964
23.68660,118357
23.69472,118834
23.70285,118075
23.71097,109156
23.71908,99955
23.72722,91084
23.73533,88879
23.74345,80849
23.75158,80444
23.75970,85736
23.76783,106668
23.77595,200637
23.78407,427117
23.79220,945863
23.80032,1696039
23.80845,2497842
23.81657,3028920
23.82468,3098421
23.83282,2686791
23.84093,2187947
23.84907,1598153
23.85718,1142647
23.86530,856068
23.87343,656425
23.88155,526025
23.88967,456359
23.89780,423557
23.90592,390924
23.91405,376603
23.92217,397015
23.93028,429798
23.93842,439381
23.94653,467643
23.95467,413596
23.96278,367674
23.97090,306411
23.97903,270608
23.98715,232103
23.99527,217149
24.00340,195419
24.01152,187738
24.01965,190060
24.02777,183176
24.03588,178033
24.04402,176290
24.05213,183574
24.06027,187671
24.06838,190139
24.07650,163906
24.08463,161708
24.09275,152939
24.10088,141355
24.10900,139560
24.11712,137054
24.12525,133413
24.13337,130552
24.14148,135270
24.14962,136532
24.15773,146725
24.16587,163221
24.17398,179951
24.18210,195931
24.19023,191961
24.19835,198528
24.20648,187016
24.21460,188627
24.22272,180774
24.23085,176540
24.23897,173830
24.24710,173781
24.25522,166789
24.26333,169628
24.27147,151832
24.27958,145482
24.28770,136686
24.29583,130604
24.30395,126418
24.31208,129629
24.32020,126847
24.32832,127927
24.33645,130136
24.34457,138072
24.35270,135669
24.36082,131941
24.36893,125589
24.37707,119466
24.38518,118664
24.39330,113025
24.40143,114458
24.40955,122668
24.41768,141711
24.42580,152636
24.43392,177401
24.44205,189865
24.45017,187189
24.45830,162965
24.46642,143487
24.47453,132514
24.48267,117345
24.49078,112237
24.49892,111045
24.50703,110269
24.51515,112244
24.52328,117282
24.53140,131215
24.53952,136604
24.54765,163258
24.55577,175085
24.56390,196035
24.57202,212113
24.58013,216787
24.58827,213110
24.59638,208440
24.60452,195536
24.61263,180880
24.62075,159226
24.62888,144129
24.63700,130287
24.64513,123797
24.65325,109333
24.66137,112092
24.66950,103699
24.67762,120099
24.68573,116354
24.69387,126117
24.70198,125580
24.71012,127555
24.71823,119988
24.72635,127082
24.73448,131634
24.74260,135312
24.75073,138293
24.75885,134520
24.76697,135446
24.77510,131788
24.78322,144726
24.79133,159501
24.79947,168367
24.80758,185861
24.81572,187496
24.82383,178551
24.83195,170233
24.84008,173093
24.84820,202917
24.85633,259944
24.86445,354342
24.87257,529971
24.88070,779921
24.88882,1169099
24.89695,1748597
24.90507,2354875
24.91318,2826347
24.92132,2968401
24.92943,2588586
24.93755,2062966
24.94568,1421585
24.95380,867680
24.96193,507329
24.97005,318099
24.97817,223245
24.98630,178750
24.99442,142244
25.00255,128597
25.01067,115022
25.01878,112389
25.02692,106558
25.03503,106221
25.04315,104318
25.05128,104235
25.05940,103072
25.06753,98198
25.07565,100401
25.08377,97397
25.09190,106530
25.10002,121034
25.10815,148740
25.11627,244375
25.12438,533894
25.13252,1325925
25.14063,2964693
25.14877,5609577
25.15688,9016078
25.16500,1.167215E+07
25.17313,1.319487E+07
25.18125,1.235338E+07
25.18937,9388263
25.19750,6433210
25.20562,3830382
25.21375,1999432
25.22187,1072966
25.22998,600788
25.23812,369356
25.24623,289220
25.25437,279120
25.26248,325740
25.27060,405960
25.27873,523520
25.28685,637288
25.29498,688385
25.30310,660121
25.31122,565692
25.31935,438536
25.32747,324200
25.33558,228120
25.34372,184361
25.35183,153200
25.35997,129200
25.36808,133029
25.37620,116105
25.38433,100856
25.39245,99975
25.40058,99826
25.40870,91254
25.41682,92093
25.42495,92534
25.43307,88192
25.44118,82251
25.44932,86807
25.45743,94532
25.46557,107683
25.47368,125973
25.48180,127894
25.48993,117447
25.49805,103433
25.50618,105856
25.51430,100457
25.52242,102134
25.53055,107202
25.53867,100487
25.54680,94800
25.55492,92541
25.56303,91384
25.57117,87300
25.57928,81153
25.58740,87735
25.59553,88761
25.60365,92762
25.61178,81358
25.61990,80886
25.62802,81668
25.63615,80125
25.64427,78471
25.65240,77746
25.66052,75049
25.66863,81864
25.67677,78401
25.68488,81611
25.69302,78437
25.70113,81571
25.70925,83275
25.71738,87331
25.72550,88345
25.73362,90433
25.74175,88990
25.74987,89365
25.75800,86917
25.76612,88246
25.77423,78721
25.78237,79908
25.79048,73702
25.79862,76954
25.80673,72747
25.81485,74446
25.82298,75424
25.83110,74658
25.83922,74412
25.84735,73064
25.85547,88612
25.86360,89222
25.87172,110701
25.87983,174053
25.88797,250722
25.89608,329165
25.90422,365717
25.91233,374864
25.92045,388145
25.92858,403733
25.93670,396414
25.94483,403281
25.95295,394762
25.96107,412735
25.96920,422412
25.97732,414449
25.98543,416054
25.99357,412163
26.00168,402273
26.00982,392481
26.01793,404914
26.02605,400157
26.03418,389707
26.04230,391570
26.05043,397187
26.05855,393767
26.06667,396645
26.07480,390716
26.08292,393831
26.09103,393135
26.09917,405536
26.10728,409668
26.11542,405712
26.12353,404001
26.13165,405055
26.13978,401064
26.14790,401139
26.15603,408821
26.16415,404474
26.17227,414538
26.18040,395392
26.18852,408572
26.19665,400039
26.20477,401007
26.21288,392805
26.22102,381880
26.22913,386015
26.23725,371759
26.24538,365493
26.25350,374470
26.26163,375883
26.26975,364870
26.27787,362858
26.28600,361255
26.29412,354695
26.30225,360283
26.31037,348129
26.31848,357633
26.32662,352228
26.33473,347363
26.34287,329329
26.35098,330816
26.35910,344353
26.36723,328142
26.37535,336490
26.38347,369950
26.39160,416868
26.39972,451354
26.40785,506712
26.41597,568449
26.42408,571221
26.43222,581470
26.44033,544135
26.44847,506461
26.45658,438025
26.46470,398267
26.47283,361539
26.48095,352834
26.48908,333060
26.49720,332724
26.50532,336000
26.51345,320135
26.52157,307366
26.52968,312180
26.53782,289790
26.54593,291247
26.55407,270345
26.56218,275356
26.57030,270730
26.57843,286244
26.58655,272983
26.59468,268855
26.60280,264016
26.61092,263307
26.61905,267883
26.62717,259765
26.63528,259047
26.64342,262536
26.65153,262856
26.65967,264860
26.66778,265131
26.67590,255871
26.68403,255426
26.69215,252425
26.70028,246804
26.70840,256538
26.71652,253742
26.72465,241462
26.73277,246790
26.74090,249396
26.74902,243848
26.75713,243621
26.76527,244569
26.77338,241135
26.78150,240436
26.78963,246177
26.79775,240510
26.80588,239205
26.81400,250987
26.82212,250259
26.83025,245653
26.83837,241504
26.84650,248689
26.85462,243890
26.86273,240507
26.87087,230223
26.87898,229586
26.88710,226860
26.89523,236493
26.90335,225207
26.91148,228614
26.91960,222868
26.92772,218582
26.93585,222785
26.94397,206962
26.95210,211857
26.96022,214013
26.96833,221253
26.97647,230170
26.98458,250950
26.99272,314247
27.00083,449146
27.00895,678204
27.01708,1065377
27.02520,1699971
27.03332,2281780
27.04145,2553373
27.04957,2579188
27.05770,2270306
27.06582,1819446
27.07393,1384626
27.08207,1052235
27.09018,814333
27.09832,693496
27.10643,566707
27.11455,504682
27.12268,466172
27.13080,435164
27.13893,429242
27.14705,404114
27.15517,393251
27.16330,378939
27.17142,363757
27.17953,362599
27.18767,383284
27.19578,390567
27.20392,415702
27.21203,410608
27.22015,386651
27.22828,367533
27.23640,339323
27.24453,320702
27.25265,300871
27.26077,272543
27.26890,266457
27.27702,247289
27.28513,234737
27.29327,231159
27.30138,226213
27.30952,226829
27.31763,213834
27.32575,212535
27.33388,215070
27.34200,208775
27.35013,211697
27.35825,215615
27.36637,211036
27.37450,212125
27.38262,213231
27.39075,221949
27.39887,210350
27.40698,208225
27.41512,193456
27.42323,195979
27.43135,196892
27.43948,180904
27.44760,188783
27.45573,187994
27.46385,178153
27.47197,179670
27.48010,172176
27.48822,175997
27.49635,178874
27.50447,169597
27.51258,166009
27.52072,167906
27.52883,160031
27.53697,166121
27.54508,158741
27.55320,162222
27.56133,159926
27.56945,168345
27.57757,169883
27.58570,176155
27.59382,198225
27.60195,240058
27.61007,274106
27.61818,289822
27.62632,300544
27.63443,278483
27.64257,244130
27.65068,211168
27.65880,197104
27.66693,176321
27.67505,164263
27.68317,165705
27.69130,159201
27.69942,166175
27.70755,161512
27.71567,158849
27.72378,158732
27.73192,160883
27.74003,149143
27.74817,140158
27.75628,134594
27.76440,137070
27.77253,143116
27.78065,137858
27.78878,146643
27.79690,154035
27.80502,157709
27.81315,163254
27.82127,154370
27.82938,155373
27.83752,143775
27.84563,138083
27.85377,135634
27.86188,129742
27.87000,129703
27.87813,132046
27.88625,130764
27.89438,121297
27.90250,130100
27.91062,125987
27.91875,122635
27.92687,118427
27.93498,127624
27.94312,118039
27.95123,116552
27.95937,113793
27.96748,114904
27.97560,109791
27.98373,111219
27.99185,110377
27.99998,109764
28.00810,116887
28.01622,113430
28.02435,128067
28.03247,124812
28.04060,129697
28.04872,137881
28.05683,156798
28.06497,165216
28.07308,176502
28.08120,172701
28.08933,166034
28.09745,148415
28.10558,133798
28.11370,121776
28.12182,118012
28.12995,110647
28.13807,113931
28.14620,109863
28.15432,105104
28.16243,102391
28.17057,102835
28.17868,104505
28.18682,104651
28.19493,110998
28.20305,127545
28.21118,144843
28.21930,194362
28.22742,242948
28.23555,284381
28.24367,315238
28.25180,309724
28.25992,281354
28.26803,249061
28.27617,209851
28.28428,168768
28.29242,139799
28.30053,118971
28.30865,121529
28.31678,124478
28.32490,143410
28.33302,165569
28.34115,189197
28.34927,214863
28.35740,245779
28.36552,274629
28.37363,301719
28.38177,345172
28.38988,388498
28.39802,388893
28.40613,405405
28.41425,405079
28.42238,399499
28.43050,367940
28.43863,338724
28.44675,296623
28.45487,266404
28.46300,239051
28.47112,206399
28.47923,199703
28.48737,184471
28.49548,176821
28.50362,166176
28.51173,164527
28.51985,163970
28.52798,166100
28.53610,148793
28.54423,151922
28.55235,153164
28.56047,135874
28.56860,133669
28.57672,130848
28.58485,118399
28.59297,120825
28.60108,118729
28.60922,119990
28.61733,116572
28.62545,119590
28.63358,124738
28.64170,128594
28.64983,129961
28.65795,134543
28.66607,129003
28.67420,125511
28.68232,137743
28.69045,127232
28.69857,129809
28.70668,125328
28.71482,114178
28.72293,109263
28.73105,110120
28.73918,101992
28.74730,100154
28.75543,103652
28.76355,100948
28.77167,99026
28.77980,105644
28.78792,112072
28.79605,119751
28.80417,139700
28.81228,153128
28.82042,165303
28.82853,173995
28.83667,168598
28.84478,160541
28.85290,136743
28.86103,127979
28.86915,130502
28.87727,126000
28.88540,124268
28.89352,140553
28.90165,159960
28.90977,194244
28.91788,196509
28.92602,195843
28.93413,181937
28.94227,164319
28.95038,142892
28.95850,127581
28.96663,114406
28.97475,105921
28.98287,108974
28.99100,108026
28.99912,106679
29.00725,98565
29.01537,96141
29.02348,101384
29.03162,95215
29.03973,88928
29.04787,95408
29.05598,90276
29.06410,93000
29.07223,87720
29.08035,92524
29.08848,105450
29.09660,109614
29.10472,112576
29.11285,111002
29.12097,118536
29.12908,107139
29.13722,100988
29.14533,101126
29.15347,90054
29.16158,87509
29.16970,89799
29.17783,82798
29.18595,94083
29.19408,106998
29.20220,123185
29.21032,161775
29.21845,218449
29.22657,282321
29.23470,339837
29.24282,334985
29.25093,320113
29.25907,267965
29.26718,212853
29.27530,186124
29.28343,151896
29.29155,135629
29.29968,122428
29.30780,106734
29.31592,97121
29.32405,92383
29.33217,87925
29.34030,84095
29.34842,86777
29.35653,82958
29.36467,82025
29.37278,86072
29.38090,85487
29.38903,84373
29.39715,83177
29.40528,84328
29.41340,85312
29.42152,79667
29.42965,90813
29.43777,90845
29.44590,92419
29.45402,96744
29.46213,88854
29.47027,89146
29.47838,84887
29.48652,84813
29.49463,86598
29.50275,83998
29.51088,87916
29.51900,96939
29.52712,93953
29.53525,98446
29.54337,103319
29.55150,95142
29.55962,93341
29.56773,86935
29.57587,91914
29.58398,86907
29.59212,85678
29.60023,85188
29.60835,81810
29.61648,78786
29.62460,78999
29.63273,77906
29.64085,78859
29.64897,82078
29.65710,88150
29.66522,83777
29.67333,82149
29.68147,85011
29.68958,90840
29.69772,96690
29.70583,105068
29.71395,115333
29.72208,110714
29.73020,108691
29.73833,105801
29.74645,95377
29.75457,87972
29.76270,83439
29.77082,80609
29.77893,84090
29.78707,76781
29.79518,71472
29.80332,76459
29.81143,73053
29.81955,72506
29.82768,69915
29.83580,71162
29.84393,72393
29.85205,74593
29.86017,74593
29.86830,79524
29.87642,79036
29.88455,93294
29.89267,108368
29.90078,140453
29.90892,176691
29.91703,216089
29.92515,228666
29.93328,213234
29.94140,187183
29.94953,152893
29.95765,112167
29.96577,97764
29.97390,86459
29.98202,90315
29.99015,94975
29.99827,105602
30.00638,124805
30.01452,132246
30.02263,156997
30.03077,177151
30.03888,186293
30.04700,195167
30.05513,209356
30.06325,208604
30.07137,216727
30.07950,210236
30.08762,205531
30.09575,196157
30.10387,193053
30.11198,185803
30.12012,169277
30.12823,164392
30.13637,154495
30.14448,149301
30.15260,137571
30.16073,136418
30.16885,126062
30.17697,131707
30.18510,119988
30.19322,121142
30.20135,114742
30.20947,112800
30.21758,114277
30.22572,115341
30.23383,116845
30.24197,106916
30.25008,104870
30.25820,105796
30.26633,95939
30.27445,92276
30.28258,91365
30.29070,93582
30.29882,90333
30.30695,87289
30.31507,85971
30.32318,90173
30.33132,84314
30.33943,83135
30.34757,88266
30.35568,85163
30.36380,87436
30.37193,85287
30.38005,87998
30.38818,81843
30.39630,88697
30.40442,90089
30.41255,84339
30.42067,87608
30.42878,76307
30.43692,80664
30.44503,82447
30.45317,74060
30.46128,76270
30.46940,78834
30.47753,79711
30.48565,80484
30.49378,77491
30.50190,79397
30.51002,79231
30.51815,79192
30.52627,76267
30.53440,79305
30.54252,78735
30.55063,77360
30.55877,74845
30.56688,76152
30.57500,79961
30.58313,75909
30.59125,78156
30.59938,78392
30.60750,78631
30.61562,75848
30.62375,77442
30.63187,83825
30.64000,78474
30.64812,78216
30.65623,74016
30.66437,75178
30.67248,67621
30.68062,78051
30.68873,72418
30.69685,69175
30.70498,71409
30.71310,71004
30.72122,69734
30.72935,69288
30.73747,74929
30.74560,73616
30.75372,75393
30.76183,72057
30.76997,74703
30.77808,78658
30.78622,87148
30.79433,99810
30.80245,128391
30.81058,187494
30.81870,255667
30.82682,313872
30.83495,354255
30.84307,316948
30.85120,262023
30.85932,199151
30.86743,143061
30.87557,109569
30.88368,103261
30.89182,87118
30.89993,82251
30.90805,82811
30.91618,72833
30.92430,75725
30.93243,69706
30.94055,75281
30.94867,71259
30.95680,72439
30.96492,76676
30.97303,76300
30.98117,72493
30.98928,76274
30.99742,72654
31.00553,68757
31.01365,70767
31.02178,74500
31.02990,76273
31.03803,75442
31.04615,80720
31.05427,77376
31.06240,71145
31.07052,74779
31.07865,74063
31.08677,73623
31.09488,84111
31.10302,92805
31.11113,102782
31.11925,117720
31.12738,124937
31.13550,123559
31.14363,121942
31.15175,111106
31.15987,115268
31.16800,117623
31.17612,127147
31.18425,127338
31.19237,134977
31.20048,144290
31.20862,167377
31.21673,222253
31.22485,291026
31.23298,377428
31.24110,436590
31.24923,458367
31.25735,420927
31.26547,341998
31.27360,243788
31.28172,173215
31.28985,129465
31.29797,106492
31.30608,92853
31.31422,88039
31.32233,90182
31.33047,91117
31.33858,107001
31.34670,115195
31.35483,118607
31.36295,114645
31.37107,114521
31.37920,102897
31.38732,95763
31.39545,90775
31.40357,85423
31.41168,76141
31.41982,78996
31.42793,73109
31.43607,76736
31.44418,75595
31.45230,70862
31.46043,76582
31.46855,79454
31.47667,79004
31.48480,75302
31.49292,72950
31.50105,78298
31.50917,79140
31.51728,78631
31.52542,78942
31.53353,91047
31.54167,89241
31.54978,82787
31.55790,84803
31.56603,81741
31.57415,82725
31.58228,75864
31.59040,84299
31.59852,76897
31.60665,78022
31.61477,77021
31.62288,72455
31.63102,73779
31.63913,76269
31.64727,71643
31.65538,77213
31.66350,79583
31.67163,94464
31.67975,98330
31.68788,114461
31.69600,122175
31.70412,128171
31.71225,118113
31.72037,116166
31.72850,94154
31.73662,82418
31.74473,78081
31.75287,71051
31.76098,72725
31.76910,69446
31.77723,73598
31.78535,69699
31.79348,71156
31.80160,68352
31.80972,71777
31.81785,71775
31.82597,72126
31.83410,71419
31.84222,74899
31.85033,72848
31.85847,68023
31.86658,76976
31.87472,77564
31.88283,77831
31.89095,82219
31.89908,75895
31.90720,78626
31.91532,74797
31.92345,72086
31.93157,72041
31.93970,79475
31.94782,83877
31.95593,87677
31.96407,106253
31.97218,116265
31.98032,139264
31.98843,132359
31.99655,153800
32.00468,163146
32.01280,170537
32.02092,163813
32.02905,172287
32.03717,166522
32.04530,155074
32.05342,135954
32.06153,137752
32.06967,125129
32.07778,120352
32.08592,113473
32.09403,103105
32.10215,105058
32.11028,102333
32.11840,106134
32.12653,103415
32.13465,100922
32.14277,101408
32.15090,88652
32.15902,91178
32.16713,84826
32.17527,82873
32.18338,76297
32.19152,80359
32.19963,81108
32.20775,76569
32.21588,76783
32.22400,76760
32.23213,75828
32.24025,76802
32.24837,70094
32.25650,80362
32.26462,73884
32.27273,74553
32.28087,76922
32.28898,75729
32.29712,69644
32.30523,77581
32.31335,73740
32.32148,72956
32.32960,70399
32.33773,68259
32.34585,69249
32.35397,76881
32.36210,71447
32.37022,73204
32.37835,72473
32.38647,76252
32.39458,75188
32.40272,69662
32.41083,70377
32.41895,74814
32.42708,70127
32.43520,66876
32.44333,69459
32.45145,73247
32.45957,71370
32.46770,68634
32.47582,71676
32.48395,73113
32.49207,68056
32.50018,65479
32.50832,63884
32.51643,69819
32.52457,70067
32.53268,74732
32.54080,69185
32.54893,70196
32.55705,71320
32.56517,66517
32.57330,71915
32.58142,70698
32.58955,75067
32.59767,65182
32.60578,66936
32.61392,69945
32.62203,67180
32.63017,65739
32.63828,67168
32.64640,66943
32.65453,62747
32.66265,71256
32.67077,71508
32.67890,72307
32.68702,80076
32.69515,89274
32.70327,86239
32.71138,92597
32.71952,91345
32.72763,93321
32.73577,84384
32.74388,81867
32.75200,78456
32.76013,74481
32.76825,74499
32.77638,69108
32.78450,74363
32.79262,70073
32.80075,70610
32.80887,70510
32.81698,67756
32.82512,64944
32.83323,67638
32.84137,66747
32.84948,66576
32.85760,67478
32.86573,69179
32.87385,71031
32.88198,69559
32.89010,77958
32.89822,78746
32.90635,85285
32.91447,88588
32.92260,96440
32.93072,97991
32.93883,94776
32.94697,91389
32.95508,87447
32.96320,77467
32.97133,73347
32.97945,75755
32.98758,88190
32.99570,103784
33.00382,127876
33.01195,160268
33.02007,188637
33.02820,203868
33.03632,198159
33.04443,175592
33.05257,152596
33.06068,133971
33.06880,124047
33.07693,133576
33.08505,140745
33.09318,145343
33.10130,157733
33.10942,151554
33.11755,158929
33.12567,158752
33.13380,166676
33.14192,158263
33.15003,150848
33.15817,138081
33.16628,127942
33.17442,117511
33.18253,111538
33.19065,108874
33.19878,96458
33.20690,87958
33.21502,86876
33.22315,83878
33.23127,87912
33.23940,83598
33.24752,86652
33.25563,83562
33.26377,81131
33.27188,80876
33.28002,82385
33.28813,74775
33.29625,79554
33.30438,73673
33.31250,76350
33.32062,74918
33.32875,72910
33.33687,74754
33.34500,79284
33.35312,78725
33.36123,78510
33.36937,87151
33.37748,97100
33.38562,107082
33.39373,103234
33.40185,98294
33.40998,87506
33.41810,80781
33.42623,80117
33.43435,76328
33.44247,72405
33.45060,71435
33.45872,71598
33.46683,67099
33.47497,63334
33.48308,70145
33.49122,69426
33.49933,69136
33.50745,72573
33.51558,76360
33.52370,78066
33.53183,86320
33.53995,82428
33.54807,88765
33.55620,94532
33.56432,111278
33.57245,121291
33.58057,130742
33.58868,128960
33.59682,111742
33.60493,100127
33.61305,86695
33.62118,78800
33.62930,78097
33.63743,72622
33.64555,78678
33.65367,78318
33.66180,75278
33.66992,78535
33.67805,84298
33.68617,93710
33.69428,91272
33.70242,80905
33.71053,75298
33.71865,73295
33.72678,68801
33.73490,70366
33.74303,72202
33.75115,75247
33.75927,69232
33.76740,68759
33.77552,73580
33.78365,66844
33.79177,66829
33.79988,69131
33.80802,72662
33.81613,74601
33.82427,70521
33.83238,72200
33.84050,66912
33.84863,65623
33.85675,69625
33.86487,71611
33.87300,74086
33.88112,78458
33.88925,70340
33.89737,72778
33.90548,75075
33.91362,80082
33.92173,74924
33.92987,74790
33.93798,73599
33.94610,68751
33.95423,70641
33.96235,65273
33.97048,69056
33.97860,65466
33.98672,66683
33.99485,67766
34.00297,66445
34.01108,67215
34.01922,67713
34.02733,69988
34.03547,67111
34.04358,68724
34.05170,67886
34.05983,65396
34.06795,65383
34.07608,69663
34.08420,67635
34.09232,68586
34.10045,67629
34.10857,71500
34.11668,68950
34.12482,67606
34.13293,70556
34.14107,64400
34.14918,66899
34.15730,71735
34.16543,69865
34.17355,71130
34.18168,69640
34.18980,71281
34.19792,68554
34.20605,72420
34.21417,66142
34.22230,63433
34.23042,66318
34.23853,63310
34.24667,67144
34.25478,62918
34.26290,62719
34.27103,66034
34.27915,63241
34.28728,63820
34.29540,64360
34.30352,67666
34.31165,62634
34.31977,62273
34.32790,61526
34.33602,65221
34.34413,66585
34.35227,67281
34.36038,63574
34.36850,64551
34.37663,64185
34.38475,68134
34.39288,63921
34.40100,65409
34.40912,64242
34.41725,63986
34.42537,63258
34.43350,65679
34.44162,64165
34.44973,64884
34.45787,71379
34.46598,68827
34.47412,71105
34.48223,65413
34.49035,66686
34.49848,65516
34.50660,58319
34.51472,57544
34.52285,63459
34.53097,63563
34.53910,68870
34.54722,74809
34.55533,81108
34.56347,93484
34.57158,101783
34.57972,117078
34.58783,117137
34.59595,125563
34.60408,118799
34.61220,116353
34.62033,109129
34.62845,95947
34.63657,97754
34.64470,90482
34.65282,82903
34.66093,84437
34.66907,88485
34.67718,85851
34.68532,81380
34.69343,80671
34.70155,80539
34.70968,75502
34.71780,79595
34.72593,81660
34.73405,76006
34.74217,74894
34.75030,76374
34.75842,76598
34.76653,77533
34.77467,79956
34.78278,80391
34.79092,80531
34.79903,81674
34.80715,76804
34.81528,81432
34.82340,80327
34.83153,73314
34.83965,77398
34.84777,74944
34.85590,70861
34.86402,73867
34.87215,69627
34.88027,74711
34.88838,72818
34.89652,70967
34.90463,73632
34.91275,68735
34.92088,73473
34.92900,67037
34.93713,75223
34.94525,77242
34.95337,73169
34.96150,75112
34.96962,83819
34.97775,80150
34.98587,89103
34.99398,94716
35.00212,92689
35.01023,94594
35.01837,87029
35.02648,83596
35.03460,76392
35.04273,76414
35.05085,72244
35.05897,75211
35.06710,69935
35.07522,75996
35.08335,75557
35.09147,75939
35.09958,73044
35.10772,67431
35.11583,70003
35.12397,73322
35.13208,72404
35.14020,71825
35.14833,72846
35.15645,78145
35.16457,77581
35.17270,74617
35.18082,84491
35.18895,82724
35.19707,80510
35.20518,78576
35.21332,81591
35.22143,74021
35.22957,79183
35.23768,72000
35.24580,74171
35.25393,71488
35.26205,75768
35.27018,73052
35.27830,66679
35.28642,71818
35.29455,71038
35.30267,72444
35.31078,74499
35.31892,70356
35.32703,75410
35.33517,70524
35.34328,72163
35.35140,68750
35.35953,72895
35.36765,69905
35.37578,67908
35.38390,67880
35.39202,68094
35.40015,71353
35.40827,75475
35.41640,69549
35.42452,74728
35.43263,75942
35.44077,74375
35.44888,79233
35.45700,83773
35.46513,77749
35.47325,75304
35.48138,79132
35.48950,78327
35.49762,77419
35.50575,78257
35.51387,81974
35.52200,81087
35.53012,74814
35.53823,77349
35.54637,76438
35.55448,68686
35.56260,71129
35.57073,68202
35.57885,68366
35.58698,73919
35.59510,69039
35.60322,71688
35.61135,70161
35.61947,66641
35.62760,65015
35.63572,72920
35.64383,69651
35.65197,67123
35.66008,75879
35.66822,79125
35.67633,68486
35.68445,74289
35.69258,68984
35.70070,79000
35.70882,78535
35.71695,76862
35.72507,81796
35.73320,80169
35.74132,85133
35.74943,89107
35.75757,88765
35.76568,96667
35.77382,107326
35.78193,111989
35.79005,118495
35.79818,119084
35.80630,113222
35.81442,103096
35.82255,91177
35.83067,87927
35.83880,81919
35.84692,75813
35.85503,76675
35.86317,76541
35.87128,75491
35.87942,77595
35.88753,80345
35.89565,73455
35.90378,77945
35.91190,77488
35.92003,76518
35.92815,76138
35.93627,77145
35.94440,71255
35.95252,71457
35.96063,71934
35.96877,69588
35.97688,72265
35.98502,73909
35.99313,73679
36.00125,72294
36.00938,70539
36.01750,77219
36.02563,76192
36.03375,76714
36.04187,81141
36.05000,80182
36.05812,76567
36.06625,69746
36.07437,78303
36.08248,77418
36.09062,73770
36.09873,73568
36.10685,74088
36.11498,80708
36.12310,72827
36.13123,74552
36.13935,75852
36.14747,82646
36.15560,81887
36.16372,86528
36.17185,87633
36.17997,86233
36.18808,90029
36.19622,88206
36.20433,83608
36.21245,78867
36.22058,75138
36.22870,69397
36.23683,72509
36.24495,70832
36.25307,71191
36.26120,69443
36.26932,73415
36.27745,82664
36.28557,69405
36.29368,75601
36.30182,72946
36.30993,77606
36.31807,77652
36.32618,78741
36.33430,89197
36.34243,86284
36.35055,92505
36.35867,95754
36.36680,93055
36.37492,86953
36.38305,86709
36.39117,87503
36.39928,82266
36.40742,85009
36.41553,84284
36.42367,93353
36.43178,84941
36.43990,88955
36.44803,91866
36.45615,84841
36.46428,78947
36.47240,83651
36.48052,80805
36.48865,74389
36.49677,73361
36.50488,71342
36.51302,72441
36.52113,73904
36.52927,75401
36.53738,69029
36.54550,75364
36.55363,72780
36.56175,76615
36.56988,72456
36.57800,75468
36.58612,72822
36.59425,76950
36.60237,78599
36.61048,77219
36.61862,78237
36.62673,76048
36.63487,75944
36.64298,74588
36.65110,71865
36.65923,79280
36.66735,73316
36.67548,74082
36.68360,73404
36.69172,74190
36.69985,80332
36.70797,75299
36.71610,77193
36.72422,80711
36.73233,82634
36.74047,81591
36.74858,79070
36.75670,78411
36.76483,75029
36.77295,83249
36.78108,76247
36.78920,75107
36.79732,76554
36.80545,76769
36.81357,73702
36.82170,75573
36.82982,73986
36.83793,67829
36.84607,78087
36.85418,73834
36.86230,72296
36.87043,74521
36.87855,72556
36.88668,71760
36.89480,70354
36.90292,71487
36.91105,69986
36.91917,70753
36.92730,68173
36.93542,74308
36.94353,77863
36.95167,82096
36.95978,100339
36.96792,123776
36.97603,144963
36.98415,168957
36.99228,188469
37.00040,196452
37.00852,181684
37.01665,141391
37.02477,122324
37.03290,99598
37.04102,95893
37.04913,84983
37.05727,84334
37.06538,83261
37.07352,81677
37.08163,79804
37.08975,84728
37.09788,90514
37.10600,88046
37.11413,90463
37.12225,86656
37.13037,86770
37.13850,88806
37.14662,84524
37.15473,81858
37.16287,85802
37.17098,78623
37.17912,79530
37.18723,79701
37.19535,78140
37.20348,81169
37.21160,82690
37.21973,77311
37.22785,81088
37.23597,78581
37.24410,78492
37.25222,83233
37.26033,84111
37.26847,81623
37.27658,84780
37.28472,81998
37.29283,83781
37.30095,80407
37.30908,78405
37.31720,78485
37.32533,77542
37.33345,80793
37.34157,83328
37.34970,81734
37.35782,84738
37.36595,87346
37.37407,95387
37.38218,100723
37.39032,105663
37.39843,100145
37.40655,110315
37.41468,99115
37.42280,107135
37.43093,97180
37.43905,102644
37.44717,110547
37.45530,99039
37.46342,99964
37.47155,100540
37.47967,98186
37.48778,87783
