C:\MassHunter\GCMS\1\data\JTB-E18\JTB-E18-028-07.D Thu Sep 19 11:30:19 2019
Start of data points
2.09522	111969
2.10333	113148
2.11145	109837
2.11958	106505
2.12770	104832
2.13583	106429
2.14395	107561
2.15207	103218
2.16020	100768
2.16832	98808
2.17645	101618
2.18457	96909
2.19268	99304
2.20082	92433
2.20893	98709
2.21705	97795
2.22518	94125
2.23330	94714
2.24143	90963
2.24955	85901
2.25767	104266
2.26580	286567
2.27392	1384480
2.28205	1767167
2.29017	852234
2.29828	439036
2.30642	328800
2.31453	279934
2.32267	248755
2.33078	230594
2.33890	217608
2.34703	185784
2.35515	178849
2.36327	176666
2.37140	168772
2.37952	209295
2.38765	223236
2.39577	171865
2.40388	153260
2.41202	150978
2.42013	154613
2.42827	152863
2.43638	147519
2.44450	167429
2.45263	158639
2.46075	138450
2.46887	137163
2.47700	132616
2.48512	137892
2.49325	147285
2.50137	133855
2.50948	129253
2.51762	127101
2.52573	126351
2.53387	118289
2.54198	129868
2.55010	122503
2.55823	126645
2.56635	120970
2.57448	114441
2.58260	118503
2.59072	120011
2.59885	121662
2.60697	121949
2.61508	135052
2.62322	139498
2.63133	132007
2.63947	118007
2.64758	110846
2.65570	117583
2.66383	117420
2.67195	143207
2.68008	160547
2.68820	141158
2.69632	120059
2.70445	110196
2.71257	112117
2.72068	107160
2.72882	109338
2.73693	111236
2.74507	103645
2.75318	108915
2.76130	103422
2.76943	104577
2.77755	104701
2.78568	104862
2.79380	110704
2.80192	110743
2.81005	116834
2.81817	153198
2.82630	400690
2.83442	617349
2.84253	429601
2.85067	242468
2.85878	208048
2.86690	194033
2.87503	168086
2.88315	140110
2.89128	122832
2.89940	124302
2.90752	120223
2.91565	109573
2.92377	113012
2.93190	111741
2.94002	106747
2.94813	106005
2.95627	104186
2.96438	103677
2.97252	103737
2.98063	100403
2.98875	107292
2.99688	116368
3.00500	142996
3.01312	153425
3.02125	215330
3.02937	464927
3.03750	718372
3.04562	1347883
3.05373	4218674
3.06187	7420695
3.06998	5996292
3.07812	3007312
3.08623	1540909
3.09435	959028
3.10248	675359
3.11060	509205
3.11873	406879
3.12685	331490
3.13497	287624
3.14310	248315
3.15122	222720
3.15933	205637
3.16747	194818
3.17558	190966
3.18372	172144
3.19183	163151
3.19995	149963
3.20808	152804
3.21620	152864
3.22433	156072
3.23245	156106
3.24057	155779
3.24870	136970
3.25682	131209
3.26493	127149
3.27307	149930
3.28118	337039
3.28932	1153223
3.29743	3015370
3.30555	4838683
3.31368	4914956
3.32180	3586373
3.32993	2285910
3.33805	1567399
3.34617	1180664
3.35430	903094
3.36242	794203
3.37055	862020
3.37867	1019156
3.38678	999059
3.39492	877031
3.40303	1350432
3.41115	2728020
3.41928	3447401
3.42740	2519092
3.43553	1382632
3.44365	839329
3.45177	609954
3.45990	526507
3.46802	456342
3.47615	421647
3.48427	371751
3.49238	340335
3.50052	316441
3.50863	303577
3.51675	278294
3.52488	260422
3.53300	261944
3.54113	239408
3.54925	226739
3.55737	225255
3.56550	212835
3.57362	216881
3.58175	209408
3.58987	204391
3.59798	205233
3.60612	211499
3.61423	332217
3.62237	786040
3.63048	1592170
3.63860	2001117
3.64673	1501390
3.65485	868276
3.66297	541066
3.67110	402301
3.67922	333111
3.68735	297285
3.69547	256535
3.70358	247000
3.71172	233140
3.71983	229151
3.72797	217382
3.73608	223087
3.74420	214429
3.75233	222199
3.76045	216803
3.76858	199980
3.77670	190695
3.78482	185114
3.79295	186932
3.80107	180952
3.80918	180383
3.81732	175077
3.82543	186179
3.83357	189890
3.84168	182659
3.84980	172813
3.85793	170085
3.86605	164469
3.87418	158838
3.88230	158453
3.89042	160901
3.89855	163030
3.90667	160403
3.91478	160628
3.92292	156310
3.93103	153381
3.93917	159112
3.94728	157819
3.95540	154807
3.96353	149792
3.97165	143139
3.97978	147243
3.98790	148172
3.99602	140120
4.00415	145385
4.01227	147423
4.02040	149341
4.02852	149759
4.03663	136507
4.04477	139553
4.05288	153332
4.06100	156171
4.06913	156196
4.07725	156074
4.08538	148025
4.09350	145775
4.10162	139636
4.10975	146485
4.11787	141789
4.12600	148322
4.13412	146039
4.14223	158501
4.15037	163031
4.15848	159814
4.16662	157549
4.17473	146605
4.18285	140225
4.19098	141481
4.19910	132291
4.20722	136184
4.21535	144737
4.22347	151367
4.23160	164218
4.23972	178993
4.24783	177337
4.25597	157717
4.26408	152942
4.27222	141776
4.28033	147040
4.28845	140666
4.29658	133618
4.30470	136636
4.31282	138093
4.32095	137037
4.32907	136099
4.33720	142358
4.34532	131519
4.35343	124132
4.36157	134285
4.36968	133453
4.37782	132451
4.38593	137356
4.39405	127636
4.40218	129576
4.41030	132718
4.41843	127063
4.42655	125185
4.43467	131689
4.44280	139437
4.45092	147749
4.45903	156244
4.46717	161515
4.47528	157266
4.48342	145285
4.49153	137165
4.49965	129141
4.50778	130533
4.51590	126390
4.52403	132489
4.53215	131181
4.54027	133926
4.54840	127553
4.55652	132204
4.56463	126858
4.57277	130183
4.58088	128565
4.58902	125540
4.59713	122404
4.60525	124133
4.61338	127910
4.62150	122437
4.62963	122753
4.63775	125571
4.64587	121223
4.65400	126164
4.66212	121140
4.67025	124056
4.67837	124665
4.68648	118512
4.69462	127767
4.70273	123885
4.71085	118217
4.71898	114689
4.72710	125886
4.73523	121748
4.74335	120870
4.75147	122174
4.75960	118932
4.76772	118596
4.77585	116201
4.78397	119038
4.79208	117416
4.80022	124334
4.80833	121608
4.81647	118316
4.82458	124109
4.83270	122429
4.84083	121150
4.84895	121159
4.85707	128957
4.86520	130780
4.87332	132596
4.88145	127990
4.88957	124400
4.89768	118253
4.90582	128349
4.91393	141852
4.92207	219512
4.93018	494737
4.93830	1009134
4.94643	1612105
4.95455	1984711
4.96267	1840225
4.97080	1421808
4.97892	987127
4.98705	711291
4.99517	542869
5.00328	424230
5.01142	356696
5.01953	310555
5.02767	279787
5.03578	262196
5.04390	239040
5.05203	218267
5.06015	214788
5.06828	215102
5.07640	203885
5.08452	195406
5.09265	199651
5.10077	228234
5.10888	273258
5.11702	310450
5.12513	319393
5.13327	286784
5.14138	245701
5.14950	213467
5.15763	206733
5.16575	213190
5.17388	252252
5.18200	300833
5.19012	316979
5.19825	299042
5.20637	260301
5.21450	220204
5.22262	214852
5.23073	230355
5.23887	276611
5.24698	379223
5.25510	279152
5.26323	242662
5.27135	209632
5.27948	198186
5.28760	189301
5.29572	178517
5.30385	174275
5.31197	153852
5.32010	160146
5.32822	164753
5.33633	174851
5.34447	171620
5.35258	165675
5.36070	155060
5.36883	143535
5.37695	149130
5.38508	139448
5.39320	137083
5.40132	138038
5.40945	138148
5.41757	137302
5.42570	130594
5.43382	130488
5.44193	143181
5.45007	137908
5.45818	136375
5.46632	138710
5.47443	133041
5.48255	132160
5.49068	131850
5.49880	131701
5.50692	131815
5.51505	134329
5.52317	132006
5.53130	137393
5.53942	133398
5.54753	131819
5.55567	124870
5.56378	129809
5.57192	132842
5.58003	141867
5.58815	140710
5.59628	136543
5.60440	138440
5.61253	145117
5.62065	150572
5.62877	163511
5.63690	171096
5.64502	162548
5.65313	169089
5.66127	155066
5.66938	145407
5.67752	149555
5.68563	151844
5.69375	154356
5.70188	155017
5.71000	168706
5.71813	185274
5.72625	191881
5.73437	202284
5.74250	197991
5.75062	188616
5.75873	192944
5.76687	214378
5.77498	221713
5.78312	203848
5.79123	193726
5.79935	206296
5.80748	296682
5.81560	527417
5.82373	873153
5.83185	1186799
5.83997	1240482
5.84810	1041192
5.85622	732704
5.86435	489364
5.87247	332113
5.88058	261470
5.88872	223636
5.89683	206526
5.90495	225816
5.91308	288673
5.92120	404759
5.92933	515034
5.93745	563488
5.94557	488694
5.95370	382193
5.96182	273879
5.96995	207624
5.97807	185416
5.98618	167800
5.99432	149020
6.00243	138691
6.01055	126375
6.01868	124375
6.02680	109500
6.03493	116249
6.04305	107274
6.05117	103834
6.05930	104823
6.06742	105632
6.07555	102988
6.08367	96998
6.09178	102569
6.09992	97037
6.10803	95400
6.11617	94949
6.12428	90914
6.13240	94288
6.14053	95435
6.14865	104886
6.15677	99940
6.16490	114474
6.17302	109003
6.18115	120223
6.18927	130732
6.19738	147977
6.20552	159941
6.21363	156667
6.22177	138790
6.22988	131282
6.23800	122907
6.24613	127647
6.25425	127506
6.26238	131212
6.27050	131235
6.27862	132053
6.28675	136322
6.29487	142698
6.30298	138881
6.31112	147334
6.31923	143129
6.32737	152209
6.33548	155572
6.34360	150281
6.35173	164390
6.35985	162743
6.36798	172519
6.37610	168707
6.38422	165757
6.39235	168293
6.40047	165800
6.40858	171246
6.41672	165155
6.42483	172688
6.43297	174160
6.44108	178812
6.44920	180267
6.45733	177814
6.46545	181524
6.47358	189667
6.48170	190726
6.48982	191228
6.49795	193024
6.50607	144179
6.51420	127244
6.52232	119101
6.53043	115243
6.53857	114998
6.54668	111781
6.55480	109159
6.56293	108790
6.57105	113271
6.57918	104782
6.58730	100370
6.59542	105255
6.60355	105172
6.61167	102198
6.61980	109166
6.62792	101286
6.63603	99684
6.64417	95916
6.65228	93888
6.66042	90573
6.66853	94955
6.67665	93002
6.68478	88248
6.69290	93456
6.70102	88240
6.70915	86690
6.71727	94749
6.72540	100575
6.73352	128914
6.74163	153474
6.74977	175576
6.75788	188322
6.76602	178918
6.77413	160488
6.78225	130288
6.79038	111819
6.79850	96103
6.80662	94068
6.81475	84076
6.82287	89339
6.83100	84465
6.83912	85967
6.84723	91657
6.85537	96630
6.86348	137576
6.87162	224732
6.87973	383550
6.88785	546686
6.89598	683733
6.90410	738679
6.91223	646232
6.92035	474634
6.92847	314855
6.93660	208804
6.94472	141159
6.95283	111362
6.96097	94120
6.96908	87281
6.97722	77722
6.98533	77879
6.99345	73549
7.00158	67040
7.00970	76548
7.01783	80109
7.02595	96193
7.03407	146908
7.04220	214627
7.05032	276189
7.05843	315338
7.06657	316171
7.07468	273491
7.08282	218715
7.09093	171883
7.09905	139035
7.10718	112303
7.11530	95694
7.12343	97240
7.13155	93850
7.13967	88656
7.14780	88729
7.15592	90024
7.16405	81627
7.17217	77963
7.18028	76116
7.18842	72349
7.19653	73358
7.20465	80186
7.21278	83118
7.22090	84668
7.22903	85930
7.23715	80213
7.24527	87498
7.25340	83491
7.26152	85799
7.26965	96339
7.27777	98775
7.28588	114231
7.29402	122498
7.30213	133206
7.31027	129565
7.31838	112221
7.32650	102762
7.33463	89741
7.34275	97767
7.35087	99171
7.35900	106825
7.36712	98949
7.37525	96198
7.38337	91045
7.39148	112482
7.39962	135100
7.40773	181309
7.41587	223105
7.42398	242482
7.43210	227391
7.44023	200427
7.44835	159344
7.45647	124385
7.46460	108163
7.47272	98402
7.48085	89363
7.48897	91434
7.49708	91388
7.50522	111390
7.51333	140042
7.52147	160073
7.52958	174689
7.53770	166247
7.54583	152684
7.55395	127657
7.56208	102694
7.57020	91031
7.57832	83131
7.58645	74656
7.59457	72580
7.60268	70689
7.61082	67008
7.61893	72788
7.62707	72025
7.63518	69175
7.64330	70440
7.65143	70879
7.65955	68612
7.66768	66439
7.67580	67575
7.68392	65254
7.69205	61468
7.70017	64685
7.70830	65906
7.71642	59750
7.72453	63010
7.73267	63175
7.74078	65995
7.74890	57805
7.75703	60678
7.76515	57404
7.77328	55796
7.78140	62078
7.78952	56267
7.79765	58478
7.80577	56946
7.81390	58827
7.82202	58274
7.83013	59117
7.83827	58973
7.84638	55723
7.85450	60054
7.86263	57579
7.87075	56844
7.87888	53223
7.88700	57942
7.89512	56176
7.90325	54812
7.91137	58135
7.91950	55372
7.92762	51177
7.93573	55162
7.94387	57253
7.95198	53021
7.96012	53880
7.96823	54171
7.97635	56215
7.98448	59493
7.99260	55910
8.00072	57361
8.00885	51404
8.01697	53364
8.02510	53028
8.03322	50253
8.04133	51160
8.04947	51906
8.05758	52420
8.06572	51453
8.07383	48845
8.08195	52453
8.09008	50979
8.09820	52913
8.10632	58202
8.11445	51061
8.12257	49220
8.13070	51200
8.13882	53774
8.14693	50122
8.15507	53403
8.16318	51735
8.17132	55256
8.17943	56217
8.18755	57539
8.19568	58440
8.20380	55638
8.21193	54524
8.22005	52810
8.22817	49646
8.23630	51421
8.24442	50113
8.25253	59655
8.26067	50559
8.26878	56005
8.27692	49295
8.28503	54999
8.29315	59478
8.30128	53447
8.30940	55837
8.31753	51565
8.32565	52410
8.33377	53433
8.34190	56448
8.35002	60396
8.35815	62356
8.36627	63166
8.37438	59063
8.38252	57573
8.39063	54852
8.39875	52951
8.40688	51842
8.41500	51465
8.42313	50019
8.43125	53071
8.43937	52589
8.44750	52075
8.45562	50972
8.46375	52039
8.47187	50544
8.47998	51414
8.48812	55882
8.49623	59988
8.50437	58329
8.51248	65380
8.52060	67407
8.52873	66795
8.53685	61034
8.54497	53160
8.55310	56697
8.56122	59414
8.56935	58704
8.57747	59480
8.58558	57434
8.59372	54063
8.60183	52623
8.60997	51712
8.61808	52403
8.62620	53398
8.63433	51936
8.64245	51056
8.65057	54435
8.65870	53933
8.66682	53170
8.67495	50276
8.68307	49978
8.69118	51573
8.69932	58507
8.70743	52297
8.71557	60606
8.72368	61501
8.73180	66695
8.73993	93658
8.74805	183437
8.75618	320569
8.76430	500083
8.77242	592357
8.78055	570453
8.78867	451581
8.79678	325240
8.80492	215099
8.81303	164832
8.82117	133513
8.82928	113609
8.83740	102856
8.84553	95145
8.85365	87564
8.86178	87339
8.86990	79874
8.87802	82299
8.88615	79970
8.89427	72747
8.90238	77431
8.91052	74270
8.91863	71311
8.92677	73071
8.93488	79666
8.94300	71545
8.95113	68526
8.95925	68461
8.96738	63592
8.97550	65701
8.98362	69379
8.99175	68063
8.99987	66651
9.00800	66071
9.01612	66141
9.02423	65640
9.03237	65068
9.04048	65359
9.04860	63642
9.05673	60696
9.06485	61083
9.07298	60248
9.08110	58932
9.08922	58735
9.09735	60267
9.10547	61893
9.11360	64497
9.12172	61342
9.12983	63041
9.13797	62388
9.14608	58174
9.15422	64109
9.16233	59878
9.17045	56738
9.17858	55607
9.18670	58034
9.19482	61623
9.20295	58681
9.21107	58575
9.21920	61885
9.22732	58858
9.23543	58690
9.24357	56161
9.25168	51901
9.25982	54385
9.26793	59053
9.27605	62769
9.28418	68183
9.29230	70623
9.30042	69445
9.30855	77083
9.31667	68705
9.32480	59797
9.33292	62292
9.34103	58123
9.34917	62383
9.35728	64715
9.36542	61326
9.37353	61680
9.38165	56396
9.38978	58997
9.39790	58152
9.40603	53621
9.41415	53543
9.42227	54519
9.43040	49358
9.43852	54714
9.44663	55029
9.45477	51442
9.46288	49390
9.47102	50909
9.47913	54502
9.48725	53471
9.49538	50547
9.50350	50894
9.51163	47380
9.51975	52424
9.52787	51464
9.53600	50558
9.54412	53408
9.55225	48117
9.56037	49221
9.56848	44992
9.57662	45874
9.58473	45704
9.59285	47792
9.60098	52082
9.60910	50852
9.61723	49140
9.62535	46263
9.63347	47676
9.64160	46842
9.64972	48492
9.65785	53218
9.66597	51962
9.67408	51153
9.68222	46687
9.69033	42309
9.69845	42279
9.70658	40631
9.71470	42541
9.72283	43189
9.73095	43230
9.73907	41065
9.74720	37839
9.75532	35420
9.76345	36393
9.77157	32987
9.77968	39956
9.78782	39949
9.79593	36528
9.80407	37462
9.81218	37618
9.82030	37790
9.82843	35744
9.83655	36160
9.84467	36819
9.85280	36804
9.86092	38641
9.86905	34777
9.87717	37746
9.88528	36371
9.89342	33764
9.90153	36807
9.90967	39389
9.91778	37030
9.92590	38020
9.93403	37787
9.94215	37860
9.95027	37758
9.95840	41779
9.96652	53612
9.97465	58278
9.98277	70425
9.99088	75274
9.99902	75084
10.00713	71991
10.01527	64408
10.02338	56890
10.03150	51152
10.03963	48089
10.04775	48711
10.05588	45719
10.06400	44056
10.07212	41710
10.08025	40982
10.08837	39802
10.09648	40946
10.10462	39892
10.11273	41373
10.12087	38241
10.12898	39016
10.13710	39888
10.14523	38595
10.15335	38234
10.16148	37417
10.16960	34694
10.17772	38642
10.18585	39166
10.19397	37740
10.20210	41494
10.21022	39039
10.21833	41227
10.22647	39156
10.23458	39956
10.24270	38048
10.25083	42941
10.25895	41184
10.26708	41655
10.27520	37007
10.28332	43038
10.29145	44825
10.29957	43858
10.30770	41344
10.31582	44261
10.32393	42749
10.33207	38168
10.34018	39045
10.34830	39097
10.35643	38747
10.36455	36493
10.37268	34953
10.38080	39065
10.38892	40427
10.39705	44199
10.40517	40598
10.41330	44610
10.42142	42425
10.42953	42214
10.43767	37694
10.44578	40141
10.45392	34067
10.46203	33325
10.47015	32252
10.47828	35681
10.48640	34368
10.49452	39657
10.50265	35645
10.51077	34953
10.51890	38968
10.52702	34930
10.53513	36833
10.54327	36708
10.55138	42367
10.55952	40121
10.56763	39785
10.57575	37167
10.58388	37862
10.59200	39476
10.60013	38247
10.60825	39163
10.61637	37076
10.62450	38285
10.63262	34425
10.64073	35384
10.64887	30859
10.65698	35884
10.66512	37120
10.67323	35015
10.68135	37107
10.68948	36782
10.69760	38447
10.70573	35455
10.71385	39632
10.72197	39825
10.73010	38132
10.73822	39574
10.74633	43023
10.75447	36125
10.76258	40433
10.77072	41549
10.77883	40898
10.78695	40099
10.79508	36868
10.80320	34867
10.81133	33310
10.81945	36616
10.82757	36131
10.83570	31209
10.84382	34848
10.85195	32108
10.86007	33571
10.86818	32745
10.87632	35091
10.88443	32267
10.89255	32879
10.90068	30638
10.90880	33415
10.91693	33600
10.92505	33139
10.93317	33537
10.94130	30435
10.94942	29847
10.95755	32655
10.96567	33345
10.97378	30234
10.98192	34069
10.99003	34668
10.99817	41367
11.00628	32774
11.01440	34170
11.02253	39829
11.03065	33866
11.03877	32783
11.04690	31484
11.05502	31213
11.06315	28600
11.07127	28145
11.07938	32860
11.08752	27678
11.09563	33252
11.10377	31489
11.11188	29305
11.12000	30332
11.12813	32267
11.13625	36976
11.14437	37982
11.15250	34109
11.16062	36737
11.16875	38588
11.17687	38764
11.18498	34157
11.19312	39240
11.20123	37374
11.20937	36230
11.21748	36940
11.22560	35879
11.23373	34124
11.24185	36115
11.24998	33713
11.25810	35164
11.26622	37064
11.27435	33805
11.28247	37209
11.29058	43902
11.29872	56966
11.30683	72480
11.31497	80948
11.32308	84443
11.33120	88004
11.33933	88089
11.34745	89160
11.35558	83084
11.36370	77379
11.37182	70399
11.37995	63395
11.38807	54013
11.39618	50800
11.40432	47691
11.41243	43208
11.42057	37633
11.42868	35020
11.43680	38161
11.44493	37253
11.45305	36307
11.46118	35790
11.46930	34629
11.47742	34842
11.48555	36565
11.49367	33217
11.50180	33086
11.50992	34867
11.51803	35728
11.52617	39204
11.53428	38741
11.54240	42719
11.55053	40537
11.55865	47531
11.56678	43884
11.57490	44831
11.58302	42314
11.59115	45478
11.59927	43609
11.60740	45405
11.61552	41868
11.62363	36873
11.63177	35569
11.63988	34715
11.64802	34233
11.65613	35600
11.66425	34429
11.67238	37778
11.68050	36491
11.68862	37979
11.69675	42995
11.70487	51051
11.71300	53115
11.72112	50483
11.72923	54763
11.73737	52711
11.74548	51645
11.75362	51219
11.76173	50235
11.76985	48533
11.77798	48991
11.78610	43994
11.79422	45640
11.80235	43407
11.81047	43593
11.81860	42639
11.82672	40026
11.83483	40495
11.84297	39921
11.85108	41077
11.85922	41749
11.86733	36655
11.87545	38838
11.88358	40132
11.89170	36647
11.89983	34711
11.90795	33259
11.91607	31312
11.92420	32257
11.93232	33063
11.94043	38965
11.94857	37890
11.95668	44720
11.96482	45013
11.97293	49490
11.98105	48965
11.98918	53490
11.99730	49585
12.00543	45781
12.01355	41442
12.02167	39421
12.02980	37899
12.03792	38869
12.04605	30298
12.05417	34239
12.06228	34334
12.07042	32867
12.07853	33597
12.08665	33887
12.09478	32354
12.10290	32387
12.11103	31901
12.11915	31179
12.12727	34722
12.13540	32341
12.14352	33433
12.15165	33243
12.15977	31094
12.16788	34695
12.17602	32502
12.18413	33849
12.19225	32639
12.20038	34563
12.20850	32089
12.21663	32529
12.22475	29892
12.23287	30602
12.24100	30051
12.24912	29017
12.25725	31753
12.26537	30511
12.27348	30485
12.28162	28976
12.28973	34089
12.29787	32437
12.30598	34527
12.31410	29632
12.32223	30505
12.33035	29166
12.33847	29525
12.34660	29974
12.35472	30277
12.36285	29911
12.37097	29939
12.37908	28442
12.38722	30940
12.39533	31912
12.40347	30330
12.41158	29090
12.41970	32486
12.42783	31679
12.43595	35285
12.44407	34247
12.45220	35832
12.46032	37173
12.46845	36814
12.47657	36423
12.48468	32044
12.49282	29533
12.50093	32750
12.50907	31828
12.51718	31528
12.52530	30033
12.53343	31756
12.54155	25426
12.54968	27401
12.55780	26562
12.56592	29957
12.57405	31535
12.58217	29778
12.59028	29719
12.59842	31095
12.60653	28801
12.61467	28916
12.62278	26742
12.63090	28167
12.63903	29379
12.64715	28474
12.65528	26766
12.66340	28746
12.67152	28646
12.67965	29996
12.68777	29949
12.69590	33237
12.70402	27967
12.71213	29976
12.72027	33204
12.72838	34958
12.73650	37621
12.74463	36733
12.75275	39582
12.76088	41393
12.76900	36845
12.77712	33299
12.78525	30860
12.79337	29309
12.80150	31581
12.80962	36164
12.81773	35115
12.82587	35998
12.83398	43378
12.84210	38077
12.85023	38449
12.85835	36240
12.86648	39292
12.87460	34098
12.88272	30673
12.89085	31060
12.89897	28120
12.90710	29784
12.91522	30675
12.92333	30121
12.93147	29677
12.93958	30431
12.94772	31791
12.95583	37491
12.96395	41895
12.97208	49451
12.98020	58303
12.98832	66449
12.99645	78301
13.00457	81528
13.01270	78650
13.02082	78984
13.02893	72151
13.03707	64069
13.04518	53671
13.05332	54481
13.06143	43845
13.06955	40967
13.07768	37722
13.08580	38099
13.09393	36994
13.10205	34051
13.11017	33551
13.11830	34263
13.12642	35779
13.13453	35161
13.14267	35150
13.15078	30367
13.15892	31182
13.16703	32462
13.17515	32851
13.18328	33056
13.19140	31825
13.19953	32887
13.20765	35413
13.21577	34204
13.22390	36220
13.23202	35722
13.24013	31983
13.24827	30610
13.25638	31503
13.26452	34591
13.27263	39831
13.28075	39805
13.28888	44063
13.29700	45526
13.30513	49332
13.31325	45315
13.32137	41649
13.32950	42010
13.33762	43588
13.34575	42750
13.35387	42585
13.36198	45287
13.37012	44940
13.37823	42074
13.38635	36873
13.39448	35394
13.40260	36225
13.41073	37268
13.41885	35192
13.42697	31589
13.43510	33073
13.44322	30449
13.45135	31178
13.45947	29320
13.46758	31619
13.47572	31695
13.48383	30536
13.49195	32391
13.50008	29134
13.50820	28265
13.51633	29986
13.52445	29435
13.53257	33746
13.54070	32054
13.54882	29612
13.55695	32742
13.56507	35987
13.57318	37396
13.58132	38437
13.58943	39591
13.59757	40583
13.60568	43123
13.61380	44002
13.62193	43898
13.63005	42492
13.63817	45829
13.64630	47830
13.65442	52714
13.66255	51232
13.67067	54183
13.67878	46404
13.68692	46111
13.69503	43780
13.70317	41032
13.71128	41786
13.71940	36543
13.72753	35897
13.73565	39472
13.74378	31670
13.75190	35802
13.76002	36645
13.76815	36093
13.77627	34103
13.78438	34340
13.79252	36002
13.80063	34888
13.80877	36135
13.81688	31156
13.82500	30264
13.83313	31988
13.84125	32890
13.84938	30388
13.85750	33819
13.86562	30444
13.87375	33974
13.88187	31223
13.89000	32108
13.89812	34633
13.90623	38268
13.91437	38770
13.92248	44107
13.93060	42307
13.93873	41858
13.94685	44754
13.95498	43811
13.96310	39135
13.97122	40309
13.97935	40931
13.98747	38761
13.99560	38161
14.00372	37019
14.01183	36838
14.01997	35520
14.02808	37447
14.03620	37380
14.04433	36076
14.05245	35195
14.06058	39659
14.06870	36787
14.07682	37015
14.08495	36682
14.09307	35886
14.10120	34353
14.10932	32680
14.11743	34555
14.12557	39027
14.13368	39995
14.14182	49820
14.14993	78546
14.15805	122444
14.16618	165099
14.17430	192284
14.18242	199177
14.19055	170112
14.19867	125767
14.20680	94386
14.21492	79301
14.22303	73994
14.23117	62252
14.23928	62901
14.24742	61403
14.25553	58831
14.26365	60443
14.27178	52464
14.27990	53471
14.28802	51020
14.29615	50065
14.30427	50888
14.31240	43435
14.32052	43355
14.32863	44650
14.33677	37117
14.34488	32989
14.35302	29180
14.36113	29811
14.36925	33530
14.37738	31531
14.38550	25314
14.39363	31140
14.40175	28092
14.40987	34117
14.41800	27956
14.42612	31014
14.43423	31529
14.44237	30853
14.45048	34424
14.45862	31939
14.46673	28468
14.47485	31173
14.48298	33060
14.49110	29358
14.49923	30598
14.50735	30378
14.51547	30293
14.52360	29221
14.53172	30821
14.53985	29781
14.54797	27308
14.55608	28198
14.56422	26067
14.57233	28488
14.58045	30294
14.58858	28104
14.59670	27574
14.60483	30624
14.61295	26562
14.62107	28326
14.62920	27499
14.63732	27366
14.64545	29032
14.65357	28086
14.66168	29427
14.66982	25985
14.67793	28712
14.68605	28544
14.69418	30181
14.70230	28363
14.71043	28036
14.71855	27778
14.72667	30982
14.73480	28274
14.74292	28948
14.75105	30949
14.75917	31642
14.76728	30667
14.77542	30653
14.78353	30158
14.79167	30419
14.79978	29262
14.80790	25308
14.81603	27657
14.82415	29811
14.83227	33515
14.84040	29085
14.84852	28106
14.85665	30668
14.86477	31194
14.87288	30454
14.88102	29784
14.88913	32075
14.89727	28969
14.90538	27961
14.91350	30671
14.92163	30509
14.92975	27184
14.93788	26143
14.94600	30294
14.95412	30516
14.96225	28840
14.97037	28743
14.97848	28640
14.98662	29146
14.99473	30104
15.00287	26420
15.01098	27007
15.01910	30192
15.02723	32398
15.03535	28463
15.04348	29737
15.05160	30261
15.05972	30332
15.06785	27635
15.07597	30692
15.08408	29594
15.09222	28750
15.10033	25739
15.10847	28162
15.11658	26823
15.12470	27963
15.13283	29962
15.14095	26579
15.14908	30617
15.15720	25317
15.16532	29309
15.17345	25363
15.18157	25868
15.18970	29206
15.19782	26823
15.20593	27616
15.21407	25332
15.22218	28276
15.23030	27525
15.23843	30324
15.24655	29001
15.25468	28027
15.26280	26388
15.27092	28200
15.27905	25818
15.28717	27262
15.29530	27831
15.30342	26115
15.31153	27153
15.31967	26290
15.32778	27814
15.33590	26102
15.34403	27602
15.35215	28062
15.36028	30061
15.36840	27966
15.37652	23815
15.38465	24163
15.39277	27598
15.40090	26226
15.40902	27713
15.41713	27764
15.42527	25201
15.43338	24421
15.44152	24904
15.44963	28813
15.45775	28234
15.46588	23723
15.47400	23509
15.48212	27156
15.49025	30885
15.49837	24430
15.50650	25987
15.51462	27595
15.52273	25923
15.53087	27085
15.53898	28230
15.54712	28103
15.55523	26342
15.56335	26199
15.57148	27411
15.57960	27242
15.58773	25568
15.59585	25228
15.60397	26075
15.61210	30985
15.62022	25520
15.62833	25736
15.63647	25836
15.64458	29706
15.65272	26219
15.66083	25620
15.66895	25994
15.67708	27162
15.68520	24993
15.69333	26860
15.70145	29354
15.70957	25594
15.71770	25790
15.72582	26760
15.73393	29793
15.74207	26036
15.75018	31719
15.75832	31233
15.76643	34065
15.77455	36236
15.78268	38000
15.79080	36847
15.79893	32859
15.80705	32947
15.81517	30550
15.82330	29052
15.83142	26713
15.83955	27722
15.84767	29042
15.85578	26241
15.86392	28360
15.87203	29574
15.88015	26298
15.88828	27125
15.89640	29722
15.90453	28484
15.91265	27753
15.92077	25379
15.92890	27071
15.93702	29093
15.94515	30558
15.95327	27462
15.96138	27135
15.96952	26913
15.97763	26822
15.98577	25596
15.99388	26115
16.00200	30375
16.01013	32257
16.01825	35623
16.02637	40565
16.03450	40213
16.04262	40396
16.05075	40180
16.05887	37808
16.06698	35639
16.07512	30144
16.08323	31379
16.09137	31677
16.09948	32523
16.10760	28907
16.11573	30647
16.12385	29802
16.13197	32511
16.14010	25274
16.14822	28722
16.15635	27151
16.16447	31390
16.17258	28888
16.18072	25188
16.18883	28849
16.19697	26308
16.20508	29005
16.21320	26243
16.22133	27625
16.22945	26709
16.23758	26510
16.24570	28446
16.25382	31682
16.26195	28823
16.27007	27660
16.27818	29219
16.28632	27718
16.29443	27517
16.30257	25810
16.31068	26320
16.31880	29124
16.32693	29021
16.33505	28985
16.34318	27210
16.35130	26350
16.35942	30259
16.36755	31998
16.37567	27836
16.38380	26834
16.39192	31006
16.40003	25701
16.40817	27878
16.41628	30101
16.42440	30472
16.43253	28199
16.44065	27727
16.44878	26756
16.45690	26043
16.46502	29970
16.47315	27530
16.48127	29788
16.48940	29188
16.49752	28128
16.50563	29756
16.51377	30022
16.52188	27289
16.53000	27167
16.53813	26798
16.54625	29055
16.55438	28872
16.56250	25942
16.57062	30130
16.57875	28771
16.58687	30790
16.59500	27899
16.60312	29563
16.61123	29909
16.61937	30987
16.62748	29795
16.63562	29085
16.64373	27386
16.65185	27084
16.65998	25837
16.66810	26774
16.67622	27245
16.68435	25865
16.69247	26394
16.70060	25844
16.70872	25127
16.71683	24618
16.72497	26302
16.73308	27277
16.74122	29008
16.74933	31180
16.75745	29909
16.76558	28058
16.77370	28698
16.78182	34346
16.78995	28390
16.79807	29108
16.80620	25949
16.81432	25989
16.82243	27117
16.83057	29782
16.83868	27881
16.84682	27576
16.85493	27000
16.86305	27516
16.87118	28529
16.87930	28201
16.88743	28870
16.89555	28077
16.90367	29160
16.91180	28178
16.91992	29629
16.92803	29741
16.93617	30498
16.94428	30809
16.95242	29358
16.96053	27211
16.96865	28576
16.97678	27410
16.98490	28284
16.99303	23874
17.00115	26566
17.00927	27598
17.01740	29401
17.02552	30657
17.03365	30332
17.04177	30118
17.04988	30112
17.05802	27612
17.06613	30905
17.07425	29793
17.08238	29537
17.09050	28072
17.09863	28668
17.10675	31680
17.11487	28966
17.12300	30547
17.13112	30717
17.13925	26275
17.14737	25067
17.15548	26169
17.16362	27727
17.17173	26419
17.17985	28413
17.18798	27343
17.19610	27124
17.20423	25709
17.21235	25270
17.22047	27324
17.22860	27925
17.23672	29481
17.24485	27277
17.25297	28218
17.26108	27394
17.26922	28082
17.27733	27519
17.28547	29746
17.29358	28573
17.30170	31485
17.30983	29625
17.31795	28032
17.32607	27560
17.33420	27467
17.34232	32213
17.35045	34081
17.35857	34348
17.36668	32095
17.37482	31942
17.38293	31982
17.39107	31688
17.39918	29876
17.40730	36209
17.41543	36256
17.42355	37017
17.43168	34811
17.43980	35173
17.44792	31286
17.45605	33893
17.46417	33723
17.47228	32038
17.48042	26631
17.48853	31272
17.49667	31062
17.50478	30763
17.51290	32884
17.52103	37503
17.52915	38524
17.53728	43135
17.54540	43745
17.55352	48574
17.56165	52502
17.56977	50760
17.57788	47511
17.58602	44758
17.59413	42231
17.60227	37386
17.61038	33186
17.61850	37181
17.62663	32630
17.63475	32501
17.64288	28502
17.65100	28124
17.65912	35253
17.66725	31333
17.67537	34065
17.68350	34853
17.69162	32408
17.69973	32465
17.70787	35625
17.71598	32019
17.72410	31498
17.73223	33925
17.74035	32745
17.74848	30578
17.75660	29641
17.76472	30134
17.77285	31434
17.78097	30257
17.78910	30297
17.79722	31473
17.80533	31601
17.81347	32975
17.82158	30449
17.82970	30637
17.83783	31867
17.84595	34193
17.85408	36438
17.86220	34639
17.87032	35323
17.87845	32459
17.88657	31696
17.89470	32337
17.90282	31692
17.91093	30369
17.91907	30078
17.92718	32147
17.93532	27883
17.94343	29372
17.95155	30760
17.95968	27291
17.96780	27776
17.97592	28909
17.98405	29478
17.99217	29126
18.00030	30751
18.00842	28383
18.01653	32888
18.02467	29641
18.03278	30874
18.04092	32193
18.04903	33522
18.05715	31697
18.06528	33840
18.07340	35536
18.08153	34962
18.08965	33423
18.09777	32968
18.10590	31825
18.11402	34399
18.12213	31164
18.13027	28978
18.13838	31751
18.14652	28601
18.15463	31206
18.16275	32068
18.17088	31289
18.17900	30377
18.18713	30946
18.19525	32182
18.20337	28564
18.21150	32215
18.21962	29220
18.22775	32098
18.23587	31893
18.24398	33466
18.25212	33963
18.26023	32458
18.26835	31829
18.27648	32285
18.28460	29270
18.29273	31453
18.30085	29670
18.30897	29915
18.31710	27862
18.32522	26465
18.33335	30593
18.34147	27311
18.34958	27213
18.35772	29689
18.36583	30648
18.37395	27956
18.38208	31194
18.39020	29954
18.39833	31554
18.40645	29023
18.41457	28630
18.42270	29110
18.43082	30414
18.43895	26321
18.44707	27289
18.45518	26936
18.46332	30039
18.47143	29291
18.47957	27562
18.48768	28229
18.49580	27741
18.50393	31444
18.51205	28562
18.52017	29874
18.52830	31953
18.53642	28896
18.54455	27673
18.55267	26483
18.56078	28821
18.56892	27899
18.57703	27914
18.58517	26964
18.59328	27718
18.60140	28591
18.60953	31502
18.61765	33399
18.62577	35032
18.63390	37099
18.64202	30876
18.65015	33545
18.65827	33017
18.66638	35035
18.67452	35838
18.68263	33218
18.69077	34753
18.69888	31023
18.70700	33956
18.71513	35161
18.72325	33022
18.73138	33409
18.73950	31515
18.74762	33891
18.75575	32245
18.76387	31067
18.77198	31058
18.78012	32711
18.78823	31433
18.79637	32656
18.80448	33683
18.81260	32124
18.82073	30128
18.82885	32165
18.83698	32508
18.84510	30344
18.85322	33734
18.86135	30105
18.86947	35401
18.87760	32312
18.88572	32666
18.89383	36163
18.90197	36660
18.91008	33645
18.91820	35810
18.92633	35424
18.93445	32319
18.94258	33015
18.95070	30264
18.95882	32234
18.96695	28496
18.97507	26927
18.98320	29170
18.99132	29839
18.99943	30525
19.00757	29266
19.01568	30885
19.02380	34234
19.03193	37203
19.04005	34515
19.04818	33221
19.05630	33737
19.06442	31859
19.07255	37312
19.08067	41316
19.08880	45636
19.09692	52728
19.10503	52285
19.11317	50367
19.12128	48666
19.12942	46526
19.13753	44382
19.14565	45851
19.15378	48779
19.16190	49096
19.17002	49925
19.17815	49998
19.18627	43370
19.19440	45790
19.20252	40896
19.21063	42965
19.21877	38887
19.22688	34390
19.23502	36139
19.24313	34745
19.25125	32966
19.25938	31738
19.26750	35795
19.27563	34907
19.28375	40589
19.29187	36950
19.30000	41943
19.30812	38904
19.31623	37111
19.32437	33875
19.33248	35634
19.34062	36215
19.34873	32910
19.35685	30777
19.36498	32386
19.37310	31809
19.38123	33692
19.38935	32705
19.39747	32406
19.40560	32283
19.41372	30759
19.42183	33081
19.42997	35258
19.43808	39745
19.44622	53609
19.45433	71377
19.46245	90274
19.47058	113662
19.47870	108914
19.48683	94778
19.49495	77822
19.50307	61463
19.51120	48631
19.51932	37338
19.52745	36677
19.53557	36299
19.54368	34669
19.55182	33318
19.55993	33741
19.56805	33176
19.57618	34086
19.58430	32464
19.59243	33628
19.60055	32253
19.60867	35092
19.61680	30087
19.62492	32858
19.63305	39822
19.64117	43722
19.64928	52586
19.65742	62175
19.66553	68939
19.67365	63980
19.68178	59010
19.68990	51988
19.69803	47704
19.70615	43613
19.71427	39560
19.72240	40220
19.73052	38409
19.73865	34545
19.74677	33560
19.75488	31824
19.76302	35706
19.77113	36224
19.77927	32144
19.78738	34477
19.79550	33541
19.80363	32704
19.81175	31130
19.81987	33731
19.82800	31839
19.83612	34048
19.84425	31830
19.85237	34721
19.86048	36929
19.86862	41729
19.87673	40904
19.88487	45036
19.89298	51388
19.90110	58304
19.90923	63708
19.91735	71947
19.92548	66266
19.93360	72727
19.94172	62592
19.94985	64055
19.95797	61662
19.96608	62472
19.97422	56661
19.98233	55313
19.99047	54953
19.99858	54444
20.00670	52894
20.01483	53055
20.02295	51511
20.03108	52533
20.03920	46735
20.04732	47548
20.05545	43602
20.06357	40569
20.07168	36084
20.07982	37357
20.08793	41124
20.09607	38351
20.10418	35830
20.11230	31578
20.12043	38343
20.12855	34797
20.13668	33586
20.14480	32718
20.15292	34990
20.16105	35006
20.16917	31591
20.17730	36299
20.18542	35896
20.19353	38699
20.20167	35173
20.20978	42169
20.21790	39512
20.22603	38340
20.23415	43930
20.24228	47415
20.25040	49370
20.25852	57209
20.26665	66172
20.27477	59959
20.28290	60396
20.29102	52353
20.29913	48088
20.30727	45593
20.31538	43860
20.32352	40303
20.33163	35157
20.33975	33399
20.34788	34173
20.35600	36069
20.36412	34591
20.37225	30152
20.38037	36077
20.38850	31869
20.39662	36450
20.40473	34185
20.41287	38691
20.42098	37830
20.42912	36560
20.43723	37074
20.44535	35839
20.45348	35610
20.46160	38021
20.46972	34780
20.47785	31695
20.48597	34763
20.49410	34712
20.50222	35014
20.51033	32342
20.51847	37695
20.52658	29341
20.53472	33454
20.54283	32290
20.55095	29184
20.55908	30629
20.56720	30510
20.57533	29290
20.58345	29983
20.59157	31371
20.59970	28808
20.60782	27635
20.61593	30156
20.62407	30361
20.63218	28049
20.64032	28155
20.64843	34127
20.65655	29302
20.66468	29268
20.67280	27521
20.68093	26471
20.68905	30235
20.69717	32865
20.70530	26433
20.71342	31205
20.72153	31115
20.72967	28879
20.73778	31733
20.74592	31580
20.75403	31027
20.76215	27499
20.77028	31092
20.77840	32188
20.78653	31979
20.79465	32805
20.80277	29286
20.81090	30495
20.81902	27931
20.82715	32012
20.83527	32801
20.84338	30746
20.85152	27356
20.85963	32152
20.86775	30758
20.87588	25908
20.88400	29469
20.89213	25718
20.90025	25543
20.90837	28006
20.91650	29278
20.92462	28812
20.93275	30348
20.94087	30082
20.94898	29041
20.95712	28604
20.96523	28772
20.97337	29102
20.98148	31451
20.98960	29930
20.99773	29252
21.00585	30050
21.01397	26167
21.02210	29039
21.03022	32150
21.03835	32870
21.04647	32788
21.05458	30691
21.06272	31555
21.07083	31726
21.07897	29535
21.08708	30900
21.09520	30168
21.10333	28115
21.11145	30092
21.11957	29972
21.12770	30116
21.13582	27388
21.14395	29698
21.15207	31741
21.16018	28426
21.16832	28666
21.17643	30041
21.18457	31000
21.19268	29835
21.20080	29989
21.20893	29368
21.21705	28252
21.22518	32241
21.23330	33973
21.24142	30728
21.24955	31948
21.25767	32511
21.26578	33934
21.27392	37111
21.28203	33387
21.29017	32096
21.29828	32595
21.30640	32851
21.31453	33339
21.32265	33835
21.33078	29411
21.33890	32624
21.34702	28231
21.35515	28863
21.36327	29044
21.37140	30124
21.37952	27436
21.38763	28650
21.39577	31458
21.40388	30504
21.41200	30147
21.42013	31641
21.42825	31428
21.43638	30145
21.44450	28805
21.45262	31308
21.46075	30329
21.46887	29782
21.47700	31715
21.48512	31099
21.49323	29529
21.50137	28733
21.50948	28288
21.51760	28224
21.52573	30456
21.53385	30363
21.54198	31184
21.55010	25688
21.55822	30461
21.56635	32419
21.57447	25675
21.58260	29343
21.59072	34770
21.59883	37092
21.60697	38368
21.61508	39728
21.62322	40510
21.63133	38956
21.63945	37699
21.64758	36074
21.65570	31392
21.66382	32183
21.67195	30862
21.68007	31085
21.68820	29211
21.69632	27056
21.70443	28352
21.71257	27284
21.72068	32040
21.72882	29585
21.73693	29249
21.74505	28852
21.75318	31066
21.76130	32362
21.76943	33008
21.77755	31810
21.78567	30998
21.79380	33490
21.80192	31541
21.81003	38378
21.81817	37711
21.82628	34124
21.83442	32476
21.84253	30302
21.85065	32502
21.85878	28068
21.86690	30807
21.87503	29209
21.88315	28297
21.89127	31254
21.89940	29753
21.90752	27679
21.91563	29025
21.92377	32468
21.93188	29248
21.94002	27141
21.94813	26539
21.95625	27519
21.96438	30439
21.97250	28697
21.98063	29704
21.98875	26349
21.99687	24091
22.00500	27157
22.01312	29623
22.02125	28679
22.02937	26586
22.03748	27209
22.04562	28590
22.05373	29302
22.06185	27925
22.06998	31364
22.07810	31663
22.08623	33009
22.09435	30157
22.10247	29085
22.11060	28747
22.11872	34272
22.12685	30294
22.13497	30240
22.14308	25693
22.15122	25410
22.15933	27648
22.16745	28075
22.17558	28825
22.18370	30018
22.19183	28747
22.19995	32706
22.20807	30009
22.21620	25860
22.22432	27749
22.23245	28676
22.24057	31481
22.24868	32688
22.25682	28320
22.26493	29682
22.27307	28826
22.28118	27031
22.28930	30981
22.29743	28924
22.30555	29020
22.31367	33034
22.32180	28001
22.32992	32125
22.33805	29143
22.34617	28971
22.35428	30513
22.36242	32264
22.37053	29132
22.37867	27872
22.38678	26505
22.39490	30332
22.40303	26467
22.41115	26891
22.41928	29618
22.42740	27722
22.43552	26754
22.44365	27956
22.45177	28887
22.45988	26582
22.46802	26602
22.47613	30120
22.48427	27823
22.49238	29680
22.50050	25879
22.50863	26536
22.51675	28446
22.52488	29197
22.53300	27906
22.54112	31154
22.54925	28064
22.55737	27783
22.56548	28415
22.57362	25881
22.58173	24802
22.58987	29396
22.59798	27807
22.60610	28969
22.61423	27938
22.62235	28219
22.63048	28064
22.63860	26838
22.64672	24695
22.65485	28537
22.66297	26281
22.67110	26214
22.67922	27772
22.68733	28056
22.69547	26705
22.70358	26968
22.71170	30989
22.71983	29202
22.72795	29171
22.73608	28110
22.74420	27553
22.75232	27803
22.76045	28618
22.76857	25841
22.77670	28788
22.78482	27763
22.79293	27188
22.80107	28458
22.80918	26956
22.81732	27494
22.82543	28278
22.83355	29796
22.84168	27998
22.84980	26326
22.85792	27257
22.86605	28897
22.87417	28566
22.88230	32037
22.89042	30044
22.89853	33955
22.90667	37491
22.91478	37602
22.92292	37918
22.93103	43176
22.93915	46521
22.94728	44895
22.95540	44810
22.96352	45590
22.97165	44747
22.97977	41532
22.98790	39898
22.99602	38401
23.00413	37778
23.01227	35270
23.02038	35069
23.02852	34287
23.03663	35011
23.04475	33376
23.05288	32687
23.06100	31880
23.06913	32601
23.07725	30821
23.08537	30469
23.09350	30020
23.10162	31769
23.10973	26407
23.11787	28609
23.12598	28307
23.13412	31178
23.14223	29654
23.15035	29219
23.15848	30433
23.16660	29504
23.17473	28800
23.18285	31147
23.19097	29597
23.19910	27108
23.20722	27752
23.21533	29791
23.22347	27133
23.23158	27498
23.23972	28767
23.24783	26290
23.25595	29724
23.26408	29822
23.27220	25836
23.28033	29364
23.28845	27855
23.29657	29138
23.30470	30477
23.31282	31133
23.32095	30051
23.32907	31956
23.33718	30951
23.34532	31545
23.35343	32122
23.36155	28864
23.36968	29583
23.37780	33597
23.38593	33519
23.39405	32785
23.40217	31556
23.41030	34642
23.41842	31893
23.42655	32745
23.43467	28889
23.44278	32334
23.45092	27430
23.45903	26266
23.46717	29935
23.47528	31669
23.48340	29241
23.49153	30644
23.49965	28301
23.50777	29655
23.51590	30615
23.52402	30592
23.53215	28611
23.54027	29745
23.54838	28987
23.55652	32169
23.56463	34046
23.57277	33758
23.58088	33090
23.58900	31642
23.59713	30140
23.60525	33359
23.61338	32554
23.62150	32650
23.62962	33491
23.63775	30684
23.64587	36505
23.65398	36207
23.66212	32114
23.67023	38032
23.67837	36131
23.68648	36100
23.69460	34253
23.70273	35532
23.71085	33633
23.71898	35240
23.72710	39593
23.73522	45371
23.74335	80849
23.75147	164450
23.75958	340563
23.76772	667251
23.77583	1103365
23.78397	1536403
23.79208	1735681
23.80020	1622581
23.80833	1342646
23.81645	1027381
23.82458	807352
23.83270	619121
23.84082	468078
23.84895	375006
23.85707	301807
23.86520	264089
23.87332	222112
23.88143	192575
23.88957	176552
23.89768	159673
23.90580	146053
23.91393	130987
23.92205	125891
23.93018	116140
23.93830	108810
23.94642	104716
23.95455	103042
23.96267	100392
23.97080	91017
23.97892	88057
23.98703	86393
23.99517	82774
24.00328	77404
24.01140	79190
24.01953	70821
24.02765	71537
24.03578	72285
24.04390	69560
24.05202	68932
24.06015	64298
24.06827	65677
24.07640	64260
24.08452	67230
24.09263	70619
24.10077	59423
24.10888	60929
24.11702	58327
24.12513	61575
24.13325	56443
24.14138	57547
24.14950	52954
24.15762	53150
24.16575	55548
24.17387	56974
24.18200	61153
24.19012	60472
24.19823	60684
24.20637	58664
24.21448	59450
24.22262	52296
24.23073	51263
24.23885	51330
24.24698	50094
24.25510	46525
24.26323	48841
24.27135	45156
24.27947	44583
24.28760	45789
24.29572	46690
24.30383	44779
24.31197	51150
24.32008	49298
24.32822	50244
24.33633	58947
24.34445	72085
24.35258	87281
24.36070	91049
24.36883	83146
24.37695	72010
24.38507	62583
24.39320	47650
24.40132	52921
24.40943	45566
24.41757	43473
24.42568	42518
24.43382	44231
24.44193	43972
24.45005	43338
24.45818	46699
24.46630	48451
24.47443	45493
24.48255	44280
24.49067	43717
24.49880	43273
24.50692	39859
24.51505	39439
24.52317	40031
24.53128	40680
24.53942	36438
24.54753	34718
24.55565	37358
24.56378	38504
24.57190	36338
24.58003	38191
24.58815	38705
24.59627	39196
24.60440	35679
24.61252	35944
24.62065	35761
24.62877	39155
24.63688	36689
24.64502	34721
24.65313	36264
24.66127	36098
24.66938	36981
24.67750	38683
24.68563	37534
24.69375	33727
24.70187	33421
24.71000	34280
24.71812	35280
24.72625	34457
24.73437	35623
24.74248	37000
24.75062	34595
24.75873	35347
24.76687	33806
24.77498	37624
24.78310	37376
24.79123	37825
24.79935	35676
24.80747	38206
24.81560	37283
24.82372	35910
24.83185	35302
24.83997	35253
24.84808	36899
24.85622	36644
24.86433	35027
24.87247	32034
24.88058	35230
24.88870	36380
24.89683	34831
24.90495	32126
24.91308	32529
24.92120	33601
24.92932	35254
24.93745	33527
24.94557	32577
24.95368	29113
24.96182	34404
24.96993	30881
24.97807	33415
24.98618	33963
24.99430	33126
25.00243	30227
25.01055	34770
25.01868	31728
25.02680	30995
25.03492	30538
25.04305	32956
25.05117	33407
25.05928	33998
25.06742	32856
25.07553	33504
25.08367	32482
25.09178	34327
25.09990	31479
25.10803	32028
25.11615	31743
25.12428	31630
25.13240	30927
25.14052	31480
25.14865	33236
25.15677	32805
25.16490	35294
25.17302	32394
25.18113	30442
25.18927	33287
25.19738	32286
25.20550	34176
25.21363	30534
25.22175	29226
25.22988	29680
25.23800	27733
25.24612	29491
25.25425	29689
25.26237	28693
25.27050	31346
25.27862	30993
25.28673	33485
25.29487	37256
25.30298	33227
25.31112	35073
25.31923	39474
25.32735	38415
25.33548	38322
25.34360	37057
25.35172	34387
25.35985	31652
25.36797	31645
25.37610	29979
25.38422	32451
25.39233	29995
25.40047	32775
25.40858	32674
25.41672	29468
25.42483	31090
25.43295	34852
25.44108	32437
25.44920	31808
25.45732	30934
25.46545	32257
25.47357	26959
25.48170	28979
25.48982	29998
25.49793	33685
25.50607	34112
25.51418	31514
25.52232	30776
25.53043	31248
25.53855	30479
25.54668	28709
25.55480	29819
25.56293	28972
25.57105	27844
25.57917	27159
25.58730	26562
25.59542	29243
25.60353	28913
25.61167	29349
25.61978	25590
25.62792	27771
25.63603	24367
25.64415	28907
25.65228	29709
25.66040	28303
25.66853	27149
25.67665	30202
25.68477	31383
25.69290	26461
25.70102	28258
25.70915	23945
25.71727	29063
25.72538	27961
25.73352	27887
25.74163	28717
25.74975	27380
25.75788	29614
25.76600	28084
25.77413	29152
25.78225	25987
25.79037	27619
25.79850	28981
25.80662	30228
25.81475	28647
25.82287	24758
25.83098	26718
25.83912	25069
25.84723	28495
25.85535	27041
25.86348	27755
25.87160	23871
25.87973	26757
25.88785	25428
25.89597	27580
25.90410	28646
25.91222	27949
25.92035	28020
25.92847	26644
25.93658	25193
25.94472	24300
25.95283	30294
25.96097	25701
25.96908	26903
25.97720	25802
25.98533	25791
25.99345	29301
26.00157	26901
26.00970	24676
26.01782	27397
26.02595	28106
26.03407	27111
26.04218	26013
26.05032	29505
26.05843	26976
26.06657	27388
26.07468	25117
26.08280	27743
26.09093	26293
26.09905	28444
26.10717	30219
26.11530	30662
26.12342	31267
26.13155	32311
26.13967	35781
26.14778	38216
26.15592	34224
26.16403	37784
26.17217	34617
26.18028	33819
26.18840	36821
26.19653	30269
26.20465	32864
26.21278	30441
26.22090	27159
26.22902	28405
26.23715	29558
26.24527	31048
26.25338	27924
26.26152	29169
26.26963	30482
26.27777	30709
26.28588	29178
26.29400	27941
26.30213	29395
26.31025	28470
26.31838	26504
26.32650	27441
26.33462	31629
26.34275	29525
26.35087	31229
26.35900	32245
26.36712	34248
26.37523	30367
26.38337	29847
26.39148	30449
26.39960	32102
26.40773	31923
26.41585	30444
26.42398	32390
26.43210	29841
26.44022	29103
26.44835	31690
26.45647	29537
26.46460	30366
26.47272	29286
26.48083	28468
26.48897	29229
26.49708	31077
26.50520	26420
26.51333	28246
26.52145	26193
26.52958	32468
26.53770	30011
26.54582	30280
26.55395	28159
26.56207	29936
26.57020	34026
26.57832	29403
26.58643	28921
26.59457	29528
26.60268	29436
26.61082	27652
26.61893	27645
26.62705	28420
26.63518	27106
26.64330	27871
26.65142	29236
26.65955	27488
26.66767	27302
26.67580	28237
26.68392	28155
26.69203	27683
26.70017	25168
26.70828	26609
26.71642	29497
26.72453	29740
26.73265	26641
26.74078	28764
26.74890	30503
26.75703	30689
26.76515	28111
26.77327	29054
26.78140	29372
26.78952	28667
26.79763	26375
26.80577	31210
26.81388	28716
26.82202	26570
26.83013	30438
26.83825	28653
26.84638	28103
26.85450	25991
26.86263	27103
26.87075	28185
26.87887	26722
26.88700	27327
26.89512	30699
26.90323	33628
26.91137	28385
26.91948	27698
26.92762	30528
26.93573	33834
26.94385	31842
26.95198	44582
26.96010	57400
26.96823	78957
26.97635	128525
26.98447	164150
26.99260	210226
27.00072	240775
27.00885	245844
27.01697	239818
27.02508	218288
27.03322	185528
27.04133	155653
27.04945	121458
27.05758	109207
27.06570	89071
27.07383	78828
27.08195	70444
27.09007	62309
27.09820	56920
27.10632	58784
27.11445	54472
27.12257	49846
27.13068	47587
27.13882	46756
27.14693	46220
27.15507	45200
27.16318	44381
27.17130	40201
27.17943	42722
27.18755	41958
27.19567	40047
27.20380	40311
27.21192	36825
27.22005	36939
27.22817	35900
27.23628	35043
27.24442	35119
27.25253	35421
27.26067	35888
27.26878	33956
27.27690	33846
27.28503	31348
27.29315	36305
27.30127	34318
27.30940	32661
27.31752	33021
27.32565	32752
27.33377	35828
27.34188	30440
27.35002	31220
27.35813	33335
27.36627	33875
27.37438	34156
27.38250	31188
27.39063	32296
27.39875	32926
27.40688	30724
27.41500	32531
27.42312	30019
27.43125	32202
27.43937	29231
27.44748	33189
27.45562	29357
27.46373	29678
27.47187	30651
27.47998	32751
27.48810	32653
27.49623	32015
27.50435	29112
27.51248	30757
27.52060	28443
27.52872	30236
27.53685	29022
27.54497	27295
27.55308	29223
27.56122	31025
27.56933	29870
27.57747	30835
27.58558	29395
27.59370	28237
27.60183	28298
27.60995	27986
27.61808	29671
27.62620	26006
27.63432	28150
27.64245	30706
27.65057	28313
27.65870	26033
27.66682	26886
27.67493	29949
27.68307	32577
27.69118	29185
27.69930	28261
27.70743	28801
27.71555	28691
27.72368	29322
27.73180	29516
27.73992	33474
27.74805	33554
27.75617	36028
27.76430	35224
27.77242	32758
27.78053	31096
27.78867	30625
27.79678	27652
27.80492	30652
27.81303	32470
27.82115	32779
27.82928	28723
27.83740	30727
27.84552	28268
27.85365	34490
27.86177	28685
27.86990	27486
27.87802	29286
27.88613	28882
27.89427	29949
27.90238	26819
27.91052	30333
27.91863	28683
27.92675	25494
27.93488	26957
27.94300	27181
27.95112	25113
27.95925	29535
27.96737	31373
27.97550	30229
27.98362	31884
27.99173	31991
27.99987	32185
28.00798	27836
28.01612	29392
28.02423	29196
28.03235	27055
28.04048	28000
28.04860	28651
28.05673	27600
28.06485	26501
28.07297	33060
28.08110	30024
28.08922	37600
28.09733	41202
28.10547	45915
28.11358	47031
28.12172	48393
28.12983	47571
28.13795	42609
28.14608	42639
28.15420	35438
28.16233	34162
28.17045	31775
28.17857	28877
28.18670	31331
28.19482	29744
28.20295	32094
28.21107	29909
28.21918	28359
28.22732	30130
28.23543	28364
28.24355	29668
28.25168	31947
28.25980	37581
28.26793	44717
28.27605	54559
28.28417	67641
28.29230	79765
28.30042	99132
28.30855	115616
28.31667	125759
28.32478	139035
28.33292	135324
28.34103	125626
28.34915	129885
28.35728	119111
28.36540	106596
28.37353	97750
28.38165	86574
28.38977	83553
28.39790	71698
28.40602	68543
28.41415	64531
28.42227	60419
28.43038	57020
28.43852	53117
28.44663	53794
28.45477	49896
28.46288	41810
28.47100	44530
28.47913	41238
28.48725	41956
28.49537	43558
28.50350	42638
28.51162	43492
28.51975	40354
28.52787	40491
28.53598	37025
28.54412	41877
28.55223	39117
28.56037	37634
28.56848	38453
28.57660	38385
28.58473	38622
28.59285	36558
28.60097	35867
28.60910	36314
28.61722	36292
28.62535	40224
28.63347	36999
28.64158	40308
28.64972	43057
28.65783	42224
28.66597	39616
28.67408	37248
28.68220	38680
28.69033	45339
28.69845	39409
28.70658	46251
28.71470	46325
28.72282	56107
28.73095	57773
28.73907	48581
28.74718	46813
28.75532	37385
28.76343	35792
28.77157	36225
28.77968	35616
28.78780	32842
28.79593	31875
28.80405	29334
28.81218	32293
28.82030	30891
28.82842	33271
28.83655	33192
28.84467	31606
28.85280	32017
28.86092	32506
28.86903	31385
28.87717	30311
28.88528	32809
28.89340	33897
28.90153	30943
28.90965	32406
28.91778	32032
28.92590	30513
28.93402	33916
28.94215	30955
28.95027	35098
28.95840	36586
28.96652	34405
28.97463	34478
28.98277	33761
28.99088	35353
28.99902	35260
29.00713	32872
29.01525	32294
29.02338	32433
29.03150	28922
29.03962	30473
29.04775	29567
29.05587	29601
29.06400	27679
29.07212	31200
29.08023	32042
29.08837	28543
29.09648	29702
29.10462	28819
29.11273	31656
29.12085	28922
29.12898	31005
29.13710	30146
29.14522	30906
29.15335	30282
29.16147	32703
29.16960	30386
29.17772	33506
29.18583	29939
29.19397	29995
29.20208	32708
29.21022	32105
29.21833	28413
29.22645	32068
29.23458	35118
29.24270	29930
29.25083	32192
29.25895	33504
29.26707	30674
29.27520	32167
29.28332	30906
29.29143	31246
29.29957	32164
29.30768	30628
29.31582	31855
29.32393	29428
29.33205	29111
29.34018	29439
29.34830	26888
29.35643	28992
29.36455	28566
29.37267	27515
29.38080	31449
29.38892	32443
29.39703	26160
29.40517	30717
29.41328	30339
29.42142	30546
29.42953	31500
29.43765	31807
29.44578	28617
29.45390	31318
29.46203	26002
29.47015	32630
29.47827	33738
29.48640	30865
29.49452	31441
29.50265	32816
29.51077	33791
29.51888	34122
29.52702	31544
29.53513	34674
29.54325	35606
29.55138	31715
29.55950	31497
29.56763	30661
29.57575	30646
29.58387	35011
29.59200	38766
29.60012	39895
29.60825	35994
29.61637	36896
29.62448	33172
29.63262	36364
29.64073	32148
29.64887	29492
29.65698	27787
29.66510	29577
29.67323	31057
29.68135	32222
29.68947	28245
29.69760	28986
29.70572	31916
29.71385	26933
29.72197	28223
29.73008	29916
29.73822	27952
29.74633	28966
29.75447	25412
29.76258	25937
29.77070	27779
29.77883	27038
29.78695	29737
29.79507	26502
29.80320	27425
29.81132	29539
29.81945	26915
29.82757	29788
29.83568	32221
29.84382	30949
29.85193	24740
29.86007	28608
29.86818	30567
29.87630	32484
29.88443	34729
29.89255	37391
29.90068	48019
29.90880	47354
29.91692	52523
29.92505	62600
29.93317	64870
29.94128	70240
29.94942	74719
29.95753	78887
29.96567	80037
29.97378	79597
29.98190	75519
29.99003	78986
29.99815	70204
30.00628	67160
30.01440	64492
30.02252	63263
30.03065	52950
30.03877	55202
30.04690	53936
30.05502	55171
30.06313	50503
30.07127	47846
30.07938	44907
30.08750	45328
30.09563	46209
30.10375	40684
30.11188	42243
30.12000	38289
30.12812	38822
30.13625	37124
30.14437	38880
30.15250	37962
30.16062	36134
30.16873	36520
30.17687	35151
30.18498	34619
30.19310	32969
30.20123	36004
30.20935	34930
30.21748	33000
30.22560	32702
30.23372	34014
30.24185	31069
30.24997	31361
30.25810	32431
30.26622	35002
30.27433	35678
30.28247	32660
30.29058	34871
30.29872	32708
30.30683	32365
30.31495	28412
30.32308	34951
30.33120	32040
30.33932	30678
30.34745	32730
30.35557	30825
30.36370	35655
30.37182	32652
30.37993	32762
30.38807	30160
30.39618	32386
30.40432	30788
30.41243	30374
30.42055	30487
30.42868	26919
30.43680	30286
30.44492	30378
30.45305	32855
30.46117	29582
30.46930	29603
30.47742	32683
30.48553	36975
30.49367	30087
30.50178	30465
30.50992	31729
30.51803	29895
30.52615	30786
30.53428	32023
30.54240	28031
30.55053	27326
30.55865	32542
30.56677	30668
30.57490	30772
30.58302	30320
30.59113	29660
30.59927	28491
30.60738	29596
30.61552	29958
30.62363	28262
30.63175	32229
30.63988	28651
30.64800	32112
30.65613	31009
30.66425	30932
30.67237	29764
30.68050	31936
30.68862	29638
30.69675	29812
30.70487	29042
30.71298	29863
30.72112	28278
30.72923	27897
30.73735	28123
30.74548	30711
30.75360	31285
30.76173	30057
30.76985	32812
30.77797	33000
30.78610	31819
30.79422	31928
30.80235	30299
30.81047	32550
30.81858	33254
30.82672	31009
30.83483	29919
30.84295	31222
30.85108	30365
30.85920	29692
30.86733	33977
30.87545	28100
30.88357	29495
30.89170	26930
30.89982	30901
30.90795	29880
30.91607	29193
30.92418	30493
30.93232	31389
30.94043	30001
30.94857	28303
30.95668	29590
30.96480	30400
30.97293	27538
30.98105	28587
30.98917	27702
30.99730	33117
31.00542	30775
31.01355	30922
31.02167	31430
31.02978	31678
31.03792	29310
31.04603	29526
31.05417	31621
31.06228	27442
31.07040	29230
31.07853	31048
31.08665	30637
31.09478	31979
31.10290	35530
31.11102	33974
31.11915	33974
31.12727	34790
31.13538	31669
31.14352	31210
31.15163	31855
31.15977	33266
31.16788	33431
31.17600	40809
31.18413	47212
31.19225	58206
31.20038	69876
31.20850	75760
31.21662	76325
31.22475	70644
31.23287	64040
31.24098	50333
31.24912	42478
31.25723	37717
31.26537	35676
31.27348	31323
31.28160	35377
31.28973	29876
31.29785	34836
31.30598	29949
31.31410	30662
31.32222	30498
31.33035	28312
31.33847	29178
31.34660	28069
31.35472	30288
31.36283	33455
31.37097	32573
31.37908	32695
31.38720	30429
31.39533	28772
31.40345	27969
31.41158	31679
31.41970	29615
31.42782	28677
31.43595	32556
31.44407	30368
31.45220	29792
31.46032	27764
31.46843	31092
31.47657	27956
31.48468	31199
31.49282	32523
31.50093	29788
31.50905	29771
31.51718	29994
31.52530	31610
31.53342	30898
31.54155	31815
31.54967	29067
31.55780	29176
31.56592	28706
31.57403	33118
31.58217	33967
31.59028	28888
31.59842	30163
31.60653	28064
31.61465	31629
31.62278	32638
31.63090	29884
31.63902	29435
31.64715	27856
31.65527	31121
31.66340	31854
31.67152	38815
31.67963	35724
31.68777	36410
31.69588	37384
31.70402	38338
31.71213	37151
31.72025	35001
31.72838	30051
31.73650	29234
31.74463	33530
31.75275	31998
31.76087	28918
31.76900	33252
31.77712	35874
31.78523	39282
31.79337	35872
31.80148	35231
31.80962	32198
31.81773	33718
31.82585	33422
31.83398	36231
31.84210	38101
31.85023	39715
31.85835	44631
31.86647	49508
31.87460	52837
31.88272	54792
31.89083	58353
31.89897	56727
31.90708	55929
31.91522	60477
31.92333	58436
31.93145	58841
31.93958	55093
31.94770	54576
31.95583	53867
31.96395	48330
31.97207	50056
31.98020	49630
31.98832	45510
31.99645	43907
32.00457	44319
32.01268	43338
32.02082	43295
32.02893	42445
32.03705	41337
32.04518	40216
32.05330	41507
32.06143	39428
32.06955	37147
32.07767	36296
32.08580	39623
32.09392	35199
32.10205	33445
32.11017	34917
32.11828	35280
32.12642	34387
32.13453	33612
32.14267	36145
32.15078	32337
32.15890	32769
32.16703	38281
32.17515	32217
32.18327	37572
32.19140	33140
32.19952	36134
32.20765	35679
32.21577	33315
32.22388	35159
32.23202	32396
32.24013	33816
32.24827	31050
32.25638	32205
32.26450	34646
32.27263	31894
32.28075	36199
32.28887	33772
32.29700	35438
32.30512	34954
32.31325	33662
32.32137	33918
32.32948	34730
32.33762	31674
32.34573	32885
32.35387	32601
32.36198	35021
32.37010	34294
32.37823	35470
32.38635	35742
32.39448	34643
32.40260	34010
32.41072	34239
32.41885	34160
32.42697	32530
32.43508	34328
32.44322	32599
32.45133	34041
32.45947	36238
32.46758	33407
32.47570	31153
32.48383	34774
32.49195	34431
32.50008	32421
32.50820	30538
32.51632	32776
32.52445	32574
32.53257	31284
32.54070	32726
32.54882	32613
32.55693	32195
32.56507	29448
32.57318	34766
32.58130	40689
32.58943	37851
32.59755	40418
32.60568	43469
32.61380	46190
32.62192	46085
32.63005	43712
32.63817	45753
32.64630	41449
32.65442	36873
32.66253	32430
32.67067	33316
32.67878	35272
32.68690	36590
32.69503	35771
32.70315	35912
32.71128	37910
32.71940	32438
32.72752	37246
32.73565	32492
32.74377	33331
32.75190	31428
32.76002	30429
32.76813	31526
32.77627	33663
32.78438	32958
32.79252	35521
32.80063	32597
32.80875	34841
32.81688	31983
32.82500	33817
32.83312	33357
32.84125	31632
32.84937	32664
32.85750	35690
32.86562	32824
32.87373	32865
32.88187	33050
32.88998	34636
32.89812	36375
32.90623	31679
32.91435	34607
32.92248	35104
32.93060	32626
32.93872	29600
32.94685	30549
32.95497	35095
32.96310	37490
32.97122	34048
32.97933	32749
32.98747	39032
32.99558	31700
33.00372	33303
33.01183	33349
33.01995	32935
33.02808	33041
33.03620	34966
33.04433	31366
33.05245	31665
33.06057	33548
33.06870	32368
33.07682	31431
33.08493	34882
33.09307	39539
33.10118	35953
33.10932	42562
33.11743	47660
33.12555	47033
33.13368	46078
33.14180	40291
33.14993	39235
33.15805	37508
33.16617	35414
33.17430	33451
33.18242	31278
33.19055	32861
33.19867	37126
33.20678	35987
33.21492	33605
33.22303	35149
33.23115	38043
33.23928	32105
33.24740	35048
33.25553	31021
33.26365	33596
33.27177	34718
33.27990	35441
33.28802	32841
33.29615	32990
33.30427	35646
33.31238	33755
33.32052	35162
33.32863	34823
33.33675	35929
33.34488	32313
33.35300	34363
33.36113	34915
33.36925	31684
33.37737	32370
33.38550	35991
33.39362	34015
33.40175	34973
33.40987	35207
33.41798	34166
33.42612	34046
33.43423	35420
33.44237	33931
33.45048	33826
33.45860	35234
33.46673	33411
33.47485	35853
33.48297	38253
33.49110	30578
33.49922	33105
33.50735	31724
33.51547	40339
33.52358	34641
33.53172	33720
33.53983	35141
33.54797	32711
33.55608	32923
33.56420	34821
33.57233	35655
33.58045	34275
33.58858	36040
33.59670	31177
33.60482	34311
33.61295	33916
33.62107	32465
33.62918	35130
33.63732	32270
33.64543	36427
33.65357	33811
33.66168	32321
33.66980	34145
33.67793	34695
33.68605	34325
33.69418	32627
33.70230	36001
33.71042	35302
33.71855	33470
33.72667	36558
33.73478	34564
33.74292	38538
33.75103	34480
33.75917	36427
33.76728	34252
33.77540	35511
33.78353	36443
33.79165	36943
33.79978	38795
33.80790	36195
33.81602	34636
33.82415	34151
33.83227	34905
33.84040	39490
33.84852	40470
33.85663	39646
33.86477	40636
33.87288	38006
33.88100	39378
33.88913	37270
33.89725	40165
33.90538	40758
33.91350	39113
33.92162	41898
33.92975	41896
33.93787	41223
33.94600	37372
33.95412	38251
33.96223	39199
33.97037	42410
33.97848	37716
33.98660	39896
33.99473	39986
34.00285	39575
34.01098	37866
34.01910	36050
34.02722	37096
34.03535	38271
34.04347	37771
34.05160	37492
34.05972	38343
34.06783	42424
34.07597	34343
34.08408	37241
34.09222	38523
34.10033	39118
34.10845	41215
34.11658	39248
34.12470	38623
34.13282	37665
34.14095	37617
34.14907	35688
34.15720	38495
34.16532	36548
34.17343	35600
34.18157	37161
34.18968	36085
34.19782	37425
34.20593	37091
34.21405	37955
34.22218	36589
34.23030	35568
34.23843	37428
34.24655	33892
34.25467	38151
34.26280	36965
34.27092	36862
34.27903	36586
34.28717	35397
34.29528	36371
34.30342	39415
34.31153	36896
34.31965	37964
34.32778	39915
34.33590	36120
34.34403	37274
34.35215	37012
34.36027	37428
34.36840	39520
34.37652	34341
34.38465	32281
34.39277	37592
34.40088	39929
34.40902	38009
34.41713	36963
34.42525	34955
34.43338	36860
34.44150	36883
34.44963	42181
34.45775	42850
34.46587	49158
34.47400	54415
34.48212	63971
34.49025	64126
34.49837	70191
34.50648	68792
34.51462	70275
34.52273	63571
34.53085	63782
34.53898	59253
34.54710	56964
34.55523	55525
34.56335	49911
34.57147	47862
34.57960	48312
34.58772	49460
34.59585	47940
34.60397	48319
34.61208	44041
34.62022	47131
34.62833	44150
34.63647	44290
34.64458	46743
34.65270	45733
34.66083	47972
34.66895	49289
34.67707	45727
34.68520	42903
34.69332	50415
34.70145	43674
34.70957	45407
34.71768	48729
34.72582	43615
34.73393	44427
34.74207	46519
34.75018	46683
34.75830	43796
34.76643	44712
34.77455	41713
34.78267	44231
34.79080	43831
34.79892	40436
34.80705	44107
34.81517	41096
34.82328	43674
34.83142	41045
34.83953	43819
34.84767	39350
34.85578	44522
34.86390	43792
34.87203	44760
34.88015	44899
34.88828	43152
34.89640	40459
34.90452	43970
34.91265	40326
34.92077	42412
34.92888	45250
34.93702	39515
34.94513	45405
34.95327	39737
34.96138	43007
34.96950	42827
34.97763	43071
34.98575	40679
34.99388	42523
35.00200	41575
35.01012	41757
35.01825	44221
35.02637	38956
35.03450	42431
35.04262	42273
35.05073	39774
35.05887	41110
35.06698	42222
35.07510	41143
35.08323	40627
35.09135	43182
35.09948	41143
35.10760	43059
35.11572	48442
35.12385	41748
35.13197	41593
35.14010	39762
35.14822	40531
35.15633	41716
35.16447	42124
35.17258	44421
35.18070	47163
35.18883	42337
35.19695	43447
35.20508	44301
35.21320	42238
35.22132	38303
35.22945	39990
35.23757	40841
35.24570	39407
35.25382	42145
35.26193	42765
35.27007	43623
35.27818	40773
35.28632	42032
35.29443	40440
35.30255	39743
35.31068	39064
35.31880	40809
35.32692	43571
35.33505	41246
35.34317	40562
35.35130	44630
35.35942	41094
35.36753	39815
35.37567	44469
35.38378	39697
35.39192	41196
35.40003	43251
35.40815	43337
35.41628	45951
35.42440	42873
35.43253	43649
35.44065	48309
35.44877	48537
35.45690	46716
35.46502	45095
35.47313	44430
35.48127	45894
35.48938	48095
35.49752	44002
35.50563	47711
35.51375	47862
35.52188	44703
35.53000	43940
35.53813	44371
35.54625	44845
35.55437	45160
35.56250	45211
35.57062	45706
35.57873	45030
35.58687	43086
35.59498	43905
35.60312	47071
35.61123	47387
35.61935	44212
35.62748	42237
35.63560	45556
35.64373	44982
35.65185	49152
35.65997	45057
35.66810	44472
35.67622	45583
35.68435	51372
35.69247	42497
35.70058	43715
35.70872	44836
35.71683	45511
35.72495	41886
35.73308	43685
35.74120	44413
35.74933	44906
35.75745	47622
35.76557	44462
35.77370	47073
35.78182	43280
35.78995	44100
35.79807	42901
35.80618	46871
35.81432	45937
35.82243	44773
35.83055	45675
35.83868	47921
35.84680	46036
35.85493	47174
35.86305	46783
35.87117	44533
35.87930	45640
35.88742	44947
35.89555	45807
35.90367	46465
35.91178	44299
35.91992	46703
35.92803	44978
35.93617	46997
35.94428	44125
35.95240	44685
35.96053	44006
35.96865	43918
35.97677	44154
35.98490	49628
35.99302	46091
36.00115	48306
36.00927	50510
36.01738	49800
36.02552	48746
36.03363	47079
36.04177	51707
36.04988	51786
36.05800	49860
36.06613	46864
36.07425	50492
36.08238	48034
36.09050	48956
36.09862	44945
36.10675	49674
36.11487	43411
36.12298	46184
36.13112	48087
36.13923	49932
36.14737	46545
36.15548	46710
36.16360	46833
36.17173	48089
36.17985	44411
36.18798	45717
36.19610	45050
36.20422	45168
36.21235	48756
36.22047	43334
36.22858	47508
36.23672	51170
36.24483	55971
36.25297	58488
36.26108	64433
36.26920	62322
36.27733	61034
36.28545	51273
36.29358	50644
36.30170	46901
36.30982	49410
36.31795	50139
36.32607	46759
36.33420	45692
36.34232	47774
36.35043	48056
36.35857	46137
36.36668	47184
36.37480	48140
36.38293	48475
36.39105	49565
36.39918	49168
36.40730	48748
36.41542	50605
36.42355	49769
36.43167	46402
36.43980	46295
36.44792	49334
36.45603	51283
36.46417	46769
36.47228	47939
36.48042	49240
36.48853	50613
36.49665	51642
36.50478	47880
36.51290	47018
36.52102	46916
36.52915	44418
36.53727	48552
36.54540	52813
36.55352	44645
36.56163	52748
36.56977	48460
36.57788	51238
36.58602	53273
36.59413	51610
36.60225	48615
36.61038	48418
36.61850	51205
36.62662	49936
36.63475	53209
36.64287	49822
36.65100	51324
36.65912	47766
36.66723	49249
36.67537	51974
36.68348	49692
36.69162	56399
36.69973	51854
36.70785	49478
36.71598	53167
36.72410	52452
36.73223	51891
36.74035	53520
36.74847	48349
36.75660	50863
36.76472	49616
36.77283	52443
36.78097	47595
36.78908	48162
36.79722	45585
36.80533	50446
36.81345	50623
36.82158	51052
36.82970	45846
36.83783	45885
36.84595	47437
36.85407	50211
36.86220	51635
36.87032	48894
36.87845	51625
36.88657	51121
36.89468	49987
36.90282	52272
36.91093	47960
36.91905	51602
36.92718	50704
36.93530	55316
36.94343	57662
36.95155	52328
36.95967	53217
36.96780	57811
36.97592	56487
36.98405	61361
36.99217	64522
37.00028	75738
37.00842	87151
37.01653	109632
37.02465	117561
37.03278	120472
37.04090	110909
37.04903	107231
37.05715	91308
37.06527	76716
37.07340	69926
37.08152	60483
37.08965	57008
37.09777	59713
37.10588	57587
37.11402	58193
37.12213	54139
37.13027	56563
37.13838	57188
37.14650	57894
37.15463	56643
37.16275	54233
37.17087	54470
37.17900	55087
37.18712	58667
37.19525	58462
37.20337	59106
37.21148	56076
37.21962	54950
37.22773	58690
37.23587	58845
37.24398	60864
37.25210	57045
37.26023	61417
37.26835	68035
37.27647	73277
37.28460	75513
37.29272	84810
37.30085	89561
37.30897	86575
37.31708	82870
37.32522	76396
37.33333	75665
37.34147	72912
37.34958	68295
37.35770	66242
37.36583	60961
37.37395	64216
37.38208	60613
37.39020	66974
37.39832	64069
37.40645	64177
37.41457	61135
37.42268	60145
37.43082	58131
37.43893	66475
37.44707	57610
37.45518	59956
37.46330	59158
37.47143	58867
37.47955	64954
37.48768	63756
