Z:\data\JTB-E02\BACandBLUE\JTB-E02-204-12.D Sat Mar 09 10:59:45 2019
Start of data points
2.09515,63575
2.10328,68006
2.11140,68647
2.11953,64842
2.12765,64693
2.13577,59987
2.14390,62006
2.15202,64716
2.16015,63701
2.16827,58222
2.17638,60738
2.18452,59540
2.19263,57647
2.20075,59498
2.20888,57703
2.21700,57528
2.22513,52448
2.23325,54657
2.24137,54191
2.24950,51603
2.25762,63542
2.26575,259136
2.27387,1145218
2.28198,1360097
2.29012,710235
2.29823,378180
2.30637,309604
2.31448,266301
2.32260,232109
2.33073,208689
2.33885,195755
2.34697,177785
2.35510,165043
2.36322,156131
2.37135,148455
2.37947,146452
2.38758,140539
2.39572,128263
2.40383,133297
2.41197,125935
2.42008,123062
2.42820,125469
2.43633,116245
2.44445,118151
2.45258,115301
2.46070,108711
2.46882,112089
2.47695,101019
2.48507,99491
2.49318,106186
2.50132,104862
2.50943,104544
2.51757,98341
2.52568,95778
2.53380,98275
2.54193,104316
2.55005,117500
2.55818,223524
2.56630,306530
2.57442,247344
2.58255,190270
2.59067,170362
2.59878,253044
2.60692,873306
2.61503,1472631
2.62317,1032008
2.63128,574072
2.63940,390249
2.64753,295061
2.65565,241340
2.66378,197621
2.67190,174158
2.68002,159528
2.68815,148603
2.69627,133412
2.70440,132178
2.71252,121965
2.72063,116415
2.72877,111130
2.73688,110980
2.74500,106013
2.75313,104523
2.76125,102922
2.76938,128401
2.77750,432945
2.78562,1207765
2.79375,1337594
2.80187,797926
2.81000,514654
2.81812,430275
2.82623,357878
2.83437,299768
2.84248,260186
2.85062,229939
2.85873,202471
2.86685,190537
2.87498,173426
2.88310,161748
2.89122,159830
2.89935,149271
2.90747,137089
2.91560,133528
2.92372,122877
2.93183,128522
2.93997,114024
2.94808,119604
2.95622,133906
2.96433,157715
2.97245,157780
2.98058,133777
2.98870,131503
2.99682,128873
3.00495,123727
3.01307,122241
3.02120,118299
3.02932,111704
3.03743,110119
3.04557,104461
3.05368,104228
3.06182,100697
3.06993,112277
3.07805,317563
3.08618,1567502
3.09430,3838981
3.10243,5703661
3.11055,7262710
3.11867,6500913
3.12680,4292597
3.13492,2987076
3.14303,2293054
3.15117,1809203
3.15928,1457393
3.16742,1243330
3.17553,1107668
3.18365,1223563
3.19178,1856539
3.19990,2260460
3.20803,1787360
3.21615,1360721
3.22427,1097314
3.23240,950600
3.24052,811660
3.24865,708648
3.25677,618804
3.26488,560439
3.27302,508260
3.28113,508044
3.28925,869864
3.29738,2595854
3.30550,5980697
3.31363,8314567
3.32175,7411980
3.32987,4907890
3.33800,3055426
3.34612,2084589
3.35425,1522530
3.36237,1221514
3.37048,1010811
3.37862,854198
3.38673,740203
3.39485,668457
3.40298,589026
3.41110,554947
3.41923,496673
3.42735,469046
3.43547,449445
3.44360,430587
3.45172,414653
3.45985,387063
3.46797,395730
3.47608,403319
3.48422,386900
3.49233,361468
3.50047,336807
3.50858,316210
3.51670,302357
3.52483,289185
3.53295,298357
3.54107,317240
3.54920,311456
3.55732,295761
3.56545,370336
3.57357,581786
3.58168,705277
3.58982,587719
3.59793,465479
3.60607,391613
3.61418,367526
3.62230,356741
3.63043,346261
3.63855,306181
3.64667,306711
3.65480,361638
3.66292,1346324
3.67105,6163152
3.67917,1.445348E+07
3.68728,1.731767E+07
3.69542,1.299598E+07
3.70353,8061835
3.71167,5864627
3.71978,4765973
3.72790,4008343
3.73603,3465389
3.74415,3051521
3.75228,2727521
3.76040,2479351
3.76852,2255906
3.77665,2026969
3.78477,1894742
3.79288,1774814
3.80102,1925779
3.80913,2825288
3.81727,4151712
3.82538,4402601
3.83350,3465148
3.84163,2639472
3.84975,2190690
3.85788,1949181
3.86600,1735721
3.87412,1600206
3.88225,1471771
3.89037,1355329
3.89850,1258250
3.90662,1205496
3.91473,1179512
3.92287,1254059
3.93098,1359179
3.93910,1355166
3.94723,1622704
3.95535,3034247
3.96348,5948861
3.97160,7784155
3.97972,6734380
3.98785,4628964
3.99597,5015330
4.00410,1.195206E+07
4.01222,2.550968E+07
4.02033,3.361956E+07
4.02847,2.92899E+07
4.03658,1.787868E+07
4.04470,9768820
4.05283,6095231
4.06095,4397047
4.06908,3384759
4.07720,2713293
4.08532,2235191
4.09345,1949913
4.10157,1724489
4.10970,1504934
4.11782,1355174
4.12593,1241425
4.13407,1158108
4.14218,1079342
4.15032,1052319
4.15843,998450
4.16655,952635
4.17468,932455
4.18280,906741
4.19092,858799
4.19905,780238
4.20717,957810
4.21530,2344158
4.22342,6818873
4.23153,1.372002E+07
4.23967,1.819506E+07
4.24778,1.763321E+07
4.25592,1.270183E+07
4.26403,7809797
4.27215,5225409
4.28028,3804282
4.28840,2866595
4.29653,2246113
4.30465,1801333
4.31277,1519684
4.32090,1299325
4.32902,1157231
4.33713,1041444
4.34527,947344
4.35338,890477
4.36152,892505
4.36963,909184
4.37775,867567
4.38588,767943
4.39400,691811
4.40213,634396
4.41025,601330
4.41837,557235
4.42650,543857
4.43462,519364
4.44273,488766
4.45087,492342
4.45898,476632
4.46712,461931
4.47523,431633
4.48335,424527
4.49148,421298
4.49960,413275
4.50773,400887
4.51585,401583
4.52397,390268
4.53210,385344
4.54022,378632
4.54835,394363
4.55647,392849
4.56458,381403
4.57272,364799
4.58083,338868
4.58895,328041
4.59708,332028
4.60520,325482
4.61333,327741
4.62145,353816
4.62957,478666
4.63770,679714
4.64582,830503
4.65395,811474
4.66207,670362
4.67018,520302
4.67832,469455
4.68643,446236
4.69455,408195
4.70268,353761
4.71080,326638
4.71893,318700
4.72705,302982
4.73517,302147
4.74330,283395
4.75142,277095
4.75955,277441
4.76767,281274
4.77578,254270
4.78392,259582
4.79203,300286
4.80017,382677
4.80828,464364
4.81640,484130
4.82453,425951
4.83265,382368
4.84077,392122
4.84890,409800
4.85702,423284
4.86515,391883
4.87327,361754
4.88138,329470
4.88952,306189
4.89763,281547
4.90577,272071
4.91388,259323
4.92200,256543
4.93013,271482
4.93825,333717
4.94638,556682
4.95450,1134780
4.96262,1945109
4.97075,2534727
4.97887,2445696
4.98698,1927014
4.99512,1383876
5.00323,998767
5.01137,762578
5.01948,641216
5.02760,619615
5.03573,677830
5.04385,763551
5.05198,773695
5.06010,690895
5.06822,580881
5.07635,518164
5.08447,472482
5.09258,450609
5.10072,417209
5.10883,402213
5.11697,390141
5.12508,374683
5.13320,356238
5.14133,342301
5.14945,355324
5.15758,413312
5.16570,494127
5.17382,541922
5.18195,521628
5.19007,470315
5.19820,439959
5.20632,465779
5.21443,493034
5.22257,481596
5.23068,449959
5.23880,412104
5.24693,383466
5.25505,345414
5.26318,315190
5.27130,289726
5.27942,269374
5.28755,259944
5.29567,253041
5.30380,240055
5.31192,244990
5.32003,248320
5.32817,266145
5.33628,294597
5.34442,322865
5.35253,333289
5.36065,306806
5.36878,273078
5.37690,250472
5.38502,250201
5.39315,271267
5.40127,280776
5.40940,293776
5.41752,272352
5.42563,247264
5.43377,223946
5.44188,235945
5.45002,249892
5.45813,270674
5.46625,271856
5.47438,257867
5.48250,239091
5.49062,216484
5.49875,206804
5.50687,207780
5.51500,221036
5.52312,226798
5.53123,223062
5.53937,219721
5.54748,217700
5.55562,245475
5.56373,326488
5.57185,468415
5.57998,569843
5.58810,609324
5.59623,532777
5.60435,429690
5.61247,326555
5.62060,282979
5.62872,256102
5.63683,254061
5.64497,246947
5.65308,231118
5.66122,228812
5.66933,221005
5.67745,221654
5.68558,260533
5.69370,303820
5.70183,329732
5.70995,308971
5.71807,287880
5.72620,257659
5.73432,212265
5.74243,211982
5.75057,188546
5.75868,189347
5.76682,177075
5.77493,176908
5.78305,176823
5.79118,168888
5.79930,174422
5.80743,171530
5.81555,169175
5.82367,170013
5.83180,163998
5.83992,173410
5.84805,171519
5.85617,174169
5.86428,163987
5.87242,166089
5.88053,158377
5.88865,157510
5.89678,158967
5.90490,160042
5.91303,150720
5.92115,153412
5.92927,159840
5.93740,149312
5.94552,152549
5.95365,165597
5.96177,184322
5.96988,220797
5.97802,290795
5.98613,358137
5.99427,396288
6.00238,403517
6.01050,340388
6.01863,289783
6.02675,228320
6.03487,194234
6.04300,171113
6.05112,164802
6.05925,154241
6.06737,144898
6.07548,145884
6.08362,143926
6.09173,141620
6.09987,136500
6.10798,136629
6.11610,141486
6.12423,159958
6.13235,236853
6.14048,367741
6.14860,527374
6.15672,570486
6.16485,480896
6.17297,365915
6.18108,286413
6.18922,245324
6.19733,220049
6.20547,204549
6.21358,195883
6.22170,192509
6.22983,187442
6.23795,189491
6.24608,192658
6.25420,196217
6.26232,216829
6.27045,220467
6.27857,211487
6.28668,190464
6.29482,204587
6.30293,185902
6.31107,184689
6.31918,189255
6.32730,183517
6.33543,193479
6.34355,196792
6.35168,198633
6.35980,192400
6.36792,183024
6.37605,182174
6.38417,185122
6.39230,193327
6.40042,186378
6.40853,185540
6.41667,186060
6.42478,182380
6.43290,182578
6.44103,186904
6.44915,183378
6.45728,189985
6.46540,184502
6.47352,196392
6.48165,190943
6.48977,196894
6.49790,193709
6.50602,196351
6.51413,200740
6.52227,196417
6.53038,195431
6.53850,198501
6.54663,197794
6.55475,204725
6.56288,216155
6.57100,282013
6.57912,364114
6.58725,419609
6.59537,430508
6.60350,364533
6.61162,298669
6.61973,261530
6.62787,226241
6.63598,235966
6.64412,260945
6.65223,370944
6.66035,753146
6.66848,1424001
6.67660,1976607
6.68472,1907228
6.69285,1388105
6.70097,963153
6.70910,624994
6.71722,456528
6.72533,354333
6.73347,322443
6.74158,270631
6.74972,256224
6.75783,235673
6.76595,222339
6.77408,204247
6.78220,193859
6.79033,188751
6.79845,170141
6.80657,167248
6.81470,166717
6.82282,162855
6.83093,153420
6.83907,159312
6.84718,158775
6.85532,186013
6.86343,199880
6.87155,232769
6.87968,237244
6.88780,208788
6.89593,167501
6.90405,135819
6.91217,127045
6.92030,122105
6.92842,115541
6.93653,104923
6.94467,101964
6.95278,96256
6.96092,105311
6.96903,133113
6.97715,165460
6.98528,197893
6.99340,206759
7.00153,201277
7.00965,159372
7.01777,135627
7.02590,120886
7.03402,115092
7.04215,112019
7.05027,104859
7.05838,108755
7.06652,121427
7.07463,133696
7.08275,132557
7.09088,131930
7.09900,123293
7.10713,114029
7.11525,107562
7.12337,94969
7.13150,97554
7.13962,103879
7.14775,123937
7.15587,171216
7.16398,221494
7.17212,254145
7.18023,239323
7.18837,201027
7.19648,225566
7.20460,436447
7.21273,1017706
7.22085,1895603
7.22897,2551608
7.23710,2474215
7.24522,1794561
7.25335,1100444
7.26147,599589
7.26958,332951
7.27772,206117
7.28583,149159
7.29397,122781
7.30208,114658
7.31020,112858
7.31833,114344
7.32645,115490
7.33457,126329
7.34270,127898
7.35082,127416
7.35895,118475
7.36707,108103
7.37518,109660
7.38332,100821
7.39143,107570
7.39957,107293
7.40768,109966
7.41580,106682
7.42393,105894
7.43205,110389
7.44018,95454
7.44830,91669
7.45642,91040
7.46455,95699
7.47267,96826
7.48078,95672
7.48892,88351
7.49703,85698
7.50517,83621
7.51328,85058
7.52140,98931
7.52953,131330
7.53765,214925
7.54578,387939
7.55390,639447
7.56202,952736
7.57015,1193080
7.57827,1258052
7.58638,1122310
7.59452,862746
7.60263,599192
7.61077,407519
7.61888,265907
7.62700,196658
7.63513,154706
7.64325,133477
7.65138,118294
7.65950,111824
7.66762,104350
7.67575,95520
7.68387,85555
7.69200,90503
7.70012,82510
7.70823,83526
7.71637,83873
7.72448,89484
7.73260,88314
7.74073,95113
7.74885,87747
7.75698,91605
7.76510,94594
7.77322,94465
7.78135,96678
7.78947,95455
7.79760,100594
7.80572,104917
7.81383,117312
7.82197,124633
7.83008,116293
7.83822,105076
7.84633,93677
7.85445,89994
7.86258,91844
7.87070,91706
7.87882,102513
7.88695,111316
7.89507,119366
7.90320,125064
7.91132,126259
7.91943,128573
7.92757,144572
7.93568,215050
7.94382,313918
7.95193,392440
7.96005,408730
7.96818,346960
7.97630,260016
7.98442,178650
7.99255,130481
8.00067,110372
8.00880,95677
8.01692,100326
8.02503,82444
8.03317,80775
8.04128,87208
8.04942,80043
8.05753,76419
8.06565,74551
8.07378,79808
8.08190,71965
8.09003,73121
8.09815,72559
8.10627,69506
8.11440,68173
8.12252,74166
8.13063,75563
8.13877,82338
8.14688,100118
8.15502,112058
8.16313,116076
8.17125,117687
8.17938,99344
8.18750,90762
8.19563,91311
8.20375,71324
8.21187,71155
8.22000,68017
8.22812,66248
8.23625,65919
8.24437,64361
8.25248,80680
8.26062,65624
8.26873,68181
8.27685,63472
8.28498,66339
8.29310,59380
8.30123,65235
8.30935,70370
8.31747,70143
8.32560,80051
8.33372,84593
8.34185,80481
8.34997,76555
8.35808,69377
8.36622,74860
8.37433,70574
8.38245,68595
8.39058,71650
8.39870,75470
8.40683,70809
8.41495,69111
8.42307,59921
8.43120,57948
8.43932,64449
8.44745,65226
8.45557,61273
8.46368,60496
8.47182,62085
8.47993,63571
8.48807,68285
8.49618,63115
8.50430,67023
8.51243,66855
8.52055,95458
8.52867,149692
8.53680,270790
8.54492,407662
8.55305,498262
8.56117,447564
8.56928,317958
8.57742,211069
8.58553,146012
8.59367,113245
8.60178,103362
8.60990,98772
8.61803,100784
8.62615,96590
8.63428,92436
8.64240,93491
8.65052,81922
8.65865,75467
8.66677,76883
8.67488,74667
8.68302,74599
8.69113,69352
8.69927,69246
8.70738,69891
8.71550,71341
8.72363,67823
8.73175,66857
8.73988,66058
8.74800,60119
8.75612,58397
8.76425,69357
8.77237,90352
8.78048,134992
8.78862,211403
8.79673,309993
8.80487,356476
8.81298,339784
8.82110,280647
8.82923,211994
8.83735,164868
8.84548,151098
8.85360,143302
8.86172,141977
8.86985,144136
8.87797,128139
8.88610,132047
8.89422,119181
8.90233,116866
8.91047,110973
8.91858,106683
8.92670,119080
8.93483,131003
8.94295,152843
8.95108,157281
8.95920,152329
8.96732,141339
8.97545,138215
8.98357,131634
8.99170,134563
8.99982,128148
9.00793,122608
9.01607,116901
9.02418,113346
9.03230,97044
9.04043,93691
9.04855,96582
9.05668,87336
9.06480,85054
9.07292,81937
9.08105,83921
9.08917,91508
9.09730,96984
9.10542,112667
9.11353,129921
9.12167,151823
9.12978,161295
9.13792,155870
9.14603,127977
9.15415,118650
9.16228,103078
9.17040,94884
9.17852,86261
9.18665,80466
9.19477,78188
9.20290,80369
9.21102,76651
9.21913,80634
9.22727,79863
9.23538,85195
9.24352,81576
9.25163,82978
9.25975,80333
9.26788,85737
9.27600,78841
9.28413,80345
9.29225,77943
9.30037,70551
9.30850,72485
9.31662,73649
9.32473,71592
9.33287,73596
9.34098,70656
9.34912,69266
9.35723,82032
9.36535,71457
9.37348,72251
9.38160,67418
9.38973,68832
9.39785,66075
9.40597,70678
9.41410,78103
9.42222,99348
9.43033,113395
9.43847,125098
9.44658,141337
9.45472,156586
9.46283,135390
9.47095,118226
9.47908,101754
9.48720,88033
9.49533,81399
9.50345,74021
9.51157,79870
9.51970,91290
9.52782,97265
9.53595,113187
9.54407,109529
9.55218,106217
9.56032,95938
9.56843,89550
9.57655,86968
9.58468,87845
9.59280,89602
9.60093,88355
9.60905,89555
9.61717,80825
9.62530,72954
9.63342,62626
9.64155,59988
9.64967,59418
9.65778,53837
9.66592,53771
9.67403,54496
9.68217,58223
9.69028,56897
9.69840,58741
9.70653,47162
9.71465,50911
9.72277,45989
9.73090,49473
9.73902,48801
9.74715,53048
9.75527,53435
9.76338,48054
9.77152,48570
9.77963,52862
9.78777,49245
9.79588,47255
9.80400,46040
9.81213,49577
9.82025,50060
9.82837,45576
9.83650,47088
9.84462,48475
9.85275,50905
9.86087,53246
9.86898,52264
9.87712,55890
9.88523,50406
9.89337,50634
9.90148,46950
9.90960,51318
9.91773,51448
9.92585,49878
9.93398,50346
9.94210,67249
9.95022,88214
9.95835,111854
9.96647,137316
9.97458,132441
9.98272,118533
9.99083,103054
9.99897,88438
10.00708,80574
10.01520,85615
10.02333,71992
10.03145,68285
10.03958,67900
10.04770,67187
10.05582,63030
10.06395,56256
10.07207,63798
10.08018,61217
10.08832,64619
10.09643,62270
10.10457,70653
10.11268,68404
10.12080,66601
10.12893,68240
10.13705,57218
10.14518,54916
10.15330,50965
10.16142,50777
10.16955,51157
10.17767,50586
10.18580,52701
10.19392,50924
10.20203,51291
10.21017,43709
10.21828,50206
10.22640,48050
10.23453,48786
10.24265,63037
10.25078,58221
10.25890,83215
10.26702,151778
10.27515,362465
10.28327,837206
10.29140,1705769
10.29952,2681101
10.30763,3799091
10.31577,5414216
10.32388,7872223
10.33202,1.101393E+07
10.34013,1.356497E+07
10.34825,1.337817E+07
10.35638,1.051781E+07
10.36450,6571785
10.37262,3659953
10.38075,2244331
10.38887,1575682
10.39700,1163628
10.40512,836616
10.41323,596524
10.42137,451036
10.42948,357997
10.43762,326657
10.44573,310154
10.45385,294171
10.46198,274686
10.47010,260926
10.47823,229955
10.48635,215967
10.49447,195755
10.50260,192984
10.51072,172990
10.51883,154760
10.52697,151415
10.53508,146925
10.54322,155333
10.55133,144821
10.55945,133518
10.56758,141159
10.57570,134933
10.58383,138687
10.59195,122388
10.60007,119269
10.60820,110806
10.61632,108695
10.62443,96816
10.63257,99566
10.64068,102414
10.64882,95981
10.65693,86061
10.66505,90428
10.67318,87635
10.68130,91393
10.68943,94192
10.69755,94669
10.70567,95513
10.71380,92959
10.72192,91811
10.73005,92971
10.73817,94135
10.74628,87525
10.75442,83721
10.76253,90552
10.77065,89030
10.77878,83337
10.78690,82554
10.79503,85945
10.80315,82623
10.81127,75768
10.81940,83879
10.82752,85596
10.83565,79495
10.84377,75159
10.85188,75485
10.86002,70163
10.86813,69695
10.87625,64125
10.88438,68193
10.89250,64554
10.90063,62025
10.90875,67323
10.91687,66377
10.92500,63515
10.93312,62543
10.94125,59768
10.94937,57531
10.95748,61112
10.96562,60061
10.97373,62471
10.98187,58754
10.98998,60913
10.99810,60719
11.00623,64302
11.01435,64227
11.02247,59840
11.03060,60285
11.03872,55431
11.04685,55885
11.05497,54654
11.06308,60604
11.07122,62013
11.07933,56841
11.08747,61055
11.09558,64442
11.10370,62613
11.11183,63766
11.11995,62217
11.12808,64166
11.13620,53956
11.14432,54662
11.15245,50097
11.16057,50930
11.16868,48396
11.17682,52247
11.18493,55947
11.19307,53525
11.20118,54452
11.20930,58661
11.21743,59759
11.22555,52935
11.23368,48695
11.24180,48266
11.24992,46534
11.25805,47706
11.26617,43454
11.27428,42665
11.28242,42252
11.29053,42626
11.29867,47291
11.30678,65507
11.31490,102640
11.32303,187478
11.33115,314523
11.33928,505218
11.34740,704331
11.35552,778616
11.36365,774793
11.37177,600765
11.37990,439239
11.38802,307785
11.39613,232477
11.40427,191401
11.41238,176473
11.42050,167524
11.42863,147824
11.43675,127231
11.44488,125235
11.45300,111462
11.46112,103950
11.46925,101726
11.47737,102473
11.48550,123638
11.49362,152733
11.50173,187614
11.50987,202190
11.51798,200763
11.52612,172597
11.53423,148705
11.54235,126713
11.55048,108979
11.55860,107461
11.56672,101241
11.57485,96351
11.58297,93090
11.59110,92455
11.59922,99771
11.60733,117488
11.61547,157913
11.62358,174473
11.63172,185207
11.63983,174697
11.64795,138635
11.65608,115565
11.66420,95214
11.67232,79057
11.68045,76662
11.68857,70973
11.69670,70932
11.70482,69309
11.71293,69227
11.72107,68799
11.72918,66000
11.73732,65594
11.74543,65239
11.75355,60942
11.76168,58549
11.76980,55069
11.77793,55363
11.78605,52574
11.79417,51267
11.80230,55191
11.81042,55751
11.81853,52118
11.82667,54201
11.83478,62424
11.84292,67446
11.85103,71790
11.85915,86094
11.86728,86704
11.87540,86831
11.88353,83504
11.89165,66205
11.89977,59761
11.90790,51437
11.91602,52228
11.92413,52483
11.93227,60747
11.94038,61834
11.94852,61364
11.95663,49552
11.96475,49434
11.97288,45492
11.98100,52144
11.98913,51307
11.99725,54907
12.00537,69437
12.01350,81882
12.02162,93218
12.02975,82165
12.03787,81401
12.04598,70993
12.05412,57471
12.06223,54172
12.07035,46545
12.07848,48572
12.08660,49922
12.09473,50324
12.10285,56018
12.11097,61538
12.11910,87034
12.12722,109750
12.13535,150069
12.14347,177485
12.15158,180428
12.15972,154332
12.16783,123534
12.17597,95128
12.18408,73558
12.19220,69074
12.20033,63696
12.20845,63239
12.21657,66275
12.22470,58561
12.23282,61970
12.24095,60627
12.24907,53350
12.25718,52530
12.26532,54452
12.27343,59074
12.28157,55138
12.28968,51976
12.29780,50154
12.30593,51813
12.31405,52113
12.32217,47090
12.33030,49342
12.33842,53509
12.34655,50438
12.35467,46851
12.36278,45455
12.37092,46478
12.37903,45549
12.38717,50758
12.39528,46708
12.40340,51646
12.41153,60237
12.41965,72303
12.42778,82913
12.43590,92140
12.44402,94562
12.45215,87562
12.46027,78704
12.46838,70826
12.47652,67790
12.48463,63678
12.49277,61004
12.50088,53315
12.50900,50265
12.51713,56703
12.52525,50362
12.53338,52854
12.54150,58851
12.54962,58025
12.55775,72543
12.56587,80609
12.57400,87713
12.58212,84195
12.59023,76683
12.59837,66960
12.60648,66553
12.61460,52669
12.62273,56720
12.63085,51988
12.63898,51719
12.64710,51921
12.65522,50075
12.66335,47313
12.67147,50566
12.67960,46705
12.68772,46768
12.69583,44644
12.70397,45662
12.71208,46882
12.72020,47745
12.72833,49558
12.73645,57617
12.74458,62261
12.75270,62311
12.76082,62813
12.76895,57703
12.77707,53393
12.78520,46748
12.79332,46132
12.80143,41441
12.80957,38494
12.81768,45575
12.82582,47036
12.83393,39809
12.84205,36944
12.85018,40521
12.85830,39588
12.86642,45300
12.87455,37804
12.88267,38307
12.89080,38996
12.89892,38280
12.90703,39617
12.91517,38991
12.92328,36392
12.93142,38451
12.93953,37587
12.94765,36862
12.95578,36727
12.96390,37768
12.97202,43312
12.98015,44817
12.98827,45451
12.99640,44657
13.00452,43508
13.01263,37916
13.02077,37944
13.02888,39984
13.03702,40820
13.04513,40082
13.05325,38585
13.06138,40117
13.06950,39611
13.07763,41507
13.08575,43608
13.09387,42377
13.10200,37076
13.11012,40281
13.11823,42962
13.12637,41797
13.13448,39642
13.14262,36065
13.15073,38572
13.15885,38697
13.16698,41406
13.17510,37966
13.18323,39268
13.19135,38552
13.19947,40649
13.20760,42011
13.21572,41433
13.22385,42493
13.23197,43881
13.24008,43500
13.24822,44715
13.25633,45917
13.26445,45359
13.27258,39581
13.28070,38314
13.28883,40715
13.29695,39441
13.30507,34347
13.31320,37845
13.32132,37243
13.32945,35691
13.33757,36002
13.34568,37774
13.35382,41645
13.36193,35675
13.37005,36025
13.37818,36140
13.38630,36332
13.39443,36655
13.40255,34752
13.41067,34110
13.41880,39709
13.42692,32795
13.43505,33547
13.44317,35442
13.45128,33000
13.45942,34826
13.46753,33943
13.47567,35167
13.48378,37273
13.49190,38197
13.50003,38575
13.50815,39882
13.51627,39973
13.52440,41226
13.53252,40566
13.54065,38751
13.54877,40554
13.55688,44580
13.56502,38427
13.57313,39467
13.58127,42470
13.58938,44332
13.59750,39102
13.60563,45113
13.61375,46392
13.62188,50236
13.63000,51578
13.63812,51991
13.64625,48176
13.65437,42180
13.66248,42488
13.67062,35770
13.67873,36068
13.68687,33157
13.69498,31973
13.70310,32022
13.71123,35827
13.71935,34679
13.72748,35403
13.73560,34874
13.74372,44013
13.75185,48321
13.75997,62256
13.76808,86718
13.77622,124660
13.78433,167879
13.79247,195036
13.80058,218939
13.80870,208971
13.81683,205647
13.82495,218506
13.83308,245905
13.84120,262278
13.84932,286949
13.85745,272006
13.86557,233274
13.87370,185689
13.88182,153989
13.88993,118327
13.89807,101881
13.90618,80376
13.91430,73835
13.92243,71258
13.93055,58482
13.93868,62105
13.94680,56757
13.95492,63898
13.96305,71839
13.97117,96518
13.97930,138939
13.98742,183604
13.99553,173481
14.00367,180390
14.01178,153304
14.01992,120105
14.02803,94797
14.03615,82583
14.04428,70698
14.05240,67514
14.06052,61656
14.06865,59530
14.07677,65673
14.08490,60589
14.09302,59096
14.10113,60508
14.10927,55727
14.11738,54478
14.12552,50740
14.13363,50837
14.14175,50901
14.14988,61010
14.15800,53493
14.16612,56570
14.17425,57747
14.18237,57789
14.19050,60944
14.19862,67320
14.20673,71630
14.21487,97807
14.22298,110829
14.23112,125256
14.23923,130536
14.24735,137954
14.25548,130213
14.26360,133634
14.27173,128454
14.27985,114056
14.28797,108046
14.29610,87737
14.30422,81624
14.31233,76627
14.32047,71160
14.32858,69719
14.33672,68202
14.34483,64990
14.35295,64372
14.36108,60778
14.36920,60063
14.37733,59882
14.38545,54107
14.39357,49102
14.40170,52171
14.40982,56233
14.41793,54208
14.42607,66132
14.43418,71420
14.44232,67443
14.45043,63827
14.45855,55068
14.46668,54427
14.47480,50042
14.48293,48820
14.49105,54388
14.49917,56629
14.50730,54735
14.51542,49814
14.52355,47278
14.53167,55632
14.53978,49465
14.54792,48192
14.55603,43113
14.56415,48943
14.57228,44966
14.58040,45252
14.58853,40110
14.59665,45409
14.60477,41288
14.61290,44391
14.62102,40139
14.62915,36988
14.63727,37272
14.64538,36641
14.65352,37065
14.66163,40050
14.66977,34952
14.67788,32589
14.68600,36671
14.69413,34076
14.70225,35465
14.71037,37067
14.71850,36711
14.72662,37320
14.73475,37229
14.74287,38996
14.75098,42877
14.75912,34712
14.76723,40750
14.77537,50914
14.78348,49226
14.79160,57424
14.79973,121838
14.80785,318126
14.81597,804106
14.82410,1824967
14.83222,3250019
14.84035,4549441
14.84847,5080427
14.85658,4509475
14.86472,3266409
14.87283,2060557
14.88097,1257029
14.88908,818439
14.89720,590011
14.90533,459690
14.91345,389926
14.92158,339669
14.92970,294387
14.93782,267144
14.94595,251030
14.95407,228237
14.96218,217023
14.97032,203760
14.97843,188768
14.98657,179536
14.99468,164376
15.00280,155601
15.01093,155492
15.01905,151292
15.02718,140200
15.03530,129531
15.04342,127295
15.05155,119256
15.05967,113518
15.06780,113683
15.07592,110279
15.08403,103600
15.09217,103496
15.10028,95809
15.10840,95097
15.11653,94386
15.12465,94962
15.13278,94803
15.14090,99947
15.14902,105473
15.15715,117686
15.16527,114668
15.17340,99264
15.18152,82606
15.18963,77268
15.19777,67313
15.20588,59462
15.21400,56110
15.22213,55420
15.23025,55579
15.23838,53967
15.24650,51533
15.25462,54691
15.26275,49005
15.27087,47446
15.27900,45084
15.28712,44578
15.29523,44723
15.30337,43058
15.31148,42752
15.31962,42826
15.32773,43420
15.33585,40916
15.34398,43553
15.35210,39724
15.36022,41448
15.36835,45534
15.37647,39165
15.38460,44886
15.39272,43884
15.40083,42195
15.40897,40934
15.41708,45775
15.42522,40482
15.43333,38382
15.44145,43427
15.44958,40100
15.45770,41531
15.46582,40722
15.47395,48386
15.48207,57884
15.49020,83693
15.49832,98917
15.50643,113852
15.51457,133791
15.52268,135092
15.53082,123611
15.53893,115796
15.54705,104772
15.55518,96213
15.56330,83796
15.57143,77042
15.57955,67935
15.58767,60301
15.59580,56783
15.60392,56556
15.61203,48298
15.62017,44383
15.62828,44966
15.63642,43630
15.64453,43436
15.65265,44358
15.66078,43740
15.66890,45074
15.67703,45459
15.68515,39235
15.69327,39848
15.70140,42924
15.70952,40022
15.71765,40626
15.72577,40709
15.73388,42936
15.74202,41227
15.75013,45960
15.75825,50072
15.76638,69552
15.77450,106903
15.78263,179668
15.79075,268252
15.79887,341785
15.80700,350973
15.81512,303320
15.82325,236760
15.83137,160616
15.83948,120422
15.84762,96069
15.85573,90205
15.86387,78514
15.87198,72531
15.88010,60428
15.88823,65574
15.89635,59442
15.90447,58959
15.91260,53438
15.92072,54603
15.92885,56745
15.93697,54055
15.94508,53560
15.95322,52823
15.96133,55822
15.96947,57860
15.97758,67588
15.98570,72006
15.99383,75175
16.00195,81048
16.01007,78321
16.01820,80520
16.02632,83439
16.03445,78723
16.04257,79200
16.05068,84076
16.05882,74206
16.06693,71250
16.07507,58644
16.08318,56356
16.09130,58595
16.09943,48362
16.10755,50359
16.11568,55630
16.12380,53571
16.13192,46393
16.14005,51113
16.14817,53797
16.15628,53857
16.16442,56898
16.17253,54601
16.18067,55174
16.18878,48957
16.19690,51136
16.20503,46496
16.21315,48134
16.22128,44090
16.22940,47169
16.23752,47011
16.24565,46744
16.25377,43723
16.26188,41852
16.27002,45166
16.27813,46718
16.28627,47231
16.29438,49830
16.30250,51074
16.31063,50472
16.31875,48871
16.32688,53026
16.33500,50562
16.34312,48192
16.35125,50370
16.35937,58148
16.36750,68610
16.37562,80306
16.38373,90406
16.39187,95105
16.39998,90827
16.40810,83957
16.41623,70111
16.42435,66249
16.43248,52820
16.44060,59963
16.44872,66449
16.45685,97529
16.46497,187310
16.47310,364979
16.48122,654357
16.48933,918063
16.49747,1076932
16.50558,966645
16.51372,752680
16.52183,488840
16.52995,313734
16.53808,216216
16.54620,164501
16.55432,128656
16.56245,115519
16.57057,104347
16.57870,92377
16.58682,97807
16.59493,96299
16.60307,89794
16.61118,87572
16.61932,99056
16.62743,90678
16.63555,90750
16.64368,85355
16.65180,75491
16.65992,71556
16.66805,70119
16.67617,63716
16.68430,62309
16.69242,60201
16.70053,58225
16.70867,57714
16.71678,58250
16.72492,50342
16.73303,52093
16.74115,48453
16.74928,47591
16.75740,52568
16.76553,56390
16.77365,63834
16.78177,58397
16.78990,59211
16.79802,58255
16.80613,50620
16.81427,45160
16.82238,43832
16.83052,38843
16.83863,49013
16.84675,41991
16.85488,41378
16.86300,40740
16.87113,42718
16.87925,42382
16.88737,43300
16.89550,43655
16.90362,42142
16.91175,39009
16.91987,33888
16.92798,40407
16.93612,35611
16.94423,36794
16.95235,38539
16.96048,41000
16.96860,39610
16.97673,42043
16.98485,40103
16.99297,43454
17.00110,40718
17.00922,39160
17.01735,39282
17.02547,38703
17.03358,36768
17.04172,45777
17.04983,46993
17.05795,44843
17.06608,50720
17.07420,48827
17.08233,47892
17.09045,46274
17.09857,43683
17.10670,43864
17.11482,38746
17.12295,42172
17.13107,39361
17.13918,43674
17.14732,41587
17.15543,40938
17.16357,46567
17.17168,43197
17.17980,43644
17.18793,42822
17.19605,38837
17.20417,39465
17.21230,41214
17.22042,40177
17.22855,39071
17.23667,36975
17.24478,37351
17.25292,39516
17.26103,38592
17.26917,40723
17.27728,47199
17.28540,40798
17.29353,45061
17.30165,40177
17.30977,40177
17.31790,38682
17.32602,40647
17.33415,43064
17.34227,45742
17.35038,49846
17.35852,55364
17.36663,51047
17.37477,55985
17.38288,53978
17.39100,50976
17.39913,49881
17.40725,51012
17.41538,51200
17.42350,49751
17.43162,49846
17.43975,51038
17.44787,50616
17.45598,47227
17.46412,47083
17.47223,43573
17.48037,41616
17.48848,41796
17.49660,40188
17.50473,40927
17.51285,42340
17.52098,39737
17.52910,38762
17.53722,39549
17.54535,38465
17.55347,41442
17.56160,50778
17.56972,60474
17.57783,96175
17.58597,142806
17.59408,230323
17.60220,371306
17.61033,493066
17.61845,599052
17.62658,615634
17.63470,537782
17.64282,421884
17.65095,327693
17.65907,289258
17.66720,287428
17.67532,297233
17.68343,295651
17.69157,280629
17.69968,241857
17.70780,177918
17.71593,145894
17.72405,123238
17.73218,103541
17.74030,91930
17.74842,78819
17.75655,76609
17.76467,76611
17.77280,74127
17.78092,68068
17.78903,65914
17.79717,63493
17.80528,70236
17.81342,88330
17.82153,109181
17.82965,127815
17.83778,154578
17.84590,160941
17.85402,154310
17.86215,145190
17.87027,124259
17.87840,111848
17.88652,99797
17.89463,92647
17.90277,83061
17.91088,70489
17.91902,64680
17.92713,58234
17.93525,52685
17.94338,57588
17.95150,53208
17.95963,47951
17.96775,49148
17.97587,48674
17.98400,51097
17.99212,50594
18.00023,45953
18.00837,46746
18.01648,52145
18.02462,57164
18.03273,65596
18.04085,75227
18.04898,93769
18.05710,115644
18.06523,160045
18.07335,307830
18.08147,594336
18.08960,1106576
18.09772,1685124
18.10583,2033445
18.11397,2013186
18.12208,1779506
18.13022,1341908
18.13833,951345
18.14645,710261
18.15458,567812
18.16270,498422
18.17083,420041
18.17895,366687
18.18707,322698
18.19520,308772
18.20332,277537
18.21145,243637
18.21957,230720
18.22768,206991
18.23582,197817
18.24393,181219
18.25205,161331
18.26018,154040
18.26830,144977
18.27643,140924
18.28455,126056
18.29267,107984
18.30080,90292
18.30892,77691
18.31705,65884
18.32517,60020
18.33328,58140
18.34142,60094
18.34953,53811
18.35767,56139
18.36578,54361
18.37390,55579
18.38203,49577
18.39015,51538
18.39827,54916
18.40640,49426
18.41452,48583
18.42265,54509
18.43077,53567
18.43888,55707
18.44702,73566
18.45513,78186
18.46327,99542
18.47138,135448
18.47950,159283
18.48763,204316
18.49575,221923
18.50387,216102
18.51200,205986
18.52012,151616
18.52825,120753
18.53637,91027
18.54448,73437
18.55262,65964
18.56073,60194
18.56887,53993
18.57698,50317
18.58510,58329
18.59323,53293
18.60135,58938
18.60948,57521
18.61760,52704
18.62572,57519
18.63385,64956
18.64197,61135
18.65008,54604
18.65822,62393
18.66633,55020
18.67447,50269
18.68258,51647
18.69070,48025
18.69883,44549
18.70695,50210
18.71508,55411
18.72320,85778
18.73132,123617
18.73945,159805
18.74757,181939
18.75568,191168
18.76382,204298
18.77193,222102
18.78007,216964
18.78818,222017
18.79630,217192
18.80443,227102
18.81255,219280
18.82068,223360
18.82880,233553
18.83692,222119
18.84505,225867
18.85317,228739
18.86130,226133
18.86942,229373
18.87753,227492
18.88567,232129
18.89378,229713
18.90190,220026
18.91003,219677
18.91815,221359
18.92628,224051
18.93440,227272
18.94252,233728
18.95065,225938
18.95877,226073
18.96690,230847
18.97502,229529
18.98313,224330
18.99127,224438
18.99938,222636
19.00752,221874
19.01563,212643
19.02375,222214
19.03188,212437
19.04000,210936
19.04812,204927
19.05625,200903
19.06437,201326
19.07250,196252
19.08062,204041
19.08873,208672
19.09687,226820
19.10498,233339
19.11312,262196
19.12123,258093
19.12935,251775
19.13748,253037
19.14560,237755
19.15372,224079
19.16185,214711
19.16997,212398
19.17810,222308
19.18622,211918
19.19433,213634
19.20247,221399
19.21058,211812
19.21872,203600
19.22683,194769
19.23495,192630
19.24308,190959
19.25120,185422
19.25933,181581
19.26745,180563
19.27557,176169
19.28370,172870
19.29182,182290
19.29993,191855
19.30807,190276
19.31618,201158
19.32432,192391
19.33243,182349
19.34055,186925
19.34868,180377
19.35680,176016
19.36493,191188
19.37305,205970
19.38117,233013
19.38930,235935
19.39742,237462
19.40555,213256
19.41367,198549
19.42178,179881
19.42992,174863
19.43803,165453
19.44615,157919
19.45428,154832
19.46240,162476
19.47053,153197
19.47865,148001
19.48677,150974
19.49490,160072
19.50302,166277
19.51115,166788
19.51927,187463
19.52738,193457
19.53552,202068
19.54363,202702
19.55175,195323
19.55988,181248
19.56800,164222
19.57613,157722
19.58425,151355
19.59237,146684
19.60050,135465
19.60862,141716
19.61675,128393
19.62487,129803
19.63298,136058
19.64112,145638
19.64923,164982
19.65737,210639
19.66548,258291
19.67360,352738
19.68173,416941
19.68985,465795
19.69797,446376
19.70610,406954
19.71422,351742
19.72235,296822
19.73047,259276
19.73858,225274
19.74672,204437
19.75483,197949
19.76297,172477
19.77108,172847
19.77920,162801
19.78733,162930
19.79545,161971
19.80357,170398
19.81170,174549
19.81982,175316
19.82795,165588
19.83607,165486
19.84418,166097
19.85232,224951
19.86043,512050
19.86857,1419231
19.87668,3811668
19.88480,8626649
19.89293,1.644447E+07
19.90105,2.518334E+07
19.90918,3.189807E+07
19.91730,3.4949E+07
19.92542,3.348528E+07
19.93355,2.808779E+07
19.94167,2.091039E+07
19.94978,1.416134E+07
19.95792,9892942
19.96603,7395295
19.97417,5936012
19.98228,5184068
19.99040,4654073
19.99853,4241068
20.00665,3863233
20.01478,3561979
20.02290,3356541
20.03102,3178719
20.03915,2926551
20.04727,2592115
20.05540,2227127
20.06352,1821524
20.07163,1404706
20.07977,1057663
20.08788,813098
20.09600,680739
20.10413,602517
20.11225,544568
20.12038,541046
20.12850,495691
20.13662,463995
20.14475,439402
20.15287,420254
20.16100,428935
20.16912,455485
20.17723,457835
20.18537,456674
20.19348,491937
20.20162,496905
20.20973,496379
20.21785,474910
20.22598,443124
20.23410,416315
20.24222,399607
20.25035,383908
20.25847,397688
20.26660,435717
20.27472,497679
20.28283,581667
20.29097,670906
20.29908,694981
20.30722,699667
20.31533,614834
20.32345,517102
20.33158,424019
20.33970,356437
20.34782,306858
20.35595,261082
20.36407,219307
20.37220,180029
20.38032,164871
20.38843,142976
20.39657,132416
20.40468,133853
20.41282,122680
20.42093,120918
20.42905,126574
20.43718,131536
20.44530,140356
20.45343,145737
20.46155,156646
20.46967,156536
20.47780,151692
20.48592,147169
20.49403,136488
20.50217,129421
20.51028,113855
20.51842,112327
20.52653,103859
20.53465,106094
20.54278,107436
20.55090,106810
20.55903,106166
20.56715,100176
20.57527,103010
20.58340,101903
20.59152,107228
20.59963,99358
20.60777,95040
20.61588,95938
20.62402,90644
20.63213,90487
20.64025,93369
20.64838,94045
20.65650,94842
20.66463,92598
20.67275,91377
20.68087,87525
20.68900,94060
20.69712,93241
20.70525,81351
20.71337,81308
20.72148,83877
20.72962,83337
20.73773,87729
20.74585,84008
20.75398,89301
20.76210,90241
20.77023,91447
20.77835,92381
20.78647,93205
20.79460,113139
20.80272,139693
20.81085,192460
20.81897,247505
20.82708,302804
20.83522,319737
20.84333,309195
20.85147,253425
20.85958,198724
20.86770,147259
20.87583,114269
20.88395,102250
20.89207,99190
20.90020,100242
20.90832,87868
20.91645,84992
20.92457,88768
20.93268,84928
20.94082,85295
20.94893,81979
20.95707,82121
20.96518,87505
20.97330,82056
20.98143,80890
20.98955,79451
20.99767,75081
21.00580,73934
21.01392,70331
21.02205,77734
21.03017,75974
21.03828,80687
21.04642,75693
21.05453,76839
21.06267,82984
21.07078,77735
21.07890,79798
21.08703,73528
21.09515,73016
21.10328,80306
21.11140,78546
21.11952,74912
21.12765,75983
21.13577,78587
21.14388,82971
21.15202,99202
21.16013,111992
21.16827,131342
21.17638,135871
21.18450,130600
21.19263,118221
21.20075,108469
21.20888,97016
21.21700,84338
21.22512,81035
21.23325,77768
21.24137,77156
21.24950,73783
21.25762,76024
21.26573,76551
21.27387,75585
21.28198,76080
21.29010,73294
21.29823,73933
21.30635,70623
21.31448,72362
21.32260,68432
21.33072,69366
21.33885,68192
21.34697,70762
21.35510,66907
21.36322,74936
21.37133,64576
21.37947,70081
21.38758,72331
21.39570,77857
21.40383,88285
21.41195,105556
21.42008,114874
21.42820,117225
21.43632,120706
21.44445,110810
21.45257,101973
21.46070,93812
21.46882,82180
21.47693,76425
21.48507,74589
21.49318,77030
21.50132,65602
21.50943,67804
21.51755,69918
21.52568,64386
21.53380,68567
21.54192,72548
21.55005,72280
21.55817,61400
21.56630,71965
21.57442,71482
21.58253,70798
21.59067,68249
21.59878,73971
21.60692,76185
21.61503,76684
21.62315,77399
21.63128,75318
21.63940,79355
21.64752,86861
21.65565,84460
21.66377,95940
21.67190,102283
21.68002,101865
21.68813,95803
21.69627,96510
21.70438,87895
21.71252,80087
21.72063,68781
21.72875,63298
21.73688,63956
21.74500,59143
21.75313,56926
21.76125,53445
21.76937,54918
21.77750,52915
21.78562,58581
21.79373,54355
21.80187,55548
21.80998,53911
21.81812,57605
21.82623,59235
21.83435,60435
21.84248,66518
21.85060,83760
21.85873,86371
21.86685,92333
21.87497,87735
21.88310,74808
21.89122,74131
21.89935,69510
21.90747,65362
21.91558,61442
21.92372,55758
21.93183,54623
21.93995,59020
21.94808,49415
21.95620,54315
21.96433,50605
21.97245,47990
21.98057,48346
21.98870,41132
21.99682,42454
22.00495,45119
22.01307,40014
22.02118,42945
22.02932,49276
22.03743,47315
22.04555,49769
22.05368,47921
22.06180,47238
22.06993,48458
22.07805,45569
22.08617,48304
22.09430,49804
22.10242,44515
22.11055,46557
22.11867,49311
22.12678,48727
22.13492,45454
22.14303,45286
22.15117,48112
22.15928,46263
22.16740,45653
22.17553,45994
22.18365,43156
22.19177,43708
22.19990,44704
22.20802,45151
22.21615,42787
22.22427,41694
22.23238,47511
22.24052,56472
22.24863,48739
22.25677,49602
22.26488,48657
22.27300,48561
22.28113,49004
22.28925,49443
22.29738,51763
22.30550,58348
22.31362,76480
22.32175,103328
22.32987,127303
22.33798,159688
22.34612,179010
22.35423,193454
22.36237,181814
22.37048,160695
22.37860,149888
22.38673,131947
22.39485,135938
22.40298,139629
22.41110,150814
22.41922,173449
22.42735,179846
22.43547,197812
22.44358,183236
22.45172,174655
22.45983,153450
22.46797,136927
22.47608,129325
22.48420,122129
22.49233,125228
22.50045,126223
22.50858,132853
22.51670,134725
22.52482,126396
22.53295,127830
22.54107,133571
22.54920,123070
22.55732,109746
22.56543,111077
22.57357,107379
22.58168,106837
22.58980,102325
22.59793,98202
22.60605,95038
22.61418,93241
22.62230,95167
22.63042,88427
22.63855,93346
22.64667,89197
22.65480,98580
22.66292,98190
22.67103,98892
22.67917,99707
22.68728,105658
22.69542,113889
22.70353,122147
22.71165,121234
22.71978,126086
22.72790,119584
22.73602,117257
22.74415,120117
22.75227,105263
22.76040,104225
22.76852,98212
22.77663,99189
22.78477,102390
22.79288,103020
22.80102,101645
22.80913,112285
22.81725,117590
22.82538,117309
22.83350,113325
22.84162,104961
22.84975,88485
22.85787,86395
22.86600,83133
22.87412,79754
22.88223,86326
22.89037,84393
22.89848,86069
22.90662,97888
22.91473,111247
22.92285,123045
22.93098,156536
22.93910,157421
22.94723,170154
22.95535,156161
22.96347,148757
22.97160,140054
22.97972,118888
22.98783,112099
22.99597,101922
23.00408,95084
23.01222,87818
23.02033,81242
23.02845,71261
23.03658,66010
23.04470,61208
23.05283,60633
23.06095,58530
23.06907,62853
23.07720,62136
23.08532,64774
23.09343,72566
23.10157,91087
23.10968,107011
23.11782,112047
23.12593,120083
23.13405,121468
23.14218,130643
23.15030,125272
23.15843,124238
23.16655,130513
23.17467,127370
23.18280,124872
23.19092,131275
23.19905,135410
23.20717,125111
23.21528,127334
23.22342,133250
23.23153,132282
23.23965,134573
23.24778,142094
23.25590,160773
23.26403,169297
23.27215,178690
23.28027,180713
23.28840,177745
23.29652,167935
23.30465,151805
23.31277,138773
23.32088,138894
23.32902,138767
23.33713,138800
23.34527,144256
23.35338,164950
23.36150,194147
23.36963,235971
23.37775,282539
23.38587,357212
23.39400,423414
23.40212,498888
23.41025,567144
23.41837,621772
23.42648,655796
23.43462,661411
23.44273,679185
23.45087,668942
23.45898,647308
23.46710,606611
23.47523,570578
23.48335,529142
23.49147,494449
23.49960,456043
23.50772,421536
23.51585,399042
23.52397,354970
23.53208,342521
23.54022,322045
23.54833,309767
23.55647,292640
23.56458,286509
23.57270,277651
23.58083,273659
23.58895,278251
23.59708,279568
23.60520,295092
23.61332,313418
23.62145,297724
23.62957,300065
23.63768,295550
23.64582,335194
23.65393,402101
23.66207,512377
23.67018,645520
23.67830,734245
23.68643,734821
23.69455,677940
23.70268,528369
23.71080,417192
23.71892,333431
23.72705,274592
23.73517,230327
23.74330,209535
23.75142,187237
23.75953,201828
23.76767,250952
23.77578,403711
23.78390,688046
23.79203,1092107
23.80015,1504741
23.80828,1731197
23.81640,1787049
23.82452,1618177
23.83265,1321422
23.84077,1032086
23.84890,807859
23.85702,638290
23.86513,522137
23.87327,440424
23.88138,379711
23.88950,333449
23.89763,310489
23.90575,296469
23.91388,279629
23.92200,266264
23.93012,256007
23.93825,257467
23.94637,241065
23.95450,217299
23.96262,207518
23.97073,190866
23.97887,188450
23.98698,186408
23.99512,170527
24.00323,164822
24.01135,158102
24.01948,158149
24.02760,167099
24.03572,167494
24.04385,178025
24.05197,186729
24.06010,185564
24.06822,176606
24.07633,177790
24.08447,164689
24.09258,161305
24.10072,150778
24.10883,145066
24.11695,135788
24.12508,125294
24.13320,133024
24.14132,133524
24.14945,133946
24.15757,141783
24.16570,145787
24.17382,138808
24.18193,140997
24.19007,147851
24.19818,135820
24.20632,133608
24.21443,132809
24.22255,126714
24.23068,121482
24.23880,111739
24.24693,109925
24.25505,104848
24.26317,102516
24.27130,86865
24.27942,90464
24.28753,85919
24.29567,83796
24.30378,89335
24.31192,82448
24.32003,86106
24.32815,85743
24.33628,84888
24.34440,82705
24.35253,81564
24.36065,72946
24.36877,80580
24.37690,75845
24.38502,74446
24.39315,78369
24.40127,83633
24.40938,97615
24.41752,98441
24.42563,98062
24.43375,100322
24.44188,93324
24.45000,82098
24.45813,79891
24.46625,78492
24.47437,81520
24.48250,93386
24.49062,102677
24.49875,107012
24.50687,110512
24.51498,123781
24.52312,153363
24.53123,175161
24.53935,189561
24.54748,209820
24.55560,223747
24.56373,205746
24.57185,191498
24.57997,173497
24.58810,150883
24.59622,139833
24.60435,114874
24.61247,105223
24.62058,93577
24.62872,88237
24.63683,80923
24.64497,82544
24.65308,83096
24.66120,78109
24.66933,77069
24.67745,75686
24.68557,73419
24.69370,69187
24.70182,70871
24.70995,64036
24.71807,63268
24.72618,68091
24.73432,70568
24.74243,66937
24.75057,70121
24.75868,87218
24.76680,111716
24.77493,138547
24.78305,173359
24.79118,194560
24.79930,196487
24.80742,202790
24.81555,212758
24.82367,212647
24.83178,223714
24.83992,224233
24.84803,246162
24.85617,261847
24.86428,299269
24.87240,361443
24.88053,449086
24.88865,534673
24.89678,633859
24.90490,684928
24.91302,691434
24.92115,634710
24.92927,529080
24.93738,406953
24.94552,340015
24.95363,286117
24.96177,253752
24.96988,236551
24.97800,237713
24.98613,230889
24.99425,232467
25.00238,225005
25.01050,215299
25.01862,228084
25.02675,223153
25.03487,217514
25.04300,216904
25.05112,216612
25.05923,206555
25.06737,208116
25.07548,218936
25.08360,210456
25.09173,211690
25.09985,224223
25.10798,250642
25.11610,342625
25.12422,549493
25.13235,952769
25.14047,1580646
25.14860,2255486
25.15672,2825037
25.16483,2939486
25.17297,2614190
25.18108,2009922
25.18920,1365384
25.19733,873774
25.20545,579433
25.21358,407144
25.22170,326874
25.22982,272277
25.23795,258985
25.24607,246793
25.25420,256029
25.26232,280864
25.27043,307677
25.27857,318730
25.28668,315782
25.29482,311512
25.30293,287921
25.31105,256840
25.31918,240075
25.32730,213690
25.33542,207057
25.34355,193300
25.35167,185021
25.35980,180144
25.36792,170674
25.37603,150689
25.38417,139756
25.39228,112602
25.40042,97605
25.40853,93210
25.41665,91865
25.42478,83757
25.43290,86402
25.44103,82083
25.44915,81399
25.45727,78190
25.46540,76091
25.47352,69870
25.48163,72161
25.48977,77444
25.49788,71976
25.50602,75483
25.51413,72225
25.52225,68833
25.53038,67970
25.53850,68665
25.54663,65285
25.55475,67463
25.56287,61979
25.57100,68033
25.57912,57579
25.58725,63448
25.59537,70591
25.60348,63877
25.61162,64164
25.61973,59184
25.62785,59855
25.63598,61779
25.64410,67845
25.65223,69513
25.66035,68962
25.66847,72541
25.67660,70686
25.68472,71716
25.69285,71480
25.70097,67396
25.70908,67070
25.71722,60888
25.72533,60081
25.73345,62101
25.74158,64165
25.74970,60482
25.75783,57652
25.76595,68454
25.77407,81099
25.78220,113895
25.79032,152710
25.79845,211367
25.80657,245271
25.81468,257803
25.82282,265824
25.83093,279683
25.83907,292743
25.84718,298784
25.85530,295610
25.86343,304763
25.87155,287709
25.87967,283464
25.88780,285380
25.89592,284212
25.90405,282763
25.91217,283410
25.92028,282667
25.92842,273875
25.93653,273915
25.94467,277994
25.95278,286723
25.96090,272624
25.96903,279179
25.97715,267298
25.98527,269360
25.99340,265519
26.00152,262139
26.00965,256533
26.01777,251781
26.02588,249940
26.03402,253683
26.04213,252736
26.05027,242854
26.05838,248167
26.06650,250156
26.07463,248698
26.08275,239459
26.09088,243975
26.09900,246951
26.10712,236316
26.11525,241746
26.12337,241322
26.13148,235150
26.13962,237227
26.14773,240419
26.15587,239374
26.16398,238183
26.17210,234662
26.18023,238020
26.18835,232281
26.19648,228512
26.20460,222571
26.21272,227406
26.22085,219848
26.22897,212591
26.23710,213922
26.24522,209206
26.25333,208975
26.26147,202238
26.26958,199115
26.27770,204066
26.28583,197785
26.29395,188186
26.30208,191383
26.31020,183937
26.31832,188592
26.32645,186222
26.33457,182976
26.34270,181821
26.35082,186566
26.35893,182232
26.36707,183548
26.37518,182112
26.38330,202102
26.39143,205444
26.39955,212630
26.40768,209161
26.41580,213018
26.42392,207197
26.43205,202848
26.44017,177873
26.44830,178331
26.45642,171539
26.46453,176401
26.47267,160540
26.48078,156744
26.48892,170454
26.49703,161257
26.50515,159454
26.51328,150997
26.52140,146314
26.52952,150970
26.53765,142016
26.54577,139748
26.55390,140555
26.56202,143484
26.57013,133694
26.57827,138115
26.58638,133348
26.59452,134866
26.60263,133595
26.61075,133920
26.61888,129428
26.62700,130891
26.63513,136253
26.64325,127004
26.65137,129387
26.65950,129140
26.66762,129608
26.67573,132371
26.68387,130198
26.69198,129005
26.70012,130873
26.70823,129555
26.71635,118283
26.72448,122857
26.73260,118684
26.74073,116076
26.74885,122843
26.75697,113769
26.76510,108327
26.77322,107117
26.78133,110603
26.78947,109693
26.79758,110921
26.80572,115318
26.81383,106926
26.82195,117839
26.83008,112449
26.83820,107197
26.84633,107961
26.85445,108729
26.86257,99408
26.87070,103111
26.87882,97511
26.88695,100266
26.89507,103839
26.90318,94693
26.91132,95651
26.91943,91958
26.92755,95869
26.93568,94830
26.94380,87789
26.95193,93569
26.96005,86937
26.96817,88363
26.97630,93198
26.98442,107793
26.99255,126308
27.00067,160734
27.00878,234188
27.01692,317480
27.02503,391965
27.03315,469511
27.04128,513798
27.04940,503324
27.05753,466398
27.06565,380678
27.07377,322758
27.08190,267124
27.09002,232027
27.09815,197013
27.10627,185296
27.11438,167048
27.12252,163947
27.13063,154549
27.13877,142351
27.14688,138445
27.15500,136500
27.16313,133581
27.17125,139813
27.17937,138778
27.18750,135156
27.19562,132332
27.20375,136323
27.21187,127470
27.21998,131294
27.22812,118533
27.23623,110751
27.24437,104298
27.25248,97008
27.26060,105349
27.26873,97427
27.27685,90455
27.28498,90404
27.29310,83688
27.30122,86877
27.30935,86649
27.31747,85955
27.32558,82135
27.33372,86101
27.34183,80510
27.34997,82081
27.35808,80551
27.36620,80933
27.37433,82398
27.38245,83333
27.39058,81377
27.39870,84424
27.40682,77639
27.41495,83236
27.42307,73110
27.43118,77543
27.43932,73758
27.44743,71260
27.45557,74390
27.46368,72963
27.47180,69995
27.47993,73877
27.48805,73700
27.49618,69261
27.50430,65023
27.51242,68639
27.52055,77114
27.52867,66167
27.53680,70909
27.54492,65786
27.55303,71076
27.56117,68589
27.56928,67779
27.57740,75130
27.58553,73851
27.59365,80978
27.60178,91593
27.60990,96035
27.61802,96734
27.62615,88127
27.63427,81418
27.64240,75591
27.65052,73897
27.65863,65431
27.66677,67685
27.67488,66628
27.68302,62246
27.69113,63285
27.69925,64300
27.70738,63295
27.71550,62244
27.72362,62385
27.73175,59273
27.73987,59651
27.74800,55287
27.75612,58679
27.76423,56894
27.77237,57942
27.78048,57004
27.78862,59344
27.79673,59874
27.80485,62369
27.81298,58233
27.82110,57463
27.82922,61580
27.83735,64577
27.84547,62414
27.85360,64698
27.86172,62061
27.86983,59859
27.87797,62755
27.88608,55962
27.89422,55833
27.90233,59510
27.91045,49474
27.91858,55335
27.92670,54187
27.93483,55603
27.94295,55927
27.95107,60948
27.95920,52602
27.96732,50502
27.97543,53495
27.98357,53593
27.99168,53692
27.99982,55037
28.00793,52810
28.01605,57122
28.02418,55943
28.03230,53799
28.04043,61770
28.04855,70068
28.05667,67061
28.06480,67019
28.07292,63592
28.08105,61472
28.08917,64834
28.09728,74294
28.10542,63962
28.11353,63552
28.12165,60995
28.12978,57400
28.13790,57359
28.14603,54807
28.15415,58245
28.16227,51854
28.17040,46913
28.17852,46512
28.18665,52997
28.19477,54221
28.20288,61930
28.21102,65680
28.21913,77050
28.22725,84296
28.23538,82737
28.24350,86475
28.25163,81010
28.25975,71201
28.26787,71075
28.27600,62500
28.28412,63954
28.29225,55418
28.30037,54374
28.30848,59450
28.31662,59735
28.32473,65166
28.33287,72309
28.34098,76990
28.34910,80338
28.35723,84904
28.36535,84952
28.37347,91857
28.38160,97570
28.38972,101946
28.39785,103544
28.40597,103950
28.41408,105558
28.42222,104233
28.43033,100248
28.43847,91255
28.44658,90364
28.45470,87369
28.46283,78911
28.47095,77408
28.47907,72092
28.48720,69599
28.49532,71244
28.50345,71542
28.51157,73046
28.51968,67415
28.52782,65668
28.53593,73014
28.54407,62190
28.55218,60738
28.56030,62802
28.56843,66785
28.57655,59596
28.58468,65395
28.59280,59587
28.60092,65313
28.60905,56557
28.61717,57382
28.62528,59167
28.63342,56013
28.64153,61665
28.64967,68347
28.65778,63064
28.66590,70168
28.67403,70261
28.68215,64774
28.69028,61634
28.69840,63596
28.70652,58394
28.71465,59697
28.72277,60785
28.73090,56758
28.73902,56002
28.74713,50116
28.75527,53648
28.76338,55924
28.77150,52757
28.77963,59315
28.78775,66906
28.79588,59962
28.80400,67718
28.81212,69179
28.82025,68521
28.82837,67130
28.83650,62496
28.84462,63179
28.85273,64459
28.86087,57557
28.86898,57173
28.87710,57087
28.88523,56447
28.89335,60953
28.90148,65364
28.90960,72698
28.91772,67741
28.92585,68390
28.93397,65629
28.94210,70294
28.95022,64661
28.95833,70818
28.96647,69848
28.97458,72551
28.98272,71940
28.99083,71024
28.99895,62136
29.00708,61327
29.01520,55333
29.02332,52318
29.03145,52201
29.03957,50653
29.04770,54874
29.05582,57313
29.06393,56896
29.07207,50541
29.08018,56307
29.08832,56526
29.09643,60617
29.10455,58943
29.11268,57116
29.12080,55535
29.12893,53625
29.13705,54248
29.14517,53369
29.15330,54370
29.16142,56101
29.16953,55994
29.17767,55085
29.18578,55735
29.19392,67809
29.20203,70215
29.21015,85670
29.21828,90448
29.22640,95459
29.23453,98315
29.24265,100471
29.25077,91067
29.25890,80663
29.26702,74512
29.27513,69351
29.28327,66483
29.29138,60911
29.29952,57613
29.30763,55010
29.31575,50009
29.32388,47760
29.33200,44438
29.34013,48008
29.34825,48056
29.35637,50152
29.36450,48477
29.37262,46104
29.38075,44273
29.38887,48208
29.39698,48776
29.40512,48331
29.41323,45356
29.42135,48280
29.42948,50746
29.43760,52172
29.44573,47669
29.45385,49321
29.46197,52447
29.47010,49944
29.47822,46453
29.48635,49712
29.49447,51163
29.50258,51294
29.51072,52883
29.51883,54498
29.52695,55516
29.53508,58536
29.54320,48325
29.55133,50282
29.55945,52168
29.56757,46538
29.57570,48257
29.58382,45967
29.59195,43374
29.60007,46921
29.60818,46635
29.61632,46524
29.62443,47026
29.63257,47064
29.64068,43764
29.64880,46777
29.65693,48542
29.66505,48985
29.67317,43769
29.68130,48518
29.68942,52659
29.69755,52737
29.70567,51683
29.71378,51312
29.72192,54199
29.73003,51440
29.73817,50769
29.74628,49932
29.75440,51410
29.76253,48849
29.77065,52127
29.77878,45303
29.78690,47413
29.79502,45635
29.80315,43288
29.81127,44322
29.81938,43130
29.82752,46056
29.83563,41846
29.84377,45375
29.85188,44939
29.86000,43145
29.86813,48809
29.87625,52014
29.88438,66719
29.89250,87264
29.90062,112969
29.90875,137645
29.91687,146535
29.92498,131956
29.93312,112599
29.94123,92832
29.94937,70044
29.95748,59164
29.96560,61087
29.97373,53128
29.98185,51778
29.98998,60817
29.99810,65046
30.00622,61768
30.01435,66545
30.02247,71056
30.03060,72895
30.03872,71075
30.04683,68873
30.05497,66416
30.06308,67585
30.07120,66973
30.07933,67880
30.08745,70639
30.09558,68347
30.10370,68444
30.11182,66365
30.11995,66651
30.12807,63999
30.13620,60007
30.14432,56594
30.15243,63940
30.16057,66389
30.16868,63053
30.17682,58054
30.18493,59190
30.19305,58567
30.20118,55994
30.20930,57436
30.21742,51716
30.22555,57832
30.23367,58745
30.24180,56850
30.24992,53638
30.25803,54567
30.26617,55217
30.27428,50102
30.28242,52591
30.29053,52748
30.29865,54465
30.30678,49599
30.31490,52256
30.32302,54963
30.33115,51312
30.33927,48810
30.34740,56655
30.35552,52425
30.36363,56156
30.37177,53415
30.37988,51230
30.38802,50387
30.39613,48517
30.40425,45122
30.41238,49237
30.42050,51518
30.42863,47615
30.43675,46683
30.44487,44632
30.45300,44824
30.46112,45398
30.46923,46181
30.47737,44607
30.48548,46557
30.49362,48941
30.50173,45497
30.50985,46986
30.51798,44932
30.52610,53208
30.53423,52264
30.54235,50793
30.55047,54630
30.55860,51338
30.56672,52086
30.57483,51927
30.58297,50921
30.59108,52104
30.59922,49000
30.60733,49794
30.61545,51398
30.62358,52063
30.63170,54789
30.63983,50846
30.64795,53874
30.65607,50806
30.66420,50507
30.67232,51917
30.68045,49789
30.68857,56611
30.69668,54333
30.70482,50966
30.71293,51830
30.72105,54697
30.72918,51778
30.73730,46320
30.74543,48457
30.75355,51189
30.76167,50133
30.76980,53908
30.77792,56011
30.78605,55512
30.79417,66356
30.80228,71324
30.81042,84584
30.81853,85846
30.82667,97536
30.83478,88561
30.84290,80616
30.85103,68776
30.85915,61042
30.86727,56395
30.87540,55142
30.88352,50310
30.89165,48783
30.89977,49851
30.90788,50943
30.91602,49541
30.92413,49811
30.93227,50603
30.94038,53876
30.94850,50518
30.95663,45039
30.96475,44917
30.97288,49787
30.98100,48138
30.98912,49620
30.99725,47546
31.00537,45551
31.01348,51368
31.02162,54010
31.02973,52775
31.03787,58445
31.04598,61976
31.05410,63599
31.06223,64624
31.07035,59772
31.07848,65041
31.08660,75640
31.09472,96978
31.10285,131241
31.11097,172365
31.11908,207975
31.12722,216485
31.13533,184738
31.14347,146291
31.15158,112041
31.15970,92924
31.16783,79191
31.17595,64881
31.18408,60522
31.19220,64445
31.20032,61715
31.20845,72360
31.21657,82196
31.22470,84157
31.23282,92175
31.24093,92064
31.24907,83434
31.25718,80852
31.26530,68218
31.27343,60468
31.28155,56267
31.28968,51307
31.29780,54797
31.30592,47255
31.31405,46470
31.32217,46992
31.33030,50728
31.33842,49612
31.34653,51787
31.35467,49178
31.36278,51614
31.37090,53948
31.37903,57338
31.38715,70668
31.39528,65888
31.40340,77507
31.41152,73865
31.41965,72731
31.42777,69482
31.43590,71892
31.44402,72117
31.45213,71505
31.46027,73391
31.46838,70689
31.47652,71439
31.48463,70007
31.49275,73065
31.50088,71144
31.50900,72693
31.51712,69602
31.52525,70580
31.53337,78963
31.54150,78901
31.54962,82546
31.55773,74963
31.56587,72258
31.57398,73043
31.58212,72507
31.59023,74166
31.59835,77316
31.60648,74440
31.61460,69917
31.62273,70767
31.63085,72705
31.63897,71600
31.64710,76654
31.65522,75190
31.66333,78573
31.67147,77718
31.67958,79069
31.68772,80228
31.69583,76025
31.70395,73781
31.71208,69772
31.72020,75223
31.72833,74071
31.73645,68876
31.74457,64010
31.75270,66929
31.76082,73591
31.76893,68578
31.77707,66106
31.78518,64901
31.79332,70668
31.80143,65952
31.80955,64694
31.81768,71492
31.82580,68072
31.83393,68905
31.84205,63355
31.85017,69588
31.85830,71183
31.86642,75835
31.87455,78439
31.88267,81385
31.89078,72765
31.89892,75129
31.90703,78385
31.91515,81527
31.92328,87135
31.93140,83055
31.93953,82750
31.94765,83957
31.95577,78031
31.96390,82890
31.97202,77081
31.98015,75805
31.98827,81594
31.99638,84820
32.00452,84658
32.01263,84438
32.02077,80965
32.02888,79658
32.03700,83328
32.04513,77359
32.05325,75421
32.06137,69993
32.06950,70870
32.07762,72632
32.08575,68437
32.09387,66398
32.10198,60287
32.11012,71323
32.11823,63639
32.12637,64797
32.13448,67782
32.14260,59857
32.15073,62156
32.15885,58414
32.16697,57286
32.17510,60733
32.18322,55277
32.19135,54247
32.19947,52472
32.20758,56402
32.21572,54838
32.22383,58934
32.23197,54902
32.24008,52834
32.24820,55131
32.25633,57741
32.26445,59522
32.27258,58096
32.28070,64224
32.28882,60107
32.29695,59191
32.30507,60231
32.31318,55283
32.32132,54500
32.32943,54996
32.33757,57274
32.34568,56305
32.35380,55635
32.36193,58350
32.37005,56591
32.37818,54983
32.38630,54216
32.39442,53234
32.40255,57316
32.41067,51588
32.41878,52039
32.42692,53396
32.43503,46109
32.44317,50774
32.45128,53311
32.45940,51397
32.46753,51297
32.47565,46318
32.48378,46259
32.49190,49731
32.50002,47523
32.50815,48686
32.51627,51350
32.52440,48282
32.53252,51414
32.54063,48371
32.54877,49842
32.55688,49469
32.56500,46384
32.57313,47233
32.58125,51725
32.58938,49910
32.59750,48635
32.60562,46861
32.61375,50005
32.62187,47699
32.63000,45641
32.63812,49603
32.64623,44102
32.65437,44710
32.66248,47236
32.67062,46451
32.67873,58765
32.68685,54933
32.69498,59493
32.70310,61770
32.71122,54976
32.71935,57144
32.72747,48484
32.73560,51963
32.74372,50729
32.75183,48854
32.75997,47573
32.76808,48806
32.77622,47561
32.78433,48770
32.79245,48636
32.80058,45227
32.80870,46373
32.81682,49693
32.82495,45111
32.83307,42609
32.84120,47873
32.84932,45588
32.85743,51658
32.86557,47870
32.87368,45509
32.88182,46433
32.88993,50284
32.89805,51279
32.90618,47726
32.91430,49278
32.92243,51882
32.93055,51102
32.93867,46129
32.94680,48285
32.95492,48701
32.96303,46085
32.97117,49114
32.97928,48948
32.98742,54946
32.99553,59613
33.00365,62491
33.01178,65126
33.01990,69041
33.02803,68830
33.03615,65633
33.04427,60175
33.05240,55095
33.06052,57397
33.06865,60127
33.07677,63110
33.08488,63719
33.09302,75309
33.10113,76181
33.10925,85222
33.11738,95275
33.12550,103494
33.13363,106331
33.14175,101912
33.14987,86044
33.15800,77107
33.16612,71550
33.17425,60577
33.18237,55975
33.19048,50543
33.19862,51324
33.20673,52894
33.21485,54071
33.22298,50138
33.23110,53300
33.23923,50774
33.24735,52430
33.25547,48052
33.26360,48878
33.27172,48127
33.27985,51282
33.28797,52200
33.29608,41897
33.30422,46545
33.31233,46561
33.32047,51730
33.32858,48690
33.33670,48121
33.34483,48099
33.35295,51595
33.36107,50864
33.36920,50081
33.37732,55105
33.38545,56987
33.39357,50968
33.40168,49481
33.40982,49425
33.41793,48794
33.42607,51647
33.43418,46520
33.44230,44505
33.45043,43870
33.45855,45180
33.46668,43900
33.47480,45409
33.48292,41731
33.49105,45010
33.49917,43819
33.50728,49114
33.51542,45989
33.52353,47264
33.53167,43179
33.53978,55495
33.54790,55798
33.55603,57293
33.56415,55654
33.57228,54811
33.58040,51807
33.58852,52583
33.59665,47018
33.60477,53405
33.61288,53309
33.62102,44024
33.62913,44240
33.63727,44015
33.64538,51140
33.65350,47750
33.66163,53069
33.66975,47983
33.67788,48581
33.68600,46799
33.69412,49938
33.70225,46005
33.71037,44038
33.71850,45671
33.72662,47923
33.73473,44874
33.74287,46224
33.75098,43570
33.75910,45712
33.76723,47446
33.77535,44821
33.78348,44074
33.79160,46282
33.79972,46922
33.80785,45300
33.81597,50539
33.82410,43822
33.83222,49899
33.84033,49349
33.84847,48363
33.85658,51264
33.86470,51943
33.87283,51366
33.88095,55339
33.88908,51719
33.89720,51438
33.90532,50599
33.91345,53842
33.92157,49172
33.92970,47521
33.93782,46922
33.94593,48773
33.95407,45388
33.96218,44104
33.97032,50661
33.97843,48603
33.98655,46430
33.99468,45907
34.00280,45673
34.01092,45062
34.01905,44400
34.02717,50002
34.03530,50990
34.04342,49904
34.05153,45457
34.05967,50446
34.06778,50465
34.07592,46997
34.08403,55483
34.09215,49619
34.10028,45611
34.10840,51041
34.11653,48227
34.12465,49823
34.13277,50283
34.14090,51777
34.14902,45855
34.15713,46683
34.16527,45592
34.17338,43956
34.18152,43802
34.18963,45340
34.19775,51231
34.20588,44067
34.21400,46996
34.22213,46798
34.23025,45383
34.23837,45987
34.24650,44024
34.25462,37729
34.26273,46514
34.27087,41570
34.27898,43375
34.28712,42689
34.29523,49089
34.30335,49771
34.31148,48764
34.31960,47302
34.32773,48109
34.33585,45076
34.34397,47805
34.35210,48536
34.36022,46662
34.36835,46986
34.37647,48837
34.38458,46723
34.39272,48971
34.40083,47415
34.40895,45383
34.41708,44984
34.42520,43056
34.43333,45190
34.44145,49433
34.44957,44458
34.45770,54405
34.46582,47980
34.47395,43854
34.48207,41888
34.49018,44904
34.49832,50096
34.50643,45687
34.51457,44437
34.52268,45589
34.53080,48760
34.53893,47297
34.54705,48181
34.55517,55482
34.56330,62484
34.57142,57456
34.57955,60149
34.58767,58286
34.59578,61344
34.60392,60075
34.61203,54402
34.62017,56258
34.62828,56983
34.63640,50573
34.64453,53694
34.65265,52601
34.66077,51053
34.66890,51534
34.67702,50284
34.68515,48987
34.69327,49161
34.70138,52103
34.70952,50405
34.71763,49394
34.72577,51266
34.73388,55738
34.74200,51422
34.75013,53860
34.75825,46887
34.76638,45282
34.77450,51252
34.78262,48342
34.79075,49609
34.79887,51232
34.80698,47401
34.81512,46532
34.82323,49464
34.83137,51715
34.83948,53129
34.84760,55230
34.85573,51089
34.86385,48437
34.87198,52884
34.88010,51096
34.88822,52367
34.89635,52122
34.90447,51484
34.91258,44909
34.92072,57581
34.92883,51808
34.93697,52975
34.94508,63379
34.95320,80261
34.96133,127445
34.96945,186627
34.97758,284783
34.98570,395560
34.99382,416818
35.00195,396811
35.01007,292425
35.01820,189953
35.02632,126812
35.03443,91682
35.04257,68356
35.05068,67823
35.05880,64138
35.06693,58591
35.07505,61598
35.08318,67578
35.09130,58440
35.09942,58016
35.10755,62244
35.11567,58311
35.12380,52670
35.13192,55705
35.14003,54700
35.14817,52626
35.15628,53294
35.16442,49231
35.17253,56027
35.18065,54165
35.18878,56700
35.19690,51941
35.20502,56298
35.21315,52523
35.22127,53228
35.22940,52242
35.23752,57713
35.24563,55558
35.25377,54683
35.26188,56395
35.27002,56632
35.27813,59841
35.28625,55612
35.29438,62540
35.30250,56055
35.31063,56070
35.31875,52553
35.32687,49155
35.33500,52459
35.34312,52149
35.35123,48566
35.35937,46220
35.36748,47712
35.37562,56565
35.38373,49933
35.39185,47183
35.39998,50182
35.40810,48021
35.41623,58008
35.42435,51314
35.43247,52769
35.44060,55015
35.44872,54999
35.45683,64313
35.46497,62597
35.47308,62396
35.48122,59210
35.48933,58824
35.49745,57132
35.50558,59914
35.51370,58556
35.52183,52294
35.52995,54318
35.53807,50971
35.54620,52229
35.55432,52214
35.56245,54143
35.57057,55862
35.57868,53309
35.58682,52230
35.59493,56801
35.60305,57480
35.61118,58110
35.61930,53747
35.62743,54727
35.63555,51418
35.64367,47416
35.65180,51314
35.65992,45715
35.66805,49780
35.67617,54989
35.68428,55743
35.69242,57625
35.70053,52739
35.70865,53229
35.71678,54506
35.72490,56399
35.73303,50864
35.74115,53334
35.74927,56707
35.75740,58473
35.76552,57662
35.77365,61198
35.78177,62031
35.78988,62711
35.79802,56361
35.80613,56024
35.81427,53589
35.82238,49514
35.83050,53263
35.83863,58710
35.84675,56379
35.85487,53712
35.86300,50509
35.87112,54123
35.87925,50776
35.88737,51870
35.89548,53954
35.90362,52175
35.91173,49763
35.91987,51999
35.92798,53682
35.93610,47115
35.94423,54509
35.95235,52858
35.96048,49747
35.96860,50423
35.97672,52142
35.98485,52814
35.99297,47329
36.00108,49116
36.00922,53549
36.01733,53541
36.02547,55394
36.03358,57627
36.04170,59595
36.04983,57465
36.05795,54222
36.06608,53217
36.07420,52308
36.08232,55153
36.09045,51165
36.09857,49014
36.10668,48610
36.11482,52542
36.12293,54247
36.13107,55944
36.13918,54647
36.14730,56522
36.15543,54267
36.16355,58449
36.17168,60066
36.17980,61482
36.18792,60996
36.19605,55550
36.20417,54542
36.21230,58319
36.22042,51280
36.22853,53396
36.23667,53458
36.24478,52784
36.25290,49116
36.26103,50479
36.26915,50801
36.27728,52414
36.28540,49097
36.29352,53742
36.30165,50760
36.30977,52169
36.31790,55672
36.32602,63467
36.33413,52776
36.34227,70722
36.35038,56014
36.35852,53596
36.36663,57077
36.37475,57913
36.38288,52163
36.39100,53622
36.39912,57527
36.40725,56623
36.41537,51615
36.42350,54332
36.43162,58880
36.43973,55460
36.44787,58762
36.45598,52502
36.46412,52464
36.47223,53911
36.48035,58017
36.48848,54429
36.49660,53261
36.50472,51407
36.51285,52615
36.52097,54869
36.52910,52613
36.53722,53301
36.54533,56122
36.55347,52813
36.56158,53028
36.56972,54924
36.57783,55424
36.58595,54504
36.59408,58864
36.60220,52628
36.61033,52849
36.61845,52434
36.62657,55023
36.63470,50434
36.64282,55337
36.65093,52187
36.65907,54324
36.66718,57180
36.67532,58392
36.68343,59857
36.69155,52919
36.69968,55446
36.70780,51436
36.71593,52631
36.72405,53201
36.73217,54162
36.74030,56788
36.74842,55015
36.75653,53937
36.76467,55264
36.77278,53551
36.78092,58198
36.78903,53745
36.79715,55483
36.80528,54163
36.81340,54045
36.82153,57960
36.82965,54679
36.83777,55562
36.84590,54397
36.85402,55717
36.86215,56430
36.87027,59628
36.87838,61687
36.88652,66895
36.89463,65322
36.90275,65266
36.91088,68257
36.91900,69433
36.92713,71981
36.93525,72981
36.94337,72617
36.95150,72703
36.95962,76862
36.96775,87768
36.97587,89131
36.98398,89026
36.99212,92528
37.00023,83226
37.00837,80066
37.01648,75540
37.02460,77316
37.03273,75005
37.04085,73269
37.04897,70165
37.05710,72268
37.06522,77510
37.07335,77264
37.08147,75617
37.08958,72599
37.09772,74623
37.10583,76186
37.11397,74523
37.12208,70814
37.13020,77102
37.13833,73531
37.14645,74419
37.15457,75521
37.16270,71653
37.17082,70974
37.17895,74540
37.18707,72515
37.19518,78928
37.20332,70612
37.21143,76288
37.21957,73291
37.22768,73349
37.23580,68613
37.24393,70374
37.25205,71336
37.26018,68644
37.26830,69247
37.27642,67611
37.28455,68060
37.29267,68267
37.30078,69291
37.30892,66742
37.31703,69693
37.32517,67473
37.33328,71243
37.34140,75727
37.34953,70577
37.35765,73068
37.36578,83100
37.37390,76301
37.38202,72593
37.39015,72804
37.39827,72662
37.40640,69883
37.41452,79281
37.42263,73476
37.43077,77834
37.43888,71736
37.44700,69016
37.45513,67606
37.46325,72221
37.47138,70167
37.47950,70821
37.48762,66474
