C:\MassHunter\GCMS\1\data\JTB-E18\JTB-E18-034-10.D Tue Oct 15 18:22:31 2019
Start of data points
2.09535,201119
2.10347,186501
2.11160,182634
2.11972,175526
2.12783,171271
2.13597,168447
2.14408,160404
2.15222,164591
2.16033,153945
2.16845,149114
2.17658,142541
2.18470,142493
2.19283,143697
2.20095,137973
2.20907,133782
2.21720,125217
2.22532,124103
2.23345,125560
2.24157,121876
2.24968,124249
2.25782,124105
2.26593,182513
2.27405,1161616
2.28218,2907364
2.29030,1864846
2.29843,857116
2.30655,612031
2.31467,514465
2.32280,451066
2.33092,413976
2.33905,388895
2.34717,350867
2.35528,314231
2.36342,290704
2.37153,272972
2.37967,280104
2.38778,300220
2.39590,275528
2.40403,247062
2.41215,239152
2.42027,231850
2.42840,226793
2.43652,217856
2.44465,210649
2.45277,215894
2.46088,201297
2.46902,189311
2.47713,187596
2.48527,191557
2.49338,213024
2.50150,211638
2.50963,194947
2.51775,181802
2.52587,186641
2.53400,177710
2.54212,171919
2.55025,188326
2.55837,227363
2.56648,254569
2.57462,212187
2.58273,184851
2.59087,187728
2.59898,174644
2.60710,183792
2.61523,234248
2.62335,259701
2.63148,232403
2.63960,196131
2.64772,176705
2.65585,166946
2.66397,165882
2.67208,166818
2.68022,178850
2.68833,179710
2.69647,163005
2.70458,155692
2.71270,151569
2.72083,159679
2.72895,159190
2.73708,157281
2.74520,153382
2.75332,150610
2.76145,145868
2.76957,140602
2.77770,152334
2.78582,203269
2.79393,233960
2.80207,208983
2.81018,190233
2.81830,250045
2.82643,382506
2.83455,578703
2.84268,581981
2.85080,378809
2.85892,295245
2.86705,263461
2.87517,241654
2.88330,205936
2.89142,195240
2.89953,181710
2.90767,177744
2.91578,170344
2.92390,158748
2.93203,155344
2.94015,153369
2.94828,149477
2.95640,146242
2.96452,151860
2.97265,138705
2.98077,141798
2.98890,144879
2.99702,171093
3.00513,173562
3.01327,179622
3.02138,178734
3.02952,281877
3.03763,440042
3.04575,627924
3.05388,1593859
3.06200,4031495
3.07012,4580946
3.07825,2878204
3.08637,1658720
3.09450,1328087
3.10262,1733864
3.11073,3116035
3.11887,3478273
3.12698,2320297
3.13512,1555075
3.14323,1172741
3.15135,916658
3.15948,766027
3.16760,732489
3.17573,797944
3.18385,908142
3.19197,1495309
3.20010,2144107
3.20822,1797120
3.21633,1253168
3.22447,968984
3.23258,815524
3.24072,680019
3.24883,585239
3.25695,507307
3.26508,451329
3.27320,415677
3.28133,421487
3.28945,699945
3.29757,1659980
3.30570,3122579
3.31382,3812860
3.32193,3268130
3.33007,2378237
3.33818,1758515
3.34632,1401863
3.35443,1167725
3.36255,1012511
3.37068,960495
3.37880,1010244
3.38693,1054137
3.39505,956841
3.40317,1007533
3.41130,1542808
3.41942,2252944
3.42755,2107074
3.43567,1449142
3.44378,1013732
3.45192,815800
3.46003,725867
3.46815,661339
3.47628,635109
3.48440,577312
3.49253,554057
3.50065,527466
3.50877,481729
3.51690,472249
3.52502,457363
3.53315,469824
3.54127,463971
3.54938,438881
3.55752,417107
3.56563,400907
3.57375,385876
3.58188,369219
3.59000,357866
3.59813,337659
3.60625,342129
3.61437,368805
3.62250,567158
3.63062,1036922
3.63875,1587938
3.64687,1530061
3.65498,1098136
3.66312,949480
3.67123,1991929
3.67937,4711666
3.68748,6180584
3.69560,4857454
3.70373,3231049
3.71185,2416742
3.71997,1942510
3.72810,1643410
3.73622,1385410
3.74435,1241049
3.75247,1113635
3.76058,1005061
3.76872,966262
3.77683,935991
3.78497,885010
3.79308,822220
3.80120,810596
3.80933,1028900
3.81745,1476821
3.82558,1617588
3.83370,1350307
3.84182,1043229
3.84995,879451
3.85807,770675
3.86618,677805
3.87432,625779
3.88243,580614
3.89057,545252
3.89868,516675
3.90680,484068
3.91493,494593
3.92305,568598
3.93118,687766
3.93930,694320
3.94742,639460
3.95555,656652
3.96367,805029
3.97178,951707
3.97992,871755
3.98803,684485
3.99617,644548
4.00428,950970
4.01240,1694073
4.02053,2191365
4.02865,1871267
4.03678,1266820
4.04490,855771
4.05302,660035
4.06115,564532
4.06927,484040
4.07740,432100
4.08552,397248
4.09363,368451
4.10177,344123
4.10988,324501
4.11800,306075
4.12613,321985
4.13425,425768
4.14238,1029731
4.15050,2185982
4.15862,2726098
4.16675,2170859
4.17487,1370169
4.18300,932499
4.19112,689285
4.19923,538611
4.20737,563469
4.21548,1399070
4.22362,4843228
4.23173,1.107067E+07
4.23985,1.65881E+07
4.24798,1.740458E+07
4.25610,1.248983E+07
4.26422,6910046
4.27235,4138318
4.28047,2861913
4.28860,2091059
4.29672,1642105
4.30483,1332399
4.31297,1108904
4.32108,959986
4.32922,840567
4.33733,755499
4.34545,713228
4.35358,680500
4.36170,668200
4.36982,630666
4.37795,582973
4.38607,538259
4.39420,494108
4.40232,457758
4.41043,449215
4.41857,422838
4.42668,411625
4.43482,400218
4.44293,387709
4.45105,380056
4.45918,378689
4.46730,359918
4.47543,351415
4.48355,348374
4.49167,334617
4.49980,327390
4.50792,318722
4.51603,310184
4.52417,296638
4.53228,292214
4.54042,302338
4.54853,289572
4.55665,291737
4.56478,284391
4.57290,273597
4.58103,268857
4.58915,264825
4.59727,257407
4.60540,248393
4.61352,250072
4.62163,271078
4.62977,356935
4.63788,507326
4.64602,610028
4.65413,603653
4.66225,487501
4.67038,394480
4.67850,359032
4.68663,325112
4.69475,303027
4.70287,284134
4.71100,269935
4.71912,258208
4.72725,245655
4.73537,239018
4.74348,234298
4.75162,222149
4.75973,218563
4.76785,220494
4.77598,212664
4.78410,216999
4.79223,224571
4.80035,277287
4.80847,331865
4.81660,353088
4.82472,325615
4.83285,292386
4.84097,278718
4.84908,278321
4.85722,267416
4.86533,245838
4.87347,245565
4.88158,236774
4.88970,221829
4.89783,216109
4.90595,215758
4.91407,220631
4.92220,270811
4.93032,417767
4.93845,652069
4.94657,889055
4.95468,991855
4.96282,915879
4.97093,758105
4.97907,623424
4.98718,548990
4.99530,493944
5.00343,445976
5.01155,416048
5.01968,429390
5.02780,540257
5.03592,808250
5.04405,1112955
5.05217,1222635
5.06028,1076994
5.06842,884732
5.07653,774490
5.08467,678571
5.09278,612669
5.10090,584254
5.10903,576151
5.11715,566929
5.12528,550220
5.13340,508670
5.14152,463842
5.14965,425298
5.15777,429524
5.16588,460327
5.17402,491198
5.18213,512187
5.19027,522796
5.19838,503845
5.20650,486143
5.21463,476784
5.22275,443133
5.23088,437277
5.23900,451703
5.24712,448986
5.25525,421635
5.26337,364326
5.27150,324289
5.27962,283734
5.28773,281994
5.29587,276891
5.30398,265424
5.31210,253654
5.32023,253173
5.32835,250548
5.33648,258642
5.34460,266814
5.35272,259655
5.36085,245803
5.36897,249624
5.37710,244112
5.38522,243483
5.39333,264709
5.40147,265001
5.40958,259451
5.41770,242335
5.42583,230794
5.43395,233637
5.44208,223073
5.45020,216060
5.45832,213472
5.46645,215758
5.47457,205782
5.48270,201643
5.49082,196521
5.49893,195588
5.50707,188187
5.51518,187329
5.52332,194799
5.53143,194684
5.53955,187705
5.54768,189033
5.55580,191510
5.56392,206208
5.57205,222223
5.58017,242084
5.58830,234147
5.59642,226065
5.60453,215577
5.61267,202730
5.62078,196023
5.62892,195784
5.63703,198376
5.64515,188740
5.65328,185809
5.66140,187101
5.66953,181325
5.67765,183736
5.68577,202047
5.69390,223330
5.70202,242445
5.71013,245649
5.71827,237174
5.72638,235521
5.73452,237100
5.74263,228277
5.75075,222985
5.75888,222516
5.76700,223742
5.77513,223523
5.78325,226177
5.79137,207578
5.79950,213783
5.80762,264868
5.81573,411792
5.82387,627867
5.83198,852124
5.84012,941888
5.84823,829704
5.85635,619073
5.86448,458082
5.87260,354332
5.88073,285381
5.88885,261871
5.89697,245414
5.90510,248904
5.91322,269656
5.92135,342192
5.92947,423727
5.93758,458934
5.94572,440513
5.95383,380405
5.96195,352472
5.97008,391562
5.97820,495316
5.98633,579403
5.99445,605377
6.00257,518463
6.01070,426758
6.01882,354151
6.02695,309334
6.03507,268049
6.04318,247620
6.05132,224950
6.05943,210670
6.06757,194105
6.07568,189631
6.08380,180591
6.09193,172724
6.10005,178865
6.10817,165144
6.11630,168395
6.12442,178251
6.13255,231660
6.14067,310610
6.14878,389949
6.15692,425126
6.16503,375501
6.17317,321561
6.18128,280779
6.18940,268578
6.19753,263234
6.20565,256537
6.21377,247424
6.22190,241834
6.23002,224741
6.23815,210934
6.24627,207868
6.25438,215399
6.26252,214759
6.27063,212857
6.27877,208307
6.28688,206057
6.29500,202533
6.30313,206667
6.31125,211388
6.31938,215802
6.32750,216714
6.33562,231624
6.34375,229104
6.35187,233257
6.35998,232402
6.36812,230407
6.37623,230936
6.38437,225508
6.39248,223129
6.40060,217036
6.40873,222432
6.41685,221067
6.42498,226177
6.43310,219574
6.44122,230139
6.44935,229161
6.45747,232344
6.46558,229952
6.47372,236766
6.48183,231578
6.48997,233221
6.49808,240652
6.50620,241883
6.51433,242133
6.52245,240151
6.53058,240035
6.53870,251910
6.54682,253819
6.55495,254232
6.56307,256619
6.57120,276228
6.57932,284350
6.58743,304753
6.59557,288157
6.60368,286922
6.61180,285270
6.61993,263712
6.62805,279823
6.63618,263518
6.64430,282018
6.65242,426818
6.66055,781538
6.66867,1388407
6.67680,1865708
6.68492,1843945
6.69303,1464656
6.70117,1078138
6.70928,826948
6.71742,662795
6.72553,541331
6.73365,459850
6.74178,423281
6.74990,396336
6.75802,361406
6.76615,323573
6.77427,278509
6.78240,300849
6.79052,388743
6.79863,546261
6.80677,717477
6.81488,779756
6.82302,689987
6.83113,505095
6.83925,362852
6.84738,257268
6.85550,207047
6.86362,175147
6.87175,168536
6.87987,154139
6.88800,137053
6.89612,128922
6.90423,124707
6.91237,120623
6.92048,126850
6.92862,158991
6.93673,200681
6.94485,253877
6.95298,289123
6.96110,299486
6.96923,263933
6.97735,229809
6.98547,193942
6.99360,166267
7.00172,140885
7.00983,124653
7.01797,116489
7.02608,105807
7.03422,109696
7.04233,109033
7.05045,115217
7.05858,106174
7.06670,108133
7.07483,99794
7.08295,92011
7.09107,98571
7.09920,97579
7.10732,92905
7.11545,93951
7.12357,88534
7.13168,86374
7.13982,87316
7.14793,98475
7.15605,115125
7.16418,135095
7.17230,156356
7.18043,158108
7.18855,157644
7.19667,159334
7.20480,147071
7.21292,164621
7.22105,244384
7.22917,509189
7.23728,943495
7.24542,1313904
7.25353,1280475
7.26165,938231
7.26978,582202
7.27790,371062
7.28603,267403
7.29415,232504
7.30227,221376
7.31040,230826
7.31852,236215
7.32665,248940
7.33477,223956
7.34288,195500
7.35102,163756
7.35913,141199
7.36727,123468
7.37538,117587
7.38350,112287
7.39163,112285
7.39975,119722
7.40787,125909
7.41600,145684
7.42412,159154
7.43225,166433
7.44037,157856
7.44848,154012
7.45662,126700
7.46473,116524
7.47287,102370
7.48098,95699
7.48910,88431
7.49723,89649
7.50535,93113
7.51348,101870
7.52160,121772
7.52972,155282
7.53785,194935
7.54597,249178
7.55408,275068
7.56222,284967
7.57033,252876
7.57847,204093
7.58658,166627
7.59470,129445
7.60283,112566
7.61095,107816
7.61908,95730
7.62720,96927
7.63532,89441
7.64345,86225
7.65157,82234
7.65968,77634
7.66782,84555
7.67593,74749
7.68407,81289
7.69218,78549
7.70030,75202
7.70843,79056
7.71655,80800
7.72468,76890
7.73280,78829
7.74092,83693
7.74905,76255
7.75717,68742
7.76530,72946
7.77342,75046
7.78153,81247
7.78967,73941
7.79778,75830
7.80590,85306
7.81403,83957
7.82215,78515
7.83028,84442
7.83840,76493
7.84652,73579
7.85465,74368
7.86277,78584
7.87090,74034
7.87902,79559
7.88713,83098
7.89527,80859
7.90338,79944
7.91150,75603
7.91963,73489
7.92775,83219
7.93588,87487
7.94400,105221
7.95212,115353
7.96025,108217
7.96837,101850
7.97650,89846
7.98462,79739
7.99273,75457
8.00087,71705
8.00898,69176
8.01712,71116
8.02523,70403
8.03335,69114
8.04148,67426
8.04960,70736
8.05772,66111
8.06585,65903
8.07397,62366
8.08210,65129
8.09022,64388
8.09833,58985
8.10647,63458
8.11458,59424
8.12272,62707
8.13083,64792
8.13895,64274
8.14708,69586
8.15520,71158
8.16333,70114
8.17145,70973
8.17957,65962
8.18770,59989
8.19582,62779
8.20393,63306
8.21207,64518
8.22018,59555
8.22832,60105
8.23643,68979
8.24455,66260
8.25268,58069
8.26080,59587
8.26893,53721
8.27705,54266
8.28517,56486
8.29330,54952
8.30142,59077
8.30953,58983
8.31767,62126
8.32578,58387
8.33392,59791
8.34203,54583
8.35015,54622
8.35828,53933
8.36640,53849
8.37453,56215
8.38265,53881
8.39077,51868
8.39890,52604
8.40702,54842
8.41515,52767
8.42327,51961
8.43138,52380
8.43952,51792
8.44763,51736
8.45575,50663
8.46388,53972
8.47200,49827
8.48013,54530
8.48825,48989
8.49637,54437
8.50450,51804
8.51262,49352
8.52075,53885
8.52887,63011
8.53698,86571
8.54512,138340
8.55323,188450
8.56137,215727
8.56948,196542
8.57760,155710
8.58573,118254
8.59385,88643
8.60197,71300
8.61010,70709
8.61822,65964
8.62635,62335
8.63447,60468
8.64258,60834
8.65072,55838
8.65883,57005
8.66697,56267
8.67508,59469
8.68320,54749
8.69133,56444
8.69945,54601
8.70757,55730
8.71570,71262
8.72382,92347
8.73195,139270
8.74007,190119
8.74818,230076
8.75632,234053
8.76443,194949
8.77257,150889
8.78068,126468
8.78880,103394
8.79693,96273
8.80505,86610
8.81318,82382
8.82130,89763
8.82942,97983
8.83755,93622
8.84567,89541
8.85378,93897
8.86192,91473
8.87003,84214
8.87817,94383
8.88628,84489
8.89440,83346
8.90253,77905
8.91065,77619
8.91878,79977
8.92690,77212
8.93502,81313
8.94315,82522
8.95127,85730
8.95938,83532
8.96752,81159
8.97563,80129
8.98377,75053
8.99188,76665
9.00000,74878
9.00813,74204
9.01625,70288
9.02438,70161
9.03250,70123
9.04062,67394
9.04875,61794
9.05687,62449
9.06500,65028
9.07312,61005
9.08123,64099
9.08937,63994
9.09748,69050
9.10560,79533
9.11373,78785
9.12185,77668
9.12998,75361
9.13810,71934
9.14622,75288
9.15435,63888
9.16247,63131
9.17060,68594
9.17872,62059
9.18683,60741
9.19497,59442
9.20308,57493
9.21122,53282
9.21933,58473
9.22745,53998
9.23558,59273
9.24370,59515
9.25182,62929
9.25995,57740
9.26807,55970
9.27620,53196
9.28432,53641
9.29243,57484
9.30057,49487
9.30868,52923
9.31682,51514
9.32493,57583
9.33305,55897
9.34118,57591
9.34930,57760
9.35742,55212
9.36555,54856
9.37367,55241
9.38180,50741
9.38992,52925
9.39803,59524
9.40617,59859
9.41428,68920
9.42242,76881
9.43053,83189
9.43865,91189
9.44678,83076
9.45490,74761
9.46303,65938
9.47115,58905
9.47927,53888
9.48740,52114
9.49552,58647
9.50363,52062
9.51177,57348
9.51988,59416
9.52802,54454
9.53613,52000
9.54425,49653
9.55238,44820
9.56050,44861
9.56863,40488
9.57675,40651
9.58487,39148
9.59300,42340
9.60112,40102
9.60925,37627
9.61737,37895
9.62548,37500
9.63362,38000
9.64173,37017
9.64985,38263
9.65798,37830
9.66610,37262
9.67423,39824
9.68235,37477
9.69047,35105
9.69860,37151
9.70672,36928
9.71485,40298
9.72297,40247
9.73108,32986
9.73922,35065
9.74733,37477
9.75545,36175
9.76358,37590
9.77170,35901
9.77983,32576
9.78795,33807
9.79607,34724
9.80420,35427
9.81232,34256
9.82045,31019
9.82857,30194
9.83668,32014
9.84482,33241
9.85293,33349
9.86107,38020
9.86918,36304
9.87730,39938
9.88543,38389
9.89355,37852
9.90167,42124
9.90980,38800
9.91792,34893
9.92605,34453
9.93417,37475
9.94228,46325
9.95042,50496
9.95853,58221
9.96667,59055
9.97478,55996
9.98290,52248
9.99103,50856
9.99915,45016
10.00727,44343
10.01540,40693
10.02352,35076
10.03165,39681
10.03977,36420
10.04788,38104
10.05602,35446
10.06413,39297
10.07227,36338
10.08038,40240
10.08850,40545
10.09663,35769
10.10475,34552
10.11288,32850
10.12100,35177
10.12912,33198
10.13725,33331
10.14537,35449
10.15348,33117
10.16162,33181
10.16973,31714
10.17787,31533
10.18598,36899
10.19410,32232
10.20223,34262
10.21035,33234
10.21848,34936
10.22660,38901
10.23472,41701
10.24285,40487
10.25097,44184
10.25910,53787
10.26722,84180
10.27533,159438
10.28347,339616
10.29158,656559
10.29970,1112291
10.30783,1692945
10.31595,2499574
10.32408,3748036
10.33220,5044300
10.34032,5622139
10.34845,5129850
10.35657,3809790
10.36470,2467965
10.37282,1504097
10.38093,963146
10.38907,641179
10.39718,443255
10.40532,316915
10.41343,242165
10.42155,200563
10.42968,179998
10.43780,166138
10.44592,163241
10.45405,153078
10.46217,152517
10.47030,149736
10.47842,133757
10.48653,130070
10.49467,119382
10.50278,115293
10.51092,107905
10.51903,101207
10.52715,99299
10.53528,90587
10.54340,90526
10.55152,85646
10.55965,79659
10.56777,82684
10.57590,80798
10.58402,79958
10.59213,79915
10.60027,73107
10.60838,73619
10.61652,72093
10.62463,71060
10.63275,70787
10.64088,64755
10.64900,63252
10.65713,66082
10.66525,60562
10.67337,62158
10.68150,64074
10.68962,70172
10.69773,65555
10.70587,64278
10.71398,58345
10.72212,59822
10.73023,56004
10.73835,57094
10.74648,56314
10.75460,55588
10.76273,53926
10.77085,52030
10.77897,51814
10.78710,49256
10.79522,52922
10.80333,54397
10.81147,56045
10.81958,57956
10.82772,50028
10.83583,48039
10.84395,47115
10.85208,44038
10.86020,48855
10.86833,44807
10.87645,46458
10.88457,45407
10.89270,47331
10.90082,43158
10.90895,41090
10.91707,43408
10.92518,42838
10.93332,44657
10.94143,41471
10.94955,39524
10.95768,40235
10.96580,39485
10.97393,43208
10.98205,42823
10.99017,40402
10.99830,44576
11.00642,41912
11.01455,38146
11.02267,42587
11.03078,44302
11.03892,41994
11.04703,42232
11.05517,40944
11.06328,38295
11.07140,43482
11.07953,49258
11.08765,45167
11.09577,48354
11.10390,52074
11.11202,48030
11.12015,46477
11.12827,42718
11.13638,43756
11.14452,44706
11.15263,40935
11.16077,42666
11.16888,39934
11.17700,40782
11.18513,40296
11.19325,45858
11.20137,44351
11.20950,39354
11.21762,39892
11.22575,37061
11.23387,39351
11.24198,41920
11.25012,50810
11.25823,61706
11.26637,72153
11.27448,98957
11.28260,112823
11.29073,121555
11.29885,123039
11.30698,154113
11.31510,217304
11.32322,309876
11.33135,438820
11.33947,538677
11.34758,580636
11.35572,503492
11.36383,387162
11.37197,282250
11.38008,209832
11.38820,169623
11.39633,143812
11.40445,138776
11.41258,133428
11.42070,126989
11.42882,124123
11.43695,107636
11.44507,102106
11.45320,94250
11.46132,87828
11.46943,85341
11.47757,87717
11.48568,95465
11.49380,99352
11.50193,104106
11.51005,109676
11.51818,105788
11.52630,99758
11.53442,98036
11.54255,92242
11.55067,85568
11.55880,79499
11.56692,73582
11.57503,73014
11.58317,66862
11.59128,64927
11.59940,68406
11.60753,80303
11.61565,80037
11.62378,87136
11.63190,87360
11.64002,82640
11.64815,68277
11.65627,67842
11.66440,67963
11.67252,67270
11.68063,61326
11.68877,67197
11.69688,68113
11.70502,66736
11.71313,76152
11.72125,74204
11.72938,72173
11.73750,75417
11.74562,63710
11.75375,61231
11.76187,53760
11.77000,56322
11.77812,51124
11.78623,50411
11.79437,49678
11.80248,48770
11.81062,51584
11.81873,48811
11.82685,52681
11.83498,48449
11.84310,46695
11.85122,42496
11.85935,39488
11.86747,43067
11.87560,44468
11.88372,43395
11.89183,43640
11.89997,46834
11.90808,50947
11.91622,55155
11.92433,61789
11.93245,62676
11.94058,60047
11.94870,56782
11.95683,52946
11.96495,48742
11.97307,42075
11.98120,48870
11.98932,43569
11.99743,47540
12.00557,48748
12.01368,54679
12.02182,54652
12.02993,56229
12.03805,48993
12.04618,49581
12.05430,44512
12.06243,45217
12.07055,49329
12.07867,45328
12.08680,49613
12.09492,48924
12.10305,46050
12.11117,46086
12.11928,50060
12.12742,46881
12.13553,42819
12.14365,44076
12.15178,43039
12.15990,39773
12.16803,37205
12.17615,36906
12.18427,37342
12.19240,38270
12.20052,37156
12.20865,38852
12.21677,37536
12.22488,38385
12.23302,35437
12.24113,37488
12.24925,37040
12.25738,37159
12.26550,38123
12.27363,35170
12.28175,36035
12.28987,38259
12.29800,36913
12.30612,37408
12.31425,33509
12.32237,39220
12.33048,36738
12.33862,36364
12.34673,43176
12.35487,36257
12.36298,34115
12.37110,38998
12.37923,36431
12.38735,34421
12.39547,39522
12.40360,47136
12.41172,57952
12.41985,73314
12.42797,81418
12.43608,76034
12.44422,64265
12.45233,60459
12.46047,51025
12.46858,42340
12.47670,40116
12.48483,42050
12.49295,38644
12.50108,38009
12.50920,38816
12.51732,38973
12.52545,40286
12.53357,39279
12.54168,42613
12.54982,51460
12.55793,59461
12.56607,75645
12.57418,81661
12.58230,78852
12.59043,67628
12.59855,56381
12.60668,54422
12.61480,42356
12.62292,41967
12.63105,40935
12.63917,38890
12.64728,38865
12.65542,36895
12.66353,35666
12.67167,33645
12.67978,35069
12.68790,34816
12.69603,34977
12.70415,35019
12.71228,36535
12.72040,34029
12.72852,34672
12.73665,38295
12.74477,36077
12.75290,33604
12.76102,32804
12.76913,39472
12.77727,40751
12.78538,42290
12.79350,36469
12.80163,35814
12.80975,35302
12.81788,34816
12.82600,31463
12.83412,33384
12.84225,32999
12.85037,30640
12.85850,32362
12.86662,34187
12.87473,32131
12.88287,31787
12.89098,31143
12.89912,32180
12.90723,30403
12.91535,30090
12.92348,43054
12.93160,44500
12.93972,63749
12.94785,70619
12.95597,80743
12.96410,90999
12.97222,93431
12.98033,86817
12.98847,83338
12.99658,78736
13.00472,68159
13.01283,57494
13.02095,56454
13.02908,57013
13.03720,51089
13.04532,48869
13.05345,51256
13.06157,45599
13.06970,41232
13.07782,40682
13.08593,34939
13.09407,42027
13.10218,38089
13.11032,37089
13.11843,34363
13.12655,35334
13.13468,34808
13.14280,37298
13.15093,38982
13.15905,35418
13.16717,39220
13.17530,39843
13.18342,36415
13.19153,37401
13.19967,36227
13.20778,37324
13.21592,40293
13.22403,40862
13.23215,40506
13.24028,41464
13.24840,44570
13.25653,44614
13.26465,53197
13.27277,47172
13.28090,43210
13.28902,43723
13.29713,43573
13.30527,43896
13.31338,46571
13.32152,45077
13.32963,43855
13.33775,48250
13.34588,39869
13.35400,47180
13.36213,37876
13.37025,37238
13.37837,33701
13.38650,35262
13.39462,37230
13.40275,33038
13.41087,33356
13.41898,39094
13.42712,33163
13.43523,33488
13.44335,34794
13.45148,34865
13.45960,36184
13.46773,33358
13.47585,31561
13.48397,38150
13.49210,33278
13.50022,32385
13.50835,32176
13.51647,33284
13.52458,38383
13.53272,38008
13.54083,41000
13.54897,46093
13.55708,45012
13.56520,44116
13.57333,44539
13.58145,44656
13.58957,43442
13.59770,53645
13.60582,65972
13.61395,82676
13.62207,94612
13.63018,97045
13.63832,95934
13.64643,84865
13.65457,66337
13.66268,58339
13.67080,50167
13.67893,50714
13.68705,46520
13.69517,45082
13.70330,45819
13.71142,43349
13.71955,42326
13.72767,41820
13.73578,43389
13.74392,47285
13.75203,61033
13.76017,80402
13.76828,108973
13.77640,137667
13.78453,159596
13.79265,180141
13.80078,165414
13.80890,168265
13.81702,169175
13.82515,182296
13.83327,184621
13.84138,174604
13.84952,161871
13.85763,133190
13.86577,111191
13.87388,102977
13.88200,91295
13.89013,90401
13.89825,88820
13.90638,79555
13.91450,75181
13.92262,65901
13.93075,63330
13.93887,57846
13.94700,57108
13.95512,57690
13.96323,53818
13.97137,50891
13.97948,56801
13.98760,56424
13.99573,55843
14.00385,53258
14.01198,52004
14.02010,55018
14.02822,49405
14.03635,46479
14.04447,46134
14.05260,50320
14.06072,45904
14.06883,44451
14.07697,47376
14.08508,43306
14.09320,43714
14.10133,42550
14.10945,42147
14.11758,49736
14.12570,50467
14.13382,62611
14.14195,76794
14.15007,96940
14.15820,104903
14.16632,107962
14.17443,100349
14.18257,91138
14.19068,81583
14.19882,76979
14.20693,73382
14.21505,73360
14.22318,70900
14.23130,65744
14.23942,65093
14.24755,63786
14.25567,62598
14.26380,59206
14.27192,52694
14.28003,52401
14.28817,49978
14.29628,48305
14.30442,50857
14.31253,41874
14.32065,36209
14.32878,36433
14.33690,33279
14.34502,33163
14.35315,37047
14.36127,33286
14.36940,32361
14.37752,32504
14.38563,36705
14.39377,43408
14.40188,60664
14.41002,79827
14.41813,103712
14.42625,118135
14.43438,111435
14.44250,98470
14.45063,78329
14.45875,65563
14.46687,54767
14.47500,45101
14.48312,46717
14.49123,46429
14.49937,46670
14.50748,44029
14.51562,43370
14.52373,41737
14.53185,39861
14.53998,38663
14.54810,35478
14.55623,37878
14.56435,37702
14.57247,37278
14.58060,39903
14.58872,33076
14.59685,31765
14.60497,33224
14.61308,34286
14.62122,35095
14.62933,31696
14.63745,32449
14.64558,30611
14.65370,29880
14.66183,33753
14.66995,30750
14.67807,28862
14.68620,34173
14.69432,32751
14.70245,30665
14.71057,31190
14.71868,35619
14.72682,34968
14.73493,37150
14.74305,33491
14.75118,32956
14.75930,33759
14.76743,33206
14.77555,33179
14.78367,36022
14.79180,57514
14.79992,101104
14.80805,202339
14.81617,396520
14.82428,659526
14.83242,881231
14.84053,896572
14.84867,739107
14.85678,530248
14.86490,355369
14.87303,245452
14.88115,180005
14.88927,156488
14.89740,137413
14.90552,119858
14.91365,105367
14.92177,98849
14.92988,87299
14.93802,85129
14.94613,71822
14.95427,70472
14.96238,66453
14.97050,67536
14.97863,63551
14.98675,60685
14.99488,58336
15.00300,58909
15.01112,59758
15.01925,59584
15.02737,53635
15.03548,50709
15.04362,51923
15.05173,48784
15.05987,46136
15.06798,46313
15.07610,45493
15.08423,46629
15.09235,42444
15.10048,43192
15.10860,43147
15.11672,44071
15.12485,41148
15.13297,45200
15.14108,41950
15.14922,45702
15.15733,43139
15.16547,39373
15.17358,41680
15.18170,38934
15.18983,39524
15.19795,40365
15.20608,36516
15.21420,33984
15.22232,32338
15.23045,36943
15.23857,36907
15.24670,34130
15.25482,31061
15.26293,31273
15.27107,32680
15.27918,32205
15.28730,33159
15.29543,32517
15.30355,32485
15.31168,30865
15.31980,29993
15.32792,29852
15.33605,30257
15.34417,31383
15.35230,34761
15.36042,29444
15.36853,31420
15.37667,32687
15.38478,32160
15.39290,33843
15.40103,31137
15.40915,29676
15.41728,32148
15.42540,29315
15.43352,30483
15.44165,31862
15.44977,32485
15.45790,40760
15.46602,45956
15.47413,62900
15.48227,77565
15.49038,100022
15.49852,111586
15.50663,120382
15.51475,110398
15.52288,107255
15.53100,99164
15.53912,92145
15.54725,89848
15.55537,79461
15.56350,74034
15.57162,64879
15.57973,60075
15.58787,55487
15.59598,49807
15.60412,49412
15.61223,48036
15.62035,46508
15.62848,44501
15.63660,43349
15.64473,40898
15.65285,39246
15.66097,37064
15.66910,39143
15.67722,36803
15.68533,35187
15.69347,33762
15.70158,33807
15.70972,32495
15.71783,34750
15.72595,37163
15.73408,32241
15.74220,40121
15.75033,37592
15.75845,46588
15.76657,53469
15.77470,67498
15.78282,83091
15.79095,82968
15.79907,87866
15.80718,72714
15.81532,60736
15.82343,55662
15.83155,49472
15.83968,42550
15.84780,41814
15.85593,43205
15.86405,40409
15.87217,41923
15.88030,35522
15.88842,37320
15.89655,37016
15.90467,34323
15.91278,37066
15.92092,35742
15.92903,34242
15.93715,37033
15.94528,36157
15.95340,34384
15.96153,34567
15.96965,36112
15.97777,40088
15.98590,40126
15.99402,40339
16.00215,38142
16.01027,37084
16.01838,37527
16.02652,43013
16.03463,35849
16.04277,34230
16.05088,36458
16.05900,35382
16.06713,32115
16.07525,33248
16.08337,32840
16.09150,34641
16.09962,31982
16.10775,30813
16.11587,32134
16.12398,34715
16.13212,35808
16.14023,38011
16.14837,34242
16.15648,36337
16.16460,37145
16.17273,34324
16.18085,35957
16.18897,34562
16.19710,31179
16.20522,30804
16.21335,35594
16.22147,29611
16.22958,33438
16.23772,34422
16.24583,33988
16.25397,33124
16.26208,32518
16.27020,29432
16.27833,35428
16.28645,38482
16.29458,31198
16.30270,32428
16.31082,33051
16.31895,36798
16.32707,31934
16.33518,31786
16.34332,33527
16.35143,32380
16.35957,34191
16.36768,36055
16.37580,31306
16.38393,31838
16.39205,32217
16.40018,30785
16.40830,33037
16.41642,30919
16.42455,30834
16.43267,30837
16.44080,35051
16.44892,40473
16.45703,51532
16.46517,66507
16.47328,79232
16.48140,94563
16.48953,105016
16.49765,91605
16.50578,75992
16.51390,71324
16.52202,55744
16.53015,48508
16.53827,45487
16.54640,45865
16.55452,43125
16.56263,42257
16.57077,40664
16.57888,39853
16.58700,40347
16.59513,40069
16.60325,39766
16.61138,39184
16.61950,35749
16.62762,35901
16.63575,36265
16.64387,37592
16.65200,37030
16.66012,33860
16.66823,34071
16.67637,34887
16.68448,33702
16.69262,31829
16.70073,31279
16.70885,31234
16.71698,31025
16.72510,30315
16.73322,32736
16.74135,33138
16.74947,38072
16.75760,30487
16.76572,31129
16.77383,29270
16.78197,28479
16.79008,30740
16.79822,30753
16.80633,25556
16.81445,29560
16.82258,30323
16.83070,31904
16.83883,33891
16.84695,29804
16.85507,32885
16.86320,28927
16.87132,31957
16.87943,29392
16.88757,26070
16.89568,27895
16.90382,29564
16.91193,29375
16.92005,30160
16.92818,29936
16.93630,34533
16.94443,29360
16.95255,27688
16.96067,27909
16.96880,30237
16.97692,31393
16.98503,29429
16.99317,32196
17.00128,30212
17.00942,32845
17.01753,30913
17.02565,29892
17.03378,30965
17.04190,30792
17.05003,33999
17.05815,34277
17.06627,33763
17.07440,39865
17.08252,42747
17.09065,49094
17.09877,52454
17.10688,55695
17.11502,51729
17.12313,48816
17.13125,49886
17.13938,44674
17.14750,45294
17.15563,41060
17.16375,38840
17.17187,36800
17.18000,34782
17.18812,33717
17.19625,31946
17.20437,32120
17.21248,34983
17.22062,33521
17.22873,33642
17.23685,30860
17.24498,29979
17.25310,34837
17.26123,31381
17.26935,33490
17.27747,31818
17.28560,29573
17.29372,29252
17.30185,28162
17.30997,31638
17.31808,30423
17.32622,36469
17.33433,33238
17.34247,34664
17.35058,33304
17.35870,36080
17.36683,34940
17.37495,37106
17.38307,36371
17.39120,38595
17.39932,38892
17.40745,38385
17.41557,42848
17.42368,41139
17.43182,39288
17.43993,37580
17.44807,37558
17.45618,35562
17.46430,31887
17.47243,34582
17.48055,32614
17.48868,33430
17.49680,36173
17.50492,36164
17.51305,36149
17.52117,40438
17.52928,42909
17.53742,47506
17.54553,46322
17.55367,49287
17.56178,49662
17.56990,61507
17.57803,77725
17.58615,90964
17.59428,109663
17.60240,113013
17.61052,115562
17.61865,106735
17.62677,91765
17.63488,78860
17.64302,67220
17.65113,60315
17.65927,55272
17.66738,50359
17.67550,51268
17.68363,44897
17.69175,45639
17.69988,46498
17.70800,44779
17.71612,47551
17.72425,45745
17.73237,44240
17.74050,41451
17.74862,40003
17.75673,40284
17.76487,39764
17.77298,39270
17.78110,38534
17.78923,38078
17.79735,37720
17.80548,38276
17.81360,38538
17.82172,37877
17.82985,42060
17.83797,43185
17.84610,41487
17.85422,43776
17.86233,45986
17.87047,48345
17.87858,43811
17.88672,41820
17.89483,36581
17.90295,34729
17.91108,34011
17.91920,34295
17.92732,34162
17.93545,34189
17.94357,32349
17.95170,34610
17.95982,38102
17.96793,32880
17.97607,34527
17.98418,32565
17.99232,31111
18.00043,34006
18.00855,37654
18.01668,38680
18.02480,46434
18.03292,47151
18.04105,46074
18.04917,50730
18.05730,59934
18.06542,71417
18.07353,106330
18.08167,167240
18.08978,241696
18.09792,301569
18.10603,338108
18.11415,342645
18.12228,338592
18.13040,336312
18.13853,338527
18.14665,335459
18.15477,333684
18.16290,319139
18.17102,313693
18.17913,311942
18.18727,296285
18.19538,309617
18.20352,298376
18.21163,289370
18.21975,279991
18.22788,279440
18.23600,284981
18.24413,267695
18.25225,271795
18.26037,254687
18.26850,253997
18.27662,249712
18.28475,236783
18.29287,235705
18.30098,228588
18.30912,218179
18.31723,215750
18.32535,214624
18.33348,210268
18.34160,202839
18.34973,197960
18.35785,192993
18.36597,196345
18.37410,186450
18.38222,181700
18.39035,189568
18.39847,183375
18.40658,177019
18.41472,172073
18.42283,179296
18.43095,184764
18.43908,184243
18.44720,181437
18.45533,185217
18.46345,187822
18.47157,192049
18.47970,197897
18.48782,188356
18.49595,181444
18.50407,175368
18.51218,162728
18.52032,148095
18.52843,144229
18.53657,137241
18.54468,138424
18.55280,135791
18.56093,128229
18.56905,125936
18.57717,129699
18.58530,132473
18.59342,130036
18.60155,128547
18.60967,133274
18.61778,135106
18.62592,130243
18.63403,121526
18.64217,120860
18.65028,118749
18.65840,111149
18.66653,104516
18.67465,107616
18.68277,106401
18.69090,101209
18.69902,104177
18.70715,97352
18.71527,95295
18.72338,89628
18.73152,95261
18.73963,89184
18.74777,89040
18.75588,85429
18.76400,87720
18.77213,88320
18.78025,82698
18.78838,83655
18.79650,80575
18.80462,80641
18.81275,78164
18.82087,79679
18.82898,76071
18.83712,82678
18.84523,78060
18.85337,70929
18.86148,74493
18.86960,77911
18.87773,70915
18.88585,73630
18.89398,74022
18.90210,70890
18.91022,69863
18.91835,70175
18.92647,74297
18.93460,73460
18.94272,71540
18.95083,68244
18.95897,69529
18.96708,68197
18.97520,72363
18.98333,63390
18.99145,63778
18.99958,60075
19.00770,60262
19.01582,63150
19.02395,61648
19.03207,60837
19.04020,59679
19.04832,61216
19.05643,59979
19.06457,61268
19.07268,59746
19.08080,61714
19.08893,67954
19.09705,74587
19.10518,77567
19.11330,75495
19.12142,72789
19.12955,77152
19.13767,72709
19.14580,72808
19.15392,72639
19.16203,71818
19.17017,63996
19.17828,66808
19.18642,60728
19.19453,58415
19.20265,57284
19.21078,55366
19.21890,54768
19.22702,53980
19.23515,56188
19.24327,50985
19.25140,51657
19.25952,50730
19.26763,55130
19.27577,50839
19.28388,56823
19.29202,50953
19.30013,49026
19.30825,49100
19.31638,49213
19.32450,51200
19.33263,48053
19.34075,47145
19.34887,48578
19.35700,52674
19.36512,53333
19.37323,52100
19.38137,56373
19.38948,56752
19.39762,53499
19.40573,51760
19.41385,50401
19.42198,59081
19.43010,71634
19.43823,81099
19.44635,93544
19.45447,90318
19.46260,85818
19.47072,76204
19.47883,70737
19.48697,56627
19.49508,57573
19.50322,50606
19.51133,52910
19.51945,51898
19.52758,49318
19.53570,53202
19.54383,48982
19.55195,52232
19.56007,48063
19.56820,45720
19.57632,45609
19.58445,45539
19.59257,44467
19.60068,40882
19.60882,50336
19.61693,57451
19.62505,71612
19.63318,103841
19.64130,153168
19.64943,191797
19.65755,225926
19.66567,238551
19.67380,219182
19.68192,189010
19.69005,157165
19.69817,121213
19.70628,111930
19.71442,92596
19.72253,82561
19.73065,72614
19.73878,68247
19.74690,69212
19.75503,65133
19.76315,59229
19.77127,59404
19.77940,58781
19.78752,65791
19.79565,66184
19.80377,69416
19.81188,63383
19.82002,58568
19.82813,54756
19.83627,57742
19.84438,56633
19.85250,67295
19.86063,96645
19.86875,163790
19.87687,293998
19.88500,483909
19.89312,703467
19.90125,833229
19.90937,862615
19.91748,769951
19.92562,610585
19.93373,447215
19.94187,339980
19.94998,281739
19.95810,236372
19.96623,207337
19.97435,185045
19.98248,175396
19.99060,163946
19.99872,152981
20.00685,142894
20.01497,140893
20.02308,128773
20.03122,119517
20.03933,112942
20.04747,107868
20.05558,95732
20.06370,99689
20.07183,97065
20.07995,98150
20.08808,88891
20.09620,84721
20.10432,80094
20.11245,77533
20.12057,69236
20.12870,72840
20.13682,76597
20.14493,86461
20.15307,117902
20.16118,143847
20.16930,167656
20.17743,201679
20.18555,219274
20.19368,229932
20.20180,220707
20.20992,199760
20.21805,187796
20.22617,179383
20.23430,193533
20.24242,222955
20.25053,259547
20.25867,280160
20.26678,274377
20.27490,255443
20.28303,233400
20.29115,194907
20.29928,160206
20.30740,134678
20.31552,114711
20.32365,95660
20.33177,85414
20.33990,75436
20.34802,68369
20.35613,65865
20.36427,65803
20.37238,61746
20.38052,62181
20.38863,59481
20.39675,69555
20.40488,73152
20.41300,77651
20.42112,79614
20.42925,72721
20.43737,76876
20.44550,69170
20.45362,68078
20.46173,63105
20.46987,59993
20.47798,53849
20.48612,50619
20.49423,50634
20.50235,50998
20.51048,47503
20.51860,47287
20.52672,46787
20.53485,46584
20.54297,46375
20.55110,44687
20.55922,45623
20.56733,45422
20.57547,45757
20.58358,45693
20.59172,45285
20.59983,45426
20.60795,43212
20.61608,46341
20.62420,44080
20.63233,41897
20.64045,43480
20.64857,42594
20.65670,45695
20.66482,41783
20.67293,43378
20.68107,42030
20.68918,43645
20.69732,41522
20.70543,41908
20.71355,42847
20.72168,42555
20.72980,42421
20.73793,39398
20.74605,39817
20.75417,40858
20.76230,46363
20.77042,45586
20.77855,53165
20.78667,63109
20.79478,74552
20.80292,94986
20.81103,104770
20.81915,112474
20.82728,109033
20.83540,97186
20.84353,80712
20.85165,66504
20.85977,54256
20.86790,53886
20.87602,49337
20.88415,50817
20.89227,50756
20.90038,56160
20.90852,50711
20.91663,48500
20.92475,52865
20.93288,48389
20.94100,51335
20.94913,45166
20.95725,48410
20.96537,46013
20.97350,41828
20.98162,38950
20.98975,44421
20.99787,41868
21.00598,43789
21.01412,42175
21.02223,40289
21.03037,42477
21.03848,42581
21.04660,40176
21.05473,39510
21.06285,42138
21.07097,38980
21.07910,39761
21.08722,41846
21.09535,43023
21.10347,43958
21.11158,36721
21.11972,40304
21.12783,40356
21.13597,55250
21.14408,61874
21.15220,63984
21.16033,60110
21.16845,62798
21.17658,57085
21.18470,54244
21.19282,50781
21.20095,46633
21.20907,47042
21.21718,42797
21.22532,43661
21.23343,43600
21.24157,49627
21.24968,52266
21.25780,52207
21.26593,54201
21.27405,51373
21.28218,48119
21.29030,47175
21.29842,51849
21.30655,50970
21.31467,51126
21.32278,49603
21.33092,49519
21.33903,48891
21.34717,49897
21.35528,52991
21.36340,50701
21.37153,51690
21.37965,52062
21.38778,52165
21.39590,57383
21.40402,59102
21.41215,63085
21.42027,63816
21.42840,58722
21.43652,56841
21.44463,51781
21.45277,54812
21.46088,53532
21.46900,50847
21.47713,53193
21.48525,51967
21.49338,53081
21.50150,53340
21.50962,51403
21.51775,47238
21.52587,49098
21.53400,50055
21.54212,51811
21.55023,50833
21.55837,51366
21.56648,57231
21.57460,66444
21.58273,73542
21.59085,79108
21.59898,76556
21.60710,74592
21.61522,73749
21.62335,64253
21.63147,58612
21.63960,55675
21.64772,54691
21.65583,49585
21.66397,50521
21.67208,48452
21.68022,52040
21.68833,49514
21.69645,45987
21.70458,47176
21.71270,39496
21.72082,40378
21.72895,40229
21.73707,43020
21.74520,43411
21.75332,41334
21.76143,45901
21.76957,49460
21.77768,62755
21.78582,64886
21.79393,67102
21.80205,64071
21.81018,61254
21.81830,53573
21.82643,49028
21.83455,48924
21.84267,43225
21.85080,42488
21.85892,37867
21.86703,43163
21.87517,39571
21.88328,40232
21.89142,44885
21.89953,38966
21.90765,40028
21.91578,41960
21.92390,55680
21.93203,70087
21.94015,84314
21.94827,98231
21.95640,104953
21.96452,104286
21.97263,116454
21.98077,119099
21.98888,115571
21.99702,124637
22.00513,122130
22.01325,116239
22.02138,113972
22.02950,116509
22.03763,115760
22.04575,114652
22.05387,110388
22.06200,113135
22.07012,108382
22.07825,112619
22.08637,114974
22.09448,110811
22.10262,108078
22.11073,105879
22.11885,101096
22.12698,98056
22.13510,97344
22.14323,94919
22.15135,99356
22.15947,94291
22.16760,96833
22.17572,98714
22.18385,93966
22.19197,95480
22.20008,91949
22.20822,92241
22.21633,82389
22.22447,81802
22.23258,80357
22.24070,80092
22.24883,74210
22.25695,75186
22.26507,72755
22.27320,76245
22.28132,76817
22.28945,77556
22.29757,72395
22.30568,64230
22.31382,68588
22.32193,65440
22.33007,65068
22.33818,63480
22.34630,65116
22.35443,65909
22.36255,65347
22.37067,62028
22.37880,62633
22.38692,62178
22.39505,64170
22.40317,69224
22.41128,71099
22.41942,68222
22.42753,73485
22.43567,67076
22.44378,64295
22.45190,56745
22.46003,61942
22.46815,55611
22.47628,56916
22.48440,53533
22.49252,58815
22.50065,61748
22.50877,61978
22.51688,58224
22.52502,64539
22.53313,56291
22.54127,54843
22.54938,56244
22.55750,52842
22.56563,48941
22.57375,44261
22.58188,48353
22.59000,47483
22.59812,40088
22.60625,42961
22.61437,43633
22.62250,47552
22.63062,43579
22.63873,39992
22.64687,41723
22.65498,43584
22.66310,42666
22.67123,47109
22.67935,46876
22.68748,53064
22.69560,57859
22.70372,64745
22.71185,66671
22.71997,67127
22.72810,63544
22.73622,54886
22.74433,55658
22.75247,51368
22.76058,50297
22.76870,50822
22.77683,51006
22.78495,58637
22.79308,60159
22.80120,63320
22.80932,59223
22.81745,64554
22.82557,59934
22.83370,50352
22.84182,53385
22.84993,50352
22.85807,55217
22.86618,56458
22.87432,62484
22.88243,67045
22.89055,69528
22.89868,75927
22.90680,82495
22.91492,97187
22.92305,119140
22.93117,113663
22.93930,112233
22.94742,111261
22.95553,96593
22.96367,84816
22.97178,71427
22.97992,71824
22.98803,67088
22.99615,63029
23.00428,55969
23.01240,55648
23.02052,54117
23.02865,57035
23.03677,46931
23.04490,49715
23.05302,47133
23.06113,41214
23.06927,43350
23.07738,44539
23.08552,46442
23.09363,44412
23.10175,44068
23.10988,44031
23.11800,38992
23.12613,40235
23.13425,40253
23.14237,42778
23.15050,39328
23.15862,35859
23.16673,41055
23.17487,37412
23.18298,38039
23.19112,38797
23.19923,37651
23.20735,39217
23.21548,34669
23.22360,37983
23.23173,38290
23.23985,38569
23.24797,39293
23.25610,37415
23.26422,43983
23.27235,39284
23.28047,40114
23.28858,39054
23.29672,40096
23.30483,38278
23.31295,40017
23.32108,38197
23.32920,39336
23.33733,43412
23.34545,43407
23.35357,48858
23.36170,50916
23.36982,48119
23.37795,53999
23.38607,45480
23.39418,45885
23.40232,41456
23.41043,42146
23.41855,44511
23.42668,37024
23.43480,37283
23.44293,35112
23.45105,36437
23.45917,39588
23.46730,37774
23.47542,37483
23.48355,39044
23.49167,38570
23.49978,37624
23.50792,33106
23.51603,30328
23.52417,36184
23.53228,37594
23.54040,33572
23.54853,38546
23.55665,42618
23.56477,44013
23.57290,53404
23.58102,65947
23.58915,71360
23.59727,77508
23.60538,80068
23.61352,80652
23.62163,69580
23.62977,62369
23.63788,57066
23.64600,57445
23.65413,56049
23.66225,58078
23.67038,55948
23.67850,52484
23.68662,53474
23.69475,53508
23.70287,66393
23.71098,83312
23.71912,95976
23.72723,116473
23.73537,167908
23.74348,314925
23.75160,693251
23.75973,1507299
23.76785,2794679
23.77598,4131662
23.78410,4910451
23.79222,4971930
23.80035,4303816
23.80847,3320492
23.81658,2514631
23.82472,1791711
23.83283,1355682
23.84097,1031927
23.84908,789411
23.85720,672320
23.86533,604930
23.87345,515162
23.88158,473812
23.88970,422156
23.89782,383988
23.90595,357682
23.91407,332889
23.92220,316463
23.93032,292551
23.93843,271247
23.94657,264462
23.95468,247421
23.96280,233191
23.97093,221096
23.97905,216271
23.98718,206702
23.99530,204645
24.00342,199555
24.01155,181915
24.01967,179982
24.02780,181231
24.03592,178948
24.04403,169726
24.05217,169595
24.06028,160340
24.06840,157250
24.07653,155569
24.08465,152361
24.09278,146061
24.10090,134695
24.10902,136461
24.11715,135528
24.12527,136403
24.13340,137571
24.14152,137750
24.14963,136891
24.15777,142086
24.16588,141351
24.17402,129155
24.18213,125391
24.19025,118508
24.19838,123116
24.20650,113169
24.21462,107446
24.22275,104567
24.23087,105148
24.23900,90453
24.24712,91253
24.25523,90653
24.26337,92782
24.27148,92189
24.27962,89751
24.28773,86799
24.29585,87275
24.30398,93730
24.31210,101009
24.32023,105744
24.32835,115044
24.33647,105751
24.34460,104283
24.35272,97230
24.36083,88380
24.36897,84587
24.37708,79788
24.38522,77284
24.39333,73218
24.40145,68923
24.40958,75546
24.41770,72801
24.42583,79273
24.43395,80055
24.44207,88354
24.45020,89084
24.45832,85378
24.46645,83926
24.47457,79054
24.48268,75962
24.49082,72718
24.49893,74479
24.50705,69816
24.51518,68078
24.52330,69214
24.53143,74162
24.53955,79070
24.54767,83157
24.55580,79337
24.56392,76668
24.57205,72420
24.58017,71809
24.58828,68203
24.59642,62604
24.60453,60126
24.61265,64155
24.62078,59795
24.62890,63768
24.63703,57634
24.64515,59327
24.65327,55240
24.66140,59836
24.66952,59383
24.67765,58446
24.68577,55339
24.69388,54265
24.70202,54254
24.71013,50859
24.71827,52505
24.72638,54225
24.73450,53245
24.74263,47475
24.75075,51060
24.75887,54006
24.76700,50656
24.77512,47708
24.78325,51953
24.79137,54496
24.79948,50115
24.80762,52136
24.81573,52475
24.82387,59807
24.83198,58493
24.84010,65085
24.84823,72292
24.85635,80831
24.86447,91438
24.87260,102918
24.88072,113052
24.88885,116035
24.89697,115049
24.90508,108468
24.91322,106007
24.92133,107830
24.92947,112530
24.93758,120859
24.94570,120167
24.95383,118407
24.96195,122289
24.97008,132676
24.97820,134614
24.98632,131122
24.99445,127144
25.00257,131490
25.01068,133859
25.01882,138751
25.02693,131065
25.03507,125003
25.04318,130911
25.05130,129424
25.05943,127951
25.06755,139997
25.07568,128289
25.08380,130439
25.09192,133848
25.10005,150894
25.10817,187097
25.11630,266404
25.12442,370346
25.13253,494167
25.14067,593411
25.14878,632509
25.15690,584976
25.16503,486298
25.17315,366806
25.18128,273207
25.18940,220970
25.19752,174046
25.20565,161228
25.21377,141541
25.22190,135891
25.23002,133496
25.23813,139983
25.24627,156367
25.25438,180661
25.26250,194747
25.27063,197482
25.27875,189234
25.28688,171909
25.29500,151567
25.30312,137879
25.31125,117980
25.31937,110204
25.32750,99563
25.33562,96884
25.34373,87463
25.35187,86633
25.35998,81721
25.36812,81339
25.37623,82144
25.38435,77935
25.39248,75514
25.40060,78109
25.40872,81931
25.41685,78146
25.42497,68058
25.43310,71184
25.44122,71577
25.44933,63856
25.45747,72431
25.46558,61241
25.47372,64643
25.48183,65754
25.48995,65286
25.49808,60274
25.50620,58204
25.51433,56116
25.52245,56429
25.53057,59535
25.53870,56135
25.54682,56414
25.55493,54553
25.56307,50884
25.57118,57328
25.57932,51673
25.58743,55740
25.59555,54955
25.60368,54934
25.61180,54588
25.61993,50236
25.62805,52404
25.63617,51301
25.64430,52114
25.65242,50193
25.66053,51364
25.66867,50233
25.67678,52061
25.68492,52549
25.69303,51260
25.70115,50168
25.70928,50531
25.71740,48506
25.72553,51766
25.73365,50426
25.74177,48006
25.74990,47655
25.75802,47149
25.76615,49264
25.77427,45601
25.78238,44952
25.79052,47445
25.79863,51240
25.80675,47127
25.81488,51319
25.82300,47081
25.83113,51300
25.83925,46238
25.84737,53059
25.85550,44044
25.86362,45727
25.87175,46745
25.87987,41570
25.88798,43537
25.89612,41750
25.90423,44368
25.91235,41037
25.92048,44521
25.92860,43989
25.93673,42246
25.94485,47328
25.95297,44810
25.96110,42668
25.96922,43736
25.97735,44245
25.98547,40007
25.99358,44543
26.00172,39145
26.00983,41236
26.01797,38258
26.02608,41970
26.03420,40157
26.04233,43737
26.05045,41105
26.05857,42223
26.06670,41011
26.07482,41265
26.08295,47000
26.09107,43919
26.09918,43971
26.10732,44442
26.11543,39707
26.12357,43243
26.13168,45755
26.13980,45661
26.14793,48488
26.15605,44202
26.16418,45029
26.17230,42092
26.18042,47184
26.18855,44034
26.19667,42812
26.20478,43726
26.21292,38685
26.22103,39994
26.22917,40859
26.23728,37463
26.24540,39741
26.25353,36239
26.26165,36436
26.26978,39297
26.27790,38578
26.28602,39324
26.29415,36450
26.30227,36540
26.31038,38666
26.31852,38296
26.32663,37124
26.33477,42633
26.34288,43371
26.35100,40332
26.35913,48829
26.36725,54647
26.37538,57490
26.38350,57882
26.39162,64989
26.39975,68099
26.40787,62186
26.41600,55439
26.42412,51063
26.43223,44526
26.44037,42483
26.44848,44090
26.45660,48263
26.46473,38831
26.47285,41056
26.48098,39676
26.48910,38642
26.49722,43385
26.50535,38873
26.51347,43361
26.52160,36961
26.52972,38620
26.53783,37784
26.54597,36483
26.55408,36256
26.56222,38808
26.57033,41667
26.57845,39865
26.58658,38672
26.59470,35854
26.60282,35237
26.61095,38073
26.61907,37400
26.62720,38469
26.63532,41728
26.64343,41514
26.65157,41616
26.65968,42461
26.66782,45550
26.67593,41959
26.68405,42028
26.69218,43455
26.70030,41344
26.70842,40371
26.71655,41846
26.72467,40325
26.73280,39904
26.74092,36993
26.74903,40612
26.75717,39290
26.76528,40677
26.77342,38418
26.78153,43640
26.78965,44488
26.79778,44795
26.80590,41013
26.81403,41660
26.82215,41977
26.83027,39602
26.83840,39298
26.84652,35853
26.85463,35724
26.86277,38367
26.87088,37883
26.87902,39271
26.88713,36325
26.89525,40588
26.90338,41502
26.91150,35510
26.91963,38025
26.92775,42101
26.93587,47370
26.94400,59951
26.95212,85059
26.96023,144926
26.96837,247939
26.97648,409185
26.98462,580553
26.99273,790224
27.00085,895233
27.00898,900683
27.01710,852128
27.02523,715598
27.03335,557836
27.04147,444235
27.04960,346833
27.05772,276990
27.06585,208735
27.07397,172508
27.08208,157297
27.09022,141235
27.09833,123117
27.10645,112657
27.11458,102438
27.12270,96067
27.13083,92624
27.13895,86319
27.14707,91549
27.15520,90396
27.16332,86328
27.17145,84086
27.17957,83736
27.18768,75901
27.19582,76339
27.20393,70285
27.21207,68351
27.22018,63547
27.22830,63253
27.23643,61472
27.24455,57181
27.25267,60366
27.26080,53352
27.26892,58315
27.27705,55872
27.28517,56318
27.29328,50951
27.30142,51978
27.30953,54065
27.31767,53485
27.32578,50063
27.33390,49660
27.34203,48040
27.35015,51658
27.35827,50212
27.36640,50569
27.37452,50553
27.38265,51657
27.39077,46910
27.39888,47269
27.40702,47361
27.41513,51167
27.42327,48080
27.43138,48764
27.43950,48343
27.44763,49378
27.45575,47551
27.46388,50628
27.47200,47475
27.48012,45779
27.48825,40786
27.49637,41036
27.50448,41266
27.51262,42885
27.52073,43861
27.52887,46829
27.53698,42833
27.54510,45648
27.55323,43931
27.56135,47506
27.56948,43165
27.57760,44749
27.58572,43077
27.59385,45698
27.60197,43452
27.61010,42818
27.61822,39312
27.62633,41370
27.63447,41575
27.64258,38797
27.65070,40083
27.65883,41422
27.66695,46841
27.67508,42313
27.68320,43008
27.69132,43695
27.69945,44120
27.70757,41427
27.71570,41381
27.72382,37738
27.73193,39914
27.74007,40499
27.74818,45361
27.75630,45329
27.76443,41546
27.77255,41266
27.78068,41510
27.78880,39168
27.79692,39692
27.80505,40520
27.81317,41681
27.82130,41724
27.82942,46362
27.83753,39005
27.84567,38283
27.85378,36066
27.86192,38949
27.87003,36694
27.87815,39134
27.88628,36272
27.89440,35470
27.90252,37723
27.91065,35561
27.91877,36121
27.92690,34782
27.93502,31673
27.94313,35261
27.95127,32582
27.95938,35752
27.96752,37528
27.97563,37022
27.98375,39383
27.99188,42510
28.00000,45647
28.00813,48217
28.01625,47897
28.02437,51873
28.03250,52973
28.04062,60089
28.04873,57401
28.05687,52885
28.06498,45502
28.07312,46970
28.08123,43432
28.08935,42376
28.09748,46337
28.10560,43120
28.11373,47902
28.12185,47511
28.12997,44361
28.13810,47588
28.14622,44540
28.15433,44817
28.16247,36528
28.17058,40436
28.17872,38238
28.18683,36716
28.19495,39793
28.20308,41102
28.21120,42080
28.21933,42120
28.22745,38701
28.23557,41716
28.24370,41738
28.25182,45503
28.25995,55903
28.26807,61666
28.27618,76095
28.28432,95348
28.29243,120644
28.30055,137801
28.30868,151239
28.31680,167845
28.32493,166961
28.33305,158030
28.34117,145284
28.34930,146161
28.35742,131680
28.36555,123693
28.37367,104747
28.38178,97455
28.38992,94389
28.39803,85653
28.40615,76298
28.41428,69408
28.42240,63667
28.43053,59445
28.43865,59392
28.44677,58411
28.45490,53030
28.46302,52774
28.47115,51448
28.47927,51816
28.48738,51241
28.49552,47507
28.50363,48407
28.51177,46979
28.51988,44742
28.52800,43912
28.53613,42771
28.54425,42359
28.55237,43796
28.56050,40578
28.56862,42454
28.57675,42182
28.58487,42209
28.59298,42112
28.60112,38408
28.60923,40557
28.61737,38546
28.62548,42537
28.63360,41809
28.64173,44964
28.64985,45687
28.65798,44814
28.66610,44974
28.67422,48919
28.68235,52383
28.69047,51736
28.69858,51878
28.70672,53045
28.71483,49805
28.72297,47391
28.73108,41175
28.73920,36078
28.74733,37535
28.75545,37712
28.76358,38202
28.77170,40732
28.77982,38144
28.78795,38003
28.79607,35216
28.80418,37829
28.81232,34217
28.82043,35536
28.82857,33042
28.83668,39555
28.84480,36101
28.85293,39459
28.86105,34780
28.86918,39016
28.87730,37937
28.88542,38462
28.89355,37285
28.90167,39372
28.90980,36466
28.91792,36949
28.92603,42061
28.93417,35642
28.94228,37134
28.95040,37962
28.95853,42143
28.96665,38399
28.97478,42233
28.98290,39129
28.99102,36813
28.99915,33858
29.00727,36268
29.01540,34478
29.02352,33561
29.03163,31911
29.03977,32084
29.04788,36238
29.05602,37163
29.06413,35658
29.07225,34414
29.08038,35187
29.08850,35492
29.09662,35502
29.10475,42429
29.11287,34496
29.12100,30927
29.12912,30583
29.13723,31687
29.14537,30622
29.15348,32934
29.16162,34998
29.16973,35290
29.17785,34244
29.18598,31688
29.19410,38381
29.20222,37382
29.21035,39498
29.21847,39153
29.22660,41874
29.23472,42456
29.24283,44166
29.25097,45039
29.25908,40920
29.26722,44889
29.27533,43854
29.28345,38045
29.29158,39593
29.29970,36498
29.30783,33842
29.31595,35091
29.32407,31787
29.33220,33040
29.34032,32986
29.34843,32693
29.35657,32084
29.36468,32235
29.37282,32598
29.38093,36681
29.38905,33472
29.39718,35280
29.40530,38090
29.41343,35370
29.42155,34562
29.42967,34523
29.43780,33965
29.44592,30019
29.45403,32670
29.46217,34225
29.47028,32003
29.47842,32849
29.48653,35766
29.49465,35964
29.50278,34667
29.51090,35271
29.51903,34808
29.52715,36878
29.53527,30789
29.54340,33069
29.55152,30199
29.55965,37826
29.56777,30630
29.57588,36214
29.58402,33666
29.59213,31030
29.60025,34994
29.60838,31468
29.61650,33798
29.62463,33217
29.63275,33158
29.64087,30178
29.64900,30797
29.65712,32352
29.66525,29845
29.67337,29538
29.68148,32362
29.68962,31437
29.69773,32510
29.70587,31801
29.71398,31382
29.72210,33200
29.73023,36560
29.73835,32117
29.74647,34046
29.75460,32697
29.76272,32757
29.77085,29826
29.77897,29231
29.78708,28500
29.79522,31381
29.80333,31175
29.81147,31420
29.81958,32965
29.82770,30338
29.83583,33357
29.84395,29442
29.85208,31244
29.86020,32350
29.86832,38222
29.87645,43950
29.88457,51136
29.89268,54956
29.90082,64966
29.90893,63227
29.91707,71639
29.92518,72548
29.93330,77692
29.94143,73559
29.94955,82893
29.95768,80004
29.96580,88554
29.97392,82360
29.98205,80525
29.99017,75211
29.99828,75452
30.00642,73733
30.01453,67773
30.02267,60715
30.03078,63790
30.03890,67622
30.04703,61218
30.05515,64325
30.06328,61868
30.07140,62616
30.07952,62463
30.08765,59628
30.09577,62236
30.10390,56382
30.11202,62125
30.12013,55444
30.12827,55668
30.13638,51867
30.14450,50961
30.15263,48757
30.16075,50666
30.16888,48961
30.17700,48562
30.18512,46213
30.19325,49512
30.20137,49400
30.20950,45622
30.21762,42481
30.22573,40791
30.23387,43534
30.24198,42281
30.25010,39726
30.25823,39165
30.26635,37654
30.27448,40944
30.28260,40580
30.29072,38851
30.29885,38945
30.30697,44260
30.31510,37078
30.32322,37955
30.33133,42619
30.33947,38345
30.34758,40665
30.35572,35959
30.36383,38905
30.37195,35984
30.38008,38251
30.38820,35577
30.39632,36111
30.40445,37243
30.41257,36350
30.42070,35765
30.42882,37092
30.43693,37689
30.44507,28614
30.45318,32722
30.46132,35405
30.46943,35509
30.47755,34671
30.48568,36701
30.49380,32326
30.50193,40404
30.51005,35907
30.51817,35373
30.52630,32911
30.53442,32261
30.54253,31769
30.55067,36391
30.55878,32399
30.56692,34420
30.57503,34479
30.58315,32729
30.59128,33001
30.59940,32988
30.60753,34725
30.61565,36884
30.62377,35141
30.63190,33172
30.64002,32803
30.64813,30595
30.65627,31114
30.66438,31307
30.67252,33270
30.68063,31690
30.68875,29941
30.69688,30688
30.70500,31549
30.71313,28923
30.72125,31950
30.72937,34698
30.73750,31222
30.74562,32110
30.75375,33014
30.76187,35295
30.76998,31445
30.77812,36270
30.78623,38888
30.79435,44212
30.80248,44348
30.81060,41891
30.81873,41293
30.82685,42334
30.83497,37974
30.84310,34811
30.85122,33659
30.85935,34096
30.86747,30152
30.87558,34401
30.88372,35361
30.89183,33418
30.89997,34416
30.90808,31920
30.91620,30910
30.92433,33246
30.93245,32487
30.94057,35618
30.94870,31127
30.95682,31370
30.96495,31689
30.97307,32304
30.98118,31601
30.98932,31171
30.99743,28421
31.00557,31144
31.01368,32730
31.02180,34184
31.02993,31475
31.03805,31436
31.04617,34151
31.05430,33402
31.06242,32966
31.07055,35726
31.07867,45182
31.08678,39539
31.09492,44328
31.10303,43885
31.11117,39852
31.11928,41234
31.12740,39716
31.13553,37444
31.14365,35398
31.15178,37538
31.15990,36364
31.16802,36538
31.17615,44679
31.18427,52002
31.19238,65630
31.20052,68072
31.20863,76515
31.21677,73000
31.22488,66863
31.23300,55270
31.24113,49177
31.24925,40482
31.25738,41269
31.26550,37541
31.27362,36088
31.28175,32381
31.28987,30922
31.29798,32490
31.30612,36340
31.31423,36562
31.32237,34451
31.33048,37155
31.33860,35846
31.34673,37701
31.35485,32320
31.36298,32185
31.37110,29964
31.37922,31897
31.38735,31940
31.39547,34639
31.40360,32261
31.41172,32351
31.41983,35969
31.42797,33106
31.43608,32301
31.44420,33083
31.45233,32470
31.46045,32684
31.46858,32099
31.47670,30779
31.48482,34145
31.49295,31153
31.50107,32825
31.50920,34849
31.51732,32575
31.52543,34060
31.53357,35829
31.54168,35397
31.54982,35324
31.55793,33053
31.56605,34942
31.57418,31930
31.58230,33137
31.59042,29524
31.59855,33158
31.60667,31986
31.61480,32412
31.62292,31936
31.63103,29499
31.63917,30091
31.64728,31698
31.65542,30245
31.66353,30505
31.67165,34134
31.67978,37523
31.68790,32128
31.69602,33993
31.70415,34145
31.71227,33390
31.72040,30095
31.72852,31786
31.73663,34101
31.74477,30507
31.75288,28956
31.76102,30214
31.76913,30560
31.77725,30988
31.78538,33632
31.79350,34070
31.80163,34331
31.80975,32078
31.81787,38248
31.82600,38794
31.83412,42703
31.84223,48404
31.85037,49369
31.85848,53641
31.86662,59323
31.87473,62585
31.88285,62763
31.89098,63243
31.89910,61545
31.90723,63027
31.91535,58500
31.92347,55421
31.93160,55211
31.93972,53565
31.94785,48701
31.95597,48668
31.96408,47324
31.97222,50950
31.98033,50070
31.98845,51565
31.99658,44486
32.00470,44837
32.01283,45374
32.02095,48664
32.02907,43302
32.03720,36226
32.04532,35217
32.05345,37784
32.06157,37435
32.06968,34811
32.07782,32623
32.08593,32728
32.09405,37550
32.10218,35583
32.11030,32237
32.11843,32456
32.12655,35872
32.13467,38495
32.14280,33592
32.15092,29783
32.15905,32424
32.16717,34282
32.17528,37588
32.18342,33302
32.19153,32425
32.19967,33564
32.20778,33152
32.21590,34468
32.22403,33524
32.23215,37525
32.24027,31727
32.24840,34023
32.25652,33594
32.26465,34001
32.27277,34640
32.28088,29885
32.28902,34294
32.29713,32901
32.30527,28789
32.31338,33521
32.32150,31032
32.32963,32407
32.33775,35343
32.34588,34683
32.35400,35050
32.36212,36511
32.37025,32623
32.37837,33599
32.38648,33772
32.39462,33109
32.40273,31104
32.41087,29592
32.41898,31554
32.42710,30982
32.43523,31207
32.44335,31953
32.45148,29969
32.45960,32765
32.46772,31869
32.47585,30418
32.48397,32749
32.49208,33787
32.50022,30205
32.50833,29181
32.51647,30558
32.52458,31362
32.53270,30797
32.54083,31310
32.54895,31075
32.55708,33670
32.56520,32925
32.57332,36699
32.58145,40398
32.58957,36442
32.59770,40026
32.60582,35041
32.61393,33187
32.62207,32280
32.63018,35053
32.63830,32597
32.64643,36900
32.65455,34791
32.66268,34956
32.67080,29827
32.67892,28840
32.68705,33235
32.69517,35542
32.70330,34416
32.71142,34572
32.71953,35805
32.72767,34446
32.73578,32962
32.74390,34571
32.75203,33884
32.76015,35109
32.76828,30682
32.77640,31569
32.78452,29595
32.79265,33963
32.80077,33623
32.80890,30920
32.81702,32486
32.82513,30226
32.83327,32537
32.84138,32775
32.84952,31063
32.85763,33378
32.86575,33899
32.87388,33286
32.88200,36328
32.89012,39077
32.89825,35266
32.90637,35991
32.91450,39232
32.92262,38112
32.93073,34940
32.93887,36474
32.94698,31034
32.95512,33660
32.96323,36026
32.97135,41423
32.97948,41731
32.98760,42087
32.99573,45465
33.00385,44533
33.01197,43445
33.02010,38894
33.02822,35801
33.03633,33720
33.04447,36774
33.05258,33475
33.06072,35447
33.06883,37481
33.07695,39199
33.08508,44587
33.09320,51421
33.10133,47243
33.10945,47977
33.11757,49324
33.12570,43233
33.13382,42625
33.14193,38305
33.15007,36772
33.15818,36254
33.16632,35526
33.17443,33768
33.18255,32859
33.19068,35002
33.19880,33718
33.20693,32117
33.21505,34891
33.22317,30135
33.23130,36925
33.23942,33644
33.24755,33220
33.25567,35219
33.26378,33045
33.27192,32414
33.28003,36104
33.28815,33019
33.29628,34314
33.30440,33808
33.31253,33672
33.32065,33270
33.32877,33802
33.33690,36354
33.34502,33026
33.35315,33593
33.36127,31511
33.36938,32850
33.37752,37752
33.38563,31684
33.39377,30789
33.40188,30137
33.41000,31838
33.41813,33894
33.42625,37556
33.43437,34255
33.44250,32459
33.45062,30734
33.45875,30423
33.46687,32003
33.47498,31442
33.48312,34158
33.49123,32735
33.49937,32044
33.50748,33370
33.51560,32503
33.52373,29434
33.53185,36895
33.53997,38060
33.54810,31951
33.55622,34506
33.56435,34695
33.57247,37393
33.58058,34196
33.58872,30256
33.59683,32295
33.60497,29502
33.61308,32611
33.62120,33831
33.62933,31636
33.63745,33438
33.64558,37296
33.65370,30272
33.66182,34062
33.66995,34408
33.67807,31058
33.68618,32775
33.69432,30241
33.70243,31570
33.71057,34794
33.71868,38019
33.72680,32249
33.73493,34935
33.74305,37326
33.75118,35688
33.75930,34095
33.76742,34178
33.77555,34099
33.78367,32766
33.79178,32655
33.79992,29888
33.80803,29750
33.81617,35096
33.82428,31395
33.83240,35025
33.84053,33376
33.84865,32770
33.85678,35469
33.86490,33577
33.87302,34711
33.88115,33337
33.88927,37869
33.89740,32722
33.90552,35471
33.91363,34684
33.92177,34765
33.92988,32389
33.93800,32478
33.94613,32912
33.95425,32576
33.96238,32362
33.97050,31424
33.97862,32445
33.98675,33122
33.99487,31379
34.00300,32483
34.01112,30099
34.01923,32248
34.02737,34330
34.03548,33099
34.04362,35895
34.05173,32916
34.05985,36891
34.06798,34876
34.07610,31148
34.08422,34016
34.09235,33197
34.10047,34901
34.10860,30297
34.11672,32297
34.12483,34325
34.13297,31586
34.14108,34917
34.14922,32180
34.15733,33106
34.16545,31710
34.17358,36734
34.18170,32962
34.18982,33466
34.19795,34309
34.20607,33652
34.21420,35420
34.22232,32592
34.23043,34488
34.23857,29866
34.24668,33644
34.25482,33372
34.26293,34967
34.27105,31967
34.27918,33044
34.28730,29193
34.29543,32132
34.30355,32872
34.31167,35584
34.31980,36572
34.32792,31074
34.33603,33311
34.34417,37477
34.35228,30800
34.36042,31412
34.36853,31417
34.37665,31469
34.38478,35653
34.39290,33959
34.40103,32329
34.40915,33121
34.41727,33500
34.42540,32928
34.43352,41005
34.44165,42811
34.44977,45109
34.45788,56682
34.46602,60472
34.47413,65056
34.48225,67022
34.49038,67940
34.49850,59137
34.50663,59295
34.51475,57825
34.52287,47890
34.53100,46413
34.53912,45739
34.54725,45397
34.55537,44460
34.56348,45578
34.57162,39053
34.57973,36276
34.58785,41889
34.59598,42780
34.60410,39583
34.61223,40213
34.62035,41163
34.62847,37369
34.63660,40759
34.64472,40051
34.65285,39789
34.66097,42338
34.66908,35593
34.67722,38370
34.68533,36334
34.69347,34275
34.70158,34011
34.70970,32934
34.71783,38106
34.72595,36268
34.73407,35727
34.74220,34366
34.75032,36099
34.75845,34722
34.76657,36494
34.77468,38086
34.78282,36330
34.79093,36178
34.79907,34499
34.80718,37712
34.81530,34240
34.82343,37207
34.83155,37138
34.83967,37403
34.84780,40919
34.85592,36352
34.86405,37684
34.87217,39144
34.88028,38683
34.88842,40196
34.89653,37175
34.90467,37084
34.91278,36105
34.92090,36660
34.92903,38502
34.93715,36218
34.94528,39898
34.95340,37895
34.96152,36208
34.96965,36861
34.97777,36184
34.98588,37325
34.99402,35070
35.00213,37124
35.01027,33747
35.01838,36883
35.02650,36292
35.03463,38062
35.04275,39805
35.05088,37012
35.05900,41553
35.06712,45564
35.07525,41222
35.08337,36924
35.09150,36421
35.09962,38706
35.10773,38117
35.11587,38260
35.12398,34559
35.13210,36928
35.14023,37794
35.14835,38743
35.15648,37571
35.16460,37608
35.17272,38658
35.18085,39482
35.18897,35454
35.19710,35577
35.20522,37240
35.21333,39737
35.22147,37648
35.22958,35675
35.23772,35860
35.24583,38619
35.25395,37154
35.26208,42740
35.27020,38111
35.27832,35726
35.28645,38777
35.29457,38281
35.30270,38338
35.31082,37051
35.31893,37679
35.32707,35487
35.33518,38722
35.34332,35058
35.35143,36513
35.35955,37864
35.36768,36998
35.37580,34616
35.38392,39527
35.39205,41600
35.40017,41674
35.40830,45301
35.41642,44426
35.42453,41725
35.43267,44066
35.44078,44709
35.44892,42866
35.45703,42817
35.46515,42695
35.47328,42636
35.48140,43963
35.48953,43840
35.49765,41856
35.50577,44763
35.51390,38751
35.52202,41381
35.53013,39967
35.53827,41843
35.54638,43702
35.55452,42054
35.56263,43835
35.57075,45649
35.57888,52394
35.58700,47518
35.59513,48924
35.60325,47954
35.61137,45832
35.61950,44456
35.62762,43607
35.63573,43177
35.64387,43901
35.65198,38865
35.66012,44321
35.66823,43281
35.67635,41097
35.68448,44071
35.69260,43959
35.70073,41267
35.70885,41097
35.71697,41825
35.72510,40905
35.73322,45402
35.74135,39976
35.74947,41203
35.75758,40239
35.76572,45049
35.77383,41606
35.78195,42375
35.79008,43196
35.79820,41697
35.80633,39778
35.81445,41197
35.82257,41298
35.83070,41045
35.83882,42396
35.84695,41118
35.85507,40872
35.86318,37926
35.87132,41881
35.87943,34678
35.88757,36907
35.89568,42089
35.90380,41035
35.91193,39710
35.92005,38536
35.92817,39169
35.93630,39465
35.94442,41358
35.95255,40251
35.96067,41751
35.96878,42525
35.97692,39033
35.98503,43929
35.99317,44194
36.00128,42457
36.00940,45769
36.01753,42084
36.02565,45780
36.03377,47522
36.04190,43985
36.05002,43149
36.05815,42779
36.06627,39076
36.07438,39764
36.08252,40324
36.09063,41431
36.09877,43308
36.10688,41682
36.11500,40189
36.12313,40472
36.13125,41070
36.13938,42545
36.14750,37967
36.15562,40443
36.16375,42963
36.17187,40436
36.17998,43172
36.18812,40293
36.19623,41963
36.20437,44224
36.21248,49563
36.22060,49941
36.22873,47872
36.23685,50405
36.24498,48072
36.25310,48800
36.26122,41242
36.26935,43229
36.27747,45462
36.28560,44057
36.29372,42152
36.30183,42845
36.30997,42112
36.31808,45240
36.32620,42785
36.33433,46271
36.34245,38952
36.35058,40181
36.35870,38098
36.36682,40315
36.37495,43189
36.38307,39043
36.39120,43934
36.39932,42850
36.40743,39268
36.41557,40437
36.42368,43900
36.43180,40210
36.43993,42160
36.44805,44060
36.45618,43021
36.46430,36513
36.47242,37768
36.48055,41884
36.48867,40779
36.49680,41959
36.50492,44044
36.51303,40402
36.52117,41308
36.52928,39471
36.53742,43285
36.54553,43363
36.55365,44731
36.56178,44548
36.56990,46937
36.57802,44539
36.58615,41734
36.59427,41696
36.60240,44846
36.61052,42925
36.61863,43547
36.62677,38923
36.63488,44964
36.64302,42744
36.65113,42056
36.65925,44596
36.66738,40192
36.67550,45571
36.68362,40940
36.69175,44066
36.69987,43368
36.70800,44260
36.71612,42907
36.72423,45289
36.73237,41911
36.74048,45299
36.74862,40053
36.75673,42245
36.76485,38564
36.77298,42908
36.78110,42475
36.78923,45082
36.79735,42086
36.80547,44524
36.81360,43092
36.82172,41526
36.82983,45696
36.83797,42592
36.84608,42605
36.85422,45618
36.86233,45488
36.87045,41958
36.87858,42675
36.88670,42883
36.89483,46039
36.90295,44477
36.91107,47370
36.91920,44970
36.92732,48456
36.93545,46519
36.94357,48281
36.95168,49674
36.95982,50552
36.96793,47561
36.97605,46655
36.98418,46248
36.99230,47575
37.00043,48354
37.00855,49705
37.01667,50671
37.02480,48342
37.03292,48198
37.04105,48422
37.04917,44870
37.05728,48438
37.06542,48824
37.07353,48864
37.08165,48643
37.08978,46088
37.09790,49556
37.10603,43089
37.11415,46420
37.12227,46177
37.13040,45806
37.13852,46005
37.14665,48775
37.15477,47802
37.16288,47858
37.17102,44217
37.17913,41762
37.18727,48720
37.19538,47747
37.20350,45993
37.21163,44069
37.21975,48958
37.22787,48705
37.23600,51762
37.24412,54094
37.25225,59836
37.26037,66661
37.26848,67145
37.27662,66380
37.28473,69445
37.29287,67003
37.30098,61407
37.30910,62402
37.31723,55750
37.32535,54985
37.33348,55801
37.34160,52668
37.34972,51045
37.35785,50970
37.36597,56248
37.37408,47322
37.38222,56758
37.39033,50460
37.39847,52678
37.40658,53766
37.41470,48610
37.42283,52123
37.43095,55934
37.43908,48909
37.44720,47038
37.45532,49947
37.46345,49298
37.47157,50342
37.47968,49719
37.48782,52391
