Z:\data\JTB-E02\BACandBLUE\JTB-E02-190-11.D Tue Dec 11 14:33:40 2018
Start of data points
2.09518,94481
2.10330,89765
2.11142,88778
2.11955,95949
2.12767,90995
2.13580,89908
2.14392,87247
2.15203,87212
2.16017,87014
2.16828,89491
2.17640,82301
2.18453,79923
2.19265,81948
2.20078,81832
2.20890,77259
2.21702,80223
2.22515,74090
2.23327,80667
2.24140,82274
2.24952,74660
2.25763,71875
2.26577,81517
2.27388,238584
2.28202,870694
2.29013,1245006
2.29825,807089
2.30638,440072
2.31450,338485
2.32262,280262
2.33075,236823
2.33887,217536
2.34700,208195
2.35512,186727
2.36323,177325
2.37137,167751
2.37948,164984
2.38762,163597
2.39573,152560
2.40385,150687
2.41198,145937
2.42010,151384
2.42822,151696
2.43635,152823
2.44447,149161
2.45260,142680
2.46072,141593
2.46883,143816
2.47697,137224
2.48508,129670
2.49322,135668
2.50133,139197
2.50945,135072
2.51758,135200
2.52570,134101
2.53383,138862
2.54195,127669
2.55007,133736
2.55820,137953
2.56632,154392
2.57443,155441
2.58257,142334
2.59068,128228
2.59882,129949
2.60693,144861
2.61505,289429
2.62318,432496
2.63130,352563
2.63943,240025
2.64755,195200
2.65567,158626
2.66380,156619
2.67192,142111
2.68005,139886
2.68817,127840
2.69628,123853
2.70442,116786
2.71253,116989
2.72065,124667
2.72878,123441
2.73690,113164
2.74503,112846
2.75315,119128
2.76127,113100
2.76940,118138
2.77752,188442
2.78565,877734
2.79377,2419814
2.80188,2584755
2.81002,1486664
2.81813,891383
2.82625,723131
2.83438,601083
2.84250,472249
2.85063,395636
2.85875,349867
2.86687,301032
2.87500,275367
2.88312,246221
2.89125,231944
2.89937,211775
2.90748,205570
2.91562,195106
2.92373,181484
2.93187,179982
2.93998,161262
2.94810,159764
2.95623,158371
2.96435,156125
2.97247,172880
2.98060,164063
2.98872,154480
2.99685,149615
3.00497,156231
3.01308,156065
3.02122,153503
3.02933,151036
3.03747,145944
3.04558,136579
3.05370,133775
3.06183,132365
3.06995,139481
3.07807,132093
3.08620,169924
3.09432,421024
3.10245,1044459
3.11057,2576493
3.11868,4776019
3.12682,4767098
3.13493,2995351
3.14307,1894939
3.15118,1374359
3.15930,1054394
3.16743,875246
3.17555,831070
3.18368,912028
3.19180,1859378
3.19992,4645217
3.20805,6243509
3.21617,4853601
3.22428,3144612
3.23242,2314469
3.24053,1830648
3.24867,1477445
3.25678,1248237
3.26490,1059687
3.27303,921673
3.28115,825045
3.28928,838524
3.29740,1763204
3.30552,5735769
3.31365,1.296968E+07
3.32177,1.722786E+07
3.32990,1.527576E+07
3.33802,1.021987E+07
3.34613,6297548
3.35427,4166115
3.36238,3047611
3.37050,2369628
3.37863,1915158
3.38675,1619102
3.39488,1380751
3.40300,1195098
3.41112,1083083
3.41925,981931
3.42737,910697
3.43550,857798
3.44362,839701
3.45173,801440
3.45987,746443
3.46798,732272
3.47610,895799
3.48423,1036151
3.49235,951248
3.50048,751124
3.50860,613696
3.51672,551281
3.52485,501458
3.53297,493214
3.54110,515233
3.54922,575274
3.55733,568094
3.56547,500041
3.57358,446736
3.58172,420904
3.58983,388771
3.59795,373539
3.60608,362434
3.61420,338844
3.62232,356341
3.63045,349548
3.63857,349563
3.64670,356574
3.65482,361477
3.66293,698531
3.67107,4470890
3.67918,1.973266E+07
3.68732,4.011496E+07
3.69543,4.845254E+07
3.70355,4.143361E+07
3.71168,2.913953E+07
3.71980,2.074959E+07
3.72793,1.64626E+07
3.73605,1.358417E+07
3.74417,1.149211E+07
3.75230,9905945
3.76042,8689235
3.76853,7669953
3.77667,6828336
3.78478,6120968
3.79292,5598392
3.80103,5141391
3.80915,4877715
3.81728,4929929
3.82540,5222575
3.83353,5179943
3.84165,4604919
3.84977,4019749
3.85790,3622953
3.86602,3353823
3.87413,3102443
3.88227,2936348
3.89038,2742517
3.89852,2642237
3.90663,2493450
3.91475,2410185
3.92288,2459009
3.93100,2798668
3.93913,3258125
3.94725,3229808
3.95537,2810001
3.96350,2467239
3.97162,2457907
3.97975,2466374
3.98787,2268904
3.99598,1989158
4.00412,1843676
4.01223,1997781
4.02035,2375462
4.02848,2614273
4.03660,2296984
4.04473,1905938
4.05285,1593412
4.06097,1453984
4.06910,1372473
4.07722,1299088
4.08535,1224156
4.09347,1195941
4.10158,1193174
4.10972,1151248
4.11783,1113405
4.12595,1081728
4.13408,1030782
4.14220,1015535
4.15033,1012332
4.15845,1022759
4.16657,1002418
4.17470,1010641
4.18282,983203
4.19095,990378
4.19907,965153
4.20718,952347
4.21532,1413795
4.22343,4042392
4.23157,1.073456E+07
4.23968,2.033949E+07
4.24780,2.787318E+07
4.25593,3.308636E+07
4.26405,3.617904E+07
4.27217,3.452031E+07
4.28030,2.221097E+07
4.28842,1.162313E+07
4.29655,8317849
4.30467,6527284
4.31278,5374995
4.32092,4487907
4.32903,3872842
4.33717,3388817
4.34528,3013308
4.35340,2683657
4.36153,2502268
4.36965,2445599
4.37778,2537106
4.38590,2494284
4.39402,2244202
4.40215,1905712
4.41027,1673088
4.41838,1524191
4.42652,1407202
4.43463,1305240
4.44277,1257483
4.45088,1183110
4.45900,1130559
4.46713,1065563
4.47525,1048976
4.48338,986451
4.49150,978087
4.49962,939289
4.50775,898484
4.51587,884432
4.52398,859546
4.53212,825496
4.54023,815916
4.54837,831319
4.55648,860382
4.56460,888928
4.57273,849511
4.58085,803218
4.58898,739819
4.59710,725210
4.60522,698233
4.61335,664540
4.62147,677196
4.62960,770655
4.63772,1120180
4.64583,1824072
4.65397,2550807
4.66208,2555322
4.67020,2021535
4.67833,1535475
4.68645,1216271
4.69458,1085851
4.70270,956540
4.71082,836103
4.71895,744427
4.72707,698777
4.73520,662345
4.74332,620918
4.75143,608180
4.75957,597358
4.76768,562669
4.77582,552064
4.78393,534774
4.79205,534061
4.80018,616154
4.80830,751301
4.81642,911980
4.82455,931862
4.83267,833768
4.84080,746367
4.84892,776271
4.85703,868469
4.86517,923662
4.87328,874167
4.88142,762259
4.88953,660069
4.89765,611123
4.90578,560967
4.91390,545399
4.92202,514093
4.93015,518191
4.93827,559560
4.94640,866592
4.95452,1946251
4.96263,4307328
4.97077,7178236
4.97888,8799993
4.98702,8105186
4.99513,6084507
5.00325,4132307
5.01138,2810776
5.01950,2084324
5.02763,1729992
5.03575,1721196
5.04387,2105717
5.05200,2575988
5.06012,2622893
5.06823,2313636
5.07637,1862748
5.08448,1566125
5.09262,1379120
5.10073,1238248
5.10885,1124286
5.11698,1047880
5.12510,1005563
5.13323,911030
5.14135,849105
5.14947,832794
5.15760,875839
5.16572,1050033
5.17385,1343952
5.18197,1503126
5.19008,1406142
5.19822,1229786
5.20633,1154686
5.21445,1205748
5.22258,1274424
5.23070,1241798
5.23883,1099896
5.24695,961448
5.25507,861164
5.26320,768893
5.27132,724473
5.27945,605422
5.28757,572285
5.29568,555477
5.30382,524756
5.31193,515945
5.32005,491559
5.32818,486434
5.33630,500830
5.34443,504906
5.35255,509468
5.36067,520500
5.36880,499673
5.37692,474994
5.38505,455492
5.39317,461975
5.40128,496233
5.40942,534184
5.41753,562522
5.42567,543810
5.43378,491822
5.44190,457339
5.45003,473225
5.45815,499799
5.46627,572895
5.47440,607315
5.48252,573322
5.49065,504154
5.49877,456424
5.50688,404217
5.51502,385633
5.52313,392828
5.53127,391789
5.53938,379075
5.54750,386055
5.55563,411557
5.56375,529806
5.57187,837852
5.58000,1253428
5.58812,1536028
5.59625,1507578
5.60437,1191447
5.61248,850750
5.62062,650062
5.62873,531263
5.63687,469078
5.64498,443855
5.65310,410176
5.66123,390951
5.66935,380226
5.67748,372447
5.68560,396860
5.69372,442692
5.70185,507867
5.70997,552204
5.71808,548069
5.72622,496232
5.73433,437205
5.74247,391268
5.75058,371710
5.75870,353427
5.76683,344438
5.77495,333568
5.78308,325059
5.79120,320399
5.79932,312590
5.80745,304413
5.81557,300866
5.82370,310571
5.83182,300481
5.83993,306437
5.84807,298333
5.85618,298929
5.86430,302198
5.87243,299652
5.88055,283750
5.88868,278696
5.89680,284885
5.90492,287943
5.91305,286758
5.92117,309450
5.92930,332310
5.93742,348382
5.94553,340298
5.95367,356793
5.96178,405843
5.96990,470879
5.97803,605423
5.98615,782372
5.99428,982637
6.00240,1148556
6.01052,1155775
6.01865,1003646
6.02677,770605
6.03490,579496
6.04302,449534
6.05113,382810
6.05927,335334
6.06738,312359
6.07552,306284
6.08363,294948
6.09175,286249
6.09988,274635
6.10800,269717
6.11612,261906
6.12425,270823
6.13237,383696
6.14050,743380
6.14862,1399519
6.15673,2028996
6.16487,2226199
6.17298,1860982
6.18112,1373563
6.18923,994362
6.19735,815573
6.20548,670370
6.21360,602698
6.22173,528664
6.22985,489955
6.23797,460429
6.24610,444697
6.25422,445365
6.26233,470194
6.27047,515541
6.27858,531088
6.28672,512331
6.29483,461371
6.30295,414898
6.31108,393074
6.31920,393205
6.32733,374296
6.33545,372739
6.34357,397522
6.35170,398155
6.35982,393449
6.36793,374373
6.37607,362925
6.38418,342459
6.39232,346873
6.40043,343251
6.40855,343751
6.41668,326367
6.42480,332705
6.43293,313671
6.44105,302976
6.44917,309680
6.45730,324726
6.46542,332893
6.47355,336671
6.48167,338683
6.48978,330068
6.49792,325453
6.50603,317166
6.51415,309906
6.52228,319681
6.53040,326566
6.53853,321044
6.54665,324083
6.55477,316006
6.56290,327263
6.57102,410345
6.57915,635351
6.58727,1030328
6.59538,1369806
6.60352,1380981
6.61163,1118330
6.61975,785029
6.62788,578794
6.63600,434918
6.64413,379482
6.65225,330870
6.66037,307099
6.66850,285137
6.67662,280086
6.68475,288945
6.69287,280570
6.70098,262896
6.70912,236631
6.71723,224437
6.72537,217456
6.73348,220150
6.74160,209430
6.74973,225895
6.75785,204751
6.76597,201483
6.77410,206145
6.78222,211968
6.79035,195403
6.79847,187904
6.80658,192191
6.81472,179289
6.82283,179224
6.83097,175499
6.83908,172039
6.84720,177996
6.85533,175852
6.86345,189117
6.87158,215483
6.87970,243291
6.88782,257095
6.89595,258547
6.90407,237175
6.91218,217010
6.92032,193241
6.92843,174596
6.93657,168890
6.94468,164746
6.95280,150941
6.96093,144905
6.96905,157089
6.97718,167391
6.98530,183546
6.99342,195444
7.00155,206245
7.00967,188390
7.01780,180867
7.02592,173464
7.03403,190911
7.04217,171974
7.05028,165771
7.05840,161878
7.06653,164277
7.07465,199291
7.08278,248125
7.09090,336193
7.09902,390652
7.10715,411420
7.11527,368502
7.12340,323273
7.13152,251958
7.13963,225377
7.14777,213871
7.15588,239698
7.16400,278176
7.17213,333798
7.18025,480359
7.18838,1014436
7.19650,2554275
7.20462,5464480
7.21275,8898932
7.22087,1.060239E+07
7.22900,9560290
7.23712,6180209
7.24523,3024937
7.25337,1248842
7.26148,506577
7.26962,291688
7.27773,226238
7.28585,217775
7.29398,212291
7.30210,215805
7.31022,206881
7.31835,205962
7.32647,204766
7.33460,217784
7.34272,237060
7.35083,301516
7.35897,360843
7.36708,408985
7.37522,402169
7.38333,384689
7.39145,313141
7.39958,266826
7.40770,236552
7.41582,202248
7.42395,187441
7.43207,173029
7.44020,172405
7.44832,154653
7.45643,155014
7.46457,161457
7.47268,169605
7.48082,182485
7.48893,170809
7.49705,168168
7.50518,155556
7.51330,155369
7.52143,155516
7.52955,152529
7.53767,180238
7.54580,270012
7.55392,541918
7.56203,1130391
7.57017,2235079
7.57828,3846321
7.58642,5536718
7.59453,6589216
7.60265,6637656
7.61078,5672206
7.61890,4210880
7.62703,2818499
7.63515,1791170
7.64327,1154096
7.65140,795985
7.65952,588021
7.66763,449088
7.67577,340028
7.68388,277960
7.69202,225057
7.70013,194017
7.70825,172410
7.71638,191063
7.72450,236920
7.73263,319979
7.74075,381438
7.74887,439951
7.75700,459669
7.76512,433743
7.77325,391238
7.78137,361929
7.78948,317995
7.79762,293353
7.80573,298242
7.81385,323986
7.82198,350776
7.83010,381178
7.83823,386367
7.84635,347527
7.85447,291536
7.86260,249490
7.87072,237548
7.87885,241617
7.88697,257753
7.89508,319754
7.90322,387438
7.91133,460142
7.91947,476363
7.92758,427306
7.93570,358356
7.94383,315990
7.95195,309374
7.96007,317013
7.96820,331752
7.97632,315609
7.98445,307789
7.99257,261798
8.00068,225731
8.00882,193882
8.01693,172996
8.02507,160983
8.03318,153513
8.04130,143657
8.04943,142712
8.05755,132229
8.06568,140317
8.07380,140106
8.08192,137340
8.09005,137640
8.09817,142122
8.10628,131972
8.11442,129351
8.12253,121758
8.13067,121533
8.13878,154702
8.14690,205489
8.15503,301397
8.16315,398060
8.17128,445293
8.17940,412750
8.18752,335933
8.19565,265478
8.20377,207755
8.21188,184720
8.22002,162046
8.22813,154124
8.23627,141489
8.24438,138401
8.25250,132319
8.26063,121584
8.26875,120112
8.27688,117395
8.28500,115778
8.29312,112192
8.30125,115008
8.30937,109765
8.31750,114754
8.32562,111409
8.33373,120079
8.34187,123413
8.34998,133091
8.35810,129731
8.36623,125791
8.37435,115888
8.38248,113840
8.39060,105918
8.39872,104736
8.40685,93945
8.41497,93245
8.42310,95342
8.43122,92530
8.43933,93191
8.44747,94874
8.45558,94074
8.46370,94239
8.47183,91788
8.47995,95506
8.48808,92391
8.49620,82915
8.50432,86048
8.51245,91534
8.52057,111883
8.52870,173687
8.53682,256237
8.54493,328418
8.55307,348264
8.56118,280225
8.56932,194987
8.57743,138461
8.58555,108808
8.59368,97277
8.60180,94805
8.60992,102813
8.61805,120971
8.62617,145341
8.63430,176430
8.64242,204731
8.65053,219264
8.65867,211352
8.66678,179850
8.67492,149181
8.68303,118695
8.69115,106468
8.69928,100614
8.70740,88391
8.71553,90596
8.72365,88222
8.73177,87626
8.73990,88458
8.74802,85370
8.75613,89062
8.76427,100869
8.77238,110472
8.78052,182325
8.78863,368608
8.79675,688968
8.80488,1115148
8.81300,1410007
8.82113,1469400
8.82925,1194703
8.83737,887791
8.84550,643585
8.85362,496629
8.86173,420250
8.86987,369212
8.87798,312854
8.88612,288238
8.89423,256093
8.90235,245425
8.91048,227864
8.91860,231925
8.92673,272310
8.93485,348988
8.94297,461610
8.95110,527851
8.95922,501189
8.96735,406948
8.97547,317078
8.98358,271362
8.99172,290862
8.99983,341253
9.00795,361294
9.01608,348769
9.02420,300754
9.03233,258401
9.04045,210096
9.04857,184295
9.05670,171048
9.06482,166064
9.07295,157637
9.08107,154905
9.08918,161113
9.09732,163397
9.10543,193339
9.11357,249256
9.12168,348446
9.12980,441254
9.13793,504590
9.14605,499408
9.15417,406600
9.16230,329899
9.17042,257054
9.17855,216670
9.18667,208137
9.19478,201713
9.20292,195482
9.21103,182982
9.21917,182232
9.22728,169407
9.23540,174595
9.24353,177650
9.25165,175507
9.25977,176938
9.26790,166265
9.27602,168840
9.28415,155909
9.29227,152520
9.30038,148275
9.30852,142945
9.31663,144935
9.32477,132805
9.33288,139919
9.34100,136793
9.34913,128648
9.35725,129542
9.36538,126098
9.37350,118107
9.38162,119299
9.38975,126343
9.39787,142449
9.40598,165751
9.41412,220625
9.42223,291938
9.43037,389101
9.43848,448574
9.44660,536168
9.45473,598453
9.46285,644060
9.47098,607929
9.47910,536991
9.48722,421381
9.49535,311057
9.50347,227128
9.51158,211259
9.51972,222996
9.52783,240285
9.53597,271523
9.54408,288376
9.55220,292338
9.56033,270898
9.56845,234353
9.57658,200498
9.58470,171039
9.59282,154200
9.60095,143593
9.60907,129767
9.61720,130674
9.62532,131059
9.63343,119065
9.64157,114183
9.64968,111482
9.65780,103509
9.66593,97298
9.67405,104634
9.68218,108429
9.69030,107216
9.69842,104881
9.70655,101160
9.71467,104833
9.72280,107252
9.73092,120610
9.73903,115394
9.74717,107472
9.75528,98028
9.76342,91640
9.77153,90843
9.77965,89442
9.78778,88883
9.79590,84317
9.80402,84381
9.81215,84904
9.82027,84897
9.82840,85752
9.83652,85555
9.84463,84029
9.85277,87429
9.86088,83876
9.86902,86375
9.87713,87234
9.88525,82957
9.89338,83778
9.90150,81059
9.90962,82344
9.91775,76250
9.92587,79396
9.93400,85967
9.94212,107015
9.95023,147501
9.95837,242866
9.96648,390334
9.97462,573301
9.98273,719752
9.99085,782274
9.99898,689727
10.00710,526064
10.01523,380968
10.02335,287281
10.03147,251034
10.03960,244042
10.04772,245632
10.05583,254120
10.06397,266501
10.07208,264899
10.08022,259086
10.08833,247664
10.09645,229573
10.10458,218707
10.11270,203060
10.12083,198704
10.12895,186438
10.13707,170635
10.14520,164726
10.15332,161555
10.16145,161429
10.16957,149101
10.17768,151492
10.18582,140401
10.19393,146539
10.20205,136629
10.21018,127938
10.21830,128045
10.22643,124984
10.23455,124106
10.24267,133165
10.25080,134986
10.25892,168626
10.26705,302698
10.27517,707358
10.28328,1752826
10.29142,3629895
10.29953,6310203
10.30765,9645643
10.31578,1.309741E+07
10.32390,1.695337E+07
10.33203,2.208428E+07
10.34015,2.915129E+07
10.34827,3.702906E+07
10.35640,4.605293E+07
10.36452,5.135182E+07
10.37265,4.973609E+07
10.38077,3.699085E+07
10.38888,2.00867E+07
10.39702,1.055424E+07
10.40513,7085224
10.41327,5210963
10.42138,3753050
10.42950,2667714
10.43763,2094379
10.44575,1840009
10.45387,1773388
10.46200,1805582
10.47012,1831109
10.47825,1737557
10.48637,1527375
10.49448,1300030
10.50262,1084203
10.51073,914211
10.51887,793353
10.52698,718960
10.53510,690036
10.54323,634529
10.55135,612524
10.55948,588124
10.56760,565784
10.57572,556975
10.58385,553011
10.59197,548795
10.60008,527360
10.60822,493649
10.61633,478195
10.62447,436897
10.63258,407796
10.64070,398199
10.64883,377407
10.65695,360599
10.66508,345780
10.67320,332281
10.68132,327457
10.68945,325815
10.69757,328456
10.70568,336333
10.71382,334900
10.72193,348673
10.73007,339403
10.73818,341769
10.74630,319947
10.75443,316960
10.76255,304034
10.77068,285921
10.77880,271199
10.78692,263339
10.79505,261640
10.80317,253075
10.81130,260344
10.81942,263785
10.82753,301019
10.83567,313135
10.84378,308805
10.85190,290282
10.86003,259459
10.86815,232634
10.87628,222017
10.88440,211286
10.89252,204275
10.90065,202195
10.90877,192726
10.91690,194625
10.92502,187965
10.93313,191748
10.94127,191582
10.94938,184488
10.95750,191206
10.96563,180342
10.97375,177004
10.98188,184624
10.99000,172532
10.99812,181078
11.00625,179313
11.01437,186993
11.02250,191563
11.03062,207563
11.03873,216776
11.04687,213246
11.05498,203798
11.06312,187079
11.07123,189194
11.07935,191724
11.08748,214836
11.09560,230891
11.10372,253549
11.11185,258198
11.11997,247549
11.12810,241258
11.13622,209332
11.14433,190015
11.15247,172528
11.16058,159994
11.16872,153953
11.17683,153174
11.18495,151648
11.19308,147522
11.20120,137132
11.20933,129018
11.21745,121849
11.22557,117126
11.23370,119711
11.24182,111567
11.24993,110214
11.25807,103270
11.26618,102035
11.27432,96081
11.28243,92590
11.29055,90459
11.29868,87566
11.30680,106897
11.31493,158004
11.32305,306167
11.33117,699205
11.33930,1544158
11.34742,2750399
11.35553,4093195
11.36367,5022214
11.37178,5221304
11.37992,4657741
11.38803,3737023
11.39615,2892622
11.40428,2279476
11.41240,1853605
11.42053,1551498
11.42865,1286038
11.43677,1044217
11.44490,864450
11.45302,706880
11.46115,597997
11.46927,498793
11.47738,442791
11.48552,418153
11.49363,399706
11.50175,434571
11.50988,488164
11.51800,588474
11.52613,667756
11.53425,702984
11.54237,672060
11.55050,609521
11.55862,550092
11.56675,500664
11.57487,464091
11.58298,436572
11.59112,421534
11.59923,435664
11.60737,518220
11.61548,670205
11.62360,883618
11.63173,1023113
11.63985,980897
11.64797,837624
11.65610,648600
11.66422,463505
11.67235,355872
11.68047,282442
11.68858,236446
11.69672,214615
11.70483,207780
11.71297,208158
11.72108,201114
11.72920,202995
11.73733,199200
11.74545,179629
11.75357,173691
11.76170,161980
11.76982,158807
11.77795,152682
11.78607,149735
11.79418,133527
11.80232,134558
11.81043,125452
11.81857,120013
11.82668,119380
11.83480,110445
11.84293,114356
11.85105,114995
11.85918,114855
11.86730,102631
11.87542,100793
11.88355,100674
11.89167,96327
11.89978,97489
11.90792,97735
11.91603,93495
11.92417,96603
11.93228,103806
11.94040,108605
11.94853,110309
11.95665,114967
11.96478,105784
11.97290,91295
11.98102,88049
11.98915,89498
11.99727,84154
12.00538,80451
12.01352,82027
12.02163,81556
12.02977,82060
12.03788,83127
12.04600,77695
12.05413,83059
12.06225,76438
12.07038,88007
12.07850,87456
12.08662,93172
12.09475,96879
12.10287,120204
12.11100,147415
12.11912,233639
12.12723,427404
12.13537,748805
12.14348,1248537
12.15160,1663574
12.15973,1884591
12.16785,1771949
12.17598,1444223
12.18410,1129781
12.19222,892758
12.20035,758797
12.20847,698036
12.21660,634478
12.22472,579952
12.23283,523334
12.24097,468994
12.24908,442537
12.25722,405137
12.26533,375793
12.27345,351733
12.28158,337416
12.28970,319241
12.29782,305367
12.30595,289742
12.31407,276868
12.32220,264199
12.33032,256120
12.33843,238603
12.34657,231696
12.35468,226138
12.36282,224230
12.37093,212259
12.37905,207741
12.38718,204460
12.39530,201115
12.40342,209820
12.41155,234806
12.41967,286987
12.42780,342425
12.43592,399931
12.44403,403828
12.45217,397824
12.46028,345990
12.46842,282382
12.47653,244941
12.48465,216467
12.49278,215616
12.50090,199605
12.50903,204502
12.51715,190589
12.52527,198106
12.53340,199165
12.54152,226566
12.54963,276163
12.55777,353730
12.56588,428515
12.57402,481890
12.58213,468497
12.59025,418351
12.59838,336092
12.60650,285990
12.61463,232692
12.62275,219362
12.63087,199426
12.63900,191055
12.64712,178812
12.65525,168819
12.66337,170800
12.67148,156742
12.67962,156739
12.68773,162680
12.69585,153405
12.70398,143129
12.71210,143519
12.72023,143272
12.72835,140234
12.73647,146590
12.74460,152616
12.75272,150102
12.76085,153959
12.76897,159274
12.77708,146164
12.78522,143378
12.79333,129541
12.80145,119176
12.80958,126710
12.81770,113751
12.82583,101765
12.83395,97903
12.84207,85764
12.85020,77258
12.85832,73357
12.86645,77193
12.87457,71476
12.88268,70813
12.89082,65490
12.89893,67517
12.90707,69539
12.91518,66498
12.92330,67879
12.93143,68874
12.93955,63474
12.94767,66905
12.95580,67660
12.96392,73503
12.97205,78912
12.98017,85768
12.98828,97850
12.99642,102227
13.00453,102663
13.01267,94384
13.02078,86271
13.02890,78967
13.03703,71663
13.04515,72880
13.05327,72311
13.06140,71461
13.06952,71979
13.07765,75311
13.08577,76567
13.09388,83451
13.10202,84070
13.11013,87840
13.11827,81814
13.12638,78822
13.13450,69100
13.14263,67871
13.15075,66063
13.15888,71252
13.16700,69582
13.17512,72478
13.18325,80871
13.19137,85144
13.19948,88250
13.20762,92286
13.21573,96149
13.22387,88785
13.23198,100950
13.24010,102881
13.24823,102054
13.25635,107104
13.26448,107811
13.27260,112700
13.28072,105750
13.28885,104758
13.29697,97906
13.30510,87631
13.31322,77886
13.32133,71389
13.32947,72189
13.33758,67939
13.34570,62075
13.35383,65247
13.36195,71744
13.37008,62243
13.37820,62428
13.38632,59336
13.39445,64799
13.40257,66071
13.41070,61281
13.41882,66689
13.42693,60944
13.43507,63726
13.44318,64764
13.45132,61442
13.45943,62600
13.46755,63867
13.47568,65980
13.48380,69324
13.49192,72515
13.50005,73028
13.50817,73200
13.51630,76856
13.52442,76291
13.53253,90406
13.54067,95885
13.54878,99202
13.55692,90518
13.56503,81115
13.57315,74956
13.58128,76986
13.58940,77388
13.59752,88751
13.60565,112728
13.61377,128299
13.62190,162024
13.63002,187038
13.63813,190106
13.64627,181395
13.65438,153479
13.66252,124978
13.67063,101059
13.67875,83778
13.68688,72858
13.69500,63478
13.70313,68116
13.71125,58402
13.71937,55619
13.72750,53824
13.73562,54883
13.74373,59215
13.75187,69176
13.75998,81948
13.76812,114128
13.77623,163265
13.78435,234948
13.79248,358331
13.80060,518164
13.80873,689993
13.81685,838031
13.82497,972142
13.83310,1136611
13.84122,1347540
13.84933,1578443
13.85747,1774691
13.86558,1756011
13.87372,1572970
13.88183,1246320
13.88995,937012
13.89808,667600
13.90620,475221
13.91433,346300
13.92245,272446
13.93057,227100
13.93870,192939
13.94682,164702
13.95495,150993
13.96307,137560
13.97118,125753
13.97932,119670
13.98743,118526
13.99555,108024
14.00368,101321
14.01180,115821
14.01993,118345
14.02805,117160
14.03617,110538
14.04430,100199
14.05242,95155
14.06055,90826
14.06867,92386
14.07678,90723
14.08492,98205
14.09303,95055
14.10117,100443
14.10928,90903
14.11740,85612
14.12553,77199
14.13365,78162
14.14177,67619
14.14990,76590
14.15802,89731
14.16615,91192
14.17427,98726
14.18238,103175
14.19052,116411
14.19863,127691
14.20677,147183
14.21488,181853
14.22300,219919
14.23113,258609
14.23925,300641
14.24737,325039
14.25550,340044
14.26362,350277
14.27175,378688
14.27987,377595
14.28798,335822
14.29612,292358
14.30423,239137
14.31237,195286
14.32048,180773
14.32860,155158
14.33673,145610
14.34485,137092
14.35298,135857
14.36110,134609
14.36922,128495
14.37735,128412
14.38547,122593
14.39358,117035
14.40172,118212
14.40983,124981
14.41797,170124
14.42608,235032
14.43420,301780
14.44233,335027
14.45045,317293
14.45858,277221
14.46670,230602
14.47482,183393
14.48295,169307
14.49107,159902
14.49920,170904
14.50732,163448
14.51543,160522
14.52357,146551
14.53168,137185
14.53980,124316
14.54793,114543
14.55605,107457
14.56418,104796
14.57230,94772
14.58042,94670
14.58855,86568
14.59667,89618
14.60480,81921
14.61292,80840
14.62103,72195
14.62917,76676
14.63728,65656
14.64540,68316
14.65353,65852
14.66165,64544
14.66978,56351
14.67790,64796
14.68602,59013
14.69415,59373
14.70227,58058
14.71040,61942
14.71852,58186
14.72663,65018
14.73477,68085
14.74288,64999
14.75102,65472
14.75913,62923
14.76725,70301
14.77538,75768
14.78350,84556
14.79162,106308
14.79975,180055
14.80787,479807
14.81600,1410740
14.82412,3574601
14.83223,7532320
14.84037,1.331301E+07
14.84848,1.973129E+07
14.85662,2.553201E+07
14.86473,2.816697E+07
14.87285,2.662856E+07
14.88098,2.01476E+07
14.88910,1.227896E+07
14.89722,6946103
14.90535,4230406
14.91347,3044164
14.92160,2442712
14.92972,2111926
14.93783,1848423
14.94597,1627536
14.95408,1477986
14.96222,1383665
14.97033,1256440
14.97845,1141444
14.98658,1081418
14.99470,996202
15.00283,946521
15.01095,882240
15.01907,861652
15.02720,789898
15.03532,754262
15.04343,715695
15.05157,681505
15.05968,638956
15.06782,597571
15.07593,581317
15.08405,552505
15.09218,534823
15.10030,504064
15.10843,485249
15.11655,455505
15.12467,461090
15.13280,461770
15.14092,484847
15.14905,546856
15.15717,593741
15.16528,632977
15.17342,601333
15.18153,497578
15.18965,368844
15.19778,283221
15.20590,224948
15.21403,185115
15.22215,159360
15.23027,153028
15.23840,146971
15.24652,139265
15.25465,132995
15.26277,123885
15.27088,127255
15.27902,127555
15.28713,119038
15.29525,110174
15.30338,113321
15.31150,105710
15.31963,104564
15.32775,102557
15.33587,103545
15.34400,101061
15.35212,94609
15.36025,93986
15.36837,95692
15.37648,104337
15.38462,99870
15.39273,110645
15.40087,111563
15.40898,116841
15.41710,114369
15.42523,104367
15.43335,96514
15.44147,95606
15.44960,89684
15.45772,90860
15.46585,94252
15.47397,103761
15.48208,143333
15.49022,211616
15.49833,321769
15.50647,504720
15.51458,712989
15.52270,856864
15.53083,939290
15.53895,910031
15.54708,804676
15.55520,639474
15.56332,508733
15.57145,384949
15.57957,288862
15.58768,229964
15.59582,198345
15.60393,172905
15.61207,150713
15.62018,137040
15.62830,131933
15.63643,123930
15.64455,120725
15.65268,123585
15.66080,111978
15.66892,111155
15.67705,103688
15.68517,102060
15.69328,92300
15.70142,86959
15.70953,86363
15.71767,82252
15.72578,74113
15.73390,79231
15.74203,77481
15.75015,88414
15.75828,106539
15.76640,170399
15.77452,344937
15.78265,712134
15.79077,1312700
15.79890,2041019
15.80702,2464762
15.81513,2482375
15.82327,2056207
15.83138,1450619
15.83950,969479
15.84763,630853
15.85575,471283
15.86388,365709
15.87200,311354
15.88012,284115
15.88825,267239
15.89637,242379
15.90450,225243
15.91262,218225
15.92073,196632
15.92887,180294
15.93698,174064
15.94510,173541
15.95323,163818
15.96135,154332
15.96948,151601
15.97760,145692
15.98572,136408
15.99385,136130
16.00197,133365
16.01010,130132
16.01822,150994
16.02633,159277
16.03447,175120
16.04258,186082
16.05072,185015
16.05883,185811
16.06695,176011
16.07508,147596
16.08320,131374
16.09132,113812
16.09945,103544
16.10757,97538
16.11570,100510
16.12382,94930
16.13193,101156
16.14007,117968
16.14818,150353
16.15632,170512
16.16443,197821
16.17255,210591
16.18068,201139
16.18880,183192
16.19693,160417
16.20505,134721
16.21317,121239
16.22130,121241
16.22942,117242
16.23753,126003
16.24567,117346
16.25378,115739
16.26192,103650
16.27003,93169
16.27815,88276
16.28628,89218
16.29440,96521
16.30253,119129
16.31065,144547
16.31877,159003
16.32690,176174
16.33502,169358
16.34313,165662
16.35127,141088
16.35938,129366
16.36752,117584
16.37563,116570
16.38375,112303
16.39188,112560
16.40000,98385
16.40813,102825
16.41625,91239
16.42437,91899
16.43250,90342
16.44062,102158
16.44875,119291
16.45687,218270
16.46498,497924
16.47312,1247624
16.48123,2633253
16.48935,4640004
16.49748,6539552
16.50560,7525045
16.51373,7119981
16.52185,5374568
16.52997,3541463
16.53810,2239843
16.54622,1366052
16.55435,939838
16.56247,755469
16.57058,625363
16.57872,556615
16.58683,483367
16.59497,451332
16.60308,427296
16.61120,384192
16.61933,363575
16.62745,321668
16.63557,295139
16.64370,286328
16.65182,269416
16.65995,261052
16.66807,244350
16.67618,231822
16.68432,218357
16.69243,201772
16.70057,199888
16.70868,198885
16.71680,176323
16.72493,165760
16.73305,140163
16.74117,124476
16.74930,125993
16.75742,138202
16.76555,157773
16.77367,188642
16.78178,219711
16.78992,238165
16.79803,219179
16.80617,183454
16.81428,144714
16.82240,124300
16.83053,100343
16.83865,88161
16.84678,88103
16.85490,85321
16.86302,80883
16.87115,83237
16.87927,72365
16.88738,71849
16.89552,79489
16.90363,67902
16.91177,69288
16.91988,71047
16.92800,65158
16.93613,69967
16.94425,71484
16.95238,75805
16.96050,70654
16.96862,73613
16.97675,73769
16.98487,71139
16.99300,76972
17.00112,78788
17.00923,78667
17.01737,79851
17.02548,78184
17.03360,85236
17.04173,85408
17.04985,111857
17.05798,141880
17.06610,180931
17.07422,219388
17.08235,222487
17.09047,195394
17.09860,166681
17.10672,133043
17.11483,111038
17.12297,104717
17.13108,99356
17.13920,105983
17.14733,113716
17.15545,114031
17.16358,111818
17.17170,110487
17.17982,108321
17.18795,103506
17.19607,105462
17.20420,94407
17.21232,87889
17.22043,80176
17.22857,79375
17.23668,72083
17.24482,73674
17.25293,71295
17.26105,77532
17.26918,84389
17.27730,88551
17.28542,85791
17.29355,79088
17.30167,74982
17.30980,72433
17.31792,80051
17.32603,97034
17.33417,130353
17.34228,178182
17.35042,250580
17.35853,304403
17.36665,346480
17.37478,347494
17.38290,322143
17.39102,279979
17.39915,251648
17.40727,223527
17.41540,218255
17.42352,211582
17.43163,203527
17.43977,205705
17.44788,200477
17.45602,193710
17.46413,186288
17.47225,171301
17.48038,163923
17.48850,148854
17.49663,135768
17.50475,125077
17.51287,117380
17.52100,114014
17.52912,121680
17.53723,116260
17.54537,111224
17.55348,112945
17.56162,118652
17.56973,158584
17.57785,303532
17.58598,672058
17.59410,1568219
17.60223,3123786
17.61035,5090945
17.61847,6898932
17.62660,7990120
17.63472,7627106
17.64285,6452757
17.65097,4666719
17.65908,3009549
17.66722,1846576
17.67533,1080965
17.68345,678961
17.69158,490149
17.69970,395753
17.70783,336839
17.71595,305565
17.72407,274402
17.73220,270700
17.74032,255865
17.74845,236496
17.75657,210594
17.76468,193597
17.77282,176180
17.78093,169159
17.78905,149562
17.79718,129054
17.80530,124855
17.81343,128112
17.82155,115183
17.82967,115355
17.83780,117083
17.84592,123501
17.85405,151003
17.86217,199532
17.87028,271834
17.87842,341936
17.88653,381933
17.89467,378183
17.90278,332293
17.91090,258959
17.91903,190994
17.92715,142062
17.93527,124834
17.94340,109943
17.95152,103621
17.95965,95728
17.96777,95303
17.97588,86896
17.98402,80826
17.99213,80080
18.00027,77773
18.00838,79511
18.01650,95741
18.02463,118985
18.03275,180787
18.04088,290729
18.04900,433535
18.05712,570477
18.06525,745986
18.07337,1142779
18.08148,2170722
18.08962,4173381
18.09773,7185667
18.10587,1.048708E+07
18.11398,1.288845E+07
18.12210,1.334573E+07
18.13023,1.160178E+07
18.13835,9195708
18.14648,6687015
18.15460,5159480
18.16272,4078150
18.17085,3366462
18.17897,2916876
18.18708,2492968
18.19522,2230080
18.20333,1936606
18.21147,1758418
18.21958,1511985
18.22770,1385402
18.23583,1322319
18.24395,1215396
18.25208,1096869
18.26020,1030339
18.26832,971823
18.27645,888529
18.28457,781022
18.29270,644005
18.30082,495393
18.30893,383899
18.31707,285649
18.32518,234354
18.33330,199004
18.34143,184640
18.34955,167553
18.35768,153437
18.36580,150935
18.37392,153046
18.38205,144246
18.39017,134024
18.39830,130204
18.40642,136569
18.41453,131942
18.42267,148586
18.43078,168136
18.43890,208021
18.44703,249498
18.45515,338532
18.46328,513665
18.47140,825295
18.47952,1357806
18.48765,2015437
18.49577,2701294
18.50390,2955639
18.51202,2796142
18.52013,2218191
18.52827,1558750
18.53638,1021418
18.54452,640777
18.55263,408317
18.56075,293273
18.56888,222878
18.57700,186871
18.58512,157255
18.59325,140580
18.60137,141761
18.60950,140133
18.61762,146745
18.62573,158466
18.63387,170533
18.64198,179314
18.65012,182463
18.65823,174433
18.66635,167891
18.67448,137353
18.68260,126662
18.69073,110764
18.69885,96774
18.70697,93251
18.71510,90685
18.72322,83530
18.73133,88467
18.73947,90606
18.74758,86770
18.75572,83499
18.76383,86314
18.77195,82493
18.78008,80987
18.78820,77430
18.79633,78979
18.80445,86072
18.81257,84627
18.82070,84844
18.82882,89586
18.83695,87138
18.84507,86331
18.85318,85647
18.86132,86469
18.86943,85695
18.87755,86464
18.88568,94698
18.89380,107177
18.90193,112550
18.91005,114752
18.91817,113665
18.92630,122131
18.93442,129882
18.94255,138244
18.95067,155474
18.95878,163046
18.96692,169327
18.97503,173026
18.98315,167739
18.99128,166408
18.99940,148251
19.00753,129365
19.01565,117912
19.02377,107493
19.03190,96049
19.04002,91876
19.04815,86697
19.05627,82833
19.06438,82858
19.07252,85176
19.08063,85082
19.08877,95666
19.09688,117612
19.10500,158168
19.11313,207790
19.12125,256143
19.12937,274631
19.13750,261371
19.14562,231041
19.15375,239010
19.16187,241909
19.16998,244495
19.17812,242418
19.18623,241439
19.19437,238551
19.20248,236251
19.21060,233650
19.21873,237047
19.22685,238738
19.23497,233625
19.24310,247022
19.25122,250676
19.25935,248123
19.26747,243729
19.27558,246899
19.28372,249506
19.29183,263878
19.29997,269740
19.30808,291568
19.31620,307570
19.32433,318471
19.33245,301689
19.34058,291266
19.34870,287388
19.35682,285237
19.36495,326712
19.37307,400778
19.38118,520405
19.38932,643197
19.39743,699688
19.40557,699274
19.41368,621910
19.42180,522822
19.42993,440300
19.43805,378482
19.44618,342064
19.45430,324194
19.46242,319398
19.47055,299129
19.47867,299910
19.48680,296590
19.49492,295073
19.50303,302691
19.51117,317130
19.51928,341881
19.52740,380381
19.53553,433610
19.54365,445931
19.55178,470045
19.55990,446480
19.56802,420458
19.57615,388912
19.58427,345061
19.59240,309833
19.60052,283621
19.60863,272621
19.61677,238741
19.62488,222348
19.63300,225145
19.64113,220997
19.64925,231405
19.65738,256699
19.66550,304524
19.67362,402442
19.68175,525031
19.68987,656864
19.69800,752131
19.70612,787667
19.71423,805113
19.72237,756942
19.73048,700472
19.73862,620147
19.74673,549484
19.75485,462274
19.76298,407560
19.77110,361739
19.77922,336952
19.78735,348161
19.79547,397831
19.80360,474920
19.81172,588398
19.81983,675550
19.82797,711997
19.83608,671437
19.84422,576011
19.85233,490259
19.86045,400141
19.86858,351446
19.87670,333088
19.88483,379935
19.89295,504586
19.90107,705361
19.90920,960193
19.91732,1140159
19.92543,1196411
19.93357,1115086
19.94168,940294
19.94982,721100
19.95793,610893
19.96605,502051
19.97418,437951
19.98230,399860
19.99043,375513
19.99855,356038
20.00667,341309
20.01480,326325
20.02292,324233
20.03103,325933
20.03917,321757
20.04728,319994
20.05542,312192
20.06353,305227
20.07165,315043
20.07978,376029
20.08790,436465
20.09603,550167
20.10415,613908
20.11227,633761
20.12040,621555
20.12852,541358
20.13665,457813
20.14477,380142
20.15288,348705
20.16102,375946
20.16913,480935
20.17725,684195
20.18538,1071270
20.19350,1551153
20.20163,2009153
20.20975,2415789
20.21787,2535366
20.22600,2341683
20.23412,2036445
20.24225,1639196
20.25037,1302516
20.25848,1191445
20.26662,1301158
20.27473,1643836
20.28285,2188969
20.29098,2845062
20.29910,3418007
20.30723,3532555
20.31535,3259885
20.32347,2636769
20.33160,1913737
20.33972,1340225
20.34785,908227
20.35597,630346
20.36408,488614
20.37222,389177
20.38033,338611
20.38847,302476
20.39658,270877
20.40470,262205
20.41283,248043
20.42095,230169
20.42907,226540
20.43720,227319
20.44532,236224
20.45345,262558
20.46157,288096
20.46968,298006
20.47782,306710
20.48593,294157
20.49407,275023
20.50218,252525
20.51030,227856
20.51843,203863
20.52655,203198
20.53468,199074
20.54280,204583
20.55092,204888
20.55905,211794
20.56717,227182
20.57528,211048
20.58342,215647
20.59153,203111
20.59967,188823
20.60778,179566
20.61590,169055
20.62403,173692
20.63215,167706
20.64028,168529
20.64840,170534
20.65652,185076
20.66465,200198
20.67277,203096
20.68088,205029
20.68902,205442
20.69713,197263
20.70527,189574
20.71338,173354
20.72150,161605
20.72963,155866
20.73775,157394
20.74588,154095
20.75400,165375
20.76212,179759
20.77025,206763
20.77837,232206
20.78650,269339
20.79462,349493
20.80273,554658
20.81087,937654
20.81898,1645112
20.82710,2499710
20.83523,3243306
20.84335,3410482
20.85148,3045103
20.85960,2296624
20.86772,1548417
20.87585,929113
20.88397,582305
20.89210,378902
20.90022,299790
20.90833,270750
20.91647,249191
20.92458,265357
20.93272,263874
20.94083,293799
20.94895,318926
20.95708,329435
20.96520,321330
20.97332,307528
20.98145,287076
20.98957,249550
20.99770,216394
21.00582,189360
21.01393,177566
21.02207,172190
21.03018,170733
21.03832,176963
21.04643,182868
21.05455,179399
21.06268,193195
21.07080,185469
21.07892,173316
21.08705,166577
21.09517,166231
21.10330,154968
21.11142,156241
21.11953,145937
21.12767,151038
21.13578,165598
21.14392,189807
21.15203,268385
21.16015,417091
21.16828,611139
21.17640,799689
21.18453,903850
21.19265,907414
21.20077,784829
21.20890,604433
21.21702,460004
21.22513,376839
21.23327,310594
21.24138,260156
21.24952,237585
21.25763,212078
21.26575,190163
21.27388,170363
21.28200,160467
21.29013,143839
21.29825,146149
21.30637,134810
21.31450,135387
21.32262,142358
21.33075,128991
21.33887,130292
21.34698,131791
21.35512,133422
21.36323,136115
21.37135,136219
21.37948,136936
21.38760,150364
21.39573,168881
21.40385,218759
21.41197,287349
21.42010,361647
21.42822,420827
21.43635,475452
21.44447,450554
21.45258,411770
21.46072,354972
21.46883,300908
21.47695,265859
21.48508,239142
21.49320,219223
21.50133,201609
21.50945,185736
21.51757,169717
21.52570,154457
21.53382,149536
21.54195,135098
21.55007,134589
21.55818,129384
21.56632,131393
21.57443,136214
21.58257,141787
21.59068,167694
21.59880,200997
21.60693,230491
21.61505,261168
21.62317,265709
21.63130,255554
21.63942,244716
21.64755,260608
21.65567,303967
21.66378,363023
21.67192,433403
21.68003,508549
21.68817,550977
21.69628,575178
21.70440,544828
21.71253,500343
21.72065,418888
21.72877,321269
21.73690,266021
21.74502,207892
21.75315,186714
21.76127,169634
21.76938,150467
21.77752,149826
21.78563,147066
21.79377,144738
21.80188,146914
21.81000,149498
21.81813,148248
21.82625,149228
21.83438,164119
21.84250,178590
21.85062,208719
21.85875,260560
21.86687,294517
21.87498,321519
21.88312,305839
21.89123,287910
21.89937,248217
21.90748,217422
21.91560,202605
21.92373,197209
21.93185,184962
21.93998,173112
21.94810,168095
21.95622,154710
21.96435,135299
21.97247,121799
21.98060,112956
21.98872,111109
21.99683,103655
22.00497,105417
22.01308,103913
22.02120,103695
22.02933,106639
22.03745,126328
22.04558,140007
22.05370,145707
22.06182,160891
22.06995,163649
22.07807,164585
22.08620,150931
22.09432,144736
22.10243,128345
22.11057,127249
22.11868,121335
22.12680,111517
22.13493,110551
22.14305,105500
22.15118,108248
22.15930,102786
22.16742,99056
22.17555,98456
22.18367,96181
22.19180,98415
22.19992,95425
22.20803,94982
22.21617,96287
22.22428,98255
22.23242,102587
22.24053,107550
22.24865,111952
22.25678,119005
22.26490,124292
22.27302,128446
22.28115,139164
22.28927,155366
22.29740,167706
22.30552,179151
22.31363,208534
22.32177,204079
22.32988,194829
22.33802,175522
22.34613,165415
22.35425,150162
22.36238,135952
22.37050,134034
22.37863,123731
22.38675,131665
22.39487,144317
22.40300,205103
22.41112,320151
22.41923,503754
22.42737,728977
22.43548,951331
22.44362,1049070
22.45173,1028292
22.45985,865133
22.46798,657088
22.47610,468489
22.48423,337541
22.49235,281218
22.50047,284546
22.50860,309347
22.51672,368827
22.52483,418220
22.53297,455907
22.54108,456556
22.54922,405365
22.55733,382761
22.56545,311641
22.57358,262969
22.58170,228895
22.58983,197300
22.59795,168251
22.60607,161449
22.61420,144183
22.62232,134916
22.63045,114923
22.63857,118964
22.64668,117194
22.65482,118865
22.66293,128370
22.67105,140866
22.67918,145983
22.68730,145447
22.69543,166262
22.70355,208147
22.71167,257805
22.71980,362028
22.72792,453432
22.73605,532254
22.74417,552087
22.75228,521536
22.76042,444088
22.76853,368000
22.77665,313455
22.78478,287764
22.79290,315047
22.80103,407198
22.80915,561133
22.81727,759746
22.82540,909574
22.83352,1014602
22.84165,970707
22.84977,845915
22.85788,685085
22.86602,542943
22.87413,438430
22.88227,395004
22.89038,411265
22.89850,412901
22.90663,446060
22.91475,475466
22.92287,493404
22.93100,520933
22.93912,555634
22.94725,600888
22.95537,606754
22.96348,551940
22.97162,444839
22.97973,338596
22.98787,257182
22.99598,209149
23.00410,164707
23.01223,143166
23.02035,129392
23.02848,114819
23.03660,112922
23.04472,103118
23.05285,100528
23.06097,105436
23.06908,109447
23.07722,124769
23.08533,133031
23.09347,149736
23.10158,143682
23.10970,144968
23.11783,144967
23.12595,124142
23.13408,116924
23.14220,107075
23.15032,105710
23.15845,99375
23.16657,102364
23.17470,94196
23.18282,96504
23.19093,91275
23.19907,88914
23.20718,87285
23.21530,85988
23.22343,88592
23.23155,87371
23.23968,86272
23.24780,92885
23.25592,104823
23.26405,142854
23.27217,189824
23.28030,243527
23.28842,279123
23.29653,280188
23.30467,241093
23.31278,211842
23.32090,165481
23.32903,144348
23.33715,135087
23.34528,161247
23.35340,217684
23.36152,300600
23.36965,424184
23.37777,570738
23.38590,636584
23.39402,671837
23.40213,582513
23.41027,488303
23.41838,369856
23.42652,292244
23.43463,213820
23.44275,174131
23.45088,166101
23.45900,147677
23.46712,140240
23.47525,127026
23.48337,120723
23.49150,117072
23.49962,121450
23.50773,113296
23.51587,108362
23.52398,103497
23.53212,100849
23.54023,99403
23.54835,105425
23.55648,122405
23.56460,135215
23.57272,156637
23.58085,183777
23.58897,238631
23.59710,326450
23.60522,457712
23.61333,568012
23.62147,638472
23.62958,627393
23.63772,565822
23.64583,432376
23.65395,333702
23.66208,240811
23.67020,194883
23.67833,179061
23.68645,166447
23.69457,157697
23.70270,136092
23.71082,127389
23.71893,117118
23.72707,107607
23.73518,106412
23.74332,101451
23.75143,96945
23.75955,94189
23.76768,96727
23.77580,128061
23.78393,193864
23.79205,313251
23.80017,525835
23.80830,740524
23.81642,903875
23.82455,977678
23.83267,888179
23.84078,761073
23.84892,603144
23.85703,478871
23.86515,376046
23.87328,322053
23.88140,270108
23.88953,246834
23.89765,247234
23.90577,257249
23.91390,315530
23.92202,424822
23.93015,560785
23.93827,647761
23.94638,657347
23.95452,565835
23.96263,456911
23.97075,330366
23.97888,248503
23.98700,197698
23.99513,170169
24.00325,148775
24.01137,150547
24.01950,138582
24.02762,140940
24.03575,153246
24.04387,157922
24.05198,167798
24.06012,172432
24.06823,158497
24.07637,148983
24.08448,129991
24.09260,115264
24.10073,114477
24.10885,103666
24.11697,102714
24.12510,99294
24.13322,110249
24.14135,114377
24.14947,142380
24.15758,172817
24.16572,218798
24.17383,260961
24.18197,282138
24.19008,283291
24.19820,282542
24.20633,285773
24.21445,268446
24.22258,260594
24.23070,237760
24.23882,213536
24.24695,196456
24.25507,173214
24.26318,165885
24.27132,140868
24.27943,136605
24.28757,123404
24.29568,123957
24.30380,118495
24.31193,120220
24.32005,129359
24.32818,136223
24.33630,139169
24.34442,148761
24.35255,140636
24.36067,138018
24.36878,124989
24.37692,115367
24.38503,108360
24.39317,105310
24.40128,109043
24.40940,113969
24.41753,124625
24.42565,145450
24.43378,168194
24.44190,183514
24.45002,162924
24.45815,151458
24.46627,139521
24.47440,128244
24.48252,123497
24.49063,120732
24.49877,121824
24.50688,122067
24.51500,118837
24.52313,127134
24.53125,139074
24.53938,164425
24.54750,193649
24.55562,234724
24.56375,306561
24.57187,345591
24.58000,393199
24.58812,386563
24.59623,375473
24.60437,341798
24.61248,298869
24.62060,264812
24.62873,222843
24.63685,188611
24.64498,159995
24.65310,138897
24.66122,132989
24.66935,119714
24.67747,118794
24.68560,119134
24.69372,114399
24.70183,114935
24.70997,112914
24.71808,110985
24.72622,113167
24.73433,112911
24.74245,118815
24.75058,115882
24.75870,122186
24.76682,121196
24.77495,124623
24.78307,152517
24.79120,167636
24.79932,189355
24.80743,210256
24.81557,214928
24.82368,209844
24.83182,205302
24.83993,235930
24.84805,309523
24.85618,445928
24.86430,669682
24.87243,980288
24.88055,1459548
24.88867,2158287
24.89680,3060480
24.90492,3912187
24.91303,4587347
24.92117,4562977
24.92928,3900883
24.93742,2868302
24.94553,1868099
24.95365,1125314
24.96178,649496
24.96990,387209
24.97803,253649
24.98615,194541
24.99427,162089
25.00240,158642
25.01052,138935
25.01863,136606
25.02677,128420
25.03488,137199
25.04302,131583
25.05113,131903
25.05925,131953
25.06738,136046
25.07550,136692
25.08363,131178
25.09175,136829
25.09987,165596
25.10800,231335
25.11612,489490
25.12425,1204274
25.13237,2974897
25.14048,6182399
25.14862,1.119615E+07
25.15673,1.70809E+07
25.16485,2.17692E+07
25.17298,2.407225E+07
25.18110,2.279219E+07
25.18923,1.78587E+07
25.19735,1.167903E+07
25.20547,6862685
25.21360,3583677
25.22172,1817211
25.22985,950735
25.23797,572441
25.24608,415468
25.25422,430785
25.26233,545422
25.27047,754477
25.27858,1017742
25.28670,1220703
25.29483,1288838
25.30295,1192070
25.31107,987285
25.31920,732006
25.32732,507913
25.33545,339928
25.34357,237458
25.35168,187218
25.35982,158299
25.36793,151402
25.37607,130243
25.38418,119655
25.39230,111195
25.40043,101878
25.40855,104530
25.41667,95370
25.42480,101298
25.43292,94110
25.44105,92888
25.44917,90049
25.45728,103887
25.46542,91038
25.47353,95802
25.48167,95852
25.48978,95303
25.49790,94445
25.50603,99287
25.51415,105415
25.52228,106339
25.53040,101005
25.53852,97487
25.54665,92304
25.55477,89045
25.56288,89853
25.57102,91478
25.57913,89009
25.58727,93437
25.59538,93148
25.60350,94867
25.61163,98547
25.61975,92667
25.62788,88086
25.63600,90861
25.64412,82770
25.65225,83240
25.66037,83944
25.66850,79513
25.67662,85582
25.68473,92968
25.69287,98286
25.70098,104219
25.70910,116435
25.71723,127347
25.72535,134993
25.73348,132572
25.74160,138328
25.74972,140797
25.75785,142155
25.76597,134836
25.77410,118629
25.78222,98342
25.79033,88973
25.79847,87024
25.80658,84285
25.81470,81646
25.82283,85425
25.83095,81167
25.83908,84645
25.84720,88735
25.85532,82833
25.86345,81729
25.87157,88079
25.87970,89298
25.88782,87851
25.89593,90299
25.90407,90067
25.91218,89547
25.92032,97206
25.92843,90637
25.93655,88788
25.94468,90877
25.95280,91674
25.96092,97493
25.96905,107750
25.97717,106299
25.98530,108941
25.99342,101685
26.00153,94126
26.00967,91199
26.01778,92599
26.02592,75519
26.03403,77838
26.04215,84185
26.05028,84368
26.05840,76786
26.06652,90274
26.07465,90529
26.08277,100119
26.09090,106999
26.09902,114067
26.10713,132678
26.11527,134083
26.12338,130686
26.13152,132128
26.13963,158443
26.14775,227263
26.15588,302496
26.16400,357101
26.17213,404088
26.18025,431502
26.18837,440609
26.19650,430472
26.20462,443717
26.21273,446458
26.22087,442168
26.22898,429397
26.23712,433079
26.24523,424982
26.25335,410079
26.26148,406930
26.26960,391172
26.27773,398262
26.28585,384091
26.29397,392809
26.30210,384623
26.31022,386470
26.31835,387693
26.32647,383891
26.33458,380220
26.34272,378303
26.35083,377152
26.35895,395366
26.36708,465318
26.37520,594353
26.38333,828404
26.39145,1214051
26.39957,1664938
26.40770,2227728
26.41582,2638105
26.42395,2705621
26.43207,2417439
26.44018,2070947
26.44832,1526483
26.45643,1147579
26.46455,845743
26.47268,636062
26.48080,539081
26.48893,485115
26.49705,445043
26.50517,429488
26.51330,408841
26.52142,388048
26.52955,368703
26.53767,353402
26.54578,335303
26.55392,321439
26.56203,317266
26.57017,314715
26.57828,312105
26.58640,314946
26.59453,312102
26.60265,307505
26.61077,312092
26.61890,303579
26.62702,311852
26.63515,316179
26.64327,309229
26.65138,307968
26.65952,306186
26.66763,306675
26.67577,309616
26.68388,285628
26.69200,291647
26.70013,278606
26.70825,276155
26.71638,284330
26.72450,276553
26.73262,276974
26.74075,284599
26.74887,276251
26.75698,283690
26.76512,285510
26.77323,279111
26.78137,283686
26.78948,278891
26.79760,282060
26.80573,287283
26.81385,282822
26.82198,298001
26.83010,304171
26.83822,287405
26.84635,288073
26.85447,283984
26.86258,271072
26.87072,273228
26.87883,265078
26.88697,259005
26.89508,260318
26.90320,267439
26.91133,256168
26.91945,255621
26.92758,252558
26.93570,247564
26.94382,234080
26.95195,241859
26.96007,242243
26.96820,245491
26.97632,257206
26.98443,276884
26.99257,302646
27.00068,339960
27.00880,393166
27.01693,485502
27.02505,616718
27.03318,724812
27.04130,831516
27.04942,828313
27.05755,795739
27.06567,702200
27.07380,593068
27.08192,506824
27.09003,434600
27.09817,394667
27.10628,362286
27.11440,351911
27.12253,339850
27.13065,348292
27.13878,339446
27.14690,336534
27.15502,338667
27.16315,325884
27.17127,322535
27.17940,352854
27.18752,405937
27.19563,479590
27.20377,535483
27.21188,571855
27.22002,573793
27.22813,526304
27.23625,452774
27.24438,403918
27.25250,355692
27.26062,320510
27.26875,280771
27.27687,261122
27.28500,243638
27.29312,232513
27.30123,220765
27.30937,215085
27.31748,212898
27.32562,210144
27.33373,219770
27.34185,229164
27.34998,222991
27.35810,229727
27.36623,236046
27.37435,239419
27.38247,246188
27.39060,253088
27.39872,240809
27.40683,237203
27.41497,218465
27.42308,206712
27.43122,196890
27.43933,205257
27.44745,206456
27.45558,206892
27.46370,199059
27.47183,204016
27.47995,196417
27.48807,195279
27.49620,190532
27.50432,173695
27.51245,178934
27.52057,169408
27.52868,173352
27.53682,179648
27.54493,180639
27.55305,178896
27.56118,177812
27.56930,173477
27.57743,183203
27.58555,215459
27.59367,272629
27.60180,336673
27.60992,397438
27.61805,445819
27.62617,440078
27.63428,409058
27.64242,351730
27.65053,285888
27.65865,251757
27.66678,219954
27.67490,207841
27.68303,206043
27.69115,194865
27.69927,206569
27.70740,217212
27.71552,220217
27.72365,213956
27.73177,194883
27.73988,185896
27.74802,167516
27.75613,150126
27.76427,147530
27.77238,151904
27.78050,158967
27.78863,174285
27.79675,189225
27.80487,207366
27.81300,214388
27.82112,210838
27.82925,194213
27.83737,183904
27.84548,166699
27.85362,155324
27.86173,141918
27.86987,134823
27.87798,131050
27.88610,133394
27.89423,135062
27.90235,134320
27.91047,133140
27.91860,134095
27.92672,133440
27.93485,136269
27.94297,136568
27.95108,130713
27.95922,128855
27.96733,122271
27.97547,122938
27.98358,124283
27.99170,119146
27.99983,131781
28.00795,134177
28.01608,147197
28.02420,171465
28.03232,179518
28.04045,208741
28.04857,251764
28.05668,321948
28.06482,377582
28.07293,399216
28.08107,376877
28.08918,319185
28.09730,277462
28.10543,211877
28.11355,176861
28.12168,147830
28.12980,134255
28.13792,123724
28.14605,119766
28.15417,116590
28.16230,106974
28.17042,112399
28.17853,112344
28.18667,113572
28.19478,128054
28.20290,150817
28.21103,194578
28.21915,265833
28.22728,344037
28.23540,415577
28.24352,461669
28.25165,437163
28.25977,399972
28.26790,337311
28.27602,260507
28.28413,199866
28.29227,151676
28.30038,140094
28.30850,142969
28.31663,167480
28.32475,206850
28.33288,259730
28.34100,291189
28.34912,310210
28.35725,299685
28.36537,280612
28.37350,251432
28.38162,230346
28.38973,232552
28.39787,240499
28.40598,247908
28.41412,244861
28.42223,245577
28.43035,252622
28.43848,242228
28.44660,228112
28.45472,212548
28.46285,185929
28.47097,160763
28.47910,154241
28.48722,158755
28.49533,166895
28.50347,187949
28.51158,198047
28.51972,223939
28.52783,244214
28.53595,234162
28.54408,224739
28.55220,185846
28.56033,168743
28.56845,138878
28.57657,127917
28.58470,116381
28.59282,110063
28.60093,106369
28.60907,105874
28.61718,112231
28.62532,114134
28.63343,135193
28.64155,137729
28.64968,149916
28.65780,152685
28.66593,163273
28.67405,154833
28.68217,146247
28.69030,135107
28.69842,124588
28.70653,121064
28.71467,115379
28.72278,103603
28.73092,96608
28.73903,98029
28.74715,96933
28.75528,95654
28.76340,100759
28.77153,99807
28.77965,104561
28.78777,111357
28.79590,127663
28.80402,148228
28.81215,167788
28.82027,193523
28.82838,201295
28.83652,205833
28.84463,197968
28.85275,184579
28.86088,166185
28.86900,149439
28.87713,148117
28.88525,163642
28.89337,184335
28.90150,225604
28.90962,273647
28.91775,316389
28.92587,321230
28.93398,301474
28.94212,250834
28.95023,203595
28.95835,158603
28.96648,139103
28.97460,132344
28.98273,117075
28.99085,109504
28.99897,101574
29.00710,96800
29.01522,95226
29.02335,97753
29.03147,101925
29.03958,97124
29.04772,103846
29.05583,106201
29.06397,101327
29.07208,104792
29.08020,108659
29.08833,123508
29.09645,127277
29.10457,137322
29.11270,143787
29.12082,135727
29.12895,128897
29.13707,116355
29.14518,107303
29.15332,98727
29.16143,92635
29.16957,96525
29.17768,92847
29.18580,99503
29.19393,117522
29.20205,154503
29.21018,224076
29.21830,326918
29.22642,457195
29.23455,554564
29.24267,573449
29.25078,537793
29.25892,468988
29.26703,394228
29.27517,337079
29.28328,290159
29.29140,238836
29.29953,197073
29.30765,160889
29.31578,131752
29.32390,116976
29.33202,101463
29.34015,103458
29.34827,94251
29.35638,89843
29.36452,85944
29.37263,86940
29.38077,84783
29.38888,85173
29.39700,84271
29.40513,90075
29.41325,98657
29.42138,101781
29.42950,107871
29.43762,106703
29.44575,113972
29.45387,112373
29.46200,106176
29.47012,106524
29.47823,94371
29.48637,90991
29.49448,93312
29.50260,94109
29.51073,97896
29.51885,95610
29.52698,96388
29.53510,106447
29.54322,104481
29.55135,101393
29.55947,99528
29.56760,102786
29.57572,95711
29.58383,103623
29.59197,100373
29.60008,89330
29.60822,86844
29.61633,83192
29.62445,86297
29.63258,86216
29.64070,81899
29.64882,88071
29.65695,96630
29.66507,83539
29.67320,83643
29.68132,90320
29.68943,104928
29.69757,124867
29.70568,145034
29.71382,168298
29.72193,170718
29.73005,161937
29.73818,147433
29.74630,128331
29.75442,110604
29.76255,93530
29.77067,99596
29.77880,92740
29.78692,88891
29.79503,81915
29.80317,82841
29.81128,77526
29.81942,84127
29.82753,78121
29.83565,80869
29.84378,82181
29.85190,87631
29.86003,87331
29.86815,89174
29.87627,89229
29.88440,103490
29.89252,139457
29.90063,188243
29.90877,267132
29.91688,319991
29.92502,348465
29.93313,325228
29.94125,276774
29.94938,197323
29.95750,145702
29.96563,122066
29.97375,105071
29.98187,106780
29.99000,107069
29.99812,107744
30.00625,116864
30.01437,128434
30.02248,138327
30.03062,148408
30.03873,149953
30.04685,150376
30.05498,163514
30.06310,151361
30.07123,153000
30.07935,145864
30.08747,151188
30.09560,147263
30.10372,147399
30.11185,148695
30.11997,135445
30.12808,139471
30.13622,133801
30.14433,134626
30.15245,127972
30.16058,131048
30.16870,120780
30.17683,118408
30.18495,128621
30.19307,127482
30.20120,130652
30.20932,142728
30.21745,157119
30.22557,157746
30.23368,150357
30.24182,148609
30.24993,133923
30.25807,117315
30.26618,103385
30.27430,100583
30.28243,102502
30.29055,95665
30.29867,93069
30.30680,90778
30.31492,92058
30.32305,94060
30.33117,88008
30.33928,83035
30.34742,89875
30.35553,95192
30.36367,96999
30.37178,96782
30.37990,95359
30.38803,94192
30.39615,92448
30.40427,93310
30.41240,89602
30.42052,92279
30.42865,83791
30.43677,86281
30.44488,84869
30.45302,79075
30.46113,81051
30.46927,84781
30.47738,85483
30.48550,83396
30.49363,91154
30.50175,92259
30.50988,91139
30.51800,94712
30.52612,102663
30.53425,100728
30.54237,99786
30.55048,89609
30.55862,93066
30.56673,89311
30.57487,98808
30.58298,93570
30.59110,100114
30.59923,98903
30.60735,100863
30.61548,102476
30.62360,99365
30.63172,103855
30.63985,103014
30.64797,100061
30.65610,104515
30.66422,95602
30.67233,97168
30.68047,82224
30.68858,83912
30.69670,84089
30.70483,80743
30.71295,82240
30.72108,83953
30.72920,84383
30.73732,90812
30.74545,87987
30.75357,89473
30.76170,84850
30.76982,85249
30.77793,92779
30.78607,97219
30.79418,124850
30.80230,177364
30.81043,274846
30.81855,383373
30.82668,481439
30.83480,517511
30.84292,509086
30.85105,406885
30.85917,285141
30.86730,220735
30.87542,164996
30.88353,141598
30.89167,139588
30.89978,134485
30.90792,138244
30.91603,134535
30.92415,124687
30.93228,115264
30.94040,106132
30.94852,99786
30.95665,99158
30.96477,100540
30.97290,109303
30.98102,108323
30.98913,113056
30.99727,115863
31.00538,105323
31.01352,99948
31.02163,100612
31.02975,96034
31.03788,89742
31.04600,87714
31.05413,93096
31.06225,83906
31.07037,91066
31.07850,85952
31.08662,99643
31.09473,101492
31.10287,110523
31.11098,137083
31.11912,150516
31.12723,167171
31.13535,170069
31.14348,171406
31.15160,158542
31.15973,155068
31.16785,147256
31.17597,159603
31.18410,159316
31.19222,174474
31.20033,191663
31.20847,213178
31.21658,267030
31.22472,327386
31.23283,404584
31.24095,494193
31.24908,501324
31.25720,445757
31.26533,359226
31.27345,262167
31.28157,193677
31.28970,138584
31.29782,111647
31.30595,99341
31.31407,99954
31.32218,102688
31.33032,114604
31.33843,127050
31.34655,148073
31.35468,159932
31.36280,174008
31.37093,168442
31.37905,152003
31.38717,132868
31.39530,110332
31.40342,103419
31.41155,89657
31.41967,96553
31.42778,91068
31.43592,90059
31.44403,84430
31.45215,88383
31.46028,83450
31.46840,85098
31.47653,86527
31.48465,88605
31.49277,96611
31.50090,104956
31.50902,115414
31.51715,131171
31.52527,136069
31.53338,143868
31.54152,156729
31.54963,163368
31.55777,162945
31.56588,154813
31.57400,146400
31.58213,139785
31.59025,129196
31.59837,120031
31.60650,111064
31.61462,100271
31.62275,90894
31.63087,97082
31.63898,83255
31.64712,86966
31.65523,95088
31.66337,106268
31.67148,123816
31.67960,145618
31.68773,174284
31.69585,187496
31.70398,201803
31.71210,189146
31.72022,162320
31.72835,135807
31.73647,122179
31.74458,112276
31.75272,92706
31.76083,84417
31.76897,89881
31.77708,81119
31.78520,85027
31.79333,80119
31.80145,82750
31.80958,83092
31.81770,81633
31.82582,84944
31.83395,85425
31.84207,88662
31.85020,83405
31.85832,81096
31.86643,94809
31.87457,88841
31.88268,90654
31.89080,98070
31.89893,89040
31.90705,87242
31.91518,85658
31.92330,91536
31.93142,87454
31.93955,87777
31.94767,91764
31.95580,98076
31.96392,100185
31.97203,110342
31.98017,115120
31.98828,127007
31.99640,145875
32.00453,151591
32.01265,173861
32.02078,194324
32.02890,209651
32.03702,206851
32.04515,200680
32.05327,188277
32.06140,167602
32.06952,138798
32.07763,133991
32.08577,126900
32.09388,116476
32.10202,111430
32.11013,106007
32.11825,116119
32.12638,109195
32.13450,108577
32.14262,101528
32.15075,93813
32.15887,87476
32.16700,93337
32.17512,89219
32.18323,87082
32.19137,91289
32.19948,89109
32.20762,90587
32.21573,95102
32.22385,92940
32.23198,85080
32.24010,85786
32.24822,84550
32.25635,88297
32.26447,85616
32.27260,88163
32.28072,92561
32.28883,95634
32.29697,96638
32.30508,97152
32.31322,98717
32.32133,93446
32.32945,89525
32.33758,92283
32.34570,90967
32.35383,89500
32.36195,91922
32.37007,91762
32.37820,87313
32.38632,88144
32.39443,84922
32.40257,92107
32.41068,88516
32.41882,84411
32.42693,87036
32.43505,81849
32.44318,83904
32.45130,83927
32.45943,83519
32.46755,79347
32.47567,80956
32.48380,81700
32.49192,75603
32.50005,78667
32.50817,79071
32.51628,79611
32.52442,84847
32.53253,88400
32.54065,90191
32.54878,93157
32.55690,90469
32.56503,89235
32.57315,89135
32.58127,79953
32.58940,84048
32.59752,80237
32.60565,86024
32.61377,83256
32.62188,87114
32.63002,81482
32.63813,85780
32.64625,84180
32.65438,85081
32.66250,82134
32.67063,80136
32.67875,90153
32.68687,89013
32.69500,100870
32.70312,105063
32.71125,108093
32.71937,105816
32.72748,94734
32.73562,94336
32.74373,90967
32.75187,83113
32.75998,85752
32.76810,86019
32.77623,80306
32.78435,79436
32.79247,87328
32.80060,81057
32.80872,81827
32.81685,85253
32.82497,87168
32.83308,89254
32.84122,89866
32.84933,90811
32.85747,89334
32.86558,94293
32.87370,87837
32.88183,90642
32.88995,95586
32.89808,103550
32.90620,110410
32.91432,122381
32.92245,126101
32.93057,124837
32.93868,127776
32.94682,119086
32.95493,106629
32.96307,98722
32.97118,98614
32.97930,106415
32.98743,129122
32.99555,176116
33.00368,264841
33.01180,371879
33.01992,453173
33.02805,495728
33.03617,486017
33.04428,386915
33.05242,292773
33.06053,225944
33.06867,212558
33.07678,212001
33.08490,227692
33.09303,273503
33.10115,325027
33.10928,377169
33.11740,431858
33.12552,466800
33.13365,452021
33.14177,406577
33.14990,343986
33.15802,282008
33.16613,245323
33.17427,215154
33.18238,195734
33.19050,176143
33.19863,156307
33.20675,134258
33.21488,118276
33.22300,120105
33.23112,125472
33.23925,115052
33.24737,118173
33.25550,119480
33.26362,116931
33.27173,115506
33.27987,107877
33.28798,105183
33.29610,101632
33.30423,103885
33.31235,98027
33.32048,104011
33.32860,108076
33.33672,106159
33.34485,111783
33.35297,115337
33.36110,130230
33.36922,146608
33.37733,153135
33.38547,172107
33.39358,168661
33.40172,163172
33.40983,137297
33.41795,116456
33.42608,107250
33.43420,92954
33.44232,92500
33.45045,87319
33.45857,80549
33.46670,83705
33.47482,82796
33.48293,77180
33.49107,83894
33.49918,86962
33.50732,92872
33.51543,102301
33.52355,100504
33.53168,117243
33.53980,124719
33.54793,132223
33.55605,143983
33.56417,160206
33.57230,188833
33.58042,196809
33.58853,188170
33.59667,180818
33.60478,145510
33.61292,122758
33.62103,100819
33.62915,97018
33.63728,92556
33.64540,94078
33.65353,103006
33.66165,104085
33.66977,119884
33.67790,125803
33.68602,124720
33.69413,126980
33.70227,110297
33.71038,106094
33.71852,91559
33.72663,95305
33.73475,90051
33.74288,84369
33.75100,90253
33.75913,87114
33.76725,89699
33.77537,89998
33.78350,84950
33.79162,81379
33.79975,79954
33.80787,79353
33.81598,78505
33.82412,81637
33.83223,81420
33.84035,80149
33.84848,82227
33.85660,82316
33.86473,82654
33.87285,86600
33.88097,93631
33.88910,93728
33.89722,94949
33.90535,93155
33.91347,94152
33.92158,97435
33.92972,99161
33.93783,91829
33.94597,85337
33.95408,83957
33.96220,83962
33.97033,81689
33.97845,78859
33.98657,80085
33.99470,78188
34.00282,81224
34.01095,80405
34.01907,80124
34.02718,85065
34.03532,75664
34.04343,80290
34.05157,82627
34.05968,82023
34.06780,87516
34.07593,84592
34.08405,88168
34.09217,86174
34.10030,87631
34.10842,84303
34.11655,80327
34.12467,81660
34.13278,86242
34.14092,83627
34.14903,85513
34.15717,83011
34.16528,82646
34.17340,87955
34.18153,83928
34.18965,81330
34.19778,86737
34.20590,87260
34.21402,89564
34.22215,83215
34.23027,85273
34.23838,84842
34.24652,83289
34.25463,80404
34.26277,86847
34.27088,78769
34.27900,77642
34.28713,80616
34.29525,76148
34.30338,76291
34.31150,74038
34.31962,75774
34.32775,71508
34.33587,80957
34.34400,76678
34.35212,84884
34.36023,82742
34.36837,83844
34.37648,83616
34.38460,80955
34.39273,81225
34.40085,79383
34.40898,74986
34.41710,82167
34.42522,81120
34.43335,86744
34.44147,81245
34.44960,84583
34.45772,85232
34.46583,82633
34.47397,77985
34.48208,81771
34.49020,80547
34.49833,79968
34.50645,76733
34.51458,79565
34.52270,83410
34.53082,81039
34.53895,85704
34.54707,92046
34.55520,106594
34.56332,127301
34.57143,132387
34.57957,146531
34.58768,157900
34.59582,152881
34.60393,156393
34.61205,137181
34.62018,124748
34.62830,116166
34.63642,110723
34.64455,106275
34.65267,97341
34.66080,93292
34.66892,99261
34.67703,99855
34.68517,94917
34.69328,89288
34.70142,98129
34.70953,88898
34.71765,89077
34.72578,87423
34.73390,85547
34.74202,87635
34.75015,89339
34.75827,89435
34.76640,91940
34.77452,94617
34.78263,98395
34.79077,104118
34.79888,114337
34.80702,113143
34.81513,113412
34.82325,108434
34.83138,104661
34.83950,97771
34.84763,92623
34.85575,97534
34.86387,88655
34.87200,90345
34.88012,89749
34.88823,89789
34.89637,95248
34.90448,86926
34.91262,87411
34.92073,86353
34.92885,94942
34.93698,87178
34.94510,89714
34.95323,91051
34.96135,101600
34.96947,103195
34.97760,109082
34.98572,121808
34.99385,125718
35.00197,125228
35.01008,115353
35.01822,109499
35.02633,104429
35.03445,93876
35.04258,92592
35.05070,95199
35.05883,93771
35.06695,91825
35.07507,89933
35.08320,88162
35.09132,92852
35.09945,89433
35.10757,88460
35.11568,88730
35.12382,95402
35.13193,88226
35.14005,83413
35.14818,87228
35.15630,93792
35.16443,99171
35.17255,101262
35.18067,96580
35.18880,106494
35.19692,97453
35.20505,100976
35.21317,92114
35.22128,91078
35.22942,88784
35.23753,88118
35.24567,93373
35.25378,88812
35.26190,92449
35.27003,91063
35.27815,89950
35.28627,90294
35.29440,100180
35.30252,95799
35.31065,92898
35.31877,90354
35.32688,93986
35.33502,91424
35.34313,90538
35.35127,87629
35.35938,89952
35.36750,90716
35.37563,90251
35.38375,94999
35.39188,88215
35.40000,91101
35.40812,90850
35.41625,105593
35.42437,119256
35.43248,126167
35.44062,137853
35.44873,137029
35.45687,144016
35.46498,138940
35.47310,123476
35.48123,122715
35.48935,116219
35.49748,110728
35.50560,114518
35.51372,117579
35.52185,112352
35.52997,108005
35.53808,100972
35.54622,102095
35.55433,103306
35.56247,97101
35.57058,93769
35.57870,91509
35.58683,89736
35.59495,90685
35.60308,89135
35.61120,88290
35.61932,86025
35.62745,90603
35.63557,90990
35.64370,93374
35.65182,92497
35.65993,89394
35.66807,88192
35.67618,90812
35.68430,88628
35.69243,92788
35.70055,95051
35.70868,99599
35.71680,98245
35.72492,99459
35.73305,107030
35.74117,105479
35.74930,114729
35.75742,128069
35.76553,147856
35.77367,179744
35.78178,218337
35.78990,235385
35.79803,242035
35.80615,220467
35.81428,189961
35.82240,159366
35.83052,132476
35.83865,109750
35.84677,99818
35.85490,92175
35.86302,98885
35.87113,97318
35.87927,92741
35.88738,94109
35.89552,91799
35.90363,96190
35.91175,96705
35.91988,90641
35.92800,87094
35.93612,95886
35.94425,89790
35.95237,92643
35.96050,91639
35.96862,94339
35.97673,92816
35.98487,89471
35.99298,90996
36.00112,89875
36.00923,94389
36.01735,95078
36.02548,96686
36.03360,107445
36.04173,102186
36.04985,104377
36.05797,104815
36.06610,102534
36.07422,95463
36.08233,98674
36.09047,90111
36.09858,94605
36.10672,95338
36.11483,95921
36.12295,97238
36.13108,105359
36.13920,111037
36.14733,119308
36.15545,132750
36.16357,149133
36.17170,148194
36.17982,150950
36.18793,142955
36.19607,124380
36.20418,115770
36.21232,105728
36.22043,103425
36.22855,99047
36.23668,92935
36.24480,96317
36.25293,93975
36.26105,94518
36.26917,92376
36.27730,97039
36.28542,102032
36.29355,97111
36.30167,101352
36.30978,105027
36.31792,98997
36.32603,113040
36.33415,113180
36.34228,119417
36.35040,127761
36.35853,123641
36.36665,123235
36.37477,118735
36.38290,105243
36.39102,112509
36.39915,109780
36.40727,109111
36.41538,112469
36.42352,125689
36.43163,121193
36.43977,122630
36.44788,124539
36.45600,120104
36.46413,123819
36.47225,119640
36.48037,112677
36.48850,106357
36.49662,106961
36.50475,101444
36.51287,95504
36.52098,95698
36.52912,101154
36.53723,90824
36.54537,102872
36.55348,100641
36.56160,95573
36.56973,103330
36.57785,97885
36.58597,105386
36.59410,99354
36.60222,96425
36.61035,96332
36.61847,95685
36.62658,95291
36.63472,96690
36.64283,100428
36.65097,101093
36.65908,103698
36.66720,102594
36.67533,101299
36.68345,100468
36.69158,97042
36.69970,98508
36.70782,103995
36.71595,108647
36.72407,98284
36.73218,102124
36.74032,100061
36.74843,112071
36.75657,110532
36.76468,107911
36.77280,108215
36.78093,108134
36.78905,106161
36.79718,101782
36.80530,104301
36.81342,100740
36.82155,106725
36.82967,105590
36.83780,108256
36.84592,101935
36.85403,96840
36.86217,103716
36.87028,98747
36.87840,94848
36.88653,97592
36.89465,92127
36.90278,90716
36.91090,96138
36.91902,93058
36.92715,92590
36.93527,96961
36.94340,103785
36.95152,118858
36.95963,157741
36.96777,214961
36.97588,291436
36.98400,380587
36.99213,423189
37.00025,436392
37.00838,374596
37.01650,309983
37.02462,217464
37.03275,170616
37.04087,138273
37.04900,127127
37.05712,120698
37.06523,113045
37.07337,118518
37.08148,122339
37.08962,124639
37.09773,131687
37.10585,133063
37.11398,140072
37.12210,138305
37.13022,132237
37.13835,132730
37.14647,123412
37.15460,122102
37.16272,113671
37.17083,107475
37.17897,110000
37.18708,103384
37.19522,108069
37.20333,102317
37.21145,107050
37.21958,111806
37.22770,115919
37.23583,109875
37.24395,105717
37.25207,112537
37.26020,108100
37.26832,105318
37.27643,105547
37.28457,104737
37.29268,105773
37.30082,105935
37.30893,105879
37.31705,100972
37.32518,102644
37.33330,109021
37.34143,109589
37.34955,113287
37.35767,109911
37.36580,115175
37.37392,109219
37.38203,117396
37.39017,119102
37.39828,121230
37.40642,121018
37.41453,123879
37.42265,122000
37.43078,132293
37.43890,135820
37.44703,133544
37.45515,140444
37.46327,144106
37.47140,146236
37.47952,134864
37.48765,128225
