C:\MassHunter\GCMS\1\data\JTB-E02\BACandBLUE\JTB-E18-016-07.D Thu Jun 27 09:40:58 2019
Start of data points
2.09540	48698
2.10353	44733
2.11165	44941
2.11977	43966
2.12790	45326
2.13602	46069
2.14415	44352
2.15227	44054
2.16038	41187
2.16852	43207
2.17663	43034
2.18477	40735
2.19288	42453
2.20100	42280
2.20913	40615
2.21725	37651
2.22538	37856
2.23350	40285
2.24162	38184
2.24975	37360
2.25787	42854
2.26598	115453
2.27412	659048
2.28223	1074217
2.29037	606162
2.29848	300703
2.30660	217311
2.31473	177842
2.32285	167490
2.33098	141765
2.33910	146248
2.34722	133163
2.35535	114976
2.36347	106531
2.37158	105418
2.37972	101722
2.38783	102073
2.39597	96610
2.40408	96975
2.41220	92527
2.42033	93999
2.42845	93510
2.43658	88887
2.44470	89331
2.45282	88038
2.46095	110916
2.46907	133488
2.47720	101976
2.48532	91516
2.49343	108096
2.50157	100473
2.50968	91232
2.51780	89010
2.52593	92804
2.53405	88107
2.54218	97721
2.55030	105098
2.55842	136747
2.56655	145872
2.57467	117379
2.58280	105397
2.59092	95928
2.59903	132548
2.60717	545700
2.61528	1137028
2.62340	867102
2.63153	470752
2.63965	311499
2.64778	246444
2.65590	195860
2.66402	166728
2.67215	144624
2.68027	141966
2.68840	131341
2.69652	119974
2.70463	112777
2.71277	107702
2.72088	107196
2.72902	95900
2.73713	94292
2.74525	93818
2.75338	92588
2.76150	92129
2.76962	89643
2.77775	109915
2.78587	209218
2.79400	231137
2.80212	166503
2.81023	145604
2.81837	143022
2.82648	130800
2.83462	122879
2.84273	111362
2.85085	100453
2.85898	102999
2.86710	98582
2.87523	95316
2.88335	88092
2.89147	88795
2.89960	91550
2.90772	82493
2.91583	82636
2.92397	84854
2.93208	80230
2.94022	77815
2.94833	80005
2.95645	84637
2.96458	106680
2.97270	114277
2.98083	103168
2.98895	87602
2.99707	87846
3.00520	84607
3.01332	85112
3.02145	85644
3.02957	81749
3.03768	73847
3.04582	74898
3.05393	74887
3.06205	75165
3.07018	78152
3.07830	195442
3.08643	985116
3.09455	2717693
3.10267	4174317
3.11080	5381396
3.11892	4795758
3.12705	3028496
3.13517	2044197
3.14328	1554676
3.15142	1242299
3.15953	1018680
3.16765	854670
3.17578	785176
3.18390	850749
3.19203	1320243
3.20015	1642742
3.20827	1327985
3.21640	980203
3.22452	802592
3.23265	659667
3.24077	584846
3.24888	527946
3.25702	465473
3.26513	423515
3.27327	379917
3.28138	384455
3.28950	575100
3.29763	1428726
3.30575	3140140
3.31387	4307713
3.32200	3808385
3.33012	2609028
3.33825	1767949
3.34637	1310137
3.35448	1099418
3.36262	915429
3.37073	802441
3.37887	716370
3.38698	662049
3.39510	596613
3.40323	568558
3.41135	519939
3.41947	496416
3.42760	474213
3.43572	453954
3.44385	444899
3.45197	438127
3.46008	409407
3.46822	414773
3.47633	436182
3.48447	413694
3.49258	400097
3.50070	370732
3.50883	355487
3.51695	346917
3.52508	340804
3.53320	343410
3.54132	346577
3.54945	376462
3.55757	378144
3.56568	390256
3.57382	413139
3.58193	433884
3.59007	408074
3.59818	364457
3.60630	340427
3.61443	335011
3.62255	330623
3.63068	329038
3.63880	315124
3.64692	298094
3.65505	313095
3.66317	562117
3.67130	1897335
3.67942	4416489
3.68753	5372726
3.69567	3834519
3.70378	2329989
3.71190	1653003
3.72003	1351455
3.72815	1136428
3.73628	1008873
3.74440	902092
3.75252	817672
3.76065	765914
3.76877	721177
3.77690	677312
3.78502	634467
3.79313	624659
3.80127	727845
3.80938	1246840
3.81750	2014997
3.82563	2088657
3.83375	1561369
3.84188	1152885
3.85000	937820
3.85812	823980
3.86625	727861
3.87437	675141
3.88250	638403
3.89062	594612
3.89873	556886
3.90687	532747
3.91498	576288
3.92312	641836
3.93123	775807
3.93935	783394
3.94748	979201
3.95560	2152687
3.96372	4514568
3.97185	5987544
3.97997	4958354
3.98810	3303639
3.99622	3858767
4.00433	1.015799E+07
4.01247	2.193836E+07
4.02058	2.942573E+07
4.02872	2.406939E+07
4.03683	1.415493E+07
4.04495	7662550
4.05308	4973906
4.06120	3627775
4.06933	2866076
4.07745	2339798
4.08557	1947004
4.09370	1686504
4.10182	1488276
4.10993	1330662
4.11807	1195212
4.12618	1097410
4.13432	1040289
4.14243	1043187
4.15055	1062325
4.15868	1025759
4.16680	964692
4.17493	877107
4.18305	819664
4.19117	764783
4.19930	739574
4.20742	1020828
4.21553	2795650
4.22367	7753556
4.23178	1.429549E+07
4.23992	1.761799E+07
4.24803	1.579551E+07
4.25615	1.04889E+07
4.26428	6603702
4.27240	4619002
4.28053	3513571
4.28865	2813035
4.29677	2306022
4.30490	2000161
4.31302	1716618
4.32115	1524514
4.32927	1388516
4.33738	1280085
4.34552	1204188
4.35363	1156890
4.36175	1109474
4.36988	1080441
4.37800	1006856
4.38613	921484
4.39425	877950
4.40237	823789
4.41050	794799
4.41862	758408
4.42675	719535
4.43487	676263
4.44298	664060
4.45112	638161
4.45923	626586
4.46735	590570
4.47548	581748
4.48360	571200
4.49173	543960
4.49985	548003
4.50797	536303
4.51610	509978
4.52422	495813
4.53235	481944
4.54047	474160
4.54858	472744
4.55672	469864
4.56483	447789
4.57297	433916
4.58108	429359
4.58920	430077
4.59733	421069
4.60545	408524
4.61357	402481
4.62170	427565
4.62982	509618
4.63795	668478
4.64607	794022
4.65418	755250
4.66232	626782
4.67043	507253
4.67857	450495
4.68668	425037
4.69480	404005
4.70293	376528
4.71105	364932
4.71918	361422
4.72730	354569
4.73542	343358
4.74355	334351
4.75167	329606
4.75978	332433
4.76792	309226
4.77603	310324
4.78417	316380
4.79228	344564
4.80040	394385
4.80853	466123
4.81665	477765
4.82478	427974
4.83290	388680
4.84102	381894
4.84915	396527
4.85727	378552
4.86538	377145
4.87352	362183
4.88163	346810
4.88977	323590
4.89788	317883
4.90600	307480
4.91413	296518
4.92225	298774
4.93038	335062
4.93850	536405
4.94662	1096849
4.95475	2022456
4.96287	2982612
4.97100	3219158
4.97912	2693371
4.98723	1930700
4.99537	1344863
5.00348	999208
5.01160	812851
5.01973	723162
5.02785	800182
5.03598	1043261
5.04410	1286227
5.05222	1333442
5.06035	1130241
5.06847	896747
5.07660	777784
5.08472	680219
5.09283	630426
5.10097	599640
5.10908	565092
5.11722	532495
5.12533	491140
5.13345	482721
5.14158	465856
5.14970	474587
5.15782	482350
5.16595	502373
5.17407	517501
5.18220	491378
5.19032	466042
5.19843	452924
5.20657	458927
5.21468	467971
5.22282	473135
5.23093	438288
5.23905	436695
5.24718	422646
5.25530	397715
5.26342	372875
5.27155	338653
5.27967	342703
5.28780	317569
5.29592	320616
5.30403	310500
5.31217	311793
5.32028	307949
5.32842	313273
5.33653	334811
5.34465	346053
5.35278	340328
5.36090	331396
5.36903	308661
5.37715	298838
5.38527	302417
5.39340	285784
5.40152	298561
5.40963	296659
5.41777	288824
5.42588	276690
5.43402	271374
5.44213	276396
5.45025	278440
5.45838	278988
5.46650	265381
5.47463	274596
5.48275	265394
5.49087	253808
5.49900	253381
5.50712	252952
5.51523	250117
5.52337	263043
5.53148	249019
5.53962	251130
5.54773	244250
5.55585	240906
5.56398	258755
5.57210	271767
5.58023	278748
5.58835	266802
5.59647	260541
5.60460	240269
5.61272	241896
5.62085	247312
5.62897	252628
5.63708	258987
5.64522	265071
5.65333	264324
5.66145	265522
5.66958	258425
5.67770	252003
5.68583	280412
5.69395	301230
5.70207	316714
5.71020	294971
5.71832	271075
5.72645	246454
5.73457	238135
5.74268	227854
5.75082	216682
5.75893	218192
5.76707	218916
5.77518	216634
5.78330	213985
5.79143	212200
5.79955	199441
5.80767	208889
5.81580	209062
5.82392	194948
5.83205	201467
5.84017	204338
5.84828	201790
5.85642	204712
5.86453	199442
5.87267	202028
5.88078	188274
5.88890	193116
5.89703	188783
5.90515	187582
5.91327	165830
5.92140	142972
5.92952	140386
5.93765	147556
5.94577	151839
5.95388	172106
5.96202	195918
5.97013	229306
5.97827	263383
5.98638	313968
5.99450	326511
6.00263	308782
6.01075	271419
6.01888	223903
6.02700	196423
6.03512	184329
6.04325	167457
6.05137	157163
6.05948	154812
6.06762	152637
6.07573	144215
6.08387	146693
6.09198	136359
6.10010	139799
6.10823	146577
6.11635	145605
6.12448	163985
6.13260	241626
6.14072	358924
6.14885	475491
6.15697	487060
6.16510	411973
6.17322	325668
6.18133	251549
6.18947	218940
6.19758	215896
6.20570	200478
6.21383	195068
6.22195	194252
6.23008	185774
6.23820	190350
6.24632	190039
6.25445	185896
6.26257	186813
6.27070	191874
6.27882	189764
6.28693	175627
6.29507	185313
6.30318	182778
6.31130	184610
6.31943	183897
6.32755	183919
6.33568	200349
6.34380	201628
6.35192	197608
6.36005	192001
6.36817	191156
6.37630	182330
6.38442	191524
6.39253	191203
6.40067	187729
6.40878	185529
6.41692	183353
6.42503	186353
6.43315	185321
6.44128	183836
6.44940	185555
6.45752	182374
6.46565	183765
6.47377	188635
6.48190	186452
6.49002	188338
6.49813	199964
6.50627	195018
6.51438	193040
6.52252	185637
6.53063	192524
6.53875	191646
6.54688	195092
6.55500	202099
6.56313	204604
6.57125	197520
6.57937	209319
6.58750	219768
6.59562	219377
6.60373	215014
6.61187	210677
6.61998	197960
6.62812	207274
6.63623	203620
6.64435	217253
6.65248	221739
6.66060	304097
6.66873	395020
6.67685	485512
6.68497	457639
6.69310	378006
6.70122	313476
6.70933	262809
6.71747	251396
6.72558	242807
6.73372	205318
6.74183	183887
6.74995	174039
6.75808	161443
6.76620	159226
6.77433	156060
6.78245	151763
6.79057	151701
6.79870	147072
6.80682	140939
6.81495	138856
6.82307	138364
6.83118	135350
6.83932	131022
6.84743	140323
6.85555	164496
6.86368	179668
6.87180	179197
6.87993	166100
6.88805	140464
6.89617	112176
6.90430	98158
6.91242	93360
6.92055	87145
6.92867	84280
6.93678	82151
6.94492	76831
6.95303	81931
6.96115	90248
6.96928	106965
6.97740	118672
6.98553	129293
6.99365	122481
7.00177	110991
7.00990	96780
7.01802	94693
7.02615	89943
7.03427	87891
7.04238	82988
7.05052	81359
7.05863	83266
7.06677	79039
7.07488	80347
7.08300	76299
7.09113	76202
7.09925	72934
7.10737	72925
7.11550	69104
7.12362	73049
7.13175	73522
7.13987	80682
7.14798	106348
7.15612	150572
7.16423	203716
7.17237	222441
7.18048	203627
7.18860	158935
7.19673	130449
7.20485	155325
7.21298	316182
7.22110	686565
7.22922	1255076
7.23735	1609106
7.24547	1499687
7.25358	1073581
7.26172	671606
7.26983	444039
7.27797	296575
7.28608	206654
7.29420	146721
7.30233	108197
7.31045	105955
7.31858	103134
7.32670	112983
7.33482	112826
7.34295	106103
7.35107	102637
7.35918	98797
7.36732	89123
7.37543	86986
7.38357	95887
7.39168	101567
7.39980	103999
7.40793	105467
7.41605	103835
7.42418	93686
7.43230	89741
7.44042	81580
7.44855	85296
7.45667	81603
7.46480	76763
7.47292	74647
7.48103	76824
7.48917	69614
7.49728	73983
7.50540	69381
7.51353	73451
7.52165	78662
7.52978	102244
7.53790	136606
7.54602	177574
7.55415	239492
7.56227	259988
7.57040	272473
7.57852	247899
7.58663	196455
7.59477	152162
7.60288	119083
7.61102	102451
7.61913	91312
7.62725	76323
7.63538	77439
7.64350	74955
7.65162	75245
7.65975	73445
7.66787	68833
7.67600	67341
7.68412	68156
7.69223	66720
7.70037	70492
7.70848	67327
7.71662	71730
7.72473	62281
7.73285	68309
7.74098	65595
7.74910	63873
7.75722	69024
7.76535	70230
7.77347	73259
7.78160	74532
7.78972	72314
7.79783	81663
7.80597	81790
7.81408	82388
7.82222	80160
7.83033	74512
7.83845	68110
7.84658	62058
7.85470	73369
7.86283	64953
7.87095	69779
7.87907	72435
7.88720	72997
7.89532	76974
7.90343	73942
7.91157	72208
7.91968	75188
7.92782	80785
7.93593	96632
7.94405	115620
7.95218	128173
7.96030	134496
7.96843	109481
7.97655	93854
7.98467	86170
7.99280	75348
8.00092	64570
8.00903	59646
8.01717	58244
8.02528	61741
8.03342	60327
8.04153	62636
8.04965	56210
8.05778	58527
8.06590	58707
8.07403	62082
8.08215	54293
8.09027	54892
8.09840	55640
8.10652	57742
8.11465	55377
8.12277	55311
8.13088	62437
8.13902	73653
8.14713	87283
8.15525	93684
8.16338	95346
8.17150	87581
8.17963	73223
8.18775	63298
8.19587	63674
8.20400	61004
8.21212	53886
8.22025	58997
8.22837	59750
8.23648	57628
8.24462	57415
8.25273	52389
8.26087	51764
8.26898	52824
8.27710	53362
8.28523	51691
8.29335	49521
8.30147	53018
8.30960	57519
8.31772	68462
8.32585	70993
8.33397	77607
8.34208	66749
8.35022	63164
8.35833	55866
8.36647	54550
8.37458	57350
8.38270	55508
8.39083	48196
8.39895	51897
8.40708	50707
8.41520	45821
8.42332	50163
8.43145	49398
8.43957	46384
8.44768	47306
8.45582	49012
8.46393	50640
8.47207	44308
8.48018	47129
8.48830	47579
8.49643	44727
8.50455	45896
8.51268	45426
8.52080	63062
8.52892	98189
8.53705	176921
8.54517	264150
8.55328	309180
8.56142	300219
8.56953	218095
8.57767	142463
8.58578	96049
8.59390	76177
8.60203	71716
8.61015	70329
8.61828	77656
8.62640	70484
8.63452	67122
8.64265	63570
8.65077	57700
8.65890	58809
8.66702	57781
8.67513	55468
8.68327	57022
8.69138	57493
8.69950	57727
8.70763	64047
8.71575	61728
8.72388	56708
8.73200	54303
8.74012	57010
8.74825	69362
8.75637	115092
8.76450	227292
8.77262	427510
8.78073	663341
8.78887	804871
8.79698	767337
8.80510	608622
8.81323	403492
8.82135	274994
8.82948	202416
8.83760	175819
8.84572	173713
8.85385	173802
8.86197	171962
8.87010	158506
8.87822	151745
8.88633	141888
8.89447	134222
8.90258	128837
8.91072	123709
8.91883	119991
8.92695	125124
8.93508	137881
8.94320	138320
8.95132	147647
8.95945	148211
8.96757	134464
8.97570	127064
8.98382	118674
8.99193	115459
9.00007	107629
9.00818	105089
9.01632	107280
9.02443	98825
9.03255	91978
9.04068	89895
9.04880	89095
9.05693	90160
9.06505	89980
9.07317	90333
9.08130	88092
9.08942	83940
9.09753	90398
9.10567	94654
9.11378	100634
9.12192	99559
9.13003	106633
9.13815	104900
9.14628	94442
9.15440	92113
9.16253	82662
9.17065	88252
9.17877	83638
9.18690	81446
9.19502	77719
9.20313	77416
9.21127	77706
9.21938	77434
9.22752	77507
9.23563	78424
9.24375	81335
9.25188	76682
9.26000	75837
9.26813	78469
9.27625	73559
9.28437	75246
9.29250	77371
9.30062	75866
9.30875	72548
9.31687	76151
9.32498	64825
9.33312	68025
9.34123	66299
9.34935	67992
9.35748	65573
9.36560	65507
9.37373	63082
9.38185	62916
9.38997	69046
9.39810	69778
9.40622	71864
9.41435	77523
9.42247	85868
9.43058	91809
9.43872	104971
9.44683	102401
9.45497	100402
9.46308	88461
9.47120	79665
9.47933	75047
9.48745	69214
9.49557	68237
9.50370	68184
9.51182	74821
9.51995	79191
9.52807	86258
9.53618	84077
9.54432	80822
9.55243	75990
9.56057	69325
9.56868	62134
9.57680	59118
9.58493	59217
9.59305	61113
9.60117	64629
9.60930	59053
9.61742	53341
9.62555	49665
9.63367	46678
9.64178	45884
9.64992	44572
9.65803	44481
9.66617	44800
9.67428	41950
9.68240	42031
9.69053	40474
9.69865	41374
9.70678	41160
9.71490	38367
9.72302	38593
9.73115	37502
9.73927	38861
9.74738	36723
9.75552	35623
9.76363	38361
9.77177	38347
9.77988	39666
9.78800	37057
9.79613	34418
9.80425	37223
9.81238	37077
9.82050	37169
9.82862	38104
9.83675	35354
9.84487	35369
9.85298	40003
9.86112	38366
9.86923	37018
9.87737	39381
9.88548	40700
9.89360	41160
9.90173	38824
9.90985	38515
9.91798	42706
9.92610	51281
9.93422	66815
9.94235	99807
9.95047	143054
9.95860	183375
9.96672	190593
9.97483	163867
9.98297	137510
9.99108	103587
9.99920	87782
10.00733	73925
10.01545	64343
10.02358	58540
10.03170	55409
10.03982	54935
10.04795	50494
10.05607	52982
10.06420	47794
10.07232	50173
10.08043	47783
10.08857	48017
10.09668	50832
10.10482	47554
10.11293	49284
10.12105	48994
10.12918	48568
10.13730	49310
10.14542	45461
10.15355	48209
10.16167	43854
10.16980	42456
10.17792	41558
10.18603	43455
10.19417	43988
10.20228	40248
10.21042	39567
10.21853	38150
10.22665	40302
10.23478	43666
10.24290	45924
10.25102	52822
10.25915	76117
10.26727	155246
10.27540	365421
10.28352	779899
10.29163	1415247
10.29977	2127254
10.30788	2987984
10.31602	4258197
10.32413	6222366
10.33225	8270189
10.34038	9024151
10.34850	7883393
10.35663	5389850
10.36475	3136131
10.37287	1704416
10.38100	1062693
10.38912	756849
10.39723	559474
10.40537	434784
10.41348	346823
10.42162	296414
10.42973	261463
10.43785	235688
10.44598	219696
10.45410	203477
10.46223	187433
10.47035	183821
10.47847	171789
10.48660	164452
10.49472	150142
10.50285	149430
10.51097	136278
10.51908	130718
10.52722	126250
10.53533	120933
10.54345	125989
10.55158	117909
10.55970	111875
10.56783	115540
10.57595	121129
10.58407	118482
10.59220	107589
10.60032	104805
10.60845	95160
10.61657	93588
10.62468	89729
10.63282	85983
10.64093	84502
10.64905	78566
10.65718	80607
10.66530	78358
10.67343	80320
10.68155	80012
10.68967	75941
10.69780	72973
10.70592	79607
10.71405	74063
10.72217	74348
10.73028	75512
10.73842	77374
10.74653	75492
10.75467	77411
10.76278	77518
10.77090	76746
10.77903	70271
10.78715	64678
10.79527	61476
10.80340	62265
10.81152	62515
10.81965	63986
10.82777	64316
10.83588	59833
10.84402	54304
10.85213	54285
10.86027	54052
10.86838	53652
10.87650	51913
10.88463	48853
10.89275	54785
10.90087	51605
10.90900	54834
10.91712	53110
10.92525	53619
10.93337	49287
10.94148	46115
10.94962	49349
10.95773	48978
10.96587	49791
10.97398	47137
10.98210	47622
10.99023	50316
10.99835	49236
11.00648	50361
11.01460	47525
11.02272	45418
11.03085	43444
11.03897	47538
11.04708	46100
11.05522	44629
11.06333	48673
11.07147	45196
11.07958	46451
11.08770	47448
11.09583	53285
11.10395	50421
11.11208	45216
11.12020	42897
11.12832	40575
11.13645	38867
11.14457	38386
11.15270	38811
11.16082	38082
11.16893	40106
11.17707	38547
11.18518	39589
11.19330	41943
11.20143	45459
11.20955	43852
11.21768	46491
11.22580	40289
11.23392	42040
11.24205	36812
11.25017	36083
11.25830	35881
11.26642	33995
11.27453	36074
11.28267	37641
11.29078	37300
11.29890	45127
11.30703	50633
11.31515	79044
11.32328	124907
11.33140	176567
11.33952	237023
11.34765	276739
11.35577	286705
11.36390	246553
11.37202	193770
11.38013	134851
11.38827	102911
11.39638	88703
11.40452	82462
11.41263	74690
11.42075	67061
11.42888	64335
11.43700	64506
11.44512	61203
11.45325	51658
11.46137	58338
11.46950	63153
11.47762	76530
11.48573	105809
11.49387	154841
11.50198	186359
11.51012	188986
11.51823	166210
11.52635	139779
11.53448	109164
11.54260	93470
11.55073	82570
11.55885	73743
11.56697	73693
11.57510	69301
11.58322	70102
11.59133	69936
11.59947	81708
11.60758	105270
11.61572	129559
11.62383	135712
11.63195	130079
11.64008	111447
11.64820	84722
11.65633	71933
11.66445	59221
11.67257	54375
11.68070	55944
11.68882	49273
11.69693	58980
11.70507	53241
11.71318	49077
11.72132	53118
11.72943	50602
11.73755	46578
11.74568	45712
11.75380	44563
11.76193	47053
11.77005	44427
11.77817	42325
11.78630	44846
11.79442	45578
11.80255	42691
11.81067	45330
11.81878	48464
11.82692	44624
11.83503	53329
11.84315	47534
11.85128	51005
11.85940	54424
11.86753	50744
11.87565	51368
11.88377	47134
11.89190	41178
11.90002	37136
11.90815	39851
11.91627	39062
11.92438	46841
11.93252	45470
11.94063	47921
11.94877	43816
11.95688	41827
11.96500	41761
11.97313	40283
11.98125	48469
11.98937	67833
11.99750	98438
12.00562	138210
12.01375	163881
12.02187	167570
12.02998	144261
12.03812	111296
12.04623	86286
12.05437	67118
12.06248	57379
12.07060	54582
12.07873	51034
12.08685	50102
12.09497	50246
12.10310	50397
12.11122	52877
12.11935	44559
12.12747	45277
12.13558	50577
12.14372	56145
12.15183	51436
12.15997	48604
12.16808	47030
12.17620	43545
12.18433	40819
12.19245	43630
12.20058	47387
12.20870	42017
12.21682	43992
12.22495	43086
12.23307	39662
12.24118	42760
12.24932	40145
12.25743	40101
12.26557	40193
12.27368	39773
12.28180	39885
12.28993	38306
12.29805	38852
12.30618	35014
12.31430	38919
12.32242	38220
12.33055	36463
12.33867	33166
12.34678	39616
12.35492	33795
12.36303	35402
12.37117	36025
12.37928	34353
12.38740	34172
12.39553	36587
12.40365	45857
12.41178	56627
12.41990	65214
12.42802	74918
12.43615	75519
12.44427	73194
12.45240	71067
12.46052	63684
12.46863	59217
12.47677	51495
12.48488	52646
12.49300	47089
12.50113	45928
12.50925	43362
12.51738	45379
12.52550	44206
12.53362	49761
12.54175	58957
12.54987	88426
12.55800	113332
12.56612	132559
12.57423	137228
12.58237	119041
12.59048	92063
12.59862	77169
12.60673	66286
12.61485	55101
12.62298	51363
12.63110	48347
12.63922	45292
12.64735	45357
12.65547	47577
12.66360	45417
12.67172	39562
12.67983	42110
12.68797	40461
12.69608	39037
12.70422	39561
12.71233	37776
12.72045	40239
12.72858	47892
12.73670	47098
12.74482	50490
12.75295	48934
12.76107	46900
12.76920	42598
12.77732	39514
12.78543	40131
12.79357	33983
12.80168	33759
12.80982	34384
12.81793	34920
12.82605	32469
12.83418	31201
12.84230	29837
12.85043	35296
12.85855	31962
12.86667	29995
12.87480	30323
12.88292	29781
12.89103	26794
12.89917	30233
12.90728	34925
12.91542	27933
12.92353	31387
12.93165	31554
12.93978	31033
12.94790	31228
12.95603	37239
12.96415	49185
12.97227	61547
12.98040	73020
12.98852	79985
12.99665	82980
13.00477	75788
13.01288	55787
13.02102	52146
13.02913	43870
13.03725	44347
13.04538	35628
13.05350	38363
13.06163	35122
13.06975	34107
13.07787	34541
13.08600	34754
13.09412	33675
13.10225	33677
13.11037	35404
13.11848	34323
13.12662	32688
13.13473	33778
13.14285	34861
13.15098	32535
13.15910	34708
13.16723	34392
13.17535	34414
13.18347	34452
13.19160	34637
13.19972	36272
13.20785	39763
13.21597	35070
13.22408	38712
13.23222	36199
13.24033	40695
13.24847	36565
13.25658	34372
13.26470	34917
13.27283	32883
13.28095	30929
13.28907	30128
13.29720	28956
13.30532	30068
13.31345	32945
13.32157	29409
13.32968	35292
13.33782	30825
13.34593	31116
13.35407	30300
13.36218	36417
13.37030	32152
13.37843	30014
13.38655	34126
13.39467	29161
13.40280	27463
13.41092	26887
13.41905	27809
13.42717	28231
13.43528	28314
13.44342	28460
13.45153	30931
13.45967	25439
13.46778	31336
13.47590	26492
13.48403	27775
13.49215	29359
13.50028	28795
13.50840	29643
13.51652	31539
13.52465	31283
13.53277	30310
13.54088	32129
13.54902	34619
13.55713	30160
13.56527	34352
13.57338	31331
13.58150	31033
13.58963	36111
13.59775	45367
13.60588	65939
13.61400	104835
13.62212	127485
13.63025	152974
13.63837	134183
13.64650	112435
13.65462	78654
13.66273	60391
13.67087	50381
13.67898	42348
13.68710	39318
13.69523	35841
13.70335	37441
13.71148	35211
13.71960	36130
13.72772	38049
13.73585	62721
13.74397	108047
13.75210	238734
13.76022	483570
13.76833	872792
13.77647	1227835
13.78458	1431636
13.79272	1373058
13.80083	1075176
13.80895	782407
13.81708	544901
13.82520	437351
13.83332	378451
13.84145	365115
13.84957	339595
13.85770	290412
13.86582	248584
13.87393	205254
13.88207	179797
13.89018	155129
13.89832	140095
13.90643	130912
13.91455	115127
13.92268	116018
13.93080	103539
13.93892	100893
13.94705	94470
13.95517	91386
13.96330	94349
13.97142	107352
13.97953	106410
13.98767	111589
13.99578	100543
14.00392	100795
14.01203	90926
14.02015	86007
14.02828	83708
14.03640	82523
14.04453	72822
14.05265	74382
14.06077	71906
14.06890	75189
14.07702	78940
14.08513	70610
14.09327	68778
14.10138	68170
14.10952	67150
14.11763	64417
14.12575	61248
14.13388	63838
14.14200	68913
14.15013	71548
14.15825	71641
14.16637	75024
14.17450	85187
14.18262	122554
14.19073	168991
14.19887	228266
14.20698	273841
14.21512	278288
14.22323	246172
14.23135	216717
14.23948	181266
14.24760	157400
14.25573	154490
14.26385	134070
14.27197	123654
14.28010	108863
14.28822	99971
14.29635	97774
14.30447	88260
14.31258	80890
14.32072	76811
14.32883	73495
14.33695	70701
14.34508	67613
14.35320	63343
14.36133	54431
14.36945	56951
14.37757	47212
14.38570	57257
14.39382	83613
14.40195	135065
14.41007	219238
14.41818	329572
14.42632	432270
14.43443	431990
14.44257	351724
14.45068	253585
14.45880	169752
14.46693	123635
14.47505	96165
14.48317	87965
14.49130	76612
14.49942	78982
14.50755	67274
14.51567	68813
14.52378	60690
14.53192	63555
14.54003	61850
14.54817	58028
14.55628	53793
14.56440	54981
14.57253	57059
14.58065	48299
14.58877	47800
14.59690	45132
14.60502	42684
14.61315	43851
14.62127	38904
14.62938	41743
14.63752	44165
14.64563	43695
14.65377	38715
14.66188	41550
14.67000	37984
14.67813	38788
14.68625	41889
14.69438	37740
14.70250	35994
14.71062	43190
14.71875	39535
14.72687	37464
14.73498	40556
14.74312	42715
14.75123	40317
14.75937	38072
14.76748	41293
14.77560	43818
14.78373	52648
14.79185	80722
14.79998	175208
14.80810	417830
14.81622	905812
14.82435	1600717
14.83247	2268166
14.84060	2501310
14.84872	2185857
14.85683	1660788
14.86497	1050825
14.87308	667839
14.88120	427466
14.88933	305504
14.89745	242974
14.90558	201509
14.91370	169432
14.92182	150028
14.92995	141490
14.93807	132485
14.94620	113267
14.95432	112342
14.96243	101319
14.97057	100289
14.97868	100254
14.98680	97331
14.99493	90202
15.00305	94546
15.01118	82750
15.01930	82658
15.02742	78943
15.03555	71702
15.04367	69614
15.05180	71535
15.05992	67741
15.06803	62693
15.07617	62798
15.08428	63478
15.09242	65293
15.10053	57701
15.10865	56070
15.11678	58019
15.12490	62750
15.13302	63690
15.14115	66765
15.14927	73705
15.15740	73567
15.16552	68251
15.17363	59512
15.18177	56154
15.18988	51317
15.19802	46719
15.20613	45793
15.21425	45589
15.22238	43710
15.23050	38914
15.23862	42560
15.24675	40876
15.25487	42365
15.26300	40425
15.27112	37192
15.27923	35043
15.28737	38508
15.29548	38870
15.30362	38898
15.31173	39208
15.31985	39088
15.32798	37252
15.33610	33386
15.34423	36022
15.35235	33507
15.36047	30253
15.36860	32645
15.37672	36527
15.38483	34386
15.39297	39125
15.40108	34389
15.40922	33792
15.41733	36813
15.42545	32613
15.43358	35198
15.44170	31793
15.44983	31943
15.45795	33517
15.46607	37745
15.47420	39690
15.48232	49231
15.49045	61202
15.49857	72407
15.50668	79792
15.51482	80241
15.52293	81093
15.53105	82565
15.53918	84354
15.54730	78900
15.55543	79838
15.56355	75485
15.57167	64492
15.57980	53944
15.58792	46928
15.59605	41799
15.60417	42581
15.61228	40547
15.62042	39961
15.62853	37153
15.63665	36818
15.64478	35042
15.65290	35876
15.66103	35737
15.66915	38514
15.67727	35539
15.68540	33636
15.69352	34160
15.70165	34365
15.70977	31239
15.71788	35171
15.72602	35140
15.73413	34747
15.74227	38789
15.75038	42790
15.75850	58364
15.76663	86425
15.77475	141583
15.78287	207457
15.79100	258800
15.79912	268014
15.80725	235119
15.81537	185326
15.82348	139351
15.83162	100871
15.83973	75963
15.84787	65870
15.85598	57693
15.86410	56682
15.87223	49290
15.88035	50556
15.88848	48280
15.89660	44728
15.90472	47629
15.91285	44701
15.92097	46190
15.92908	43748
15.93722	44437
15.94533	47863
15.95347	49273
15.96158	55079
15.96970	70327
15.97783	78915
15.98595	90127
15.99408	83218
16.00220	76328
16.01032	70338
16.01845	70175
16.02657	71783
16.03468	63842
16.04282	63778
16.05093	61561
16.05907	54215
16.06718	46264
16.07530	42894
16.08343	43276
16.09155	40738
16.09968	39869
16.10780	39924
16.11592	40719
16.12405	40148
16.13217	45417
16.14030	43918
16.14842	45497
16.15653	44715
16.16467	46210
16.17278	40970
16.18090	40266
16.18903	43915
16.19715	41063
16.20528	37402
16.21340	43368
16.22152	39107
16.22965	43224
16.23777	39243
16.24590	38385
16.25402	38523
16.26213	34026
16.27027	36928
16.27838	36553
16.28650	39240
16.29463	39989
16.30275	43395
16.31088	43647
16.31900	38853
16.32712	39003
16.33525	37147
16.34337	43300
16.35150	45472
16.35962	55641
16.36773	68978
16.37587	87276
16.38398	94956
16.39212	81730
16.40023	76389
16.40835	68431
16.41648	56685
16.42460	50205
16.43272	44004
16.44085	48740
16.44897	60244
16.45710	93373
16.46522	156971
16.47333	245619
16.48147	356437
16.48958	380352
16.49772	366744
16.50583	283117
16.51395	196648
16.52208	136655
16.53020	96739
16.53833	86358
16.54645	66745
16.55457	66351
16.56270	59679
16.57082	57745
16.57893	59935
16.58707	62290
16.59518	62903
16.60332	72226
16.61143	74080
16.61955	71682
16.62768	76876
16.63580	76315
16.64393	68527
16.65205	58398
16.66017	50521
16.66830	46973
16.67642	44586
16.68453	45058
16.69267	42912
16.70078	42032
16.70892	42333
16.71703	42984
16.72515	39342
16.73328	38374
16.74140	40715
16.74953	41214
16.75765	43152
16.76577	41646
16.77390	44656
16.78202	44680
16.79015	40165
16.79827	40920
16.80638	38441
16.81452	37502
16.82263	36799
16.83075	38052
16.83888	35296
16.84700	34053
16.85513	33818
16.86325	31525
16.87137	32682
16.87950	33470
16.88762	31825
16.89575	30133
16.90387	33398
16.91198	34623
16.92012	39671
16.92823	34205
16.93637	33563
16.94448	31603
16.95260	33628
16.96073	29950
16.96885	33034
16.97697	31005
16.98510	32263
16.99322	33990
17.00135	33261
17.00947	31673
17.01758	34861
17.02572	37175
17.03383	36780
17.04197	39048
17.05008	42634
17.05820	48301
17.06633	44041
17.07445	42167
17.08257	40531
17.09070	37930
17.09882	38228
17.10695	35216
17.11507	37154
17.12318	33946
17.13132	39575
17.13943	42553
17.14757	36325
17.15568	33613
17.16380	35007
17.17193	39829
17.18005	34607
17.18818	37926
17.19630	34095
17.20442	33390
17.21255	32705
17.22067	32646
17.22878	31764
17.23692	31050
17.24503	34376
17.25317	32194
17.26128	34774
17.26940	35239
17.27753	33308
17.28565	29455
17.29378	35571
17.30190	33442
17.31002	33622
17.31815	36517
17.32627	38794
17.33440	41561
17.34252	49390
17.35063	52234
17.35877	53486
17.36688	48996
17.37500	49331
17.38313	48468
17.39125	43433
17.39938	44703
17.40750	44048
17.41562	46956
17.42375	43722
17.43187	43053
17.44000	43269
17.44812	47899
17.45623	42043
17.46437	40512
17.47248	39676
17.48060	36577
17.48873	36639
17.49685	35447
17.50498	36961
17.51310	38176
17.52122	32326
17.52935	34351
17.53747	34107
17.54560	38952
17.55372	44993
17.56183	58769
17.56997	89144
17.57808	161519
17.58622	294392
17.59433	492384
17.60245	728650
17.61058	932166
17.61870	957098
17.62682	833960
17.63495	633102
17.64307	448230
17.65120	316172
17.65932	229968
17.66743	186358
17.67557	156880
17.68368	134182
17.69182	127730
17.69993	108984
17.70805	100892
17.71618	93627
17.72430	79471
17.73242	78061
17.74055	74449
17.74867	68046
17.75680	65583
17.76492	65954
17.77303	59550
17.78117	62965
17.78928	70294
17.79742	85091
17.80553	121319
17.81365	192491
17.82178	287591
17.82990	366742
17.83803	395895
17.84615	373442
17.85427	292669
17.86240	224606
17.87052	171286
17.87863	133703
17.88677	112995
17.89488	99293
17.90302	87488
17.91113	83833
17.91925	74237
17.92738	70727
17.93550	64925
17.94363	64922
17.95175	64565
17.95987	56964
17.96800	57353
17.97612	53843
17.98425	52023
17.99237	55793
18.00048	54496
18.00862	54814
18.01673	63191
18.02485	67800
18.03298	69563
18.04110	86126
18.04923	104288
18.05735	172295
18.06547	353888
18.07360	742161
18.08172	1373906
18.08985	2072989
18.09797	2595731
18.10608	2608390
18.11422	2252628
18.12233	1688477
18.13045	1164547
18.13858	806054
18.14670	616417
18.15483	505834
18.16295	424640
18.17107	371018
18.17920	332267
18.18732	301970
18.19545	283539
18.20357	253074
18.21168	221326
18.21982	207292
18.22793	193970
18.23607	186770
18.24418	177226
18.25230	170271
18.26043	155335
18.26855	142363
18.27667	125067
18.28480	106517
18.29292	89237
18.30105	77523
18.30917	67725
18.31728	61561
18.32542	57675
18.33353	55332
18.34167	51767
18.34978	51876
18.35790	52449
18.36603	51805
18.37415	51754
18.38228	47972
18.39040	54518
18.39852	47967
18.40665	48819
18.41477	50839
18.42288	54875
18.43102	54385
18.43913	77018
18.44727	111436
18.45538	180825
18.46350	262858
18.47163	355494
18.47975	453557
18.48788	514116
18.49600	515480
18.50412	479822
18.51225	426250
18.52037	364840
18.52848	323527
18.53662	307681
18.54473	285974
18.55287	271598
18.56098	270754
18.56910	268081
18.57723	265745
18.58535	258070
18.59348	252016
18.60160	250139
18.60972	249959
18.61785	248640
18.62597	247593
18.63410	250460
18.64222	239536
18.65033	233358
18.65847	229110
18.66658	224710
18.67470	220270
18.68283	218871
18.69095	216805
18.69908	213337
18.70720	212560
18.71532	214613
18.72345	206640
18.73157	208454
18.73970	206602
18.74782	202420
18.75593	204008
18.76407	198407
18.77218	190809
18.78030	193461
18.78843	183967
18.79655	191945
18.80468	186513
18.81280	187989
18.82092	178942
18.82905	185564
18.83717	183870
18.84530	182891
18.85342	174209
18.86153	176962
18.86967	170585
18.87778	178641
18.88592	171597
18.89403	174706
18.90215	164158
18.91028	171465
18.91840	164790
18.92652	162016
18.93465	169760
18.94277	158168
18.95090	167363
18.95902	167173
18.96713	165109
18.97527	163022
18.98338	159931
18.99152	162085
18.99963	156942
19.00775	153870
19.01588	149583
19.02400	146013
19.03213	141203
19.04025	147602
19.04837	144999
19.05650	152024
19.06462	161110
19.07273	195137
19.08087	253980
19.08898	367651
19.09712	509956
19.10523	650539
19.11335	701271
19.12148	659082
19.12960	552638
19.13773	438682
19.14585	326200
19.15397	260526
19.16210	222457
19.17022	191188
19.17835	167094
19.18647	164914
19.19458	161178
19.20272	147588
19.21083	147220
19.21895	140464
19.22708	145439
19.23520	135441
19.24333	137963
19.25145	130306
19.25957	130166
19.26770	130025
19.27582	132223
19.28395	129699
19.29207	136318
19.30018	139395
19.30832	139564
19.31643	133817
19.32455	131593
19.33268	129669
19.34080	130829
19.34893	126501
19.35705	149413
19.36517	170324
19.37330	196200
19.38142	213625
19.38955	198971
19.39767	183011
19.40578	154229
19.41392	140888
19.42203	125237
19.43017	121036
19.43828	118458
19.44640	111069
19.45453	116506
19.46265	115285
19.47077	115982
19.47890	123696
19.48702	142351
19.49515	176188
19.50327	206359
19.51138	231969
19.51952	237232
19.52763	209587
19.53577	176050
19.54388	151774
19.55200	126051
19.56013	118922
19.56825	105298
19.57637	106682
19.58450	98625
19.59262	94629
19.60075	94352
19.60887	91888
19.61698	91485
19.62512	88100
19.63323	90955
19.64137	103725
19.64948	116341
19.65760	148864
19.66573	176236
19.67385	204353
19.68198	222475
19.69010	230844
19.69822	221479
19.70635	210550
19.71447	192106
19.72258	173342
19.73072	154704
19.73883	138629
19.74697	130409
19.75508	112675
19.76320	114736
19.77133	104435
19.77945	106226
19.78758	107559
19.79570	110175
19.80382	107874
19.81195	111782
19.82007	107369
19.82820	104186
19.83632	98527
19.84443	111397
19.85257	157228
19.86068	336236
19.86880	780586
19.87693	1776431
19.88505	3398935
19.89318	5337479
19.90130	7150375
19.90942	7726879
19.91755	7066795
19.92567	5752007
19.93380	3921376
19.94192	2627228
19.95003	1726920
19.95817	1272580
19.96628	1012617
19.97440	882858
19.98253	784637
19.99065	712658
19.99878	658189
20.00690	611953
20.01502	569170
20.02315	529898
20.03127	493687
20.03940	444082
20.04752	399698
20.05563	341182
20.06377	281509
20.07188	230924
20.08002	196279
20.08813	174706
20.09625	163031
20.10438	155867
20.11250	147018
20.12062	135511
20.12875	129543
20.13687	129070
20.14500	119825
20.15312	121941
20.16123	129290
20.16937	128472
20.17748	134440
20.18562	141678
20.19373	148614
20.20185	152261
20.20998	150101
20.21810	142988
20.22623	138904
20.23435	125567
20.24247	126710
20.25060	129030
20.25872	158516
20.26683	175290
20.27497	207089
20.28308	226093
20.29122	232717
20.29933	228640
20.30745	199663
20.31558	173986
20.32370	162044
20.33183	132743
20.33995	123908
20.34807	105602
20.35620	99759
20.36432	84444
20.37243	82283
20.38057	75844
20.38868	75348
20.39682	73032
20.40493	74562
20.41305	77879
20.42118	71202
20.42930	74329
20.43743	78901
20.44555	82852
20.45367	89079
20.46180	83935
20.46992	83115
20.47805	82399
20.48617	75036
20.49428	76639
20.50242	68640
20.51053	67024
20.51865	64208
20.52678	65602
20.53490	63930
20.54303	66222
20.55115	66553
20.55927	72662
20.56740	65770
20.57552	66447
20.58365	63730
20.59177	58056
20.59988	60460
20.60802	61269
20.61613	63751
20.62425	62493
20.63238	60440
20.64050	62064
20.64863	65764
20.65675	66979
20.66487	65566
20.67300	61813
20.68112	62862
20.68925	63033
20.69737	58974
20.70548	65617
20.71362	56673
20.72173	57348
20.72987	61419
20.73798	58286
20.74610	58260
20.75423	64880
20.76235	63049
20.77047	67823
20.77860	73218
20.78672	86547
20.79485	104456
20.80297	146144
20.81108	188214
20.81922	234120
20.82733	243769
20.83547	238364
20.84358	195432
20.85170	143777
20.85983	113429
20.86795	90566
20.87608	78604
20.88420	74370
20.89232	70288
20.90045	71353
20.90857	70133
20.91668	67483
20.92482	70588
20.93293	63883
20.94107	63140
20.94918	61773
20.95730	67281
20.96543	63426
20.97355	60308
20.98168	59268
20.98980	57040
20.99792	58786
21.00605	59904
21.01417	63409
21.02228	57821
21.03042	56179
21.03853	63357
21.04667	59472
21.05478	57671
21.06290	58439
21.07103	58008
21.07915	56392
21.08728	56607
21.09540	54206
21.10352	55626
21.11165	59754
21.11977	56544
21.12790	60832
21.13602	57905
21.14413	62426
21.15227	69661
21.16038	72859
21.16850	78524
21.17663	72924
21.18475	72890
21.19288	66274
21.20100	63434
21.20912	57309
21.21725	52758
21.22537	55099
21.23350	54986
21.24162	51192
21.24973	51200
21.25787	47905
21.26598	50703
21.27412	49316
21.28223	51472
21.29035	45617
21.29848	47411
21.30660	46646
21.31472	44042
21.32285	43505
21.33097	45615
21.33910	50018
21.34722	46744
21.35533	48218
21.36347	44861
21.37158	45177
21.37972	51213
21.38783	55124
21.39595	64065
21.40408	80070
21.41220	86860
21.42032	96538
21.42845	87407
21.43657	76164
21.44470	68716
21.45282	68372
21.46093	55435
21.46907	59911
21.47718	50257
21.48532	48296
21.49343	48799
21.50155	48776
21.50968	42676
21.51780	47569
21.52593	47408
21.53405	46333
21.54217	45567
21.55030	42927
21.55842	43686
21.56653	44287
21.57467	51950
21.58278	54609
21.59092	59523
21.59903	68652
21.60715	71870
21.61528	68174
21.62340	68406
21.63153	67644
21.63965	68911
21.64777	72850
21.65590	70626
21.66402	76068
21.67213	77098
21.68027	79778
21.68838	76155
21.69652	75972
21.70463	72979
21.71275	66275
21.72088	60438
21.72900	58322
21.73713	55344
21.74525	53578
21.75337	51819
21.76150	51622
21.76962	50191
21.77775	50030
21.78587	52207
21.79398	51598
21.80212	50466
21.81023	50967
21.81835	54331
21.82648	56631
21.83460	66361
21.84273	65743
21.85085	67346
21.85897	64209
21.86710	59089
21.87522	59994
21.88335	54957
21.89147	49930
21.89958	51441
21.90772	51621
21.91583	50148
21.92397	50812
21.93208	48207
21.94020	45469
21.94833	53438
21.95645	58613
21.96457	67548
21.97270	66629
21.98082	73668
21.98895	70210
21.99707	75345
22.00518	76448
22.01332	81241
22.02143	81526
22.02957	83663
22.03768	87264
22.04580	86256
22.05393	83209
22.06205	85280
22.07017	86445
22.07830	86935
22.08642	87361
22.09455	87483
22.10267	85337
22.11078	86424
22.11892	87845
22.12703	89352
22.13517	83179
22.14328	83759
22.15140	84083
22.15953	77683
22.16765	76730
22.17578	69414
22.18390	60881
22.19202	55629
22.20015	54658
22.20827	57649
22.21638	52736
22.22452	53804
22.23263	55378
22.24077	55355
22.24888	52901
22.25700	49453
22.26513	49567
22.27325	48416
22.28138	53614
22.28950	49777
22.29762	53571
22.30575	53675
22.31387	57948
22.32200	57474
22.33012	56805
22.33823	56849
22.34637	58891
22.35448	54726
22.36260	51556
22.37073	50523
22.37885	49882
22.38698	53717
22.39510	59370
22.40322	77382
22.41135	90842
22.41947	101900
22.42760	108668
22.43572	106962
22.44383	96357
22.45197	87679
22.46008	77923
22.46820	70281
22.47633	79524
22.48445	103132
22.49258	130451
22.50070	159684
22.50882	174312
22.51695	179733
22.52507	178676
22.53320	176575
22.54132	170868
22.54943	167180
22.55757	167166
22.56568	161136
22.57382	155442
22.58193	162515
22.59005	152086
22.59818	151539
22.60630	152179
22.61442	153966
22.62255	154698
22.63067	153640
22.63880	155617
22.64692	158535
22.65503	156158
22.66317	155245
22.67128	158804
22.67942	154404
22.68753	152738
22.69565	158528
22.70378	165994
22.71190	176547
22.72003	165722
22.72815	170246
22.73627	159285
22.74440	163799
22.75252	151657
22.76063	147973
22.76877	148823
22.77688	155417
22.78502	162102
22.79313	169115
22.80125	189826
22.80938	206378
22.81750	212613
22.82563	199084
22.83375	188823
22.84187	171740
22.85000	166308
22.85812	155286
22.86623	143561
22.87437	145424
22.88248	153413
22.89062	158930
22.89873	171982
22.90685	195921
22.91498	228048
22.92310	259087
22.93123	270534
22.93935	265419
22.94747	230641
22.95560	206518
22.96372	180479
22.97185	158429
22.97997	145025
22.98808	140091
22.99622	129374
23.00433	124947
23.01245	115867
23.02058	114508
23.02870	110345
23.03683	105957
23.04495	108672
23.05307	107416
23.06120	106835
23.06932	102836
23.07745	102577
23.08557	98753
23.09368	102483
23.10182	101928
23.10993	95502
23.11805	96657
23.12618	96137
23.13430	95338
23.14243	93301
23.15055	91996
23.15867	92541
23.16680	91745
23.17492	91046
23.18305	89011
23.19117	90415
23.19928	83233
23.20742	82561
23.21553	84879
23.22367	85945
23.23178	82820
23.23990	80700
23.24803	89704
23.25615	89386
23.26427	91784
23.27240	93555
23.28052	95181
23.28865	89485
23.29677	90118
23.30488	86744
23.31302	89598
23.32113	89404
23.32927	95282
23.33738	100788
23.34550	119239
23.35363	161861
23.36175	231536
23.36988	313641
23.37800	430754
23.38612	581670
23.39425	711750
23.40237	837720
23.41048	896686
23.41862	966398
23.42673	989658
23.43487	975277
23.44298	922996
23.45110	888952
23.45923	847335
23.46735	780756
23.47548	726122
23.48360	656905
23.49172	605303
23.49985	571243
23.50797	516570
23.51608	479425
23.52422	436478
23.53233	407759
23.54047	375583
23.54858	353417
23.55670	346423
23.56483	335583
23.57295	325267
23.58108	336884
23.58920	360172
23.59732	390039
23.60545	409270
23.61357	404284
23.62170	368792
23.62982	326774
23.63793	288375
23.64607	255604
23.65418	238586
23.66230	242928
23.67043	249529
23.67855	227472
23.68668	208476
23.69480	185448
23.70292	172139
23.71105	159523
23.71917	139825
23.72730	134418
23.73542	133010
23.74353	145190
23.75167	159662
23.75978	226621
23.76792	377220
23.77603	632572
23.78415	1003263
23.79228	1348997
23.80040	1569043
23.80852	1542997
23.81665	1372416
23.82477	1151096
23.83290	927967
23.84102	744169
23.84913	585776
23.85727	487365
23.86538	418247
23.87352	362526
23.88163	309722
23.88975	286211
23.89788	266008
23.90600	242003
23.91412	244077
23.92225	231878
23.93037	219593
23.93850	199258
23.94662	193818
23.95473	174020
23.96287	168088
23.97098	158052
23.97912	152489
23.98723	149856
23.99535	139926
24.00348	144429
24.01160	153204
24.01973	166618
24.02785	190288
24.03597	204404
24.04410	212543
24.05222	193350
24.06033	168890
24.06847	150947
24.07658	125488
24.08472	119139
24.09283	112275
24.10095	103309
24.10908	104888
24.11720	105133
24.12533	104854
24.13345	101553
24.14157	103448
24.14970	105013
24.15782	97100
24.16593	105061
24.17407	101838
24.18218	98327
24.19032	102040
24.19843	108789
24.20655	115710
24.21468	138933
24.22280	170847
24.23093	192228
24.23905	204195
24.24717	206396
24.25530	209443
24.26342	222443
24.27155	213181
24.27967	222907
24.28778	229461
24.29592	232360
24.30403	231988
24.31215	229407
24.32028	229585
24.32840	227177
24.33653	227791
24.34465	231913
24.35277	225869
24.36090	228809
24.36902	238404
24.37715	243505
24.38527	257004
24.39338	269752
24.40152	278997
24.40963	280492
24.41777	264465
24.42588	233729
24.43400	225696
24.44213	216354
24.45025	225541
24.45837	230177
24.46650	237609
24.47462	248114
24.48275	280997
24.49087	290410
24.49898	289177
24.50712	296532
24.51523	298298
24.52337	283215
24.53148	280050
24.53960	283095
24.54773	286216
24.55585	275008
24.56398	278245
24.57210	266621
24.58022	260682
24.58835	247140
24.59647	236854
24.60458	232414
24.61272	228346
24.62083	223593
24.62897	222377
24.63708	222845
24.64520	227238
24.65333	218804
24.66145	219549
24.66958	215656
24.67770	220341
24.68582	216753
24.69395	211164
24.70207	213431
24.71018	215232
24.71832	207819
24.72643	200353
24.73457	206471
24.74268	206047
24.75080	204774
24.75893	205281
24.76705	198525
24.77518	202731
24.78330	203068
24.79142	195258
24.79955	202154
24.80767	195191
24.81580	189623
24.82392	201316
24.83203	208113
24.84017	223218
24.84828	248982
24.85640	297470
24.86453	366175
24.87265	464162
24.88078	568462
24.88890	663991
24.89702	712258
24.90515	704288
24.91327	601717
24.92140	471845
24.92952	363597
24.93763	281719
24.94577	230765
24.95388	197630
24.96200	169425
24.97013	157114
24.97825	142122
24.98638	123573
24.99450	115435
25.00262	107596
25.01075	93135
25.01887	89547
25.02700	86624
25.03512	83607
25.04323	80088
25.05137	76123
25.05948	81140
25.06762	80700
25.07573	79497
25.08385	84923
25.09198	96394
25.10010	120297
25.10822	208683
25.11635	410902
25.12447	773699
25.13260	1343885
25.14072	1930953
25.14883	2376783
25.15697	2401282
25.16508	2063859
25.17322	1463269
25.18133	948840
25.18945	579257
25.19758	334602
25.20570	216401
25.21383	159903
25.22195	131231
25.23007	119044
25.23820	130017
25.24632	140998
25.25443	173760
25.26257	206525
25.27068	232544
25.27882	255525
25.28693	235734
25.29505	214184
25.30318	173768
25.31130	132991
25.31943	118494
25.32755	101755
25.33567	91375
25.34380	84026
25.35192	77516
25.36003	71586
25.36817	68079
25.37628	72628
25.38442	70475
25.39253	84306
25.40065	103785
25.40878	136162
25.41690	174966
25.42503	205994
25.43315	232609
25.44127	247214
25.44940	252962
25.45752	256994
25.46565	271937
25.47377	271821
25.48188	278583
25.49002	282632
25.49813	275467
25.50625	272845
25.51438	269919
25.52250	277051
25.53063	277124
25.53875	272622
25.54687	277537
25.55500	273722
25.56312	267856
25.57125	261970
25.57937	267839
25.58748	261568
25.59562	264361
25.60373	262880
25.61187	261962
25.61998	261198
25.62810	251027
25.63623	249092
25.64435	241466
25.65247	238583
25.66060	236064
25.66872	243201
25.67685	229997
25.68497	235636
25.69308	224548
25.70122	230004
25.70933	226286
25.71747	223520
25.72558	214791
25.73370	215099
25.74183	210708
25.74995	221231
25.75807	210064
25.76620	208195
25.77432	202443
25.78245	201108
25.79057	203147
25.79868	203866
25.80682	201091
25.81493	197148
25.82307	200364
25.83118	201446
25.83930	196967
25.84743	194880
25.85555	190292
25.86368	187052
25.87180	185514
25.87992	186923
25.88805	179445
25.89617	180022
25.90428	168260
25.91242	167155
25.92053	165364
25.92867	158683
25.93678	163169
25.94490	161874
25.95303	158068
25.96115	163262
25.96928	150534
25.97740	154081
25.98552	148203
25.99365	146090
26.00177	149485
26.00988	145237
26.01802	148074
26.02613	139702
26.03427	135230
26.04238	138583
26.05050	134376
26.05863	136855
26.06675	133894
26.07488	135158
26.08300	129186
26.09112	124698
26.09925	122573
26.10737	128105
26.11550	125583
26.12362	125081
26.13173	122406
26.13987	124897
26.14798	127181
26.15610	127000
26.16423	128179
26.17235	126210
26.18048	120997
26.18860	120177
26.19672	115519
26.20485	110048
26.21297	115727
26.22110	108754
26.22922	108616
26.23733	105652
26.24547	102840
26.25358	102193
26.26172	98942
26.26983	100806
26.27795	101361
26.28608	96324
26.29420	97958
26.30232	100561
26.31045	96677
26.31857	93133
26.32670	91641
26.33482	86929
26.34293	86620
26.35107	89053
26.35918	91344
26.36732	92133
26.37543	90806
26.38355	94875
26.39168	94079
26.39980	93938
26.40792	96212
26.41605	91473
26.42417	96313
26.43230	87525
26.44042	85962
26.44853	77125
26.45667	83565
26.46478	81813
26.47292	83749
26.48103	82861
26.48915	84932
26.49728	78425
26.50540	79902
26.51353	79142
26.52165	71088
26.52977	75779
26.53790	75060
26.54602	75373
26.55413	70551
26.56227	67183
26.57038	68852
26.57852	67561
26.58663	70570
26.59475	66357
26.60288	66631
26.61100	65642
26.61913	64675
26.62725	63966
26.63537	68028
26.64350	63672
26.65162	66519
26.65975	70042
26.66787	73860
26.67598	73605
26.68412	77839
26.69223	72240
26.70035	69579
26.70848	66879
26.71660	66751
26.72473	65794
26.73285	63503
26.74097	58992
26.74910	60669
26.75722	60183
26.76535	58293
26.77347	62578
26.78158	61321
26.78972	63145
26.79783	64647
26.80595	68868
26.81408	68320
26.82220	69726
26.83033	59754
26.83845	63387
26.84657	60147
26.85470	60560
26.86282	54825
26.87095	58476
26.87907	54379
26.88718	56883
26.89532	56582
26.90343	54649
26.91157	55460
26.91968	51894
26.92780	51193
26.93593	52019
26.94405	53328
26.95217	52914
26.96030	52776
26.96842	61771
26.97655	71392
26.98467	82520
26.99278	100755
27.00092	129908
27.00903	166347
27.01717	202554
27.02528	231562
27.03340	239327
27.04153	242198
27.04965	221594
27.05778	204481
27.06590	175027
27.07402	154610
27.08215	133208
27.09027	125286
27.09838	110220
27.10652	105893
27.11463	102859
27.12277	103535
27.13088	94656
27.13900	90325
27.14713	94049
27.15525	84804
27.16338	80993
27.17150	81850
27.17962	79301
27.18775	82739
27.19587	81532
27.20398	77566
27.21212	71942
27.22023	75755
27.22837	73639
27.23648	75225
27.24460	68060
27.25273	64474
27.26085	69709
27.26898	66577
27.27710	61448
27.28522	57921
27.29335	58629
27.30147	58230
27.30960	56880
27.31772	54763
27.32583	56825
27.33397	58657
27.34208	57504
27.35020	57272
27.35833	55890
27.36645	56462
27.37458	59753
27.38270	57301
27.39082	57228
27.39895	54638
27.40707	55206
27.41520	52566
27.42332	52639
27.43143	51413
27.43957	54001
27.44768	49903
27.45580	53490
27.46393	51375
27.47205	49828
27.48018	48665
27.48830	45781
27.49642	46711
27.50455	48313
27.51267	51289
27.52080	53471
27.52892	51500
27.53703	51890
27.54517	51875
27.55328	50787
27.56142	56511
27.56953	50838
27.57765	56932
27.58578	59424
27.59390	69408
27.60202	72326
27.61015	73508
27.61827	67039
27.62640	62798
27.63452	58852
27.64263	53047
27.65077	51201
27.65888	50897
27.66702	48510
27.67513	51486
27.68325	55974
27.69138	51263
27.69950	46635
27.70763	50855
27.71575	50465
27.72387	47135
27.73200	48074
27.74012	45586
27.74823	44124
27.75637	44505
27.76448	44110
27.77262	47588
27.78073	44883
27.78885	48141
27.79698	47771
27.80510	47022
27.81323	51305
27.82135	46569
27.82947	43881
27.83760	44413
27.84572	45736
27.85383	46487
27.86197	45530
27.87008	42750
27.87822	47058
27.88633	42715
27.89445	41615
27.90258	45930
27.91070	40827
27.91883	47822
27.92695	42350
27.93507	41417
27.94320	39486
27.95132	38294
27.95945	37109
27.96757	39688
27.97568	37019
27.98382	42022
27.99193	43055
28.00005	40396
28.00818	44268
28.01630	48098
28.02443	50642
28.03255	52235
28.04067	57211
28.04880	58299
28.05692	59074
28.06505	58952
28.07317	57673
28.08128	57533
28.08942	55296
28.09753	55134
28.10567	50866
28.11378	49943
28.12190	43796
28.13003	45090
28.13815	42879
28.14627	40641
28.15440	44164
28.16252	42182
28.17065	38113
28.17877	46194
28.18688	45464
28.19502	56493
28.20313	59187
28.21127	70698
28.21938	75202
28.22750	74861
28.23563	70381
28.24375	67031
28.25187	64366
28.26000	58135
28.26812	51205
28.27625	46029
28.28437	46905
28.29248	42143
28.30062	45818
28.30873	48101
28.31687	57673
28.32498	58339
28.33310	59222
28.34123	62396
28.34935	64884
28.35748	68812
28.36560	74197
28.37372	78110
28.38185	81078
28.38997	86720
28.39808	86310
28.40622	88568
28.41433	87370
28.42247	86129
28.43058	85457
28.43870	82789
28.44683	77604
28.45495	77517
28.46308	69302
28.47120	70148
28.47932	67220
28.48745	60744
28.49557	59480
28.50368	56757
28.51182	61380
28.51993	56249
28.52807	54323
28.53618	54661
28.54430	59211
28.55243	52267
28.56055	51628
28.56868	50573
28.57680	48283
28.58492	50128
28.59305	48722
28.60117	50175
28.60930	49434
28.61742	47289
28.62553	53459
28.63367	49689
28.64178	52569
28.64990	55003
28.65803	54795
28.66615	53462
28.67428	50853
28.68240	56346
28.69052	53874
28.69865	52320
28.70677	52672
28.71490	48088
28.72302	47306
28.73113	44858
28.73927	49672
28.74738	53022
28.75552	55108
28.76363	59987
28.77175	66506
28.77988	66575
28.78800	59416
28.79612	57089
28.80425	56011
28.81237	56564
28.82050	58785
28.82862	54930
28.83673	55465
28.84487	51088
28.85298	47253
28.86112	49464
28.86923	52052
28.87735	55731
28.88548	59696
28.89360	66238
28.90172	60940
28.90985	62038
28.91797	62634
28.92610	54007
28.93422	52289
28.94233	52127
28.95047	51784
28.95858	52493
28.96672	52162
28.97483	50491
28.98295	48900
28.99108	50187
28.99920	45684
29.00733	47787
29.01545	41871
29.02357	42020
29.03170	43693
29.03982	45977
29.04793	43850
29.05607	45131
29.06418	44371
29.07232	42425
29.08043	46192
29.08855	49594
29.09668	48212
29.10480	45436
29.11293	44271
29.12105	45918
29.12917	44172
29.13730	41170
29.14542	38855
29.15355	42907
29.16167	39491
29.16978	44030
29.17792	44816
29.18603	47817
29.19415	62470
29.20228	71020
29.21040	85282
29.21853	92524
29.22665	94335
29.23477	87053
29.24290	82558
29.25102	76111
29.25915	70725
29.26727	71524
29.27538	73985
29.28352	65539
29.29163	60725
29.29975	58767
29.30788	53311
29.31600	47059
29.32413	48671
29.33225	42588
29.34037	38723
29.34850	41455
29.35662	40436
29.36475	39399
29.37287	37470
29.38098	35691
29.38912	38908
29.39723	42435
29.40537	41541
29.41348	43466
29.42160	44863
29.42973	40927
29.43785	41981
29.44597	40159
29.45410	40546
29.46222	43657
29.47035	37447
29.47847	38190
29.48658	40460
29.49472	41647
29.50283	41016
29.51097	42175
29.51908	46154
29.52720	44702
29.53533	38889
29.54345	39529
29.55157	41164
29.55970	39144
29.56782	43741
29.57595	34625
29.58407	40216
29.59218	38220
29.60032	34581
29.60843	35486
29.61657	37004
29.62468	38937
29.63280	35047
29.64093	36829
29.64905	37306
29.65718	34522
29.66530	37609
29.67342	42004
29.68155	42379
29.68967	46714
29.69778	49628
29.70592	48690
29.71403	46060
29.72217	44084
29.73028	43660
29.73840	42772
29.74653	38496
29.75465	39795
29.76278	36139
29.77090	32410
29.77902	37698
29.78715	38852
29.79527	35143
29.80340	38684
29.81152	38488
29.81963	33756
29.82777	38932
29.83588	35630
29.84400	34644
29.85213	37161
29.86025	42199
29.86838	44072
29.87650	51908
29.88462	60162
29.89275	67316
29.90087	76140
29.90900	82212
29.91712	77771
29.92523	63780
29.93337	55102
29.94148	51451
29.94962	44235
29.95773	42245
29.96585	39543
29.97398	43015
29.98210	46781
29.99022	48974
29.99835	55555
30.00647	57914
30.01460	58078
30.02272	56014
30.03083	64226
30.03897	60243
30.04708	58226
30.05522	57081
30.06333	60093
30.07145	61498
30.07958	58844
30.08770	59031
30.09582	60671
30.10395	56796
30.11207	57531
30.12020	58431
30.12832	59472
30.13643	53071
30.14457	51835
30.15268	54922
30.16082	50681
30.16893	46202
30.17705	48373
30.18518	49541
30.19330	48900
30.20143	47676
30.20955	45665
30.21767	45430
30.22580	43396
30.23392	42584
30.24203	41962
30.25017	39553
30.25828	42599
30.26642	45826
30.27453	43439
30.28265	42743
30.29078	40946
30.29890	44993
30.30703	38656
30.31515	40371
30.32327	37406
30.33140	41718
30.33952	40069
30.34763	43059
30.35577	40697
30.36388	42075
30.37202	40537
30.38013	39478
30.38825	43430
30.39638	40645
30.40450	38337
30.41263	35917
30.42075	36875
30.42887	35408
30.43700	39540
30.44512	35511
30.45325	34178
30.46137	35213
30.46948	35874
30.47762	37752
30.48573	34479
30.49385	36778
30.50198	36495
30.51010	36796
30.51823	37489
30.52635	37606
30.53447	35970
30.54260	38599
30.55072	37899
30.55885	37856
30.56697	39530
30.57508	35181
30.58322	38193
30.59133	36198
30.59947	38078
30.60758	37187
30.61570	34304
30.62383	36029
30.63195	33178
30.64007	32301
30.64820	36121
30.65632	34040
30.66445	38552
30.67257	33867
30.68068	32777
30.68882	33523
30.69693	34073
30.70507	35975
30.71318	35733
30.72130	35407
30.72943	38832
30.73755	34048
30.74567	33982
30.75380	35359
30.76192	34159
30.77005	37611
30.77817	46745
30.78628	52597
30.79442	67487
30.80253	86575
30.81067	92209
30.81878	93116
30.82690	84433
30.83503	71275
30.84315	63484
30.85128	52004
30.85940	45612
30.86752	46362
30.87565	46885
30.88377	47382
30.89188	45374
30.90002	59128
30.90813	50457
30.91627	55000
30.92438	49459
30.93250	51924
30.94063	52837
30.94875	50947
30.95688	52082
30.96500	55447
30.97312	55754
30.98125	55375
30.98937	54450
30.99750	57957
31.00562	56488
31.01373	55207
31.02187	56771
31.02998	55490
31.03810	58198
31.04623	51238
31.05435	59798
31.06248	61112
31.07060	58201
31.07872	62253
31.08685	71697
31.09497	71329
31.10310	75526
31.11122	74583
31.11933	74011
31.12747	72761
31.13558	69365
31.14370	66188
31.15183	63957
31.15995	68190
31.16808	66465
31.17620	70084
31.18432	77977
31.19245	86844
31.20057	117546
31.20870	135475
31.21682	167051
31.22493	187778
31.23307	189241
31.24118	181100
31.24932	150611
31.25743	122383
31.26555	93989
31.27368	72748
31.28180	65784
31.28992	62865
31.29805	58647
31.30617	58487
31.31430	57745
31.32242	57532
31.33053	54655
31.33867	56838
31.34678	57339
31.35492	57431
31.36303	56848
31.37115	58071
31.37928	58633
31.38740	60264
31.39552	61556
31.40365	62737
31.41177	55191
31.41990	50536
31.42802	52785
31.43613	55786
31.44427	49181
31.45238	51418
31.46052	48223
31.46863	49476
31.47675	49077
31.48488	46312
31.49300	47959
31.50113	50300
31.50925	46723
31.51737	49163
31.52550	47841
31.53362	46123
31.54173	47338
31.54987	47352
31.55798	49656
31.56612	46385
31.57423	47051
31.58235	49029
31.59048	48195
31.59860	45779
31.60673	47459
31.61485	44851
31.62297	44633
31.63110	44864
31.63922	45089
31.64735	49239
31.65547	45224
31.66358	48936
31.67172	49640
31.67983	54258
31.68795	46505
31.69608	48154
31.70420	46710
31.71233	49514
31.72045	46095
31.72857	44638
31.73670	44601
31.74482	43220
31.75295	44934
31.76107	44695
31.76918	43956
31.77732	40270
31.78543	45460
31.79355	47675
31.80168	46508
31.80980	44112
31.81793	44467
31.82605	44061
31.83417	45474
31.84230	47703
31.85042	44655
31.85855	45520
31.86667	47919
31.87478	48675
31.88292	51586
31.89103	50812
31.89917	56430
31.90728	58791
31.91540	64031
31.92353	59727
31.93165	57795
31.93977	65810
31.94790	62885
31.95602	62809
31.96415	61023
31.97227	60468
31.98038	62131
31.98852	67428
31.99663	64690
32.00477	71220
32.01288	68448
32.02100	64271
32.02913	61553
32.03725	65532
32.04538	61486
32.05350	61904
32.06162	55462
32.06975	57456
32.07787	57052
32.08598	56696
32.09412	53080
32.10223	48359
32.11037	49357
32.11848	50863
32.12660	50241
32.13473	51509
32.14285	46772
32.15098	44999
32.15910	45171
32.16722	48072
32.17535	48044
32.18347	45146
32.19158	48186
32.19972	42648
32.20783	44834
32.21597	44704
32.22408	42848
32.23220	41223
32.24033	47807
32.24845	47562
32.25658	48473
32.26470	47797
32.27282	46828
32.28095	47984
32.28907	46958
32.29720	41401
32.30532	46787
32.31343	40529
32.32157	43145
32.32968	38244
32.33780	43429
32.34593	42509
32.35405	48601
32.36218	46169
32.37030	39595
32.37842	39370
32.38655	42009
32.39467	39448
32.40280	41679
32.41092	42565
32.41903	45184
32.42717	42800
32.43528	40112
32.44340	37176
32.45153	41341
32.45965	36599
32.46778	39149
32.47590	38530
32.48402	39318
32.49215	39406
32.50027	37384
32.50840	45934
32.51652	41698
32.52463	40057
32.53277	38081
32.54088	35668
32.54902	37986
32.55713	42696
32.56525	41482
32.57338	42691
32.58150	42335
32.58962	44110
32.59775	38613
32.60587	36455
32.61400	41023
32.62212	40176
32.63023	40759
32.63837	43137
32.64648	44762
32.65462	49522
32.66273	53392
32.67085	49164
32.67898	50851
32.68710	49513
32.69523	45505
32.70335	41867
32.71147	45189
32.71960	42219
32.72772	43475
32.73583	42201
32.74397	40956
32.75208	41061
32.76022	39449
32.76833	41306
32.77645	40271
32.78458	36137
32.79270	37174
32.80083	37017
32.80895	34159
32.81707	38751
32.82520	39753
32.83332	35672
32.84143	37096
32.84957	40539
32.85768	39414
32.86582	37182
32.87393	38828
32.88205	37539
32.89018	38337
32.89830	38991
32.90643	42448
32.91455	40513
32.92267	39900
32.93080	37631
32.93892	40209
32.94705	41593
32.95517	39947
32.96328	37145
32.97142	39522
32.97953	41401
32.98765	47687
32.99578	46896
33.00390	55425
33.01203	56541
33.02015	57727
33.02827	53830
33.03640	47471
33.04452	52084
33.05265	43589
33.06077	43344
33.06888	48398
33.07702	50210
33.08513	46089
33.09327	50046
33.10138	51781
33.10950	55920
33.11763	57235
33.12575	59459
33.13387	62499
33.14200	46395
33.15012	47795
33.15825	44932
33.16637	44210
33.17448	42930
33.18262	40857
33.19073	46347
33.19887	43008
33.20698	40584
33.21510	42720
33.22323	39367
33.23135	40446
33.23947	41580
33.24760	37360
33.25572	38778
33.26385	45099
33.27197	38767
33.28008	42299
33.28822	43404
33.29633	41510
33.30447	39241
33.31258	39738
33.32070	38916
33.32883	39087
33.33695	39066
33.34508	43083
33.35320	41010
33.36132	40215
33.36945	42404
33.37757	41440
33.38568	41334
33.39382	42145
33.40193	42948
33.41007	36753
33.41818	41899
33.42630	39643
33.43443	37549
33.44255	35968
33.45068	37127
33.45880	39020
33.46692	39758
33.47505	37185
33.48317	36751
33.49130	39104
33.49942	39247
33.50753	40808
33.51567	39948
33.52378	40623
33.53190	39402
33.54003	46606
33.54815	44901
33.55628	47015
33.56440	45488
33.57252	47729
33.58065	44996
33.58877	42841
33.59690	41690
33.60502	38724
33.61313	40994
33.62127	39304
33.62938	41222
33.63750	41047
33.64563	42565
33.65375	42769
33.66188	41448
33.67000	39916
33.67812	43476
33.68625	41588
33.69437	41259
33.70250	41748
33.71062	38938
33.71873	38380
33.72687	37990
33.73498	38410
33.74312	39293
33.75123	37349
33.75935	39070
33.76748	37249
33.77560	38729
33.78372	42794
33.79185	40261
33.79997	36083
33.80810	39717
33.81622	38562
33.82433	37903
33.83247	38091
33.84058	37697
33.84872	39370
33.85683	43130
33.86495	40252
33.87308	37735
33.88120	40537
33.88932	43488
33.89745	38655
33.90557	41186
33.91370	40126
33.92182	44044
33.92993	38079
33.93807	38777
33.94618	43768
33.95432	41177
33.96243	40931
33.97055	42842
33.97868	39246
33.98680	40298
33.99493	43663
34.00305	43134
34.01117	42586
34.01930	45367
34.02742	42891
34.03553	44321
34.04367	46651
34.05178	45521
34.05992	43394
34.06803	47226
34.07615	44769
34.08428	44859
34.09240	44117
34.10053	50324
34.10865	46357
34.11677	49517
34.12490	52994
34.13302	57588
34.14115	52512
34.14927	52063
34.15738	55593
34.16552	58569
34.17363	57205
34.18175	56878
34.18988	56913
34.19800	55610
34.20613	56318
34.21425	58430
34.22237	53302
34.23050	53364
34.23862	51563
34.24675	51942
34.25487	50656
34.26298	55342
34.27112	52441
34.27923	53108
34.28735	48175
34.29548	50073
34.30360	48519
34.31173	48523
34.31985	52743
34.32797	49844
34.33610	48270
34.34422	47043
34.35235	53469
34.36047	46857
34.36858	49169
34.37672	48858
34.38483	48254
34.39297	48492
34.40108	48756
34.40920	43874
34.41733	48219
34.42545	44911
34.43357	43910
34.44170	46117
34.44982	40677
34.45795	48658
34.46607	42888
34.47418	44197
34.48232	44196
34.49043	47060
34.49857	43105
34.50668	48451
34.51480	51296
34.52293	49810
34.53105	58756
34.53918	60802
34.54730	62342
34.55542	65918
34.56355	66344
34.57167	64771
34.57978	64198
34.58792	60814
34.59603	59697
34.60417	53684
34.61228	60607
34.62040	59671
34.62853	53621
34.63665	51532
34.64478	52181
34.65290	51470
34.66102	48371
34.66915	50044
34.67727	55773
34.68538	50394
34.69352	49027
34.70163	54972
34.70977	51092
34.71788	48130
34.72600	48124
34.73413	46405
34.74225	47467
34.75038	45561
34.75850	48330
34.76662	46505
34.77475	50109
34.78287	50799
34.79100	47406
34.79912	50212
34.80723	50934
34.81537	50480
34.82348	45982
34.83160	45737
34.83973	47855
34.84785	50512
34.85598	53996
34.86410	49854
34.87222	52154
34.88035	50247
34.88847	49686
34.89660	52199
34.90472	53959
34.91283	52141
34.92097	54432
34.92908	53079
34.93720	54341
34.94533	57978
34.95345	55194
34.96158	55481
34.96970	62507
34.97782	62076
34.98595	61656
34.99407	54759
35.00220	59004
35.01032	52519
35.01843	54088
35.02657	52577
35.03468	54958
35.04282	53587
35.05093	48583
35.05905	55229
35.06718	49025
35.07530	49325
35.08342	46369
35.09155	45159
35.09967	49047
35.10780	45989
35.11592	45590
35.12403	46795
35.13217	48270
35.14028	45823
35.14842	52369
35.15653	50226
35.16465	49905
35.17278	44218
35.18090	48637
35.18903	46118
35.19715	48893
35.20527	47104
35.21340	44878
35.22152	45622
35.22963	46831
35.23777	51195
35.24588	44375
35.25402	44111
35.26213	45443
35.27025	44152
35.27838	46097
35.28650	46204
35.29463	44581
35.30275	45260
35.31087	47126
35.31900	42468
35.32712	44869
35.33525	42101
35.34337	42618
35.35148	43548
35.35962	44392
35.36773	42510
35.37585	46797
35.38398	43547
35.39210	43226
35.40023	43213
35.40835	46965
35.41647	48885
35.42460	45407
35.43272	50150
35.44085	43232
35.44897	46671
35.45708	47256
35.46522	49333
35.47333	50642
35.48145	49497
35.48958	49363
35.49770	44445
35.50583	47512
35.51395	46239
35.52207	43937
35.53020	48319
35.53832	48151
35.54645	49064
35.55457	44979
35.56268	43523
35.57082	46349
35.57893	45985
35.58707	46686
35.59518	44925
35.60330	45388
35.61143	47312
35.61955	44901
35.62767	44528
35.63580	45686
35.64392	44340
35.65205	50256
35.66017	52526
35.66828	47159
35.67642	46017
35.68453	48073
35.69267	48243
35.70078	47623
35.70890	46530
35.71703	45952
35.72515	49065
35.73327	46742
35.74140	44223
35.74952	46160
35.75765	50666
35.76577	50576
35.77388	46644
35.78202	50494
35.79013	51592
35.79827	49989
35.80638	47758
35.81450	47544
35.82263	48335
35.83075	46230
35.83888	47625
35.84700	47111
35.85512	50243
35.86325	47488
35.87137	44007
35.87948	46229
35.88762	45321
35.89573	45966
35.90387	46643
35.91198	49751
35.92010	46614
35.92823	44804
35.93635	46698
35.94448	49361
35.95260	46740
35.96072	45823
35.96885	48066
35.97697	45044
35.98510	43681
35.99322	44634
36.00133	48717
36.00947	47323
36.01758	51700
36.02570	48343
36.03383	46584
36.04195	48720
36.05008	47160
36.05820	49293
36.06632	45747
36.07445	49651
36.08257	50531
36.09070	51780
36.09882	46447
36.10693	45041
36.11507	43744
36.12318	46706
36.13130	50660
36.13943	49855
36.14755	47457
36.15568	45723
36.16380	48525
36.17192	48388
36.18005	46906
36.18817	49209
36.19630	45847
36.20442	48397
36.21253	44138
36.22067	48650
36.22878	45664
36.23692	45621
36.24503	45465
36.25315	46042
36.26128	47371
36.26940	49955
36.27752	47585
36.28565	53169
36.29377	52113
36.30190	55835
36.31002	60489
36.31813	57630
36.32627	54915
36.33438	55917
36.34252	55021
36.35063	49741
36.35875	47847
36.36688	47162
36.37500	48969
36.38313	47922
36.39125	45518
36.39937	53568
36.40750	48925
36.41562	47522
36.42373	46906
36.43187	47223
36.43998	47247
36.44812	47387
36.45623	49259
36.46435	48773
36.47248	47500
36.48060	47538
36.48873	50897
36.49685	48800
36.50497	56650
36.51310	50768
36.52122	52838
36.52933	56040
36.53747	53377
36.54558	50877
36.55372	57779
36.56183	50515
36.56995	51715
36.57808	50612
36.58620	54072
36.59433	48732
36.60245	53555
36.61057	50670
36.61870	51828
36.62682	52697
36.63495	55407
36.64307	53841
36.65118	52670
36.65932	56775
36.66743	52627
36.67555	50744
36.68368	55652
36.69180	52853
36.69993	52459
36.70805	49998
36.71617	53248
36.72430	52945
36.73242	54871
36.74055	53742
36.74867	50207
36.75678	52728
36.76492	58125
36.77303	52894
36.78115	55099
36.78928	51758
36.79740	50905
36.80553	54886
36.81365	53810
36.82177	52949
36.82990	47867
36.83802	54530
36.84615	52765
36.85427	50485
36.86238	49567
36.87052	51135
36.87863	49753
36.88677	53363
36.89488	50246
36.90300	52166
36.91113	48854
36.91925	50978
36.92737	53361
36.93550	56235
36.94362	58310
36.95175	60734
36.95987	62849
36.96798	68675
36.97612	67099
36.98423	63600
36.99237	65375
37.00048	60489
37.00860	60303
37.01673	58921
37.02485	50396
37.03298	54831
37.04110	53668
37.04922	53384
37.05735	53620
37.06547	52351
37.07358	56737
37.08172	55825
37.08983	51258
37.09797	55887
37.10608	53651
37.11420	53243
37.12233	52551
37.13045	55175
37.13858	50139
37.14670	55103
37.15482	50313
37.16295	55154
37.17107	54853
37.17918	52911
37.18732	49205
37.19543	54393
37.20357	54588
37.21168	50439
37.21980	54762
37.22793	49394
37.23605	51353
37.24418	47038
37.25230	53994
37.26042	55925
37.26855	53066
37.27667	50845
37.28480	54955
37.29292	52383
37.30103	53656
37.30917	50747
37.31728	58566
37.32540	61922
37.33353	61691
37.34165	67260
37.34978	69633
37.35790	72366
37.36602	68455
37.37415	72690
37.38227	68617
37.39040	64136
37.39852	62198
37.40663	64911
37.41477	64921
37.42288	56198
37.43102	61646
37.43913	62210
37.44725	63630
37.45538	57696
37.46350	61015
37.47162	64505
37.47975	62037
37.48787	60770
